TT I
1.2716486653135266 6.81451
1.2939594142134223 6.8895800000000005
1.3162702121660406 6.1992400000000005
1.3385810600174564 5.91785
1.3608919586137629 6.96662
1.383202908801069 6.56729
1.405513911425503 6.58626
1.4278249673332093 5.89539
1.4501343378461518 5.58134
1.4724455028545926 5.94135
1.4947567236847858 6.18802
1.517068001182951 6.1322
1.5393793361953272 5.65149
1.5616907295681737 5.77934
1.5840021821477681 5.22136
1.60631369478041 4.81611
1.6286252683124185 4.81696
1.6509369035901333 4.58343
1.6732468618895553 4.57792
1.695558623192809 4.69425
1.7178704487808514 4.45506
1.7401823395001077 4.522530000000001
1.7625012545597203 4.65196
1.7848028405262486 4.36456
1.8071218901122095 4.16193
1.8294236121921872 4.2798300000000005
1.8517427996910911 4.28608
1.8740620574440425 4.2554
1.8963639900671978 4.6647
1.9186833908139995 4.84595
1.9409854680117449 4.392530000000001
1.9633050151394713 4.60116
1.9856246367570705 4.49373
2.0079269371922672 4.24946
2.03024671027244 4.2420800000000005
2.0525491637446027 3.93225
2.074869091674931 4.02374
2.097171701569106 4.87079
2.1194917877373847 4.8981
2.141811954326636 4.8385
2.164114805233074 4.22968
2.186435135143035 4.62009
2.208738150935709 5.15414
2.231058647554722 7.5883199999999995
2.2533792288321184 6.80761
2.275682498336085 5.85652
2.298003251406138 5.48637
2.3203066942619714 5.65501
2.3426276225136022 5.7149
2.3649486396617507 5.25174
2.387252348930071 6.4248199999999995
2.4095735463442893 6.06856
2.4318774374315884 6.320180000000001
2.4541988185014043 6.8505199999999995
2.476502894794693 7.22498
2.498824462909887 7.498819999999999
2.521146125856138 7.36937
2.5434504863470337 7.3474
2.5657723414244717 8.65953
2.588076895590662 8.297930000000001
2.610398946189713 8.90279
2.6327210958598384 8.46699
2.6550259469304716 8.24122
2.6773482972090137 8.43714
2.6996533504259 8.98011
2.7219759047039602 9.11748
2.744298562293959 8.90537
2.7666039251246595 8.66035
2.7889267918020164 8.51341
2.8112323652516555 9.109169999999999
2.833555444408179 8.855780000000001
2.8558786311183852 8.11802
2.8781845268938557 8.6084
2.9005079311721484 9.31596
2.9228140460410397 8.59506
2.9451376712799635 9.391060000000001
2.967444008632326 9.77945
2.9897678582247247 9.89452
3.0120918213106695 10.2954
3.0343984987899373 10.3934
3.0567226913198637 10.9414
3.079029599759726 11.776
3.101354025127254 12.3765
3.123678568232338 13.6358
3.145985829517914 12.9613
3.16831061055229 13.5862
3.1906181112775593 14.0709
3.212943133635653 14.5143
3.2352682779763207 15.0488
3.2575761442691227 15.288
3.2799015350264273 15.0928
3.302209649240067 15.652999999999999
3.3245352898092655 16.1834
3.3468436553365257 16.4396
3.369169549113219 17.6891
3.3914955708171384 18.1872
3.413804319727358 17.993
3.4361305997334863 18.7104
3.4584396084414553 19.0998
3.4807661501462652 19.7709
3.503092824025881 20.0143
3.5254022288463154 20.0837
3.5477291695206588 20.7184
3.5700388426251948 21.5043
3.5923660534916446 21.6101
3.6146934007816114 22.8265
3.637003482731501 28.5946
3.6593311053109985 31.2512
3.681641464033634 27.3476
3.7039693653009733 24.1183
3.726297407241705 24.4336
3.7486081875460804 24.0476
3.7709365132734978 24.5489
3.793247578841633 24.8052
3.8155761917550093 25.0934
3.8378875459837216 25.5279
3.8602164494827234 26.3708
3.882545499606844 26.9398
3.9048572932539183 27.2683
3.9271866390645718 27.5562
3.9494987298666713 28.0012
3.971828374764527 29.006999999999998
3.9941581705403255 29.4032
4.016470713506008 29.6566
4.038800813471445 30.432
4.061113662089144 30.813000000000002
4.0834440696459176 31.8568
4.105774632334751 32.0463
4.128087945865126 32.0707
4.150418821249301 32.5839
4.172732448931298 33.2917
4.195063640413578 34.3464
4.2173775856475215 35.1543
4.239709096631102 37.7435
4.262040768704612 54.0126
4.284355196706267 66.7547
4.306687193387355 59.0582
4.329001947444346 44.9774
4.35133427213731 40.7658
4.373666762177566 40.3853
4.395982011761091 40.652
4.418314834921175 41.7487
4.44063041906622 42.7546
4.4629635787515625 44.9304
4.4852969080429785 45.8862
4.5076130004776225 45.8216
4.529946671403969 46.3698
4.552263106909177 47.0882
4.574597122877047 47.8597
4.596931312711224 49.485
4.619248269273446 49.84
4.6415828092605835 51.055
4.663900117405352 52.2044
4.686235010953232 53.6481
4.708552674085913 54.7728
4.730887924602802 56.0987
4.753223354952695 57.7682
4.775541557023902 58.7471
4.797877349456786 60.0902
4.820195915032126 61.7888
4.842532072957498 63.1778
4.864868414979744 65.5591
4.88718753227192 67.5598
4.909524244902505 68.9021
4.931843734218147 70.8048
4.954180820867835 73.2266
4.976518095879839 76.553
4.998838149695359 78.8878
5.021175803844231 82.1139
5.043496238205739 84.6926
5.065834274903528 88.1349
5.088172504230693 92.4421
5.1104935158799565 96.5805
5.132832132875765 104.14
5.155153533596801 116.603
5.1774925416746225 136.335
5.199814334878411 224.55599999999998
5.2221537374521505 725.947
5.244493338631803 2275.53
5.266815727034316 6967.98
5.289155727832427 13586.1
5.311478517248165 9794.54
5.333818921080011 3483.34
5.356159527788849 767.9839999999999
5.3784829252032536 241.355
5.400823940070432 154.491
5.423147747031976 126.26899999999999
5.445489173474152 114.645
5.467830807066149 108.464
5.490155234831516 104.17399999999999
5.512497285125229 100.141
5.534822130975162 98.6894
5.557164601388673 97.0
5.579489868738879 93.9193
5.601832762690846 92.67299999999999
5.6241758697774475 91.3024
5.646501775867269 90.4011
5.668845311622074 89.9995
5.691171647754637 89.0302
5.713515615597765 87.7379
5.735859800852677 86.8395
5.758186788542988 85.9948
5.780531411018185 85.7187
5.802858837297399 85.6909
5.825203900414495 85.3033
5.8475491852224 85.7556
5.869877275883075 85.5129
5.892223006467101 86.6956
5.914551544266608 87.23299999999999
5.936897724049891 89.5538
5.959244129804903 93.1082
5.981573344815301 104.118
6.0039202049061 156.292
6.026249875609095 352.69199999999995
6.04859719346037 788.903
6.070927323278297 1940.88
6.093275102315365 4340.03
6.115623113320588 5719.72
6.137953938319995 3516.06
6.160302415650845 1055.75
6.182633708324452 244.283
6.2049826554078376 110.001
6.227331838745022 86.7729
6.249663839443684 79.4881
6.27201349767565 75.3979
6.294345974611799 73.314
6.316696111167083 72.4367
6.339046488263839 71.4624
6.361379686074702 68.3414
6.383730546639482 65.7613
6.406064229255215 63.7545
6.428415576718203 63.9514
6.450749747566656 63.0251
6.47310158535871 61.6908
6.495453669698332 61.4872
6.517788579421056 60.6118
6.540141159237969 59.458999999999996
6.562476565766648 59.0714
6.5848296444934045 58.6229
6.607182974060425 58.1039
6.6295191323281015 57.4843
6.651872965955752 56.9746
6.6742096296068985 58.4028
6.6965639707294615 62.9549
6.71891856698715 64.5104
6.741255995248479 60.1092
6.763611104154477 56.3167
6.785949046381137 55.0657
6.808304671371482 53.8107
6.8306605557940046 53.7823
6.852999275508618 53.31
6.875355681171544 53.3561
6.897694923437771 52.7952
6.92005185377892 52.8669
6.9423916220322655 52.7784
6.964749080490181 52.1004
6.987106804399774 51.8195
7.009447368180821 51.5832
7.031805625367033 51.6036
7.054146723727803 51.8705
7.076505517631004 51.6207
7.098864581288365 51.6882
7.121206488070854 51.8205
7.143566093607822 51.4852
7.165908543567245 51.39
7.188268694426048 50.9468
7.2106291193438095 50.7311
7.232972390625943 51.0265
7.255333366030969 51.621
7.277677189091925 56.0241
7.300038718428332 62.7576
7.322400526130865 62.6506
7.344745183422596 56.6523
7.367107550224791 52.4887
7.389452767901992 51.4217
7.411815697249891 51.3035
7.434161478756298 50.8379
7.456524974096713 51.0826
7.478888753837185 51.8238
7.501235387657368 53.9201
7.523599738562711 63.153
7.545946944825532 79.6573
7.568311870344528 85.8974
7.5906770845765665 73.84899999999999
7.613025156078678 59.8364
7.635390950099687 54.1322
7.657739602662809 52.778999999999996
7.680105979923558 52.4421
7.702472650212829 52.5872
7.724822180948224 52.7153
7.747189439655568 52.8281
7.769539560075357 52.8231
7.791907410653562 53.0637
7.81425812420825 53.3236
7.836626570110925 53.2769
7.858995315087906 54.2615
7.881346924933401 54.4222
7.903716270417482 54.9377
7.926068482028405 55.0346
7.948438431475253 55.6882
7.9708086843180235 56.3191
7.993161805171116 56.6397
8.015532667162402 56.7442
8.037886398416653 58.0548
8.060257873014221 58.2044
8.082629655331942 59.1612
8.104984308787587 59.3082
8.127356708900503 60.0888
8.149711981398308 61.6652
8.172085002766314 62.7185
8.194458336181368 63.4542
8.216814543847752 63.7148
8.23918850371002 64.9161
8.26154533906492 65.6088
8.283919928836452 67.1398
8.306277395339652 68.5063
8.328652618483376 69.4455
8.351028159736202 71.0833
8.373386579575245 73.1774
8.395762759396959 74.3364
8.418121819038275 76.5665
8.440498640894003 79.9468
8.462875785192262 84.8953
8.485235811156207 92.7375
8.507613602688501 123.806
8.529974277114228 210.225
8.552352719347912 328.86400000000003
8.574731488360351 561.1619999999999
8.59709314210385 1042.56
8.619472567021075 1829.38
8.64183487789147 2298.29
8.664214962183097 1988.54
8.686577933647762 1112.68
8.708958680784317 436.06699999999995
8.731339760774953 179.669
8.753703729764451 110.02600000000001
8.77608547780821 94.6531
8.798450116065078 90.2209
8.820832535634787 87.2676
8.843215292401656 86.126
8.865580941199045 84.6647
8.887964374703538 83.59200000000001
8.910330701447199 82.773
8.932714815164482 82.3478
8.955099270424924 81.596
8.977466620733543 80.8094
8.999851761421976 79.9783
9.022219798361645 79.3375
9.04460562795561 79.4221
9.066991803441677 79.4792
9.089360876979615 79.055
9.111747746589993 78.9336
9.13411751544971 78.5144
9.156505082664324 78.5166
9.178875550323522 79.4311
9.20126381862328 83.7246
9.223652438908596 99.1558
9.246023961427412 124.755
9.26841328802173 134.916
9.290785518039224 118.34299999999999
9.313175554425882 95.632
9.335565947154315 83.18
9.357939245086508 80.2555
9.380330352834827 79.4157
9.40270436697103 79.1491
9.425096193225055 79.0999
9.447488380180165 79.7128
9.469863475295412 79.8659
9.492256385987508 80.1255
9.514632206018318 80.6458
9.537025843935714 80.7066
9.559402392368193 81.418
9.581796761000229 82.6123
9.604191496441521 82.9236
9.626569144158516 83.4117
9.648964615551032 84.34
9.671343000390081 85.7697
9.693739211225699 86.5319
9.716135793237463 86.6968
9.738515290448102 87.353
9.760912617143402 88.1958
9.783292860202891 89.4564
9.805690935076182 90.4562
9.828089385495742 91.0942
9.850470754023561 92.8379
9.872869957865444 94.625
9.89525208097539 97.35700000000001
9.917652041736662 101.315
9.940052382417589 104.87899999999999
9.962435644102392 113.035
9.984836746950979 141.345
10.007220771957746 209.225
10.029622640473708 310.518
10.052007432299963 461.17400000000004
10.074410069984072 715.582
10.096813093716005 1147.57
10.119199042482517 1720.17
10.141602840636468 2067.81
10.163989564971628 1695.49
10.186394141051062 1015.02
10.208799107559706 458.764
10.231187001965623 207.365
10.253592751657669 125.853
10.275981430388155 106.965
10.298387966769793 102.07700000000001
10.320794897965431 100.82799999999999
10.343184759907361 99.4768
10.36559248305461 97.9197
10.387983138083852 96.39399999999999
10.410391656691655 97.6298
10.432800574501677 105.338
10.455192425893369 123.126
10.47760214443012 149.276
10.499994797678786 186.53400000000002
10.522405320453982 252.22299999999998
10.54479877906917 364.895
10.567210109595656 489.89
10.5896218454736 577.234
10.612016518879773 528.9680000000001
10.634429067781074 375.33099999999996
10.656824555333241 221.778
10.679237920773568 140.675
10.701651695961992 108.154
10.724048411481384 96.2592
10.746463008485165 87.912
10.768860546937125 82.6567
10.791275969274796 79.3651
10.81369180576079 78.0851
10.836090585366925 76.8437
10.858507252467449 75.507
10.88090686379991 74.4003
10.903324365036394 73.5696
10.925724811614439 72.6864
10.948143150509463 72.6691
10.970561909719066 71.8982
10.992963615930844 70.9114
11.015383218085756 69.9833
11.037785768347074 69.0261
11.06020621697282 68.5318
11.082627090322113 68.2515
11.105030913430326 67.4228
11.12745263854165 66.9831
11.149857314510728 66.3377
11.172279894912576 66.9311
11.194702904450653 66.4085
11.217108866490921 65.438
11.239532736615194 65.0178
11.26193956033512 64.5205
11.284364294577085 64.0458
11.306789462371718 63.422
11.329197585398376 63.0238
11.351623622610898 63.0845
11.37403261614354 62.3162
11.396459526308487 62.313
11.418869393879497 61.869
11.441297180532617 61.451
11.463725406927658 61.0324
11.486136592353875 60.7163
11.508565700543707 60.6105
11.530977768845315 60.6514
11.553407762368774 60.3115
11.575838200059769 60.5478
11.598251599479612 60.0041
11.620682927815501 59.9429
11.64309721895548 59.8421
11.665529441478206 59.7028
11.687962112597958 59.2029
11.710377748130886 59.6464
11.732811318753434 59.5587
11.755227854859067 59.2864
11.777662328529495 59.0344
11.800079768750786 59.1888
11.822515149015453 59.1042
11.844950984084935 59.6962
11.867369787303163 59.3372
11.889806534289491 60.0812
11.912226250487029 62.9544
11.934663912939751 68.1004
11.9571020346363 72.8878
11.979523127133968 73.1839
12.001962169624331 69.7764
12.024384183972964 65.2274
12.046824150809913 64.1327
12.069264581333726 67.6916
12.091687985297767 73.3391
12.11412934550045 81.5171
12.136553680195208 93.6626
12.158995973632788 114.75
12.181438735204349 141.566
12.20386447284199 172.21
12.226308172985636 200.52700000000002
12.24873485024193 202.11599999999999
12.271179492516982 170.63
12.293607112949127 130.244
12.316052700916226 94.1031
12.338498763250042 72.50399999999999
12.360927805303868 63.8479
12.383374818673879 61.3821
12.405804812803074 60.556999999999995
12.428252780773262 60.3351
12.45070122756722 60.3212
12.473132656675375 60.4844
12.49558206341869 60.4732
12.518014453510101 60.6786
12.540464823770117 60.6678
12.562915677315177 60.7508
12.58534951575545 61.1223
12.607801338171472 60.8813
12.630236146511358 61.7511
12.652688941369085 62.7583
12.675124723177234 63.4126
12.697578494048786 63.4031
12.720032754458185 63.1151
12.742470003354093 63.1125
12.764925245138771 63.4612
12.787363476431278 63.746
12.809819703166806 64.2984
12.83227642391173 65.0497
12.854716135692716 65.4981
12.877173846755147 66.4716
12.899614549869717 66.6639
12.9220732548287 67.7566
12.94453245827299 67.9584
12.966974655289818 68.8873
12.989434858002571 69.8401
13.011878055298721 70.5815
13.034339260862497 71.6042
13.056800969391883 73.0709
13.079245674017244 75.9006
13.101708390774869 77.9525
13.12415410463411 81.89
13.146617833206086 90.6062
13.169064559883248 102.821
13.191529303857127 117.459
13.213994557076367 136.572
13.236442809902437 167.425
13.258909083908291 216.801
13.28135835851934 281.858
13.30382565690295 359.897
13.326293469022952 424.759
13.348744283242008 439.50199999999995
13.371213125129904 375.536
13.39366497011003 278.572
13.416134845360597 185.582
13.438605238843131 127.471
13.46105863690397 101.26299999999999
13.483530069144786 96.9866
13.505984506951902 103.221
13.528456981549432 113.839
13.550929978879088 127.45100000000001
13.573385983253365 146.725
13.595860028340867 178.36900000000003
13.618317081455832 227.793
13.64079217790333 289.468
13.663250283359057 352.534
13.685726434770173 386.05300000000005
13.708203115221277 360.85900000000004
13.730662806148091 282.44599999999997
13.75314054697177 202.917
13.775601299246777 137.804
13.798080104050406 99.6154
13.820559442405358 83.9131
13.843021793671388 78.7248
13.865502201420897 76.5011
13.887965623051947 75.9758
13.910447103807167 75.0613
13.932929122629764 73.8548
13.955394156785959 73.398
13.977877254034569 72.63
14.000343367582113 71.9287
14.022827546871707 71.281
14.045294743423524 70.5473
14.06778000837062 70.2343
14.090265817715476 70.7743
14.112734645763819 72.3378
14.13522154619454 75.4723
14.157691466286913 78.5602
14.180179461423874 78.9487
14.202668005486178 75.7357
14.22513957064374 71.8521
14.247629214846473 68.9214
14.270101881097517 67.5894
14.29259262906496 66.7831
14.315083930490205 66.6178
14.337558255389705 66.465
14.360050666019726 66.3625
14.382526101071944 66.3162
14.405019624534942 65.7989
14.427513705993134 65.5005
14.449990813291825 65.4867
14.47248601302899 65.3628
14.49496423954951 65.5735
14.517460561197822 65.6985
14.539939910570322 65.3337
14.562437357763558 65.4539
14.58493536931253 65.6432
14.607416409993311 65.6458
14.62991555254159 66.1583
14.652397725157423 66.4503
14.674898002342799 66.7012
14.697398848433282 66.5226
14.719882725991326 67.3418
14.74238471217934 67.5659
14.764869730765593 69.2868
14.787372860692983 72.696
14.809876564079925 78.4144
14.83236330125751 84.92299999999999
14.854868153850365 92.5572
14.877356041159485 104.208
14.899862046604186 119.45700000000001
14.922351087688757 142.995
14.944858249632887 174.87
14.967365991421232 204.801
14.989856770231246 226.502
15.012365673994204 224.547
15.03485761569738 198.628
15.05736768508665 158.28
15.07987833888692 123.039
15.102372032001655 93.9258
15.124883856909658 77.3612
15.14737872204565 70.7431
15.169891721717274 68.3189
15.192405310371893 67.2361
15.214901940621196 66.5482
15.237416709527137 65.8017
15.259914520936249 65.5403
15.282430473753607 64.7456
15.304947020131227 64.142
15.327446610371178 63.8177
15.349964346154254 63.5402
15.372465126703139 63.4265
15.394984055556009 63.242
15.417486030076159 63.2075
15.44000615566487 62.8176
15.462526881230803 62.6307
15.485030653812652 62.6551
15.507552581617434 62.3566
15.530057557334603 62.2527
15.55258069104857 62.372
15.575104429329837 62.8309
15.597611216864632 62.5856
15.620136166564563 62.6092
15.6426441664095 62.8322
15.665170331202765 64.0433
15.687697105158826 66.8659
15.710206930593545 71.2535
15.732734925158933 75.8781
15.755245972089478 81.7089
15.77777519094324 89.2848
15.800287463046663 100.63
15.822817909869592 117.667
15.84534897229804 139.923
15.867863089299354 166.852
15.890395385222186 189.459
15.912910736597423 202.72
15.935444269699861 193.248
15.957978423016485 169.791
15.980495633101265 133.828
16.003031029129367 103.03
16.02554948280019 80.8633
16.048086125229432 69.7671
16.070623392487107 65.2785
16.09314371869582 63.2911
16.11568223789321 61.5189
16.13820381691126 59.7217
16.160743591742527 58.6251
16.183283996022084 57.7695
16.205807461423195 56.6339
16.228349126881973 56.1491
16.25087385432698 56.0085
16.27341678466365 55.5545
16.29594277784926 55.3889
16.31848697676433 55.0575
16.341031811604868 54.5409
16.36355971058487 54.5194
16.3861058195587 54.3556
16.40863499352978 53.7491
16.431182380342005 53.6302
16.453730407713202 53.3568
16.476261501364792 52.9144
16.498810812136167 52.6776
16.52134319004079 52.8055
16.54389378792203 52.5909
16.566445031001553 52.4892
16.588979342490088 52.3753
16.61153187824822 52.4985
16.634067483263312 52.3767
16.656621315414416 52.0677
16.679175797408888 51.8791
16.701713349928728 51.7367
16.72426913389191 51.9358
16.74680798922351 51.9496
16.76936507887444 52.0621
16.791905240734874 51.9978
16.814463639794468 52.0366
16.837022695210294 52.0539
16.859564824093756 52.0089
16.882125194503903 52.5847
16.904668639217885 53.3784
16.927230328348003 53.6182
16.949792678493612 54.1557
16.972338104193863 54.1824
16.994901778652235 53.7064
17.017448529496576 53.208999999999996
17.040013531998152 52.9968
17.06257920018044 53.2948
17.0851279459922 53.9127
17.107694947817667 54.9069
17.130245028099072 55.7301
17.15281336730298 57.0373
17.17536478578733 58.6321
17.19793446610687 60.3714
17.220504818648422 63.1121
17.243058251703697 66.0593
17.265629950971032 71.1925
17.288184731571736 76.8714
17.310757781306908 81.4487
17.33333150794385 83.0553
17.355888317140174 81.642
17.37846339986244 77.1778
17.401021565958885 71.1539
17.42359800851343 64.7011
17.44617513265564 60.6228
17.468735341390783 58.045
17.491261035594565 56.768
17.51396340099364 56.1849
17.536490463869136 56.1618
17.559018209820174 56.2471
17.58154663977963 56.3488
17.604251766089718 56.6089
17.626781572227713 56.5975
17.64931206518155 56.7843
17.671843245885103 57.3823
17.69455114821572 57.4575
17.717083712612634 58.1596
17.739616967569667 58.8072
17.762150914021706 59.3765
17.78486160749854 59.8299
17.807396945166804 60.4125
17.829932977143503 60.3684
17.85246970436452 60.9541
17.875183204129467 62.4193
17.897721330097664 64.679
17.920260154126645 67.2782
17.942799677153296 70.3674
17.9655159983646 73.6466
17.988056927677544 78.1116
18.010598558807683 85.0239
18.033140892692916 94.1705
18.05586005052525 105.711
18.07840379824407 118.374
18.10094825154059 130.476
18.12366954819864 140.096
18.146215420998306 143.20600000000002
18.16876200220057 137.251
18.191309292745153 123.164
18.214033452627167 107.792
18.236582170236648 94.5238
18.259131600016456 86.4053
18.281681742907335 83.9469
18.304408781233683 86.8118
18.32696035875955 92.3831
18.349512652227624 97.8024
18.372065662579683 104.03200000000001
18.394795594587553 105.762
18.41735004715306 103.96799999999999
18.43990521943684 98.0779
18.46246111238171 88.5895
18.485193953325208 78.3883
18.507751296070428 70.3261
18.530309362314178 65.1558
18.552868153000343 62.4761
18.57560391815056 60.8849
18.59816416623245 60.3466
18.620725141597372 59.6186
18.643286845190268 58.7606
18.666025549835414 58.1844
18.688588718427933 57.4356
18.711152618092243 57.3502
18.73389353884365 57.0544
18.75645890921984 56.6645
18.77902501351406 56.3095
18.801591852673102 56.3279
18.824335739722738 55.5565
18.846904057212626 55.74
18.8694731124168 55.4743
18.89204290628315 55.4906
18.914789774966803 55.3076
18.937361054791623 55.0365
18.959933076131318 54.4562
18.982505839934877 54.5462
19.00525570560582 54.8194
19.027829963004184 54.4633
19.05040496572238 54.4017
19.072980714710468 54.2407
19.095733592739563 54.3702
19.11831084296757 54.3206
19.140888842324735 54.9621
19.16346759176222 55.1983
19.18622349753803 55.8649
19.208803755869358 56.5294
19.231384767143577 58.0255
19.253966532312948 59.3174
19.276725481241822 61.4558
19.29930876296784 64.5472
19.3218928014549 68.1614
19.34465404436217 71.74
19.36723960516257 74.4844
19.389825925592426 75.8204
19.412413006605938 74.9196
19.43517731967805 71.8238
19.457765930683355 67.5856
19.48035530514408 62.8225
19.50294544401556 58.7431
19.525712842708348 55.2908
19.54830451925909 53.7088
19.570896963095727 52.3515
19.593490175174704 51.805
19.616260674962184 51.705
19.638855432416964 51.3967
19.661450960992624 51.3337
19.68404726164677 51.1812
19.706820878021247 51.088
19.729418731756834 51.3137
19.752017360452857 51.251000000000005
19.77461676506804 51.3256
19.797393513540218 51.1198
19.819994478951667 51.269
19.84259622316767 51.6968
19.8651987471481 52.147
19.887978643247177 52.678000000000004
19.91058273574792 52.9987
19.933187610901943 53.818000000000005
19.955969879466828 54.8833
19.97857632894404 56.0203
20.00118356396599 57.6802
20.023791585494575 59.8115
20.046577028914875 62.8883
20.069186632506966 65.5682
20.091797025500632 68.0984
20.114408208858933 69.4505
20.137196842715273 69.5972
20.159809615886765 68.2238
20.18242318232135 65.5596
20.20503754298326 63.0102
20.227829382875154 61.1952
20.250445341109344 60.6129
20.27306209647285 61.0439
20.29567964993108 62.582
20.31847471147704 63.5508
20.34109387027612 64.6322
20.363713830075454 64.5357
20.386334591841646 63.6635
20.409132890679302 61.0509
20.431755265564437 57.6096
20.454378445325528 54.6647
20.477002430930366 52.2318
20.499803982716553 50.4598
20.522429589228004 49.4292
20.54505600449589 48.8632
20.567683229489194 48.7251
20.590488049900088 48.498999999999995
20.61311690359731 48.0178
20.63574656993626 48.1447
20.658553853717297 47.7085
20.681185154618298 47.6231
20.703817271080066 47.6642
20.72645020407368 47.2913
20.749260783967177 47.5073
20.771895359337133 47.6357
20.794530754161617 47.5303
20.817166969412938 47.4627
20.83998086114876 47.4289
20.86261872660049 47.18600000000001
20.885257415405402 47.1752
20.90789692853701 46.8119
20.930714147864748 46.6613
20.953355319030678 46.6202
20.97599731745334 46.653999999999996
20.99864014410749 46.5636
21.021460706796564 46.739
21.044105199328826 47.0062
21.06675052302631 47.1326
21.089396678865015 47.2237
21.112220600704806 47.3641
21.134868430275347 47.7084
21.15751709492456 47.9366
21.180166595629693 48.254
21.202993892429635 48.7504
21.22564507473034 49.4385
21.24829709602816 49.7006
21.27112693608965 49.8096
21.293780644891275 49.7806
21.316435195634053 49.3193
21.339090589297417 48.5619
21.361923832041875 48.1625
21.384580921090404 47.3049
21.407238856007325 46.6193
21.429897637773326 46.4018
21.45273429906592 46.5494
21.475394784108598 46.5947
21.498056118951983 46.5673
21.520718304578022 46.6684
21.543558400304388 46.7377
21.566222297108816 46.8483
21.58888704765135 46.8136
21.61155265291521 47.1393
21.63439619898156 47.7693
21.657063523335786 47.8959
21.67973170537063 48.5447
21.7024007460706 48.9846
21.72524775840385 49.6471
21.747918526116475 50.57899999999999
21.770590155457388 51.7111
21.79326264741238 52.9887
21.816113141960237 54.8475
21.838787368860547 56.9214
21.861462461341976 59.0555
21.884315579735777 61.715
21.90699241312273 63.3919
21.92967011506078 64.3089
21.95234868653799 64.1659
21.9752053151131 63.2997
21.997885635446785 61.2564
22.020566828293532 58.95
22.04324889464272 56.8423
22.066109049404666 55.6867
22.088792872571794 55.1733
22.111477572219204 55.2921
22.1341631493376 55.3514
22.157026846313123 55.4016
22.179714188221507 54.9875
22.202402410582668 53.763000000000005
22.22509151438863 52.0335
22.24795876962584 50.4842
22.270649646204486 49.3128
22.293341407213727 48.4663
22.316034053646906 47.8809
22.338904883215342 47.2967
22.36159931041458 47.1175
22.38429462602756 47.062
22.40699083104897 46.906000000000006
22.429865251039757 46.7743
22.452563244831367 46.6676
22.47526213102522 46.9126
22.49813925616515 46.968999999999994
22.520839937143307 46.7462
22.543541513520587 46.7935
22.56624398629403 46.6301
22.589124730075895 46.7461
22.611829005656723 46.8394
22.63453418063466 46.8617
22.657240256008077 46.9752
22.680124634582935 47.1811
22.70283252079775 47.5867
22.725541310413075 47.9304
22.74825100442868 48.196999999999996
22.771139033969575 48.7985
22.79385054687155 48.9176
22.81656296718292 49.5071
22.83927629590484 50.3235
22.862167992606945 51.3429
22.88488314827121 52.3391
22.907599215359284 53.7023
22.93031619487366 54.9137
22.953211574954405 56.0225
22.975930389478226 56.9177
22.998650119445763 57.2516
23.02137076586092 56.7552
23.044269845560063 55.7347
23.06699233506288 53.92100000000001
23.089715744034912 52.0434
23.112617610931565 50.3683
23.135342869061212 49.0496
23.158069049684816 48.0135
23.1807961538087 47.2846
23.20370174880544 47.1842
23.226430710184808 47.1159
23.249160598093425 46.9093
23.271891413539002 46.8952
23.294800752937697 46.9674
23.31753343374794 47.3269
23.340267045128353 47.5792
23.36300158808808 48.0783
23.38591468821339 48.5369
23.408651104658304 48.9634
23.431388455719986 49.5539
23.454126742409 50.2192
23.4770436196085 51.2923
23.499783787914662 52.4903
23.522524894889884 53.6157
23.54526694154616 55.0271
23.56818761219047 56.5785
23.59093154860734 57.2841
23.613676427751283 58.0075
23.636422250635754 57.2734
23.659346731118656 55.9061
23.68209445191868 53.9107
23.704843119509587 51.528
23.72759273490623 49.5067
23.750521041644767 47.6118
23.77327256312355 46.2463
23.796025035462787 45.2391
23.818956224555475 44.6266
23.841710609113413 44.5121
23.86446594758979 44.3618
23.887222241002014 44.1038
23.910157285144578 43.7279
23.932915498962537 43.6887
23.955674670778713 43.5383
23.978434801611975 43.343999999999994
24.001373717286125 43.2262
24.024135776723917 43.1731
24.046898798245582 43.0571
24.06966278287146 42.9415
24.092605586582614 42.6941
24.115371508023642 42.6198
24.1381383956401 42.3932
24.16090625045381 42.4766
24.183852958731244 42.3392
24.206622758582608 42.2671
24.229393528706886 42.0649
24.252165270127392 42.2467
24.27511589952438 42.1463
24.297889594216997 41.8903
24.32066426328598 41.7727
24.34343990775613 41.6983
24.36639447485003 41.6664
24.38917208083877 41.6261
24.41195066531332 41.6628
24.43490819850244 41.6487
24.457688750692377 41.5713
24.48047028445616 41.4223
24.503252800821233 41.396
24.526214300784112 41.5461
24.548998793132213 41.6074
24.57178427117417 41.5306
24.59457073593893 41.6231
24.617536219319863 41.7044
24.64032466834748 41.6041
24.663114107195035 41.48
24.685904536893013 41.2515
24.708874020360852 41.1259
24.731666442613744 41.0271
24.754459858818787 40.8195
24.777254270007962 40.816
24.80022777025625 40.7297
24.82302418230472 40.7176
24.845821592443674 40.7407
24.86862000170663 40.6387
24.891597535453727 40.6343
24.914397953892728 40.7306
24.93719937456671 40.5992
24.96000179851076 40.838
24.98298338249997 41.0165
25.00578782394922 41.1921
25.028593271784167 41.4168
25.05157790644186 41.898999999999994
25.07438537804115 42.0496
25.097193859145293 42.2446
25.120003350792075 42.5101
25.142992065061257 42.9691
25.165803588823465 43.1725
25.18861612625217 43.4608
25.211429678386736 43.6573
25.234422489079968 43.711999999999996
25.257238081693636 43.7373
25.280054692141732 44.0624
25.3028723214652 44.0127
25.325869245420463 44.1101
25.348688923599397 44.042
25.371509623787006 43.9438
25.394331347025812 43.9306
25.41733240110666 43.3062
25.440156181590016 42.7337
25.46298098826268 42.1804
25.48580682216873 41.5473
25.50881202326435 40.8119
25.53163992281684 40.4147
25.55446885274561 39.9446
25.577298814096377 39.6988
25.600308179121807 39.5445
25.623140214533745 39.5939
25.64597328451537 39.4756
25.66898578564376 39.1539
25.691820936010206 39.266999999999996
25.714657124097695 39.1729
25.737494350954734 39.1899
25.760511045684957 38.9937
25.783350361364224 39.2533
25.806190718969255 39.2153
25.82903211955018 39.2878
25.852053024868923 39.2847
25.874896522722523 39.2965
25.897741066713106 39.297
25.920586657892454 39.3011
25.943611790812668 39.4005
25.966459487728237 39.6732
25.989308234998564 39.5341
26.01215803367705 39.9915
26.03518741123814 40.2129
26.05803932412957 40.4462
26.080892291600094 40.4285
26.10374631470478 40.6204
26.12677995397268 40.7953
26.14963609978026 40.7253
26.172493304397875 40.3805
26.19535156888223 40.3197
26.218389486949604 39.8513
26.241249882640123 39.5673
26.26411134137826 39.2567
26.28715248187403 39.0134
26.31001607820869 38.907
26.3328807407756 38.659
26.35574647063438 38.9187
26.37879191991473 38.7457
26.401659795896734 38.8184
26.424528742360263 39.0321
26.447398760366614 39.2073
26.470448535598294 39.2324
26.49332070826805 39.4173
26.516193955675355 39.7591
26.53906827888316 39.9517
26.562122397260108 40.1403
26.584998883685063 40.650999999999996
26.607876449110325 40.8729
26.63075509460056 41.1282
26.65381357334404 41.4216
26.67669439061878 41.3226
26.699576291163382 41.3087
26.722459276044212 41.2159
26.745522132402975 41.0173
26.768407297649354 40.6971
26.791293550442003 40.1552
26.814180891848974 40.0188
26.837248143099337 39.551
26.860137673466657 39.5336
26.88302829566349 39.2351
26.90592001075963 39.0431
26.92899167420566 39.0544
26.951885586870763 38.5713
26.974780595655517 38.381
26.99785558178161 38.1827
27.020752794605112 37.9324
27.043651106772522 37.8268
27.06655051935668 37.6999
27.089629948036183 37.549
27.112531573292053 37.5628
27.135434302194138 37.6026
27.158338135817015 37.2379
27.181422024430987 37.381
27.204328079372566 37.3626
27.22723524226965 37.4916
27.250143514198573 37.4842
27.273231880156334 37.3785
27.296142382065014 37.2279
27.319053996245536 37.1522
27.341966723775965 37.2203
27.365059584515222 37.247
27.38797455070062 37.3494
27.410890633481237 37.3178
27.433807833936918 37.3339
27.456905206923906 37.3979
27.47982465472398 37.4299
27.502745223449743 37.5645
27.525666914182825 37.6391
27.548768816912457 37.5588
27.571692763693633 37.4816
27.59461783573812 37.4028
27.617723149491244 37.2098
27.640650484125285 37.1462
27.66357894728264 37.0383
27.686508540048052 37.0319
27.709618414237887 37.0646
27.732550278321757 36.7859
27.755483275279115 36.7293
27.778417406196485 36.7887
27.801531858397514 36.906
27.824468269376716 36.7112
27.847405817586786 36.5748
27.870344504116094 36.8346
27.893463551932008 36.9525
27.916404527281053 37.1666
27.93934664422563 37.2825
27.962289903855886 37.4101
27.98541356491974 37.6998
28.00835912214229 37.9836
28.03130582533231 38.2674
28.054253675581805 38.4371
28.077381967556104 38.3143
28.100332124185126 38.2983
28.123283431160893 38.2503
28.146235889577238 38.0748
28.169368830154156 37.9659
28.192323603752033 37.9281
28.215279532083304 37.5176
28.238415973016764 37.2712
28.261374223145094 37.1009
28.284333631303806 36.9026
28.307294198589954 36.7892
28.330435319167677 36.3903
28.353398217078915 36.0798
28.376362277420153 35.8562
28.39932750129032 35.6951
28.422473319286713 35.3755
28.44544088262495 35.2964
28.468409612800283 35.2253
28.491379510913497 35.1101
28.51453004413313 34.9412
28.53750229057244 34.8118
28.56047570826344 34.8985
28.583450298308804 34.816
28.606605564586562 34.6404
28.629582511831156 34.7006
28.65256063474956 34.571
28.675539934446338 34.6999
28.698699951647605 34.7047
28.72168161743193 34.4371
28.74466446331978 34.4986
28.767648490417624 34.3734
28.790813276438353 34.381
28.813799678527303 34.3418
28.836787265157085 34.4325
28.859955641890075 34.3622
28.882945610203045 34.3043
28.905936766392035 34.1611
28.928929111566863 34.2449
28.952102288520145 34.2896
28.975097024308607 34.3043
28.998092952423807 34.1189
29.021090073977508 33.8898
29.04426806913204 33.8304
29.067267590245258 33.6841
29.090268308143695 33.635
29.11327022394099 33.5846
29.13645305530891 33.4548
29.159457379627167 33.3931
29.18246290519685 33.2024
29.20546963313352 33.2319
29.22865731875826 33.3375
29.25166646419296 33.3433
29.27467681535305 33.1909
29.29768837335608 33.2793
29.320880931312562 33.2743
29.34389491580634 33.2515
29.366910110507334 33.2605
29.38992651653503 33.281
29.41312396492981 33.2719
29.436142806456754 33.1773
29.45916286268059 33.1823
29.48236399319994 33.0916
29.50538649169417 32.8924
29.528410208259935 32.8938
29.55143514402014 32.5946
29.574641196749695 32.5756
29.597668583816574 32.3816
29.6206971934585 32.1736
29.64372702680042 32.1468
29.666938019934474 32.0934
29.689970313635285 31.9378
29.713003834422636 31.9263
29.73603858342347 31.845
29.759254535188578 31.8369
29.78229175361658 31.7182
29.80533020365064 31.8448
29.82836988641968 31.8306
29.85159081507472 31.7545
29.874632976355343 31.71
29.89767637376955 31.8139
29.920721008448314 31.6285
29.9439469322847 31.6397
29.96699405457564 31.5528
29.9900424175358 31.5593
30.013092022298157 31.4681
30.03632295963995 31.5197
30.059375061131373 31.5874
30.08242840783577 31.5883
30.105483000888153 31.5522
30.128718970092244 31.5067
30.151776069006917 31.4763
30.17483441768648 31.4112
30.198074175317235 31.4462
30.221135036724256 31.5484
30.24419715131772 31.4794
30.267260520236203 31.4444
30.290505341942243 31.3752
30.313571232750228 31.4679
30.336638381310948 31.4061
30.35970678876503 31.3509
30.38295669299435 31.3287
30.40602763151657 31.3388
30.429099832366074 31.2358
30.452173296685572 31.1218
30.47542830191959 31.1317
30.498504306502497 31.1458
30.521581577995562 31.1466
30.544660117543582 31.1406
30.56792024229725 31.2911
30.59100133132069 31.2454
30.614083691845494 31.2799
30.637167325018545 31.3647
30.660432587840603 31.396
30.683518779717886 31.3427
30.70660624769615 31.4546
30.729694992924372 31.478
30.75296541239743 31.4478
30.77605672557558 31.4568
30.799149319462742 31.2686
30.8224236211637 31.1865
30.845518789950724 31.0301
30.868615242910597 31.1121
30.891712981195973 30.9476
30.91499247215866 30.9056
30.938092794619365 30.8208
30.96119440587579 30.7068
30.984297307082752 30.5967
31.00758200598383 30.4723
31.030687500658694 30.4246
31.053794288760695 30.3203
31.076902371446767 30.2719
31.100192296997445 30.2412
31.12330298246119 30.2475
31.14641496599209 30.064
31.169528248749216 30.0593
31.19282341969534 30.1455
31.215939314557186 29.9964
31.239056512134788 30.033
31.262175013589378 30.0582
31.28547544871168 29.9821
31.30859657161541 29.9391
31.331719001892175 30.0214
31.35484274070538 30.08
31.378148458819545 30.0432
31.401274828443725 30.0796
31.424402510106933 30.0941
31.447712205419993 30.0974
31.470842524931633 29.9855
31.493974159989783 30.0008
31.51710711176168 30.0399
31.54042212308802 29.9456
31.563557722100917 29.9669
31.586694641341655 29.7637
31.609832881979628 29.7546
31.63315322823208 29.6925
31.656294125521327 29.6491
31.679436347728515 29.5148
31.70257989602529 29.4542
31.725905596152327 29.4534
31.74905181052835 29.3414
31.772199354521323 29.3305
31.79534822930507 29.3444
31.818679302290967 29.3965
31.84183085259981 29.3604
31.864983737233473 29.2902
31.88813795736804 29.2776
31.911474422233013 29.2956
31.934631327356435 29.4161
31.9577895715215 29.2711
31.980949155906522 29.249000000000002
32.004291031706956 29.3348
32.027453310562606 29.1724
32.05061693318573 29.0399
32.07396288236386 29.0618
32.09712920658542 29.059
32.12029687812702 28.9415
32.14346589817093 28.7998
32.166817291729984 28.7069
32.18998902288583 28.6736
32.21316210610336 28.5722
32.23633654256711 28.4693
32.259693399663725 28.4697
32.282870556771144 28.3818
32.30604907069099 28.3957
32.329228942610065 28.3339
32.35259128243769 28.232
32.375773884550505 28.112
32.398957848235646 28.1107
32.422143174682176 28.109
32.445511016471215 27.9728
32.468699082679954 27.9769
32.49188851523011 27.8919
32.51507931531304 27.6755
32.538452678331 27.78
32.56164622776311 27.7295
32.58484114831493 27.781999999999996
32.60803744118015 27.7551
32.631416344731896 27.7588
32.654615396551876 27.6033
32.67781582427913 27.6094
32.701198898634416 27.5237
32.72440209253756 27.4708
32.747606665947124 27.3709
32.77081262006088 27.3226
32.79420126883317 27.3489
32.81740999876112 27.4081
32.840620112999424 27.2947
32.86383161274818 27.2551
32.88722585534586 27.2179
32.91044014056596 27.1925
32.933655814909734 27.1494
32.95687287957963 27.2284
32.98027273544904 27.143
33.00349259526636 27.0046
33.026713849030116 27.1251
33.04993649794511 27.0792
33.073341986570746 26.9973
33.09656744032826 27.0432
33.11979429286444 27.0739
33.14302254538647 27.0809
33.166433686291185 27.0523
33.18966475336992 27.058000000000003
33.212897224069096 26.8642
33.23613109959831 26.8839
33.259547912343415 26.8033
33.2827846121627 26.8558
33.306022720453775 26.7336
33.32926223842861 26.6558
33.352684742614166 26.6369
33.37592709463173 26.7108
33.399170859982064 26.5222
33.422597648419426 26.4397
33.44584425514446 26.3511
33.46909227885668 26.3788
33.4923417207723 26.2269
33.51577423505344 26.2399
33.539026528130385 26.2127
33.56228024307245 26.185
33.585535381098246 26.1043
33.60897364093058 25.9589
33.63223163992385 25.956999999999997
33.6554910656699 26.0072
33.678751919389796 25.8623
33.702195944520106 25.7963
33.72545966903325 25.881
33.74872482519663 25.8165
33.771991414233746 25.7878
33.79544122444841 25.7431
33.81871069412428 25.7093
33.84198160035767 25.6284
33.86525394437455 25.648000000000003
33.88870955949969 25.5566
33.911984794020626 25.5983
33.93526147001624 25.5183
33.958539588715006 25.414
33.98200102861669 25.3855
34.0052820477047 25.3406
34.02856451319451 25.3425
34.05203033759056 25.1982
34.07531571090147 25.2579
34.09860253431845 25.2815
34.121890809074316 25.1944
34.145362493118924 25.201
34.16865368561615 25.0941
34.191946333164054 25.1004
34.21524043699793 24.985
34.23871800066799 25.0576
34.26201503218366 24.9734
34.28531352370466 24.8874
34.30861347646881 24.8262
34.33209693978188 24.8247
34.3553998301885 24.7846
34.378704185565205 24.6338
34.402010007152356 24.6384
34.42549939016683 24.6234
34.44880815937748 24.555
34.472118398533134 24.5544
34.49543010887669 24.5528
34.51892543169198 24.4475
34.54224009966052 24.3791
34.56555624255917 24.4234
34.58887386163339 24.4537
34.61237514439016 24.3461
34.6356957311114 24.2086
34.65901779775809 24.2237
34.68252356662995 24.1269
34.705848608458616 24.1706
34.72917513396849 24.068
34.75250314440949 24.0691
34.77601490857862 24.0528
34.799345904259795 24.002
34.82267838863559 24.0314
34.846012362958525 23.9821
34.869530142679984 23.9005
34.89286711232212 23.9488
34.91620557568269 23.9844
34.93954553401677 23.8051
34.9630693495876 23.7614
34.986412313340814 23.7711
35.00975677584668 23.7893
35.033102738362956 23.6955
35.05663261012228 23.7512
35.0799815881786 23.604
35.10333207003229 23.5442
35.12668405694369 23.5615
35.150220005273056 23.5655
35.17357501786656 23.5361
35.19693153931268 23.4622
35.220289570874385 23.4251
35.24383161619786 23.4672
35.267192683604904 23.4569
35.290555264930376 23.418000000000003
35.314101899412165 23.4113
35.33746752422433 23.3757
35.36083466676374 23.3703
35.38420332829803 23.3886
35.407756095629054 23.3842
35.43112781085063 23.4009
35.45450104888391 23.3353
35.477875810999194 23.3794
35.50143473172161 23.2546
35.52481255774625 23.3754
35.54819191167777 23.2189
35.57157279478914 23.1785
35.595137889488406 23.0838
35.61852184675279 23.0616
35.641907337029984 23.0272
35.665294361595684 22.935
35.68886565090076 22.8708
35.7122557598848 22.9023
35.73564740699838 22.9266
35.759040593519934 22.8878
35.78261809810353 22.803
35.80601437933051 22.6927
35.829412203814705 22.6449
35.85281157283719 22.616
35.876395313415884 22.6319
35.8997977874528 22.5641
35.92320180988546 22.521
35.946790244133936 22.5429
35.97019737933222 22.4498
35.993606066789866 22.4338
36.01701630779276 22.4232
36.04061101440684 22.4141
36.06402437852291 22.3423
36.08743930005611 22.3557
36.1108557802951 22.2673
36.13445678011326 22.2567
36.15787639383515 22.2293
36.18129757014299 22.1811
36.20472031032821 22.0988
36.22832762423364 22.0379
36.25175350829375 22.1013
36.275180960119776 22.0306
36.298609981005924 22.0168
36.32222362992669 21.9797
36.34565580510207 21.9292
36.36908955323448 21.9411
36.39252487562093 21.7982
36.416144880530226 21.7987
36.43958336764275 21.7974
36.463023432914625 21.8265
36.486465077645676 21.7598
36.51009145956204 21.8084
36.53353627947859 21.7269
36.55698268276811 21.7243
36.58043067073321 21.6585
36.60406345072071 21.6138
36.62751462435344 21.6214
36.65096738658405 21.6509
36.67460498210655 21.5949
36.69806093788647 21.5265
36.72151848619297 21.4429
36.744977628333636 21.4673
36.76862165890998 21.451999999999998
36.79208400512205 21.3774
36.81554794910557 21.3526
36.83901349217101 21.2424
36.862663978991606 21.1897
36.88613273667352 21.2157
36.90960309738324 21.1445
36.933075062434064 21.1691
36.95673202673572 21.1835
36.98020721697122 21.0584
37.003684015502365 21.0538
37.027162423645365 20.9846
37.050825886711465 20.9534
37.07430753063053 20.8763
37.09779078812467 20.8329
37.121275660513014 20.8049
37.144945643673694 20.8205
37.16843376245278 20.8233
37.19192350009803 20.7786
37.215414857931435 20.7441
37.239091382563885 20.6793
37.262585997426164 20.6414
37.28608223645736 20.7369
37.309763684451696 20.6486
37.33326318851098 20.5353
37.356764320726555 20.5372
37.380267082425526 20.5087
37.40395510942588 20.5278
37.42746114683234 20.442
37.45096881771841 20.3715
37.474478123414166 20.3701
37.49817275092816 20.3649
37.52168534303452 20.345
37.54519957395567 20.2181
37.568715445024665 20.2999
37.592416694607714 20.2085
37.61593586281424 20.2178
37.63945667518264 20.2518
37.66297913304891 20.117
37.68668702630454 20.0714
37.710212792059274 20.0509
37.733740207334854 20.077
37.757269273470364 19.9795
37.780983832050374 19.9671
37.80451621684926 19.8908
37.82805025654007 19.9991
37.851585952464795 19.8488
37.8753071980695 19.7981
37.89884622345676 19.7872
37.92238690911902 19.747
37.94611318753442 19.7072
37.969657210779765 19.7243
37.99320289834801 19.689
38.016750251586465 19.585
38.04048325513017 19.5826
38.06403395679343 19.6205
38.087586328183946 19.6158
38.11114037065203 19.5741
38.13488012115898 19.504
38.1584375229181 19.4869
38.181996599821 19.465999999999998
38.205557353221124 19.4183
38.229303872575656 19.3979
38.2528679961576 19.349
38.27643380031219 19.2603
38.30000128639589 19.25
38.32375459653193 19.257
38.34732546371299 19.2241
38.37089801690786 19.1635
38.39447225747609 19.1084
38.418232380377425 19.1151
38.441810012983396 19.0713
38.46538933705673 18.9702
38.488970353960084 19.0393
38.51273731166058 19.0208
38.536321731567014 18.9603
38.55990784840681 18.9368
38.58367995004091 18.8584
38.60726947812959 18.7818
38.63086070726198 18.857
38.654453638806274 18.9189
38.678232613930824 18.7971
38.70182896773327 18.6949
38.72542702806741 18.7771
38.7490267963045 18.745
38.77281266709232 18.6637
38.79641586862214 18.67
38.8200207821842 18.6193
38.843627409152944 18.6363
38.86742019782782 18.5729
38.891030269149255 18.4944
38.914642058016156 18.4399
38.938255565806124 18.4704
38.96205529464307 18.3864
38.98567225787121 18.3598
39.00929094417078 18.3672
39.03291135492255 18.3523
39.05671804624804 18.3825
39.080341923549106 18.2701
39.103967529460334 18.2393
39.127594865365744 18.1634
39.15140854155791 18.1369
39.17503935514948 18.1884
39.19867190290282 18.1583
39.22249083587951 18.1292
39.24612686969409 18.0717
39.269764641845306 18.055999999999997
39.293404153722804 18.0181
39.317230110864074 17.9538
39.34087311998506 17.9509
39.36451787301696 17.9132
39.388164371352595 17.8255
39.41199737518003 17.7989
39.43564738196752 17.7822
39.45929913825317 17.7647
39.48295264543308 17.7923
39.506792718520884 17.7765
39.530449745387216 17.7558
39.55410852735203 17.7376
39.57776906581474 17.7338
39.60161623079 17.6459
39.625280300200025 17.5454
39.64894613032202 17.4931
39.67261372255866 17.5702
39.6964680021016 17.6019
39.72013913657293 17.599
39.74381203738292 17.5751
39.76748670593756 17.4368
39.79134812278169 17.4385
39.81502634488497 17.4033
39.83870633896685 17.4486
39.862388106436654 17.3473
39.88625668336918 17.2915
39.90994201572829 17.2801
39.933629125719285 17.2232
39.957503091207826 17.1769
39.9811937746168 17.2376
40.00488623990914 17.177
40.02858048850006 17.1388
40.05246165409549 17.115
40.076159487492085 17.0278
40.099859108448875 17.1019
40.123560518384345 17.1042
40.1474489070226 17.0224
40.171153913178564 17.0122
40.194860712584955 16.9982
40.2185693066637 16.9757
40.242464941335314 16.9281
40.26617714307655 16.8706
40.289891143772046 16.8936
40.3136069448471 16.8819
40.33750984859743 16.8301
40.3612292688043 16.7901
40.3849504936829 16.7328
40.40867352466194 16.6925
40.43258372059144 16.6983
40.45631038219906 16.695999999999998
40.48003885420956 16.6586
40.503769138055105 16.672
40.52768664931955 16.6106
40.55142057531802 16.5653
40.57515631746428 16.4994
40.599079334038514 16.5112
40.62281872700477 16.4983
40.64655994043941 16.439
40.67030297578061 16.4189
40.69423334835778 16.3829
40.71798004609188 16.3989
40.74172857006355 16.3727
40.76547892171441 16.4176
40.7894166736039 16.3554
40.813170699248566 16.2049
40.83692655691388 16.2472
40.86068424804498 16.2273
40.884629402612525 16.2039
40.908390779366385 16.1939
40.932153993938 16.1625
40.95591904777605 16.0769
40.979871628443995 16.1336
41.003640379561936 16.0467
41.02741097430883 16.0062
41.05118341413683 16.0891
41.075143444384416 16.0584
41.098919593177826 15.9763
41.1226975914255 16.0174
41.14647744058318 15.9255
41.170444943946755 15.8972
41.19422851378379 15.8471
41.218013938914645 15.8246
41.24198706625173 15.8549
41.26577622087193 15.8187
41.289567235177785 15.7263
41.31336011063129 15.7585
41.337340752422875 15.7474
41.361137369129835 15.6808
41.38493585138705 15.7061
41.40873620066004 15.6644
41.43272438060107 15.5955
41.45652848292052 15.5807
41.48033445666918 15.5131
41.50414230331616 15.5225
41.528138045159764 15.5093
41.551949656675205 15.467
41.575763145513235 15.4929
41.59957851314666 15.4787
41.62358184070442 15.4152
41.64740098505737 15.4052
41.6712220126409 15.3734
41.69504492493139 15.3005
41.71905586207357 15.267999999999999
41.74288256296395 15.2929
41.766711153007456 15.254000000000001
41.79054163368412 15.1806
41.814560204340054 15.2002
41.838394485526365 15.2363
41.86223066180303 15.1924
41.88625497706819 15.1401
41.910094962812 15.1048
41.93393684811168 15.0887
41.95778063445365 15.0379
41.981812625263366 14.9918
42.00566023303407 14.9657
42.029509746323676 14.9707
42.05336116662236 14.9388
42.077400857069705 14.9575
42.10125611078846 14.9426
42.12511327600405 14.9027
42.14897235421036 14.8187
42.173019768448455 14.8474
42.19688269209613 14.785
42.22074753323349 14.7885
42.24461429335818 14.776
42.268669455600495 14.6799
42.292540073217886 14.7023
42.31641261433284 14.657
42.34028708044675 14.6742
42.36435001496739 14.6454
42.38822835065557 14.5886
42.41210861586426 14.6092
42.4359908120986 14.5744
42.46006154323262 14.5251
42.48394762115317 14.4569
42.507835634632315 14.5263
42.531912233047436 14.4703
42.55580413732265 14.4606
42.579697981698 14.4034
42.60359376768525 14.4022
42.62767820545945 14.3804
42.65157789440821 14.3719
42.67547952952185 14.3174
42.699383112316 14.2849
42.72347541395347 14.2428
42.74738291190531 14.1882
42.771292362102166 14.2003
42.795203766063516 14.1775
42.819303956130405 14.1386
42.843219287476536 14.1168
42.86713657716324 14.0736
42.89105582671383 14.1055
42.91516392983864 14.0892
42.939087119032166 14.0598
42.963012272677304 14.0226
42.98693939230129 13.9919
43.01105543317513 13.9235
43.034986504731386 13.9201
43.05891954686589 13.866
43.08285456110972 13.8906
43.10697856448665 13.9102
43.130917542983475 13.8525
43.15485849820081 13.8194
43.17880143167367 13.8497
43.20293342237094 13.7819
43.226880332449 13.7565
43.25082922540554 13.732999999999999
43.27496722682525 13.6856
43.29892010567796 13.7169
43.32287497204102 13.6663
43.34683182745632 13.5739
43.370977859791836 13.5707
43.39493871351105 13.5509
43.41890156092628 13.592
43.44286640358341 13.5483
43.46702049182749 13.5053
43.49098934522816 13.4646
43.51496019852649 13.4619
43.5389330532723 13.4644
43.56309522248204 13.4068
43.58707210044314 13.3969
43.61105098451946 13.3573
43.63503187626491 13.3438
43.659202151562134 13.3309
43.68318707902681 13.3117
43.70717401884041 13.3185
43.731162972560874 13.2447
43.75534137913236 13.2125
43.779334381108384 13.1796
43.803329401683186 13.2144
43.82732644241872 13.1632
43.8515130055166 13.1456
43.87551410707659 13.1448
43.89951723350145 13.1213
43.923709934595614 13.0299
43.94771713129917 13.0534
43.97172635758096 13.0756
43.99573761501002 13.0721
44.0199385169922 12.9704
44.04395385732619 12.9618
44.067971233533086 12.9693
44.09199064718605 12.9234
44.11619977548961 12.8985
44.14022328470671 12.8774
44.16424883610785 12.8329
44.18827643127035 12.8534
44.21249381139513 12.7959
44.236525514814076 12.743
44.26055926674478 12.7412
44.28459506876863 12.7598
44.3088207262813 12.719000000000001
44.33286064928722 12.7325
44.35690262714919 12.6619
44.38094666145278 12.645999999999999
44.4051806219871 12.6403
44.42922879003185 12.6348
44.45327901929361 12.5808
44.477331311362136 12.592
44.501573600619416 12.5301
44.525630039221795 12.4687
44.54968854541895 12.4955
44.573937102200176 12.517999999999999
44.5979997645541 12.4683
44.622064499300315 12.4624
44.64613130803592 12.3988
44.67038823869318 12.3875
44.69445921643748 12.3581
44.718532272981385 12.3182
44.742607409926194 12.3059
44.76687274034801 12.296
44.79095205918753 12.2247
44.81503346325094 12.2541
44.839116954143876 12.3194
44.86339071028742 12.2541
44.88747839599524 12.2332
44.91156817336837 12.1605
44.93566004401666 12.1647
44.959942251908146 12.1314
44.984038330325966 12.0685
45.00813650686762 12.0707
45.03223678314731 12.0431
45.05652746888232 12.0165
45.08063196592069 11.9885
45.104738567558705 11.9716
45.128847275414856 11.9302
45.15314646515866 11.8789
45.17725940679741 11.9294
45.20137445952892 11.9627
45.22568004865265 11.9163
45.24979934496396 11.8806
45.27392075725247 11.8856
45.29804428714431 11.8665
45.322358426247604 11.7613
45.346486212804315 11.7734
45.370616121861914 11.7754
45.39474815505086 11.7529
45.41907087049246 11.7053
45.4432071734666 11.6845
45.46734560548283 11.7091
45.49148616817604 11.6622
45.51581748638564 11.6317
45.5399623320197 11.6522
45.56410931325473 11.6489
45.58825843173002 11.5991
45.61259837920865 11.5656
45.636751793816 11.5462
45.66090735060093 11.5163
45.68506505120716 11.5111
45.7094136545275 11.4856
45.73357566449271 11.4047
45.75773982322992 11.4381
45.78190613238733 11.4305
45.806263418194064 11.3796
45.83043404997326 11.372
45.85460683713677 11.3533
45.87897065658495 11.4007
45.90314777634752 11.3148
45.92732705646868 11.2997
45.9515084986045 11.2658
45.97588104735473 11.2658
46.00006683541565 11.2468
46.02425479047904 11.2762
46.04844491420549 11.1909
46.0728262191024 11.2005
46.09702070211635 11.1638
46.12121735879483 11.1561
46.14541619080294 11.1106
46.169806278764455 11.0746
46.194009483459034 11.0761
46.21821486849841 11.0971
46.24242243555223 11.017999999999999
46.266821333570014 11.0089
46.29103328674601 11.0113
46.31524742696538 11.0035
46.33946375590237 10.9591
46.36387149104216 10.933
46.38809221957392 10.8749
46.41231514186606 10.9007
46.436540259597464 10.9169
46.460956858999374 10.8814
46.48518638983522 10.8381
46.509418121166966 10.7951
46.533652054678114 10.767000000000001
46.55807754555709 10.7892
46.58231590571962 10.7758
46.60655647313217 10.7141
46.630988654873654 10.7337
46.655233659129024 10.7115
46.67948087571551 10.702
46.70373030632484 10.6373
46.72817142736393 10.630999999999998
46.752425308428684 10.622
46.77668140861147 10.6328
46.80093972960865 10.5679
46.82538981736788 10.5671
46.849652602470904 10.5702
46.87391761349769 10.5756
46.8981848521493 10.5139
46.9226439341274 10.4941
46.946915650573224 10.4556
46.97118959976749 10.4396
46.99546578341598 10.4488
47.019933887188216 10.4439
47.04421456235744 10.4279
47.06849747711879 10.3948
47.09278263318286 10.3445
47.11725978640143 10.3457
47.14154944775105 10.3438
47.165841355555656 10.3058
47.1901355115306 10.2723
47.214621741924994 10.2556
47.23892041698887 10.2489
47.26322134538975 10.1588
47.28771440635075 10.1336
47.31201986422527 10.1683
47.33632758061436 10.1316
47.360637557241866 10.149
47.38513974410611 10.1439
47.40945426407847 10.0602
47.43377104948137 10.1025
47.45809010204344 10.0849
47.48260144275502 10.0681
47.506925052572285 10.009
47.53125093475548 9.99008
47.55557909103813 9.97519
47.58009961361992 9.98809
47.60443234110732 9.9274
47.62876734791564 9.91605
47.65310463578333 9.94945
47.6776343683373 9.92042
47.7019762413987 9.85801
47.72632040075572 9.83013
47.75066684815169 9.85132
47.77520581885936 9.79769
47.799556865477655 9.785160000000001
47.823910205386 9.77689
47.84826584033272 9.75482
47.87281407745551 9.720130000000001
47.89717432569297 9.76493
47.92153687423484 9.71213
47.94609208429692 9.715639999999999
47.97045925671401 9.69413
47.99482873471275 9.67239
48.01920052005013 9.65765
48.04376504619224 9.59745
48.068141469543484 9.643189999999999
48.09252020552573 9.63499
48.11690125590099 9.59206
48.1414751266064 9.55529
48.16586082917454 9.55611
48.19024885144316 9.54316
48.2146391951793 9.53673
48.239222439012764 9.5084
48.26361744916137 9.47586
48.28801478610016 9.471910000000001
48.31241445160131 9.48456
48.337007097209366 9.432039999999999
48.36141144338331 9.39637
48.38581812345755 9.42202
48.41022713920929 9.362169999999999
48.434829215320704 9.36308
48.45924292604658 9.352739999999999
48.48365897780325 9.3195
48.50807737237308 9.310839999999999
48.532688907799276 9.30268
48.55711201168574 9.25935
48.581537463754074 9.23359
48.60615611725119 9.25708
48.63058628942721 9.254380000000001
48.65501881516546 9.21167
48.6794536962573 9.184
48.70408185970339 9.15268
48.72852147531801 9.19278
48.75296345168211 9.11154
48.77740779059232 9.12622
48.80204549302823 9.12877
48.82649458091802 9.12147
48.85094603676547 9.06286
48.87539986237231 9.05344
48.90004713292306 9.05874
48.92450572200832 9.051039999999999
48.94896668628025 8.98863
48.97343002754588 9.01431
48.99808689542115 8.95381
49.02255501470614 8.97262
49.04702551642794 8.93017
49.0714984023988 8.901580000000001
49.096164896893235 8.94101
49.120642575466796 8.8899
49.145122643748394 8.87684
49.16960510355558 8.83118
49.19428125404938 8.83521
49.2187685210852 8.81902
49.243258185121555 8.80155
49.26794160167084 8.788110000000001
49.2924360839405 8.76863
49.31693296869764 8.733410000000001
49.34143225776915 8.7071
49.36612538195438 8.707180000000001
49.39062950396021 8.68801
49.41513603578346 8.661760000000001
49.4396449792564 8.64465
49.46434784069503 8.67274
49.488861631846454 8.634319999999999
49.513377840166804 8.625810000000001
49.537896467493745 8.60847
49.56260909589029 8.55147
49.587132585683285 8.58705
49.611658500018365 8.55875
49.636186840738596 8.53336
49.66090926588511 8.4961
49.685442483902584 8.488339999999999
49.70997813385706 8.4487
49.734516217597076 8.46756
49.75924846937352 8.45465
49.7837914452858 8.42992
49.80833686055187 8.38997
49.83288471702571 8.37906
49.85762682540054 8.39558
49.882179588965734 8.37698
49.9067347993235 8.33126
49.93129245833333 8.3365
49.95604445336378 8.32869
49.98060703442832 8.307360000000001
50.005172069746266 8.28735
50.02993150438364 8.266010000000001
50.05450147301533 8.27897
50.07907390151433 8.22809
50.10364879174981 8.18649
50.12841816587289 8.20583
50.1529980044635 8.22362
50.17758031042124 8.17331
50.20216508562089 8.14611
50.22694442953363 8.14476
50.25153416817468 8.11968
50.27612638170508 8.13449
50.300721072005196 8.11177
50.325510416102105 8.0946
50.350110084975064 8.09181
50.37471223628208 8.08357
50.39931687190919 8.033339999999999
50.424116246675766 8.03095
50.44872587605249 8.023480000000001
50.47333799543065 7.9896899999999995
50.49795260670191 7.994269999999999
50.52276204271512 7.94693
50.54738166295838 7.94919
50.57200378079314 7.90228
50.596628398116835 7.8947899999999995
50.62144792604559 7.898
50.646077567609396 7.89273
50.670709714377715 7.8591
50.69553683636198 7.8418
50.72017401885922 7.870239999999999
50.7448137122895 7.81743
50.76945591856022 7.76928
50.79429318636823 7.7923100000000005
50.818940443716784 7.798019999999999
50.84359021965163 7.80742
50.868242516085964 7.79385
50.893089960641895 7.756460000000001
50.917747323549435 7.68187
50.94240721271973 7.714739999999999
50.96706963007175 7.69958
50.99192728239342 7.6904
51.01659478166073 7.679069999999999
51.04126481489051 7.668139999999999
51.06593738400761 7.6321
51.090805275207074 7.6157
51.11548294172845 7.564360000000001
51.14016314993547 7.56417
51.164845901758845 7.5586
51.18972406304274 7.529739999999999
51.21441192780656 7.55765
51.23910234200271 7.533239999999999
51.2637953075678 7.490530000000001
51.288683770237945 7.49212
51.31338186432707 7.465739999999999
51.33808251561888 7.48002
51.362978729967345 7.462280000000001
51.387684521509755 7.423360000000001
51.41239287610203 7.41714
51.437103795691165 7.40574
51.46201036644977 7.36194
51.486726441956634 7.354030000000001
51.51144508832545 7.373889999999999
51.536166307509156 7.3369100000000005
51.56108326624387 7.2965100000000005
51.58580965706056 7.302689999999999
51.61053862657523 7.256
51.635270176746864 7.26417
51.66019755512065 7.29962
51.68493429268881 7.273460000000001
51.70967361681515 7.24852
51.73441552946465 7.253260000000001
51.759353359237934 7.236110000000001
51.7841004750961 7.23488
51.80885018539685 7.17323
51.833602492111254 7.13373
51.8585508051424 7.11765
51.883308330926425 7.1253
51.90806845906181 7.070689999999999
51.932831191525715 7.07455
51.95779001977161 7.08373
51.98255798721516 7.08494
52.00732856494335 7.0451
52.03229530577543 7.052410000000001
52.057071130455945 7.04484
52.081849571391054 7.0359
52.106630630568695 7.01987
52.13160794279417 6.982189999999999
52.15639426492067 6.965339999999999
52.18118321127822 6.9817
52.205974783860896 6.922860000000001
52.23096269971011 6.9092199999999995
52.255759551287994 6.939089999999999
52.280559035098186 6.91378
52.30536115314103 6.873469999999999
52.33035970494467 6.872510000000001
52.35516711807904 6.87093
52.37997717147198 6.86855
52.40478986713005 6.8364199999999995
52.42979908731974 6.8122
52.454617094216 6.7606
52.47943774942214 6.772539999999999
52.50426105495102 6.792610000000001
52.529280976059844 6.74085
52.554109609024096 6.726189999999999
52.57894089837482 6.7288
52.60377484613117 6.74867
52.62880550079408 6.728269999999999
52.65364479223379 6.7072
52.67848674816189 6.67139
52.70352547971946 6.6643
52.72837279155837 6.6792300000000004
52.753222773982785 6.6280399999999995
52.778075429022984 6.59063
52.80312495150885 6.61868
52.827982978797436 6.5815399999999995
52.85284368481815 6.56447
52.87770707160767 6.57539
52.90276741793998 6.544490000000001
52.92763619336701 6.51106
52.952507655698504 6.52605
52.977381806977576 6.49516
53.00245301017842 6.47553
53.02733256653592 6.469869999999999
53.052214817996074 6.47323
53.077099766608484 6.44773
53.102181859804446 6.4770199999999996
53.127072229988265 6.488580000000001
53.15196530349892 6.39966
53.17686108239249 6.383859999999999
53.20195409881522 6.36001
53.22685531582556 6.37973
53.25175924441303 6.347980000000001
53.27666588664027 6.3422
53.30176985962693 6.35827
53.3266819565689 6.3163599999999995
53.35159677336455 6.319319999999999
53.376514312083096 6.281219999999999
53.40162927507703 6.27457
53.42655228516116 6.26255
53.45147802340193 6.24632
53.47660125628886 6.19475
53.50153247842639 6.22432
53.52646643496923 6.22293
53.55140312799818 6.20881
53.576537409691696 6.2087
53.60147960336152 6.1734
53.626424539786164 6.13171
53.65137222105307 6.1581
53.67651758529126 6.17478
53.70147078399681 6.12695
53.72642673383343 6.09417
53.75138543689533 6.12795
53.776541917524526 6.09963
53.801506154876755 6.074330000000001
53.826473151763246 6.07201
53.851442910284916 6.01582
53.87661054126026 6.00411
53.9015858509782 6.03045
53.92656392866066 6.04627
53.95154477641532 6.04027
53.976723591801296 5.98344
54.00171000771266 5.9352
54.02669920004598 5.9497599999999995
54.051691170915745 5.9120800000000004
54.076881204886796 5.95138
54.101878760928514 5.9143099999999995
54.12687910187696 5.85896
54.152077577768296 5.92854
54.1770835166946 5.848669999999999
54.20209224691339 5.85105
54.22710377055121 5.81607
54.25231352511594 5.7801
54.27733066384342 5.78342
54.30235060239643 5.79997
54.32737334290836 5.82416
54.35259441062629 5.75889
54.377622783395324 5.732130000000001
54.40265396455061 5.740130000000001
54.42768795623251 5.68133
54.45292037169559 5.6846
54.477960012857906 5.7203599999999994
54.50300247099511 5.7104800000000004
54.52804774825457 5.65192
54.55329154616743 5.61085
54.57834249018678 5.63298
54.6033962597977 5.58031
54.6284528571545 5.60655
54.653708072335164 5.54611
54.67877035378786 5.5205
54.70383546947698 5.497669999999999
54.72890342156389 5.54376
54.7541700889442 5.50243
54.77924374251975 5.39484
54.8043202390049 5.42886
54.82959552413022 5.39074
54.8546777351945 5.4202699999999995
54.87976279569621 5.34892
54.90485070780914 5.40765
54.930137506558005 5.28359
54.95523115074295 5.36132
54.98032765308844 5.310630000000001
55.005427015775496 5.29841
55.03072536339621 5.33458
55.05583047570572 5.25745
55.080938454927676 5.24148
55.10604930325027 5.21254
55.131359235107396 5.18473
55.15647585066083 5.12692
55.181595341907496 5.15448
55.20671771104285 5.136419999999999
55.232039262617704 5.14431
55.25716741665048 5.1086800000000006
55.28229845518636 5.05264
55.30743238042802 5.01325
55.33276558731939 5.00172
55.357905315183636 4.99141
55.383047936390035 4.9303099999999995
55.40819345314859 4.92
55.433538351073295 4.9545
55.458689688238415 4.942069999999999
55.483843927614096 4.876530000000001
55.509197623043605 4.863630000000001
55.53435769621134 4.86354
55.55952067826466 4.86196
55.5846865714265 4.85385
55.61005202069737 4.729480000000001
55.63522376553902 4.72264
55.66039842818645 4.76814
55.68557601087004 4.73148
55.7109532500271 4.63856
55.73613670233794 4.66798
