TT I
1.2716486653135266 7.54873
1.2939594142134223 6.9477199999999995
1.3162702121660406 6.838139999999999
1.3385810600174564 6.72129
1.3608919586137629 6.305969999999999
1.383202908801069 6.059
1.405513911425503 6.0050300000000005
1.4278249673332093 5.84561
1.4501343378461518 5.83588
1.4724455028545926 5.833880000000001
1.4947567236847858 5.878819999999999
1.517068001182951 5.82529
1.5393793361953272 5.75629
1.5616907295681737 5.6288599999999995
1.5840021821477681 5.4185099999999995
1.60631369478041 5.46627
1.6286252683124185 5.38128
1.6509369035901333 4.649
1.6732468618895553 4.59159
1.695558623192809 4.69632
1.7178704487808514 5.12035
1.7401823395001077 4.536569999999999
1.7625012545597203 5.13445
1.7848028405262486 4.5704
1.8071218901122095 4.54565
1.8294236121921872 5.12536
1.8517427996910911 4.92269
1.8740620574440425 4.9223099999999995
1.8963639900671978 4.42278
1.9186833908139995 4.5588
1.9409854680117449 5.543080000000001
1.9633050151394713 4.55746
1.9856246367570705 4.73573
2.0079269371922672 4.75145
2.03024671027244 4.91818
2.0525491637446027 4.49585
2.074869091674931 4.67645
2.097171701569106 4.9198699999999995
2.1194917877373847 4.81766
2.141811954326636 5.18544
2.164114805233074 4.346019999999999
2.186435135143035 5.5782
2.208738150935709 10.7457
2.231058647554722 19.0241
2.2533792288321184 14.2657
2.275682498336085 7.5876
2.298003251406138 5.632000000000001
2.3203066942619714 5.62451
2.3426276225136022 5.40569
2.3649486396617507 5.36154
2.387252348930071 5.64721
2.4095735463442893 5.70368
2.4318774374315884 5.32845
2.4541988185014043 5.75716
2.476502894794693 6.552169999999999
2.498824462909887 6.22961
2.521146125856138 6.61555
2.5434504863470337 6.7575199999999995
2.5657723414244717 6.6629
2.588076895590662 7.939710000000001
2.610398946189713 7.9132
2.6327210958598384 7.787539999999999
2.6550259469304716 7.60813
2.6773482972090137 7.81723
2.6996533504259 7.92455
2.7219759047039602 8.42187
2.744298562293959 7.72311
2.7666039251246595 7.69945
2.7889267918020164 7.935239999999999
2.8112323652516555 8.71819
2.833555444408179 8.22481
2.8558786311183852 8.1468
2.8781845268938557 8.41432
2.9005079311721484 9.07958
2.9228140460410397 9.056989999999999
2.9451376712799635 9.107669999999999
2.967444008632326 9.1867
2.9897678582247247 9.95863
3.0120918213106695 10.3717
3.0343984987899373 11.0363
3.0567226913198637 11.0284
3.079029599759726 11.8587
3.101354025127254 12.5333
3.123678568232338 12.9905
3.145985829517914 13.6371
3.16831061055229 13.5835
3.1906181112775593 14.187999999999999
3.212943133635653 14.9092
3.2352682779763207 15.0628
3.2575761442691227 15.3328
3.2799015350264273 15.6647
3.302209649240067 16.1212
3.3245352898092655 16.9737
3.3468436553365257 17.5895
3.369169549113219 17.6414
3.3914955708171384 18.5514
3.413804319727358 18.5495
3.4361305997334863 19.13
3.4584396084414553 19.5658
3.4807661501462652 19.7559
3.503092824025881 20.6455
3.5254022288463154 21.3083
3.5477291695206588 22.1339
3.5700388426251948 21.9351
3.5923660534916446 23.1198
3.6146934007816114 32.1432
3.637003482731501 61.2472
3.6593311053109985 66.3009
3.681641464033634 43.0342
3.7039693653009733 28.0358
3.726297407241705 25.985
3.7486081875460804 25.9524
3.7709365132734978 26.2415
3.793247578841633 26.750999999999998
3.8155761917550093 26.7944
3.8378875459837216 27.1487
3.8602164494827234 27.4829
3.882545499606844 28.2964
3.9048572932539183 28.5769
3.9271866390645718 29.0008
3.9494987298666713 29.5177
3.971828374764527 30.0426
3.9941581705403255 30.4958
4.016470713506008 31.5197
4.038800813471445 31.980999999999998
4.061113662089144 32.8929
4.0834440696459176 33.3133
4.105774632334751 33.8423
4.128087945865126 34.4988
4.150418821249301 35.1689
4.172732448931298 36.5382
4.195063640413578 37.6787
4.2173775856475215 41.2462
4.239709096631102 60.376000000000005
4.262040768704612 156.5
4.284355196706267 200.796
4.306687193387355 133.505
4.329001947444346 63.6749
4.35133427213731 45.8297
4.373666762177566 44.2121
4.395982011761091 44.2434
4.418314834921175 45.4344
4.44063041906622 50.5687
4.4629635787515625 57.4397
4.4852969080429785 57.6432
4.5076130004776225 53.1105
4.529946671403969 52.4897
4.552263106909177 53.8286
4.574597122877047 53.6388
4.596931312711224 53.8533
4.619248269273446 53.8474
4.6415828092605835 54.8941
4.663900117405352 56.3688
4.686235010953232 57.6571
4.708552674085913 58.8779
4.730887924602802 60.2712
4.753223354952695 61.7426
4.775541557023902 63.9178
4.797877349456786 65.5897
4.820195915032126 66.952
4.842532072957498 68.2478
4.864868414979744 70.2894
4.88718753227192 73.2402
4.909524244902505 75.1872
4.931843734218147 76.7181
4.954180820867835 79.3716
4.976518095879839 82.1695
4.998838149695359 85.1941
5.021175803844231 88.8487
5.043496238205739 92.3593
5.065834274903528 96.7955
5.088172504230693 101.85700000000001
5.1104935158799565 109.48100000000001
5.132832132875765 128.92700000000002
5.155153533596801 164.518
5.1774925416746225 212.708
5.199814334878411 458.407
5.2221537374521505 1255.97
5.244493338631803 3220.84
5.266815727034316 7830.53
5.289155727832427 12307.6
5.311478517248165 8396.57
5.333818921080011 2815.37
5.356159527788849 581.773
5.3784829252032536 196.625
5.400823940070432 150.187
5.423147747031976 131.262
5.445489173474152 121.23700000000001
5.467830807066149 116.5
5.490155234831516 113.44
5.512497285125229 108.927
5.534822130975162 105.62799999999999
5.557164601388673 103.652
5.579489868738879 100.415
5.601832762690846 99.5444
5.6241758697774475 98.6264
5.646501775867269 97.5811
5.668845311622074 96.383
5.691171647754637 95.4584
5.713515615597765 93.9532
5.735859800852677 93.2609
5.758186788542988 93.8233
5.780531411018185 94.8299
5.802858837297399 94.2951
5.825203900414495 94.5396
5.8475491852224 96.0021
5.869877275883075 96.6825
5.892223006467101 96.1469
5.914551544266608 97.1021
5.936897724049891 100.416
5.959244129804903 108.60700000000001
5.981573344815301 138.575
6.0039202049061 264.893
6.026249875609095 550.7719999999999
6.04859719346037 1115.32
6.070927323278297 2376.11
6.093275102315365 4500.2
6.115623113320588 5512.47
6.137953938319995 3381.57
6.160302415650845 1055.3
6.182633708324452 248.02700000000002
6.2049826554078376 115.72399999999999
6.227331838745022 93.6449
6.249663839443684 85.9829
6.27201349767565 82.339
6.294345974611799 84.7825
6.316696111167083 90.7213
6.339046488263839 86.4839
6.361379686074702 77.0236
6.383730546639482 71.7389
6.406064229255215 69.7696
6.428415576718203 69.2602
6.450749747566656 67.8418
6.47310158535871 66.63600000000001
6.495453669698332 65.6808
6.517788579421056 65.1236
6.540141159237969 63.8664
6.562476565766648 63.3796
6.5848296444934045 63.0307
6.607182974060425 62.9605
6.6295191323281015 62.766999999999996
6.651872965955752 64.3738
6.6742096296068985 80.0315
6.6965639707294615 106.51
6.71891856698715 105.80799999999999
6.741255995248479 79.7744
6.763611104154477 64.1046
6.785949046381137 59.8008
6.808304671371482 58.6347
6.8306605557940046 58.6142
6.852999275508618 58.24
6.875355681171544 57.7269
6.897694923437771 57.1466
6.92005185377892 56.7207
6.9423916220322655 56.8655
6.964749080490181 56.163999999999994
6.987106804399774 55.8769
7.009447368180821 55.9762
7.031805625367033 56.0639
7.054146723727803 55.7319
7.076505517631004 55.2366
7.098864581288365 55.0915
7.121206488070854 54.9607
7.143566093607822 54.7898
7.165908543567245 55.4262
7.188268694426048 55.3373
7.2106291193438095 55.4863
7.232972390625943 55.8852
7.255333366030969 63.8175
7.277677189091925 95.1769
7.300038718428332 123.992
7.322400526130865 107.411
7.344745183422596 75.1658
7.367107550224791 59.1294
7.389452767901992 55.8122
7.411815697249891 55.343999999999994
7.434161478756298 54.3854
7.456524974096713 54.2551
7.478888753837185 54.251999999999995
7.501235387657368 54.6017
7.523599738562711 54.7493
7.545946944825532 54.9637
7.568311870344528 55.6576
7.5906770845765665 55.534
7.613025156078678 56.4483
7.635390950099687 57.3778
7.657739602662809 57.3086
7.680105979923558 56.3343
7.702472650212829 56.5509
7.724822180948224 56.2292
7.747189439655568 56.5562
7.769539560075357 56.5144
7.791907410653562 56.8155
7.81425812420825 56.8915
7.836626570110925 56.9705
7.858995315087906 58.0844
7.881346924933401 58.4032
7.903716270417482 58.7577
7.926068482028405 58.9673
7.948438431475253 59.7155
7.9708086843180235 60.1036
7.993161805171116 60.902
8.015532667162402 61.7057
8.037886398416653 62.4148
8.060257873014221 62.873000000000005
8.082629655331942 63.5207
8.104984308787587 64.1795
8.127356708900503 66.7534
8.149711981398308 70.7905
8.172085002766314 72.7587
8.194458336181368 70.8069
8.216814543847752 69.7309
8.23918850371002 70.0393
8.26154533906492 70.9576
8.283919928836452 72.8596
8.306277395339652 73.7285
8.328652618483376 74.609
8.351028159736202 77.1418
8.373386579575245 79.6866
8.395762759396959 81.5033
8.418121819038275 86.1609
8.440498640894003 95.6015
8.462875785192262 108.646
8.485235811156207 133.19299999999998
8.507613602688501 192.74099999999999
8.529974277114228 293.19
8.552352719347912 439.32300000000004
8.574731488360351 718.337
8.59709314210385 1234.09
8.619472567021075 1874.16
8.64183487789147 2173.77
8.664214962183097 1759.62
8.686577933647762 938.0310000000001
8.708958680784317 367.61300000000006
8.731339760774953 161.221
8.753703729764451 111.06
8.77608547780821 100.045
8.798450116065078 96.2616
8.820832535634787 93.3633
8.843215292401656 92.2958
8.865580941199045 91.2694
8.887964374703538 90.2969
8.910330701447199 90.4842
8.932714815164482 91.3264
8.955099270424924 89.8318
8.977466620733543 87.7547
8.999851761421976 85.8377
9.022219798361645 84.5742
9.04460562795561 84.4688
9.066991803441677 84.1661
9.089360876979615 83.9075
9.111747746589993 83.9754
9.13411751544971 82.9262
9.156505082664324 82.8403
9.178875550323522 82.7239
9.20126381862328 83.0502
9.223652438908596 83.421
9.246023961427412 83.4435
9.26841328802173 82.9083
9.290785518039224 83.1193
9.313175554425882 83.9978
9.335565947154315 84.5312
9.357939245086508 84.2686
9.380330352834827 84.0345
9.40270436697103 84.4489
9.425096193225055 83.979
9.447488380180165 85.071
9.469863475295412 85.2043
9.492256385987508 85.384
9.514632206018318 85.8612
9.537025843935714 86.7936
9.559402392368193 87.3894
9.581796761000229 88.7578
9.604191496441521 89.9888
9.626569144158516 92.5909
9.648964615551032 95.2597
9.671343000390081 96.2216
9.693739211225699 95.1481
9.716135793237463 94.1459
9.738515290448102 94.3267
9.760912617143402 95.2158
9.783292860202891 96.8313
9.805690935076182 98.3645
9.828089385495742 99.2476
9.850470754023561 101.586
9.872869957865444 106.72399999999999
9.89525208097539 117.04299999999999
9.917652041736662 126.116
9.940052382417589 132.549
9.962435644102392 157.238
9.984836746950979 206.975
10.007220771957746 273.985
10.029622640473708 381.73699999999997
10.052007432299963 570.956
10.074410069984072 859.3489999999999
10.096813093716005 1279.03
10.119199042482517 1707.72
10.141602840636468 1889.79
10.163989564971628 1509.83
10.186394141051062 848.5169999999999
10.208799107559706 368.876
10.231187001965623 179.541
10.253592751657669 125.77799999999999
10.275981430388155 113.711
10.298387966769793 111.804
10.320794897965431 112.405
10.343184759907361 111.105
10.36559248305461 107.55799999999999
10.387983138083852 106.31
10.410391656691655 113.32
10.432800574501677 127.329
10.455192425893369 144.328
10.47760214443012 171.394
10.499994797678786 217.753
10.522405320453982 299.19599999999997
10.54479877906917 413.50699999999995
10.567210109595656 523.754
10.5896218454736 567.409
10.612016518879773 500.06300000000005
10.634429067781074 331.15
10.656824555333241 191.46099999999998
10.679237920773568 120.16799999999999
10.701651695961992 95.5442
10.724048411481384 89.8728
10.746463008485165 87.2268
10.768860546937125 85.4648
10.791275969274796 83.6374
10.81369180576079 82.8577
10.836090585366925 81.2926
10.858507252467449 80.4572
10.88090686379991 79.5019
10.903324365036394 78.9548
10.925724811614439 78.4132
10.948143150509463 79.2681
10.970561909719066 78.3348
10.992963615930844 77.0945
11.015383218085756 75.1719
11.037785768347074 73.6506
11.06020621697282 73.1274
11.082627090322113 72.7824
11.105030913430326 72.1174
11.12745263854165 72.1558
11.149857314510728 73.92399999999999
11.172279894912576 77.2967
11.194702904450653 77.6106
11.217108866490921 74.5986
11.239532736615194 71.727
11.26193956033512 70.7593
11.284364294577085 69.5319
11.306789462371718 68.484
11.329197585398376 67.7291
11.351623622610898 67.1596
11.37403261614354 66.2564
11.396459526308487 66.4925
11.418869393879497 65.9648
11.441297180532617 65.5737
11.463725406927658 65.3528
11.486136592353875 65.1344
11.508565700543707 65.3767
11.530977768845315 66.45
11.553407762368774 66.5021
11.575838200059769 66.4017
11.598251599479612 65.10300000000001
11.620682927815501 64.0764
11.64309721895548 63.9173
11.665529441478206 63.4061
11.687962112597958 63.2987
11.710377748130886 63.6188
11.732811318753434 63.2877
11.755227854859067 63.2029
11.777662328529495 63.1132
11.800079768750786 62.9721
11.822515149015453 62.7418
11.844950984084935 62.9104
11.867369787303163 62.8077
11.889806534289491 62.833999999999996
11.912226250487029 63.2015
11.934663912939751 63.4251
11.9571020346363 63.4554
11.979523127133968 63.4872
12.001962169624331 64.7706
12.024384183972964 66.483
12.046824150809913 70.5281
12.069264581333726 75.4656
12.091687985297767 81.9027
12.11412934550045 91.5668
12.136553680195208 106.759
12.158995973632788 129.799
12.181438735204349 156.256
12.20386447284199 185.292
12.226308172985636 201.90200000000002
12.24873485024193 196.903
12.271179492516982 160.575
12.293607112949127 119.85600000000001
12.316052700916226 89.7998
12.338498763250042 75.0153
12.360927805303868 68.2965
12.383374818673879 65.867
12.405804812803074 64.9309
12.428252780773262 64.5052
12.45070122756722 64.6238
12.473132656675375 64.4646
12.49558206341869 65.1296
12.518014453510101 64.8639
12.540464823770117 64.8951
12.562915677315177 65.14699999999999
12.58534951575545 65.7879
12.607801338171472 67.1171
12.630236146511358 70.0917
12.652688941369085 73.2146
12.675124723177234 73.4698
12.697578494048786 71.6726
12.720032754458185 69.0586
12.742470003354093 67.9368
12.764925245138771 68.0213
12.787363476431278 68.3513
12.809819703166806 68.9723
12.83227642391173 69.7473
12.854716135692716 70.2366
12.877173846755147 71.1882
12.899614549869717 71.7993
12.9220732548287 72.7472
12.94453245827299 73.21300000000001
12.966974655289818 74.053
12.989434858002571 74.9879
13.011878055298721 75.8706
13.034339260862497 76.8328
13.056800969391883 78.4046
13.079245674017244 80.9447
13.101708390774869 84.9923
13.12415410463411 94.26100000000001
13.146617833206086 106.363
13.169064559883248 117.855
13.191529303857127 133.119
13.213994557076367 158.016
13.236442809902437 197.362
13.258909083908291 251.295
13.28135835851934 309.661
13.30382565690295 373.94300000000004
13.326293469022952 424.611
13.348744283242008 422.35
13.371213125129904 345.19
13.39366497011003 251.58599999999998
13.416134845360597 167.203
13.438605238843131 121.78
13.46105863690397 108.875
13.483530069144786 110.635
13.505984506951902 116.29
13.528456981549432 126.654
13.550929978879088 143.241
13.573385983253365 168.11599999999999
13.595860028340867 207.081
13.618317081455832 257.233
13.64079217790333 309.506
13.663250283359057 353.619
13.685726434770173 367.272
13.708203115221277 333.586
13.730662806148091 255.273
13.75314054697177 180.71200000000002
13.775601299246777 125.2
13.798080104050406 96.5757
13.820559442405358 85.5386
13.843021793671388 82.1378
13.865502201420897 80.696
13.887965623051947 80.1968
13.910447103807167 79.093
13.932929122629764 77.8664
13.955394156785959 77.4647
13.977877254034569 76.3567
14.000343367582113 75.7742
14.022827546871707 75.1472
14.045294743423524 74.3329
14.06778000837062 73.5569
14.090265817715476 73.229
14.112734645763819 73.1316
14.13522154619454 73.0626
14.157691466286913 72.5954
14.180179461423874 72.2706
14.202668005486178 72.0142
14.22513957064374 71.3743
14.247629214846473 71.042
14.270101881097517 70.8179
14.29259262906496 70.7138
14.315083930490205 71.0058
14.337558255389705 71.3234
14.360050666019726 71.2435
14.382526101071944 70.245
14.405019624534942 69.7517
14.427513705993134 69.5519
14.449990813291825 69.5235
14.47248601302899 69.2857
14.49496423954951 69.2624
14.517460561197822 69.4875
14.539939910570322 69.4891
14.562437357763558 69.8102
14.58493536931253 70.5429
14.607416409993311 71.1415
14.62991555254159 71.5536
14.652397725157423 71.5866
14.674898002342799 71.3116
14.697398848433282 70.9815
14.719882725991326 72.4161
14.74238471217934 74.4835
14.764869730765593 78.6957
14.787372860692983 82.1179
14.809876564079925 86.61200000000001
14.83236330125751 92.9985
14.854868153850365 102.08
14.877356041159485 116.182
14.899862046604186 134.861
14.922351087688757 158.446
14.944858249632887 185.544
14.967365991421232 209.921
14.989856770231246 222.827
15.012365673994204 217.77200000000002
15.03485761569738 185.092
15.05736768508665 144.076
15.07987833888692 110.33
15.102372032001655 89.0755
15.124883856909658 76.6968
15.14737872204565 72.602
15.169891721717274 70.8801
15.192405310371893 70.6078
15.214901940621196 70.7348
15.237416709527137 70.5158
15.259914520936249 70.6302
15.282430473753607 69.7136
15.304947020131227 68.7335
15.327446610371178 68.1278
15.349964346154254 67.5402
15.372465126703139 67.4015
15.394984055556009 67.2704
15.417486030076159 66.9365
15.44000615566487 66.7383
15.462526881230803 66.456
15.485030653812652 66.8293
15.507552581617434 66.6723
15.530057557334603 66.709
15.55258069104857 66.5671
15.575104429329837 66.8423
15.597611216864632 66.6787
15.620136166564563 67.1382
15.6426441664095 69.0665
15.665170331202765 71.9606
15.687697105158826 74.7033
15.710206930593545 78.3001
15.732734925158933 82.69200000000001
15.755245972089478 89.5177
15.77777519094324 98.9492
15.800287463046663 112.62200000000001
15.822817909869592 131.112
15.84534897229804 150.615
15.867863089299354 172.77599999999998
15.890395385222186 189.655
15.912910736597423 193.80200000000002
15.935444269699861 180.136
15.957978423016485 150.778
15.980495633101265 119.085
16.003031029129367 94.1635
16.02554948280019 75.6119
16.048086125229432 67.1851
16.070623392487107 64.8464
16.09314371869582 63.9378
16.11568223789321 63.2048
16.13820381691126 62.4518
16.160743591742527 61.5565
16.183283996022084 60.821999999999996
16.205807461423195 59.9196
16.228349126881973 59.2214
16.25087385432698 59.2887
16.27341678466365 58.6816
16.29594277784926 58.5451
16.31848697676433 58.3847
16.341031811604868 58.4785
16.36355971058487 58.7486
16.3861058195587 58.505
16.40863499352978 57.5956
16.431182380342005 56.9142
16.453730407713202 56.5319
16.476261501364792 56.2629
16.498810812136167 55.9883
16.52134319004079 55.9726
16.54389378792203 55.8719
16.566445031001553 55.6796
16.588979342490088 55.6095
16.61153187824822 55.4654
16.634067483263312 55.2931
16.656621315414416 55.1987
16.679175797408888 54.8669
16.701713349928728 54.9712
16.72426913389191 55.0647
16.74680798922351 55.1562
16.76936507887444 55.3049
16.791905240734874 55.3122
16.814463639794468 55.2839
16.837022695210294 55.3221
16.859564824093756 55.4885
16.882125194503903 56.0597
16.904668639217885 56.4758
16.927230328348003 56.4253
16.949792678493612 56.6796
16.972338104193863 56.1667
16.994901778652235 56.0406
17.017448529496576 56.1469
17.040013531998152 56.583999999999996
17.06257920018044 57.2111
17.0851279459922 57.9142
17.107694947817667 58.925
17.130245028099072 59.602
17.15281336730298 61.0327
17.17536478578733 62.9949
17.19793446610687 65.1994
17.220504818648422 67.8948
17.243058251703697 71.1969
17.265629950971032 75.2667
17.288184731571736 79.249
17.310757781306908 82.8073
17.33333150794385 83.84899999999999
17.355888317140174 81.6972
17.37846339986244 77.0333
17.401021565958885 70.7537
17.42359800851343 65.9061
17.44617513265564 62.1303
17.468735341390783 60.5043
17.491261035594565 59.5098
17.51396340099364 59.4715
17.536490463869136 59.8025
17.559018209820174 59.6396
17.58154663977963 59.7983
17.604251766089718 59.7476
17.626781572227713 60.1324
17.64931206518155 60.4006
17.671843245885103 60.8484
17.69455114821572 60.9983
17.717083712612634 61.3637
17.739616967569667 61.7853
17.762150914021706 61.9063
17.78486160749854 62.2175
17.807396945166804 63.0804
17.829932977143503 64.4435
17.85246970436452 66.1092
17.875183204129467 68.0098
17.897721330097664 69.8256
17.920260154126645 72.3894
17.942799677153296 75.6179
17.9655159983646 79.5741
17.988056927677544 85.3192
18.010598558807683 93.0814
18.033140892692916 102.698
18.05586005052525 112.96799999999999
18.07840379824407 123.92
18.10094825154059 135.097
18.12366954819864 141.665
18.146215420998306 141.253
18.16876200220057 132.368
18.191309292745153 116.925
18.214033452627167 102.743
18.236582170236648 91.7077
18.259131600016456 87.527
18.281681742907335 88.3597
18.304408781233683 92.2471
18.32696035875955 96.7758
18.349512652227624 101.31
18.372065662579683 105.56
18.394795594587553 106.355
18.41735004715306 102.286
18.43990521943684 95.3643
18.46246111238171 85.9843
18.485193953325208 76.6988
18.507751296070428 69.7908
18.530309362314178 65.79899999999999
18.552868153000343 63.7707
18.57560391815056 62.4929
18.59816416623245 62.0329
18.620725141597372 61.6297
18.643286845190268 61.1331
18.666025549835414 60.81399999999999
18.688588718427933 60.2809
18.711152618092243 60.3274
18.73389353884365 59.887
18.75645890921984 59.5343
18.77902501351406 59.1055
18.801591852673102 58.9612
18.824335739722738 58.5349
18.846904057212626 58.4646
18.8694731124168 58.3625
18.89204290628315 58.2506
18.914789774966803 57.8703
18.937361054791623 57.6308
18.959933076131318 57.4072
18.982505839934877 57.3529
19.00525570560582 57.4555
19.027829963004184 57.409
19.05040496572238 57.4786
19.072980714710468 57.4743
19.095733592739563 57.755
19.11831084296757 57.9199
19.140888842324735 58.496
19.16346759176222 58.6239
19.18622349753803 59.3089
19.208803755869358 60.1905
19.231384767143577 61.4504
19.253966532312948 63.0293
19.276725481241822 65.1805
19.29930876296784 67.5215
19.3218928014549 70.3041
19.34465404436217 72.7838
19.36723960516257 75.2079
19.389825925592426 76.2103
19.412413006605938 75.2497
19.43517731967805 71.8657
19.457765930683355 67.4124
19.48035530514408 63.1759
19.50294544401556 59.3365
19.525712842708348 56.677
19.54830451925909 55.729
19.570896963095727 54.6405
19.593490175174704 54.1665
19.616260674962184 54.2447
19.638855432416964 53.9234
19.661450960992624 54.2423
19.68404726164677 53.8585
19.706820878021247 53.8271
19.729418731756834 54.0996
19.752017360452857 53.7855
19.77461676506804 54.0479
19.797393513540218 54.1993
19.819994478951667 54.5672
19.84259622316767 55.0181
19.8651987471481 55.3446
19.887978643247177 55.7155
19.91058273574792 55.9857
19.933187610901943 56.8522
19.955969879466828 58.2628
19.97857632894404 59.8221
20.00118356396599 61.2423
20.023791585494575 63.428999999999995
20.046577028914875 66.006
20.069186632506966 67.992
20.091797025500632 69.766
20.114408208858933 70.288
20.137196842715273 69.64399999999999
20.159809615886765 68.4239
20.18242318232135 65.983
20.20503754298326 63.9888
20.227829382875154 62.537
20.250445341109344 62.5141
20.27306209647285 63.1129
20.29567964993108 64.1655
20.31847471147704 65.1025
20.34109387027612 65.6493
20.363713830075454 65.4022
20.386334591841646 64.118
20.409132890679302 61.3427
20.431755265564437 58.2874
20.454378445325528 55.6689
20.477002430930366 53.5861
20.499803982716553 52.2129
20.522429589228004 51.4965
20.54505600449589 51.2442
20.567683229489194 51.2086
20.590488049900088 50.7819
20.61311690359731 50.6039
20.63574656993626 50.4627
20.658553853717297 49.9959
20.681185154618298 49.9459
20.703817271080066 49.9142
20.72645020407368 49.5059
20.749260783967177 49.3232
20.771895359337133 49.3501
20.794530754161617 49.3281
20.817166969412938 49.3153
20.83998086114876 49.113
20.86261872660049 48.9024
20.885257415405402 49.08
20.90789692853701 49.0882
20.930714147864748 48.967
20.953355319030678 48.9368
20.97599731745334 49.0847
20.99864014410749 48.8619
21.021460706796564 48.971000000000004
21.044105199328826 49.2257
21.06675052302631 49.2831
21.089396678865015 49.4398
21.112220600704806 49.9044
21.134868430275347 50.2832
21.15751709492456 50.5357
21.180166595629693 50.748999999999995
21.202993892429635 51.0879
21.22564507473034 51.4746
21.24829709602816 51.8121
21.27112693608965 51.7083
21.293780644891275 51.7007
21.316435195634053 50.9771
21.339090589297417 50.4983
21.361923832041875 49.8383
21.384580921090404 49.3062
21.407238856007325 48.754
21.429897637773326 48.8171
21.45273429906592 48.6762
21.475394784108598 48.7217
21.498056118951983 48.6318
21.520718304578022 48.9642
21.543558400304388 49.1882
21.566222297108816 49.4222
21.58888704765135 49.5925
21.61155265291521 49.9375
21.63439619898156 50.3893
21.657063523335786 50.4535
21.67973170537063 51.0969
21.7024007460706 51.5325
21.72524775840385 52.3446
21.747918526116475 53.4003
21.770590155457388 54.5438
21.79326264741238 56.1157
21.816113141960237 57.9266
21.838787368860547 59.7073
21.861462461341976 61.4905
21.884315579735777 63.2408
21.90699241312273 64.4912
21.92967011506078 65.221
21.95234868653799 64.7604
21.9752053151131 63.4416
21.997885635446785 61.4385
22.020566828293532 59.5556
22.04324889464272 57.9866
22.066109049404666 56.6696
22.088792872571794 56.1969
22.111477572219204 56.221000000000004
22.1341631493376 56.3549
22.157026846313123 56.23
22.179714188221507 55.4355
22.202402410582668 54.463
22.22509151438863 52.8621
22.24795876962584 51.733999999999995
22.270649646204486 50.9922
22.293341407213727 50.1271
22.316034053646906 49.5777
22.338904883215342 49.3055
22.36159931041458 49.4662
22.38429462602756 49.2279
22.40699083104897 48.9646
22.429865251039757 49.146
22.452563244831367 49.1547
22.47526213102522 49.1021
22.49813925616515 48.9088
22.520839937143307 48.9202
22.543541513520587 48.9525
22.56624398629403 48.7767
22.589124730075895 48.8096
22.611829005656723 49.1135
22.63453418063466 49.0567
22.657240256008077 49.3966
22.680124634582935 49.468999999999994
22.70283252079775 49.7988
22.725541310413075 50.1762
22.74825100442868 50.2181
22.771139033969575 50.7416
22.79385054687155 51.01
22.81656296718292 51.7263
22.83927629590484 52.7416
22.862167992606945 53.6665
22.88488314827121 54.7658
22.907599215359284 55.6491
22.93031619487366 56.8081
22.953211574954405 57.5688
22.975930389478226 58.1068
22.998650119445763 58.4076
23.02137076586092 57.4311
23.044269845560063 56.1969
23.06699233506288 54.297
23.089715744034912 52.7568
23.112617610931565 51.2243
23.135342869061212 50.0833
23.158069049684816 49.3359
23.1807961538087 49.1369
23.20370174880544 49.2196
23.226430710184808 49.2497
23.249160598093425 49.3263
23.271891413539002 49.3131
23.294800752937697 49.3217
23.31753343374794 49.5096
23.340267045128353 49.6602
23.36300158808808 49.9863
23.38591468821339 50.2835
23.408651104658304 50.7004
23.431388455719986 51.4861
23.454126742409 52.24100000000001
23.4770436196085 53.3309
23.499783787914662 54.268
23.522524894889884 55.4206
23.54526694154616 56.2836
23.56818761219047 57.3921
23.59093154860734 57.8728
23.613676427751283 58.2202
23.636422250635754 57.236999999999995
23.659346731118656 55.5456
23.68209445191868 53.5815
23.704843119509587 51.5641
23.72759273490623 49.5784
23.750521041644767 48.2883
23.77327256312355 47.3125
23.796025035462787 46.8347
23.818956224555475 46.4216
23.841710609113413 46.3711
23.86446594758979 46.1273
23.887222241002014 45.7234
23.910157285144578 45.4145
23.932915498962537 45.4904
23.955674670778713 45.299
23.978434801611975 45.1147
24.001373717286125 45.0193
24.024135776723917 44.9484
24.046898798245582 44.8834
24.06966278287146 44.8283
24.092605586582614 44.5558
24.115371508023642 44.3339
24.1381383956401 44.3809
24.16090625045381 44.2483
24.183852958731244 44.1592
24.206622758582608 44.0208
24.229393528706886 43.8604
24.252165270127392 44.0338
24.27511589952438 44.0007
24.297889594216997 43.6557
24.32066426328598 43.5107
24.34343990775613 43.5855
24.36639447485003 43.5061
24.38917208083877 43.3946
24.41195066531332 43.273
24.43490819850244 43.33
24.457688750692377 43.2469
24.48047028445616 43.1851
24.503252800821233 43.2713
24.526214300784112 43.56399999999999
24.548998793132213 43.3487
24.57178427117417 43.1213
24.59457073593893 43.3155
24.617536219319863 43.1503
24.64032466834748 43.2363
24.663114107195035 42.9998
24.685904536893013 42.7714
24.708874020360852 42.7184
24.731666442613744 42.8148
24.754459858818787 42.6505
24.777254270007962 42.5344
24.80022777025625 42.7
24.82302418230472 42.5313
24.845821592443674 42.5477
24.86862000170663 42.5158
24.891597535453727 42.4263
24.914397953892728 42.65
24.93719937456671 42.5274
24.96000179851076 42.7286
24.98298338249997 42.9375
25.00578782394922 43.1496
25.028593271784167 43.2795
25.05157790644186 43.6181
25.07438537804115 43.5797
25.097193859145293 43.9218
25.120003350792075 44.117
25.142992065061257 44.4668
25.165803588823465 44.7177
25.18861612625217 45.0801
25.211429678386736 45.0954
25.234422489079968 45.0595
25.257238081693636 45.0496
25.280054692141732 45.2473
25.3028723214652 45.12
25.325869245420463 45.1588
25.348688923599397 45.104
25.371509623787006 45.1207
25.394331347025812 44.964
25.41733240110666 44.3992
25.440156181590016 43.5859
25.46298098826268 43.1943
25.48580682216873 42.6124
25.50881202326435 42.0366
25.53163992281684 41.6899
25.55446885274561 41.3839
25.577298814096377 41.1239
25.600308179121807 41.0834
25.623140214533745 41.1359
25.64597328451537 41.0604
25.66898578564376 40.87
25.691820936010206 40.9451
25.714657124097695 40.8881
25.737494350954734 40.9393
25.760511045684957 40.8087
25.783350361364224 40.7524
25.806190718969255 40.6504
25.82903211955018 40.824
25.852053024868923 41.0024
25.874896522722523 40.8913
25.897741066713106 40.8438
25.920586657892454 41.06399999999999
25.943611790812668 41.2143
25.966459487728237 41.31
25.989308234998564 41.398999999999994
26.01215803367705 41.6046
26.03518741123814 41.7847
26.05803932412957 41.8608
26.080892291600094 42.0202
26.10374631470478 41.9321
26.12677995397268 41.9507
26.14963609978026 42.1355
26.172493304397875 41.6052
26.19535156888223 41.3645
26.218389486949604 40.9935
26.241249882640123 40.8399
26.26411134137826 40.529
26.28715248187403 40.7611
26.31001607820869 40.4011
26.3328807407756 40.2147
26.35574647063438 40.5464
26.37879191991473 40.4726
26.401659795896734 40.4006
26.424528742360263 40.5734
26.447398760366614 40.6444
26.470448535598294 40.8105
26.49332070826805 41.0347
26.516193955675355 41.505
26.53906827888316 41.6041
26.562122397260108 41.6664
26.584998883685063 42.0009
26.607876449110325 42.2724
26.63075509460056 42.3909
26.65381357334404 42.5426
26.67669439061878 42.5709
26.699576291163382 42.4185
26.722459276044212 42.2073
26.745522132402975 42.0417
26.768407297649354 41.6662
26.791293550442003 41.273
26.814180891848974 41.0625
26.837248143099337 40.8176
26.860137673466657 40.6608
26.88302829566349 40.3995
26.90592001075963 40.3328
26.92899167420566 40.1589
26.951885586870763 39.7108
26.974780595655517 39.5567
26.99785558178161 39.3814
27.020752794605112 39.3586
27.043651106772522 39.1333
27.06655051935668 39.0951
27.089629948036183 38.9004
27.112531573292053 38.9635
27.135434302194138 38.9719
27.158338135817015 38.8716
27.181422024430987 38.8826
27.204328079372566 38.8261
27.22723524226965 38.748000000000005
27.250143514198573 38.8616
27.273231880156334 38.7756
27.296142382065014 38.6741
27.319053996245536 38.5637
27.341966723775965 38.7895
27.365059584515222 38.7961
27.38797455070062 38.797
27.410890633481237 38.6357
27.433807833936918 38.7601
27.456905206923906 38.7412
27.47982465472398 38.717
27.502745223449743 38.8453
27.525666914182825 38.9647
27.548768816912457 38.7618
27.571692763693633 38.7145
27.59461783573812 38.6716
27.617723149491244 38.4324
27.640650484125285 38.4965
27.66357894728264 38.3267
27.686508540048052 38.2965
27.709618414237887 38.26
27.732550278321757 38.0329
27.755483275279115 38.1194
27.778417406196485 38.1581
27.801531858397514 38.228
27.824468269376716 38.1592
27.847405817586786 38.1172
27.870344504116094 38.2113
27.893463551932008 38.3981
27.916404527281053 38.6003
27.93934664422563 38.6739
27.962289903855886 38.5452
27.98541356491974 38.8484
28.00835912214229 38.9776
28.03130582533231 39.1269
28.054253675581805 39.2802
28.077381967556104 39.3849
28.100332124185126 39.2605
28.123283431160893 39.255
28.146235889577238 39.0613
28.169368830154156 38.8734
28.192323603752033 38.7548
28.215279532083304 38.3855
28.238415973016764 38.1276
28.261374223145094 37.9516
28.284333631303806 37.7679
28.307294198589954 37.6358
28.330435319167677 37.3285
28.353398217078915 37.014
28.376362277420153 36.9045
28.39932750129032 36.7508
28.422473319286713 36.6024
28.44544088262495 36.6452
28.468409612800283 36.4776
28.491379510913497 36.2732
28.51453004413313 36.228
28.53750229057244 36.2086
28.56047570826344 36.1559
28.583450298308804 36.0883
28.606605564586562 35.9485
28.629582511831156 35.9597
28.65256063474956 35.8256
28.675539934446338 35.9409
28.698699951647605 35.9197
28.72168161743193 35.8377
28.74466446331978 35.703
28.767648490417624 35.7274
28.790813276438353 35.5824
28.813799678527303 35.6967
28.836787265157085 35.6344
28.859955641890075 35.7025
28.882945610203045 35.6096
28.905936766392035 35.455999999999996
28.928929111566863 35.623000000000005
28.952102288520145 35.4553
28.975097024308607 35.3011
28.998092952423807 35.2637
29.021090073977508 35.1511
29.04426806913204 35.0959
29.067267590245258 34.9222
29.090268308143695 34.7149
29.11327022394099 34.6954
29.13645305530891 34.6834
29.159457379627167 34.5457
29.18246290519685 34.5932
29.20546963313352 34.4946
29.22865731875826 34.6023
29.25166646419296 34.4469
29.27467681535305 34.4294
29.29768837335608 34.5307
29.320880931312562 34.5356
29.34389491580634 34.4918
29.366910110507334 34.4766
29.38992651653503 34.4861
29.41312396492981 34.4498
29.436142806456754 34.3069
29.45916286268059 34.2523
29.48236399319994 34.2362
29.50538649169417 33.9916
29.528410208259935 34.0154
29.55143514402014 33.7807
29.574641196749695 33.5651
29.597668583816574 33.3991
29.6206971934585 33.31
29.64372702680042 33.3496
29.666938019934474 33.3763
29.689970313635285 33.2739
29.713003834422636 33.1869
29.73603858342347 33.1315
29.759254535188578 33.0233
29.78229175361658 33.0331
29.80533020365064 33.1155
29.82836988641968 33.089
29.85159081507472 33.1187
29.874632976355343 32.9267
29.89767637376955 32.9504
29.920721008448314 32.8466
29.9439469322847 32.9435
29.96699405457564 32.8013
29.9900424175358 32.7068
30.013092022298157 32.6623
30.03632295963995 32.6954
30.059375061131373 32.7819
30.08242840783577 32.7608
30.105483000888153 32.703
30.128718970092244 32.6517
30.151776069006917 32.5645
30.17483441768648 32.63
30.198074175317235 32.6484
30.221135036724256 32.5986
30.24419715131772 32.4862
30.267260520236203 32.5323
30.290505341942243 32.5042
30.313571232750228 32.6292
30.336638381310948 32.5514
30.35970678876503 32.4009
30.38295669299435 32.4444
30.40602763151657 32.4315
30.429099832366074 32.3668
30.452173296685572 32.3089
30.47542830191959 32.2356
30.498504306502497 32.2839
30.521581577995562 32.3877
30.544660117543582 32.3588
30.56792024229725 32.4265
30.59100133132069 32.3531
30.614083691845494 32.3811
30.637167325018545 32.391
30.660432587840603 32.5009
30.683518779717886 32.4331
30.70660624769615 32.4135
30.729694992924372 32.4691
30.75296541239743 32.416
30.77605672557558 32.3351
30.799149319462742 32.3003
30.8224236211637 32.126999999999995
30.845518789950724 32.0693
30.868615242910597 31.9835
30.891712981195973 31.8398
30.91499247215866 31.807
30.938092794619365 31.7171
30.96119440587579 31.7663
30.984297307082752 31.6522
31.00758200598383 31.5021
31.030687500658694 31.4675
31.053794288760695 31.4019
31.076902371446767 31.2979
31.100192296997445 31.3129
31.12330298246119 31.2784
31.14641496599209 31.2358
31.169528248749216 31.1138
31.19282341969534 31.2019
31.215939314557186 31.2464
31.239056512134788 31.2349
31.262175013589378 31.1865
31.28547544871168 31.1195
31.30859657161541 31.0792
31.331719001892175 31.1005
31.35484274070538 31.2068
31.378148458819545 31.1419
31.401274828443725 31.1284
31.424402510106933 31.1706
31.447712205419993 31.1317
31.470842524931633 30.9647
31.493974159989783 30.991999999999997
31.51710711176168 31.0163
31.54042212308802 31.0103
31.563557722100917 31.0374
31.586694641341655 30.9461
31.609832881979628 30.7573
31.63315322823208 30.6391
31.656294125521327 30.5246
31.679436347728515 30.5336
31.70257989602529 30.4817
31.725905596152327 30.384
31.74905181052835 30.3587
31.772199354521323 30.3491
31.79534822930507 30.4048
31.818679302290967 30.3882
31.84183085259981 30.3518
31.864983737233473 30.3736
31.88813795736804 30.4241
31.911474422233013 30.2676
31.934631327356435 30.3122
31.9577895715215 30.2669
31.980949155906522 30.2625
32.004291031706956 30.2962
32.027453310562606 30.2648
32.05061693318573 29.9611
32.07396288236386 29.9986
32.09712920658542 29.9064
32.12029687812702 29.8407
32.14346589817093 29.6576
32.166817291729984 29.6548
32.18998902288583 29.6454
32.21316210610336 29.6357
32.23633654256711 29.4059
32.259693399663725 29.4084
32.282870556771144 29.3841
32.30604907069099 29.364
32.329228942610065 29.2591
32.35259128243769 29.2115
32.375773884550505 29.1695
32.398957848235646 29.0294
32.422143174682176 29.0909
32.445511016471215 28.9599
32.468699082679954 28.9076
32.49188851523011 28.8799
32.51507931531304 28.8554
32.538452678331 28.8792
32.56164622776311 28.6976
32.58484114831493 28.605
32.60803744118015 28.7909
32.631416344731896 28.7654
32.654615396551876 28.71
32.67781582427913 28.6371
32.701198898634416 28.5213
32.72440209253756 28.4964
32.747606665947124 28.4292
32.77081262006088 28.289
32.79420126883317 28.2875
32.81740999876112 28.3773
32.840620112999424 28.191
32.86383161274818 28.1943
32.88722585534586 28.252
32.91044014056596 28.2078
32.933655814909734 28.1544
32.95687287957963 28.1496
32.98027273544904 28.1302
33.00349259526636 28.0433
33.026713849030116 28.0916
33.04993649794511 28.1075
33.073341986570746 27.9867
33.09656744032826 27.9552
33.11979429286444 27.8932
33.14302254538647 27.9868
33.166433686291185 27.8917
33.18966475336992 27.8406
33.212897224069096 27.8234
33.23613109959831 27.7925
33.259547912343415 27.7898
33.2827846121627 27.7838
33.306022720453775 27.6811
33.32926223842861 27.6061
33.352684742614166 27.6175
33.37592709463173 27.5576
33.399170859982064 27.395
33.422597648419426 27.4346
33.44584425514446 27.3396
33.46909227885668 27.2883
33.4923417207723 27.1627
33.51577423505344 27.2195
33.539026528130385 27.0929
33.56228024307245 27.0664
33.585535381098246 26.9956
33.60897364093058 26.9134
33.63223163992385 26.9738
33.6554910656699 26.8596
33.678751919389796 26.8025
33.702195944520106 26.7925
33.72545966903325 26.8149
33.74872482519663 26.6725
33.771991414233746 26.6895
33.79544122444841 26.6534
33.81871069412428 26.5866
33.84198160035767 26.4869
33.86525394437455 26.5268
33.88870955949969 26.3706
33.911984794020626 26.5025
33.93526147001624 26.4073
33.958539588715006 26.4841
33.98200102861669 26.2485
34.0052820477047 26.225
34.02856451319451 26.3004
34.05203033759056 26.173000000000002
34.07531571090147 26.1379
34.09860253431845 26.0702
34.121890809074316 25.9462
34.145362493118924 26.0746
34.16865368561615 26.1572
34.191946333164054 26.0006
34.21524043699793 25.923000000000002
34.23871800066799 25.8805
34.26201503218366 25.7923
34.28531352370466 25.7982
34.30861347646881 25.7883
34.33209693978188 25.7597
34.3553998301885 25.7215
34.378704185565205 25.5589
34.402010007152356 25.5598
34.42549939016683 25.521
34.44880815937748 25.4955
34.472118398533134 25.3635
34.49543010887669 25.4038
34.51892543169198 25.3296
34.54224009966052 25.3484
34.56555624255917 25.3134
34.58887386163339 25.1522
34.61237514439016 25.1623
34.6356957311114 25.1581
34.65901779775809 25.0118
34.68252356662995 25.0294
34.705848608458616 25.1122
34.72917513396849 24.9981
34.75250314440949 24.9835
34.77601490857862 24.8749
34.799345904259795 24.8624
34.82267838863559 24.8326
34.846012362958525 24.8079
34.869530142679984 24.7637
34.89286711232212 24.7667
34.91620557568269 24.7211
34.93954553401677 24.6629
34.9630693495876 24.6853
34.986412313340814 24.6324
35.00975677584668 24.6068
35.033102738362956 24.5623
35.05663261012228 24.5609
35.0799815881786 24.493000000000002
35.10333207003229 24.4546
35.12668405694369 24.5124
35.150220005273056 24.471999999999998
35.17357501786656 24.418000000000003
35.19693153931268 24.3289
35.220289570874385 24.2391
35.24383161619786 24.2764
35.267192683604904 24.3816
35.290555264930376 24.2869
35.314101899412165 24.2114
35.33746752422433 24.2761
35.36083466676374 24.2074
35.38420332829803 24.0501
35.407756095629054 24.1456
35.43112781085063 24.0993
35.45450104888391 24.0984
35.477875810999194 24.1094
35.50143473172161 23.9954
35.52481255774625 24.0832
35.54819191167777 23.9551
35.57157279478914 23.9036
35.595137889488406 23.9324
35.61852184675279 23.9266
35.641907337029984 23.7518
35.665294361595684 23.7057
35.68886565090076 23.6903
35.7122557598848 23.6979
35.73564740699838 23.7258
35.759040593519934 23.6488
35.78261809810353 23.6056
35.80601437933051 23.5259
35.829412203814705 23.5133
35.85281157283719 23.4242
35.876395313415884 23.5281
35.8997977874528 23.3773
35.92320180988546 23.3292
35.946790244133936 23.2324
35.97019737933222 23.2781
35.993606066789866 23.2734
36.01701630779276 23.1543
36.04061101440684 23.1006
36.06402437852291 23.2236
36.08743930005611 23.1004
36.1108557802951 23.0121
36.13445678011326 22.9442
36.15787639383515 23.0291
36.18129757014299 22.9975
36.20472031032821 22.86
36.22832762423364 22.7802
36.25175350829375 22.8665
36.275180960119776 22.7941
36.298609981005924 22.8478
36.32222362992669 22.7449
36.34565580510207 22.7072
36.36908955323448 22.7076
36.39252487562093 22.592
36.416144880530226 22.6697
36.43958336764275 22.6038
36.463023432914625 22.5642
36.486465077645676 22.5427
36.51009145956204 22.5627
36.53353627947859 22.5598
36.55698268276811 22.5405
36.58043067073321 22.4253
36.60406345072071 22.2987
36.62751462435344 22.2978
36.65096738658405 22.328000000000003
36.67460498210655 22.2503
36.69806093788647 22.2524
36.72151848619297 22.1551
36.744977628333636 22.2405
36.76862165890998 22.1098
36.79208400512205 22.026
36.81554794910557 22.0909
36.83901349217101 22.0
36.862663978991606 22.0289
36.88613273667352 21.9327
36.90960309738324 21.8845
36.933075062434064 21.7824
36.95673202673572 21.788
36.98020721697122 21.8266
37.003684015502365 21.7632
37.027162423645365 21.705
37.050825886711465 21.7722
37.07430753063053 21.6119
37.09779078812467 21.6587
37.121275660513014 21.6407
37.144945643673694 21.5223
37.16843376245278 21.5949
37.19192350009803 21.5607
37.215414857931435 21.4872
37.239091382563885 21.3571
37.262585997426164 21.3814
37.28608223645736 21.3749
37.309763684451696 21.3478
37.33326318851098 21.3537
37.356764320726555 21.3061
37.380267082425526 21.2669
37.40395510942588 21.2416
37.42746114683234 21.1944
37.45096881771841 21.0348
37.474478123414166 21.1357
37.49817275092816 21.1097
37.52168534303452 21.0411
37.54519957395567 21.0008
37.568715445024665 20.9181
37.592416694607714 20.8951
37.61593586281424 20.9485
37.63945667518264 20.9402
37.66297913304891 20.79
37.68668702630454 20.8239
37.710212792059274 20.74
37.733740207334854 20.7501
37.757269273470364 20.7127
37.780983832050374 20.6808
37.80451621684926 20.6162
37.82805025654007 20.5929
37.851585952464795 20.5473
37.8753071980695 20.5108
37.89884622345676 20.4582
37.92238690911902 20.4494
37.94611318753442 20.4188
37.969657210779765 20.4197
37.99320289834801 20.418
38.016750251586465 20.3849
38.04048325513017 20.3354
38.06403395679343 20.2943
38.087586328183946 20.2723
38.11114037065203 20.2651
38.13488012115898 20.2185
38.1584375229181 20.1354
38.181996599821 20.1439
38.205557353221124 20.0721
38.229303872575656 20.0166
38.2528679961576 20.0179
38.27643380031219 19.9794
38.30000128639589 19.9648
38.32375459653193 19.941
38.34732546371299 19.9536
38.37089801690786 19.917
38.39447225747609 19.81
38.418232380377425 19.7349
38.441810012983396 19.8275
38.46538933705673 19.7303
38.488970353960084 19.7525
38.51273731166058 19.7497
38.536321731567014 19.6589
38.55990784840681 19.6164
38.58367995004091 19.5692
38.60726947812959 19.5408
38.63086070726198 19.5568
38.654453638806274 19.6169
38.678232613930824 19.4888
38.70182896773327 19.4453
38.72542702806741 19.423
38.7490267963045 19.3453
38.77281266709232 19.3033
38.79641586862214 19.2894
38.8200207821842 19.2176
38.843627409152944 19.1974
38.86742019782782 19.164
38.891030269149255 19.1297
38.914642058016156 19.191
38.938255565806124 19.1311
38.96205529464307 19.0592
38.98567225787121 19.0599
39.00929094417078 19.0565
39.03291135492255 19.0041
39.05671804624804 19.0063
39.080341923549106 18.9459
39.103967529460334 18.9559
39.127594865365744 18.8385
39.15140854155791 18.7472
39.17503935514948 18.8044
39.19867190290282 18.7669
39.22249083587951 18.7484
39.24612686969409 18.7438
39.269764641845306 18.7637
39.293404153722804 18.6791
39.317230110864074 18.6006
39.34087311998506 18.5622
39.36451787301696 18.5557
39.388164371352595 18.4822
39.41199737518003 18.4586
39.43564738196752 18.4489
39.45929913825317 18.4451
39.48295264543308 18.4037
39.506792718520884 18.3979
39.530449745387216 18.3801
39.55410852735203 18.3819
39.57776906581474 18.3417
39.60161623079 18.2819
39.625280300200025 18.2139
39.64894613032202 18.2585
39.67261372255866 18.1106
39.6964680021016 18.1211
39.72013913657293 18.1381
39.74381203738292 18.123
39.76748670593756 18.1094
39.79134812278169 18.0528
39.81502634488497 18.1001
39.83870633896685 18.0147
39.862388106436654 17.9442
39.88625668336918 18.0054
39.90994201572829 18.0258
39.933629125719285 17.9097
39.957503091207826 17.8576
39.9811937746168 17.8588
40.00488623990914 17.7894
40.02858048850006 17.7193
40.05246165409549 17.6878
40.076159487492085 17.6392
40.099859108448875 17.6509
40.123560518384345 17.61
40.1474489070226 17.5814
40.171153913178564 17.5886
40.194860712584955 17.5966
40.2185693066637 17.5579
40.242464941335314 17.5013
40.26617714307655 17.5016
40.289891143772046 17.5156
40.3136069448471 17.4444
40.33750984859743 17.4471
40.3612292688043 17.3987
40.3849504936829 17.3716
40.40867352466194 17.3355
40.43258372059144 17.2525
40.45631038219906 17.2815
40.48003885420956 17.1987
40.503769138055105 17.1987
40.52768664931955 17.1602
40.55142057531802 17.1629
40.57515631746428 17.1445
40.599079334038514 17.1042
40.62281872700477 17.0881
40.64655994043941 17.0883
40.67030297578061 17.0759
40.69423334835778 17.0136
40.71798004609188 16.9397
40.74172857006355 16.9172
40.76547892171441 16.9048
40.7894166736039 16.8875
40.813170699248566 16.8484
40.83692655691388 16.8046
40.86068424804498 16.8084
40.884629402612525 16.7653
40.908390779366385 16.814
40.932153993938 16.7352
40.95591904777605 16.6902
40.979871628443995 16.6817
41.003640379561936 16.6519
41.02741097430883 16.6282
41.05118341413683 16.5982
41.075143444384416 16.6076
41.098919593177826 16.5989
41.1226975914255 16.5456
41.14647744058318 16.5146
41.170444943946755 16.4253
41.19422851378379 16.3698
41.218013938914645 16.4102
41.24198706625173 16.298
41.26577622087193 16.3265
41.289567235177785 16.2668
41.31336011063129 16.267
41.337340752422875 16.1903
41.361137369129835 16.2991
41.38493585138705 16.1944
41.40873620066004 16.1645
41.43272438060107 16.1591
41.45652848292052 16.1062
41.48033445666918 16.0832
41.50414230331616 16.1059
41.528138045159764 16.0713
41.551949656675205 15.9956
41.575763145513235 16.0335
41.59957851314666 16.004
41.62358184070442 15.918
41.64740098505737 15.9057
41.6712220126409 15.8161
41.69504492493139 15.765999999999998
41.71905586207357 15.7686
41.74288256296395 15.8108
41.766711153007456 15.8018
41.79054163368412 15.7628
41.814560204340054 15.7968
41.838394485526365 15.7319
41.86223066180303 15.6823
41.88625497706819 15.6586
41.910094962812 15.6542
41.93393684811168 15.5685
41.95778063445365 15.5476
41.981812625263366 15.5512
42.00566023303407 15.5069
42.029509746323676 15.5411
42.05336116662236 15.5302
42.077400857069705 15.4419
42.10125611078846 15.4256
42.12511327600405 15.4188
42.14897235421036 15.4035
42.173019768448455 15.354000000000001
42.19688269209613 15.3129
42.22074753323349 15.3286
42.24461429335818 15.228
42.268669455600495 15.2421
42.292540073217886 15.1838
42.31641261433284 15.1604
42.34028708044675 15.172
42.36435001496739 15.1731
42.38822835065557 15.151
42.41210861586426 15.0605
42.4359908120986 15.0549
42.46006154323262 15.0458
42.48394762115317 14.9968
42.507835634632315 14.9988
42.531912233047436 14.9923
42.55580413732265 14.939
42.579697981698 14.9043
42.60359376768525 14.8811
42.62767820545945 14.8235
42.65157789440821 14.7972
42.67547952952185 14.8066
42.699383112316 14.8021
42.72347541395347 14.7183
42.74738291190531 14.7164
42.771292362102166 14.7079
42.795203766063516 14.6742
42.819303956130405 14.6349
42.843219287476536 14.6009
42.86713657716324 14.5955
42.89105582671383 14.5399
42.91516392983864 14.5179
42.939087119032166 14.5487
42.963012272677304 14.4805
42.98693939230129 14.51
43.01105543317513 14.4726
43.034986504731386 14.4056
43.05891954686589 14.3757
43.08285456110972 14.4122
43.10697856448665 14.3031
43.130917542983475 14.2946
43.15485849820081 14.3068
43.17880143167367 14.3123
43.20293342237094 14.2411
43.226880332449 14.2272
43.25082922540554 14.2274
43.27496722682525 14.1828
43.29892010567796 14.1909
43.32287497204102 14.1371
43.34683182745632 14.0951
43.370977859791836 14.0972
43.39493871351105 14.089
43.41890156092628 14.0611
43.44286640358341 14.0848
43.46702049182749 14.0321
43.49098934522816 13.9893
43.51496019852649 13.9323
43.5389330532723 13.9195
43.56309522248204 13.845
43.58707210044314 13.8457
43.61105098451946 13.7662
43.63503187626491 13.8252
43.659202151562134 13.7725
43.68318707902681 13.7631
43.70717401884041 13.7671
43.731162972560874 13.6834
43.75534137913236 13.7009
43.779334381108384 13.6924
43.803329401683186 13.6464
43.82732644241872 13.6553
43.8515130055166 13.6597
43.87551410707659 13.5999
43.89951723350145 13.6041
43.923709934595614 13.5366
43.94771713129917 13.4655
43.97172635758096 13.4886
43.99573761501002 13.4865
44.0199385169922 13.485999999999999
44.04395385732619 13.4291
44.067971233533086 13.419
44.09199064718605 13.4575
44.11619977548961 13.3558
44.14022328470671 13.3542
44.16424883610785 13.3065
44.18827643127035 13.2709
44.21249381139513 13.2544
44.236525514814076 13.24
44.26055926674478 13.253
44.28459506876863 13.2277
44.3088207262813 13.1405
44.33286064928722 13.1129
44.35690262714919 13.1188
44.38094666145278 13.1363
44.4051806219871 13.0801
44.42922879003185 13.0416
44.45327901929361 12.9993
44.477331311362136 13.0215
44.501573600619416 12.9787
44.525630039221795 12.9655
44.54968854541895 12.9216
44.573937102200176 12.9409
44.5979997645541 12.9295
44.622064499300315 12.9121
44.64613130803592 12.838
44.67038823869318 12.9108
44.69445921643748 12.8604
44.718532272981385 12.7877
44.742607409926194 12.7249
44.76687274034801 12.7256
44.79095205918753 12.6712
44.81503346325094 12.6841
44.839116954143876 12.6744
44.86339071028742 12.5941
44.88747839599524 12.6404
44.91156817336837 12.6162
44.93566004401666 12.5937
44.959942251908146 12.5303
44.984038330325966 12.5286
45.00813650686762 12.4821
45.03223678314731 12.5114
45.05652746888232 12.4571
45.08063196592069 12.4364
45.104738567558705 12.3961
45.128847275414856 12.3888
45.15314646515866 12.345
45.17725940679741 12.3527
45.20137445952892 12.3743
45.22568004865265 12.2908
45.24979934496396 12.2542
45.27392075725247 12.2498
45.29804428714431 12.2378
45.322358426247604 12.251
45.346486212804315 12.1935
45.370616121861914 12.198
45.39474815505086 12.2198
45.41907087049246 12.1397
45.4432071734666 12.0731
45.46734560548283 12.0983
45.49148616817604 12.0438
45.51581748638564 12.0584
45.5399623320197 12.0428
45.56410931325473 12.0255
45.58825843173002 12.0224
45.61259837920865 11.9197
45.636751793816 11.9851
45.66090735060093 11.9415
45.68506505120716 11.9244
45.7094136545275 11.8916
45.73357566449271 11.8591
45.75773982322992 11.8494
45.78190613238733 11.8319
45.806263418194064 11.8177
45.83043404997326 11.7767
45.85460683713677 11.7562
45.87897065658495 11.7273
45.90314777634752 11.6765
45.92732705646868 11.7082
45.9515084986045 11.6898
45.97588104735473 11.6581
46.00006683541565 11.6299
46.02425479047904 11.5976
46.04844491420549 11.5889
46.0728262191024 11.6135
46.09702070211635 11.5633
46.12121735879483 11.5397
46.14541619080294 11.5662
46.169806278764455 11.5212
46.194009483459034 11.5309
46.21821486849841 11.4744
46.24242243555223 11.4096
46.266821333570014 11.4241
46.29103328674601 11.3539
46.31524742696538 11.4058
46.33946375590237 11.4198
46.36387149104216 11.3064
46.38809221957392 11.2593
46.41231514186606 11.2867
46.436540259597464 11.2667
46.460956858999374 11.2142
46.48518638983522 11.2114
46.509418121166966 11.1928
46.533652054678114 11.1804
46.55807754555709 11.1304
46.58231590571962 11.0943
46.60655647313217 11.1128
46.630988654873654 11.0999
46.655233659129024 11.0459
46.67948087571551 11.0316
46.70373030632484 11.0108
46.72817142736393 11.0355
46.752425308428684 11.0094
46.77668140861147 10.9809
46.80093972960865 10.9503
46.82538981736788 10.9353
46.849652602470904 10.9012
46.87391761349769 10.8472
46.8981848521493 10.9054
46.9226439341274 10.8378
46.946915650573224 10.8405
46.97118959976749 10.7859
46.99546578341598 10.800999999999998
47.019933887188216 10.7703
47.04421456235744 10.7937
47.06849747711879 10.7438
47.09278263318286 10.6786
47.11725978640143 10.7103
47.14154944775105 10.6767
47.165841355555656 10.6209
47.1901355115306 10.6117
47.214621741924994 10.5925
47.23892041698887 10.6002
47.26322134538975 10.5443
47.28771440635075 10.5551
47.31201986422527 10.5843
47.33632758061436 10.5112
47.360637557241866 10.4708
47.38513974410611 10.4767
47.40945426407847 10.4307
47.43377104948137 10.454
47.45809010204344 10.4207
47.48260144275502 10.4034
47.506925052572285 10.3692
47.53125093475548 10.3436
47.55557909103813 10.3343
47.58009961361992 10.3001
47.60443234110732 10.2918
47.62876734791564 10.2898
47.65310463578333 10.2623
47.6776343683373 10.2689
47.7019762413987 10.2124
47.72632040075572 10.2475
47.75066684815169 10.2041
47.77520581885936 10.1578
47.799556865477655 10.1608
47.823910205386 10.16
47.84826584033272 10.0998
47.87281407745551 10.0724
47.89717432569297 10.1024
47.92153687423484 10.0962
47.94609208429692 10.0157
47.97045925671401 10.0182
47.99482873471275 10.0085
48.01920052005013 9.980369999999999
48.04376504619224 9.96443
48.068141469543484 9.98615
48.09252020552573 9.94138
48.11690125590099 9.943760000000001
48.1414751266064 9.923210000000001
48.16586082917454 9.896980000000001
48.19024885144316 9.84949
48.2146391951793 9.86107
48.239222439012764 9.84864
48.26361744916137 9.828
48.28801478610016 9.82037
48.31241445160131 9.77411
48.337007097209366 9.77458
48.36141144338331 9.69859
48.38581812345755 9.68769
48.41022713920929 9.69485
48.434829215320704 9.694139999999999
48.45924292604658 9.65831
48.48365897780325 9.672939999999999
48.50807737237308 9.63145
48.532688907799276 9.62093
48.55711201168574 9.622
48.581537463754074 9.58174
48.60615611725119 9.57064
48.63058628942721 9.58282
48.65501881516546 9.551810000000001
48.6794536962573 9.507710000000001
48.70408185970339 9.489139999999999
48.72852147531801 9.43545
48.75296345168211 9.44004
48.77740779059232 9.44186
48.80204549302823 9.43947
48.82649458091802 9.43345
48.85094603676547 9.40891
48.87539986237231 9.3624
48.90004713292306 9.34989
48.92450572200832 9.30529
48.94896668628025 9.31493
48.97343002754588 9.33717
48.99808689542115 9.294039999999999
49.02255501470614 9.2966
49.04702551642794 9.257719999999999
49.0714984023988 9.25228
49.096164896893235 9.23857
49.120642575466796 9.18885
49.145122643748394 9.19875
49.16960510355558 9.17615
49.19428125404938 9.16667
49.2187685210852 9.15112
49.243258185121555 9.101280000000001
49.26794160167084 9.11468
49.2924360839405 9.065669999999999
49.31693296869764 9.077810000000001
49.34143225776915 9.06183
49.36612538195438 9.04953
49.39062950396021 9.02488
49.41513603578346 8.98025
49.4396449792564 8.96733
49.46434784069503 8.98298
49.488861631846454 8.936010000000001
49.513377840166804 8.89428
49.537896467493745 8.867560000000001
49.56260909589029 8.871360000000001
49.587132585683285 8.84057
49.611658500018365 8.86322
49.636186840738596 8.8408
49.66090926588511 8.80788
49.685442483902584 8.82183
49.70997813385706 8.73878
49.734516217597076 8.77016
49.75924846937352 8.74116
49.7837914452858 8.73343
49.80833686055187 8.71745
49.83288471702571 8.69617
49.85762682540054 8.71798
49.882179588965734 8.64283
49.9067347993235 8.61858
49.93129245833333 8.62238
49.95604445336378 8.593
49.98060703442832 8.57098
50.005172069746266 8.572230000000001
50.02993150438364 8.5604
50.05450147301533 8.56109
50.07907390151433 8.50742
50.10364879174981 8.48231
50.12841816587289 8.48643
50.1529980044635 8.47074
50.17758031042124 8.46449
50.20216508562089 8.45963
50.22694442953363 8.44622
50.25153416817468 8.4121
50.27612638170508 8.3587
50.300721072005196 8.35886
50.325510416102105 8.36656
50.350110084975064 8.32605
50.37471223628208 8.34918
50.39931687190919 8.33076
50.424116246675766 8.28638
50.44872587605249 8.260660000000001
50.47333799543065 8.26295
50.49795260670191 8.2762
50.52276204271512 8.209019999999999
50.54738166295838 8.2463
50.57200378079314 8.19972
50.596628398116835 8.19365
50.62144792604559 8.18693
50.646077567609396 8.14945
50.670709714377715 8.16898
50.69553683636198 8.12825
50.72017401885922 8.0755
50.7448137122895 8.091619999999999
50.76945591856022 8.06063
50.79429318636823 8.0609
50.818940443716784 8.073360000000001
50.84359021965163 8.02338
50.868242516085964 8.0102
50.893089960641895 7.94773
50.917747323549435 7.95078
50.94240721271973 7.98088
50.96706963007175 7.91708
50.99192728239342 7.89745
51.01659478166073 7.96563
51.04126481489051 7.92948
51.06593738400761 7.90526
51.090805275207074 7.88013
51.11548294172845 7.8856
51.14016314993547 7.850230000000001
51.164845901758845 7.834510000000001
51.18972406304274 7.83778
51.21441192780656 7.76935
51.23910234200271 7.7976600000000005
51.2637953075678 7.760510000000001
51.288683770237945 7.74953
51.31338186432707 7.734789999999999
51.33808251561888 7.7126399999999995
51.362978729967345 7.7193
51.387684521509755 7.68562
51.41239287610203 7.66701
51.437103795691165 7.68748
51.46201036644977 7.6360600000000005
51.486726441956634 7.61539
51.51144508832545 7.598610000000001
51.536166307509156 7.583489999999999
51.56108326624387 7.56889
51.58580965706056 7.5648
51.61053862657523 7.51888
51.635270176746864 7.49596
51.66019755512065 7.5234
51.68493429268881 7.50028
51.70967361681515 7.48327
51.73441552946465 7.463419999999999
51.759353359237934 7.461310000000001
51.7841004750961 7.43487
51.80885018539685 7.45679
51.833602492111254 7.42616
51.8585508051424 7.39473
51.883308330926425 7.378939999999999
51.90806845906181 7.3506
51.932831191525715 7.32626
51.95779001977161 7.311730000000001
51.98255798721516 7.31505
52.00732856494335 7.269660000000001
52.03229530577543 7.29811
52.057071130455945 7.25898
52.081849571391054 7.25593
52.106630630568695 7.27129
52.13160794279417 7.19526
52.15639426492067 7.20298
52.18118321127822 7.204389999999999
52.205974783860896 7.17908
52.23096269971011 7.17807
52.255759551287994 7.206860000000001
52.280559035098186 7.132999999999999
52.30536115314103 7.09819
52.33035970494467 7.099010000000001
52.35516711807904 7.10615
52.37997717147198 7.050039999999999
52.40478986713005 7.06332
52.42979908731974 7.04445
52.454617094216 7.04493
52.47943774942214 6.98521
52.50426105495102 6.98965
52.529280976059844 6.96841
52.554109609024096 6.98692
52.57894089837482 6.93974
52.60377484613117 6.929889999999999
52.62880550079408 6.926139999999999
52.65364479223379 6.913939999999999
52.67848674816189 6.8810899999999995
52.70352547971946 6.88243
52.72837279155837 6.86293
52.753222773982785 6.84306
52.778075429022984 6.85924
52.80312495150885 6.87362
52.827982978797436 6.78868
52.85284368481815 6.79502
52.87770707160767 6.7751399999999995
52.90276741793998 6.7595600000000005
52.92763619336701 6.72479
52.952507655698504 6.73128
52.977381806977576 6.70835
53.00245301017842 6.72083
53.02733256653592 6.7298800000000005
53.052214817996074 6.69813
53.077099766608484 6.68438
53.102181859804446 6.67152
53.127072229988265 6.672610000000001
53.15196530349892 6.65061
53.17686108239249 6.59743
53.20195409881522 6.58989
53.22685531582556 6.595160000000001
53.25175924441303 6.5492099999999995
53.27666588664027 6.5648800000000005
53.30176985962693 6.52497
53.3266819565689 6.4771
53.35159677336455 6.53488
53.376514312083096 6.55492
53.40162927507703 6.5384199999999995
53.42655228516116 6.4608099999999995
53.45147802340193 6.44444
53.47660125628886 6.4116
53.50153247842639 6.4583699999999995
53.52646643496923 6.40836
53.55140312799818 6.42065
53.576537409691696 6.37885
53.60147960336152 6.38451
53.626424539786164 6.3321
53.65137222105307 6.327380000000001
53.67651758529126 6.33911
53.70147078399681 6.3099300000000005
53.72642673383343 6.29044
53.75138543689533 6.28474
53.776541917524526 6.29713
53.801506154876755 6.29841
53.826473151763246 6.23062
53.851442910284916 6.17202
53.87661054126026 6.243519999999999
53.9015858509782 6.1928
53.92656392866066 6.18082
53.95154477641532 6.19477
53.976723591801296 6.14382
54.00171000771266 6.193630000000001
54.02669920004598 6.18184
54.051691170915745 6.14546
54.076881204886796 6.14754
54.101878760928514 6.12389
54.12687910187696 6.072369999999999
54.152077577768296 6.04598
54.1770835166946 6.05446
54.20209224691339 6.06391
54.22710377055121 6.09786
54.25231352511594 6.04699
54.27733066384342 5.97084
54.30235060239643 5.9966
54.32737334290836 5.9896199999999995
54.35259441062629 5.94728
54.377622783395324 5.893009999999999
54.40265396455061 5.94905
54.42768795623251 5.90712
54.45292037169559 5.871519999999999
54.477960012857906 5.8924900000000004
54.50300247099511 5.85677
54.52804774825457 5.84249
54.55329154616743 5.79375
54.57834249018678 5.7705400000000004
54.6033962597977 5.785769999999999
54.6284528571545 5.79016
54.653708072335164 5.74591
54.67877035378786 5.75812
54.70383546947698 5.71345
54.72890342156389 5.64765
54.7541700889442 5.64838
54.77924374251975 5.63919
54.8043202390049 5.637169999999999
54.82959552413022 5.58367
54.8546777351945 5.58301
54.87976279569621 5.5304
54.90485070780914 5.5793800000000005
54.930137506558005 5.52674
54.95523115074295 5.53841
54.98032765308844 5.46889
55.005427015775496 5.4382
55.03072536339621 5.44129
55.05583047570572 5.386080000000001
55.080938454927676 5.4155
55.10604930325027 5.39835
55.131359235107396 5.372719999999999
55.15647585066083 5.322690000000001
55.181595341907496 5.3082199999999995
55.20671771104285 5.292999999999999
55.232039262617704 5.29519
55.25716741665048 5.27409
55.28229845518636 5.2140699999999995
55.30743238042802 5.125369999999999
55.33276558731939 5.20677
55.357905315183636 5.13459
55.383047936390035 5.04711
55.40819345314859 5.077459999999999
55.433538351073295 5.12827
55.458689688238415 5.12394
55.483843927614096 5.02545
55.509197623043605 5.01106
55.53435769621134 5.046880000000001
55.55952067826466 4.94591
55.5846865714265 4.96615
55.61005202069737 4.92382
55.63522376553902 4.89607
55.66039842818645 4.8848
55.68557601087004 4.8467
55.7109532500271 4.77568
55.73613670233794 4.853219999999999
