TT I
1.2716486653135266 8.205810000000001
1.2939594142134223 8.25002
1.3162702121660406 8.16106
1.3385810600174564 7.271889999999999
1.3608919586137629 6.8764199999999995
1.383202908801069 6.980689999999999
1.405513911425503 6.47641
1.4278249673332093 6.81446
1.4501343378461518 7.0129600000000005
1.4724455028545926 6.19276
1.4947567236847858 5.860580000000001
1.517068001182951 6.68065
1.5393793361953272 6.1482
1.5616907295681737 6.473380000000001
1.5840021821477681 5.73215
1.60631369478041 5.88679
1.6286252683124185 6.36024
1.6509369035901333 5.3685599999999996
1.6732468618895553 5.7118
1.695558623192809 5.90709
1.7178704487808514 6.12444
1.7401823395001077 5.4562800000000005
1.7625012545597203 4.8712
1.7848028405262486 5.12809
1.8071218901122095 5.5545
1.8294236121921872 5.4131599999999995
1.8517427996910911 5.15672
1.8740620574440425 5.6475800000000005
1.8963639900671978 5.4469199999999995
1.9186833908139995 5.77441
1.9409854680117449 4.95576
1.9633050151394713 5.24523
1.9856246367570705 5.439769999999999
2.0079269371922672 5.62553
2.03024671027244 5.20142
2.0525491637446027 5.45202
2.074869091674931 4.93161
2.097171701569106 5.0968800000000005
2.1194917877373847 5.195119999999999
2.141811954326636 5.1957
2.164114805233074 5.10372
2.186435135143035 4.6599
2.208738150935709 4.82932
2.231058647554722 4.90601
2.2533792288321184 4.66945
2.275682498336085 4.36597
2.298003251406138 4.6603900000000005
2.3203066942619714 4.59566
2.3426276225136022 4.26612
2.3649486396617507 4.51314
2.387252348930071 3.9950699999999997
2.4095735463442893 3.8763199999999998
2.4318774374315884 3.92044
2.4541988185014043 3.8916800000000005
2.476502894794693 4.73805
2.498824462909887 4.4366
2.521146125856138 4.21986
2.5434504863470337 3.94306
2.5657723414244717 4.651009999999999
2.588076895590662 4.1428400000000005
2.610398946189713 4.34328
2.6327210958598384 4.43645
2.6550259469304716 4.8052
2.6773482972090137 4.74095
2.6996533504259 5.2646
2.7219759047039602 5.46704
2.744298562293959 5.1986099999999995
2.7666039251246595 5.309769999999999
2.7889267918020164 5.99087
2.8112323652516555 5.88125
2.833555444408179 6.635160000000001
2.8558786311183852 6.923710000000001
2.8781845268938557 7.50719
2.9005079311721484 7.9479999999999995
2.9228140460410397 8.327160000000001
2.9451376712799635 8.523
2.967444008632326 9.05616
2.9897678582247247 9.78135
3.0120918213106695 10.1281
3.0343984987899373 10.6371
3.0567226913198637 10.6258
3.079029599759726 11.1108
3.101354025127254 12.16
3.123678568232338 12.4699
3.145985829517914 12.5209
3.16831061055229 13.1066
3.1906181112775593 13.9758
3.212943133635653 14.9098
3.2352682779763207 14.546
3.2575761442691227 15.1211
3.2799015350264273 15.6538
3.302209649240067 16.2852
3.3245352898092655 16.1322
3.3468436553365257 17.184
3.369169549113219 17.4092
3.3914955708171384 18.3807
3.413804319727358 18.55
3.4361305997334863 18.3486
3.4584396084414553 18.9627
3.4807661501462652 19.5977
3.503092824025881 19.7365
3.5254022288463154 20.2584
3.5477291695206588 20.8835
3.5700388426251948 21.2321
3.5923660534916446 21.4495
3.6146934007816114 21.8851
3.637003482731501 22.241
3.6593311053109985 22.6764
3.681641464033634 22.6776
3.7039693653009733 23.2908
3.726297407241705 23.6425
3.7486081875460804 24.182
3.7709365132734978 24.6713
3.793247578841633 25.0859
3.8155761917550093 25.3734
3.8378875459837216 25.8756
3.8602164494827234 26.3935
3.882545499606844 26.6354
3.9048572932539183 27.2619
3.9271866390645718 27.5554
3.9494987298666713 28.5541
3.971828374764527 28.7206
3.9941581705403255 28.8688
4.016470713506008 29.3535
4.038800813471445 29.9667
4.061113662089144 30.9856
4.0834440696459176 31.9679
4.105774632334751 31.9308
4.128087945865126 32.3525
4.150418821249301 32.7999
4.172732448931298 33.533
4.195063640413578 33.9754
4.2173775856475215 35.0673
4.239709096631102 35.507
4.262040768704612 35.3881
4.284355196706267 36.3506
4.306687193387355 36.8813
4.329001947444346 38.4278
4.35133427213731 39.054
4.373666762177566 39.7091
4.395982011761091 40.9324
4.418314834921175 41.8463
4.44063041906622 42.808
4.4629635787515625 43.3859
4.4852969080429785 44.0246
4.5076130004776225 45.5642
4.529946671403969 46.9988
4.552263106909177 47.1261
4.574597122877047 48.3701
4.596931312711224 49.8101
4.619248269273446 50.8367
4.6415828092605835 52.0658
4.663900117405352 53.4059
4.686235010953232 54.5397
4.708552674085913 56.4477
4.730887924602802 57.4499
4.753223354952695 58.8662
4.775541557023902 60.3387
4.797877349456786 62.0243
4.820195915032126 63.8333
4.842532072957498 65.6444
4.864868414979744 67.9301
4.88718753227192 69.8931
4.909524244902505 72.7211
4.931843734218147 75.4168
4.954180820867835 78.7682
4.976518095879839 83.0288
4.998838149695359 86.8776
5.021175803844231 91.9251
5.043496238205739 97.7983
5.065834274903528 103.92200000000001
5.088172504230693 112.037
5.1104935158799565 122.118
5.132832132875765 139.064
5.155153533596801 166.477
5.1774925416746225 234.03799999999998
5.199814334878411 634.06
5.2221537374521505 2129.38
5.244493338631803 3780.84
5.266815727034316 4751.13
5.289155727832427 6972.58
5.311478517248165 9230.21
5.333818921080011 6902.26
5.356159527788849 2488.8
5.3784829252032536 614.526
5.400823940070432 256.461
5.423147747031976 181.64
5.445489173474152 150.31799999999998
5.467830807066149 134.858
5.490155234831516 125.389
5.512497285125229 117.948
5.534822130975162 114.13600000000001
5.557164601388673 110.124
5.579489868738879 105.994
5.601832762690846 103.465
5.6241758697774475 101.79299999999999
5.646501775867269 100.671
5.668845311622074 99.6403
5.691171647754637 98.8423
5.713515615597765 97.6512
5.735859800852677 96.9115
5.758186788542988 96.2252
5.780531411018185 96.4345
5.802858837297399 96.8938
5.825203900414495 97.6909
5.8475491852224 99.2551
5.869877275883075 100.93
5.892223006467101 104.478
5.914551544266608 109.618
5.936897724049891 117.617
5.959244129804903 132.285
5.981573344815301 170.399
6.0039202049061 322.827
6.026249875609095 818.7589999999999
6.04859719346037 1426.83
6.070927323278297 1786.73
6.093275102315365 2304.87
6.115623113320588 3294.72
6.137953938319995 3932.06
6.160302415650845 2490.83
6.182633708324452 884.5
6.2049826554078376 273.39
6.227331838745022 139.781
6.249663839443684 107.594
6.27201349767565 93.90700000000001
6.294345974611799 85.9282
6.316696111167083 80.2551
6.339046488263839 76.6414
6.361379686074702 73.157
6.383730546639482 71.0583
6.406064229255215 68.4883
6.428415576718203 67.61
6.450749747566656 66.0261
6.47310158535871 64.9964
6.495453669698332 63.9552
6.517788579421056 63.2986
6.540141159237969 61.9672
6.562476565766648 60.8826
6.5848296444934045 60.5383
6.607182974060425 59.7003
6.6295191323281015 59.0068
6.651872965955752 58.2702
6.6742096296068985 57.7437
6.6965639707294615 57.6368
6.71891856698715 57.0575
6.741255995248479 56.1473
6.763611104154477 55.9568
6.785949046381137 55.8819
6.808304671371482 54.8887
6.8306605557940046 54.8389
6.852999275508618 54.1496
6.875355681171544 54.0665
6.897694923437771 53.8449
6.92005185377892 53.3327
6.9423916220322655 53.3131
6.964749080490181 52.5798
6.987106804399774 52.8144
7.009447368180821 52.7142
7.031805625367033 52.2128
7.054146723727803 52.3503
7.076505517631004 52.0353
7.098864581288365 51.9779
7.121206488070854 51.8488
7.143566093607822 51.5893
7.165908543567245 51.836999999999996
7.188268694426048 51.4617
7.2106291193438095 51.208
7.232972390625943 50.8433
7.255333366030969 50.961000000000006
7.277677189091925 50.9204
7.300038718428332 51.2244
7.322400526130865 51.1802
7.344745183422596 51.4737
7.367107550224791 51.2861
7.389452767901992 51.5175
7.411815697249891 51.8232
7.434161478756298 51.075
7.456524974096713 51.0698
7.478888753837185 51.2857
7.501235387657368 52.678000000000004
7.523599738562711 57.7022
7.545946944825532 67.3984
7.568311870344528 71.2771
7.5906770845765665 64.9439
7.613025156078678 57.125
7.635390950099687 54.271
7.657739602662809 53.0993
7.680105979923558 52.695
7.702472650212829 53.2059
7.724822180948224 53.1804
7.747189439655568 53.4936
7.769539560075357 53.4182
7.791907410653562 54.1078
7.81425812420825 53.9514
7.836626570110925 54.365
7.858995315087906 54.9715
7.881346924933401 55.6077
7.903716270417482 56.0741
7.926068482028405 56.2694
7.948438431475253 56.8982
7.9708086843180235 57.5237
7.993161805171116 58.0264
8.015532667162402 58.6242
8.037886398416653 59.4465
8.060257873014221 59.9299
8.082629655331942 60.2757
8.104984308787587 60.8533
8.127356708900503 61.9245
8.149711981398308 63.1094
8.172085002766314 64.1591
8.194458336181368 64.7745
8.216814543847752 65.8286
8.23918850371002 66.7192
8.26154533906492 68.3076
8.283919928836452 70.0361
8.306277395339652 70.9688
8.328652618483376 72.6504
8.351028159736202 75.3344
8.373386579575245 77.7965
8.395762759396959 79.8876
8.418121819038275 83.8694
8.440498640894003 89.2121
8.462875785192262 97.0845
8.485235811156207 114.32700000000001
8.507613602688501 183.80700000000002
8.529974277114228 393.171
8.552352719347912 638.309
8.574731488360351 772.4060000000001
8.59709314210385 786.545
8.619472567021075 903.8580000000001
8.64183487789147 1236.96
8.664214962183097 1706.7
8.686577933647762 1750.18
8.708958680784317 1136.98
8.731339760774953 532.996
8.753703729764451 211.835
8.77608547780821 125.588
8.798450116065078 107.48899999999999
8.820832535634787 99.7741
8.843215292401656 94.837
8.865580941199045 91.6932
8.887964374703538 88.8712
8.910330701447199 87.40799999999999
8.932714815164482 86.1384
8.955099270424924 84.8282
8.977466620733543 83.9221
8.999851761421976 83.1155
9.022219798361645 82.5812
9.04460562795561 82.1443
9.066991803441677 81.8945
9.089360876979615 81.3567
9.111747746589993 81.1255
9.13411751544971 80.633
9.156505082664324 80.5257
9.178875550323522 81.0364
9.20126381862328 82.4779
9.223652438908596 90.1877
9.246023961427412 104.946
9.26841328802173 110.32600000000001
9.290785518039224 102.77799999999999
9.313175554425882 91.6294
9.335565947154315 84.0982
9.357939245086508 82.3267
9.380330352834827 81.475
9.40270436697103 81.3868
9.425096193225055 81.1157
9.447488380180165 82.1418
9.469863475295412 82.0837
9.492256385987508 82.3036
9.514632206018318 83.0194
9.537025843935714 83.5738
9.559402392368193 84.0934
9.581796761000229 84.8112
9.604191496441521 85.4687
9.626569144158516 86.0302
9.648964615551032 86.6186
9.671343000390081 87.3393
9.693739211225699 88.2825
9.716135793237463 89.9535
9.738515290448102 91.0469
9.760912617143402 91.8246
9.783292860202891 93.2131
9.805690935076182 94.461
9.828089385495742 95.7806
9.850470754023561 98.2238
9.872869957865444 100.70200000000001
9.89525208097539 103.564
9.917652041736662 107.82700000000001
9.940052382417589 115.156
9.962435644102392 134.22899999999998
9.984836746950979 195.09900000000002
10.007220771957746 363.949
10.029622640473708 577.741
10.052007432299963 689.784
10.074410069984072 687.895
10.096813093716005 699.155
10.119199042482517 839.37
10.141602840636468 1154.28
10.163989564971628 1527.97
10.186394141051062 1605.41
10.208799107559706 1143.78
10.231187001965623 614.216
10.253592751657669 261.865
10.275981430388155 145.333
10.298387966769793 120.368
10.320794897965431 113.235
10.343184759907361 108.729
10.36559248305461 105.777
10.387983138083852 105.209
10.410391656691655 106.889
10.432800574501677 122.867
10.455192425893369 169.09799999999998
10.47760214443012 223.329
10.499994797678786 252.37599999999998
10.522405320453982 248.592
10.54479877906917 248.34599999999998
10.567210109595656 279.285
10.5896218454736 344.856
10.612016518879773 449.705
10.634429067781074 493.38599999999997
10.656824555333241 413.13300000000004
10.679237920773568 273.181
10.701651695961992 155.089
10.724048411481384 107.715
10.746463008485165 93.3769
10.768860546937125 87.0623
10.791275969274796 83.2286
10.81369180576079 81.5903
10.836090585366925 79.8344
10.858507252467449 78.4548
10.88090686379991 77.3685
10.903324365036394 76.4396
10.925724811614439 74.7446
10.948143150509463 74.7295
10.970561909719066 73.5976
10.992963615930844 72.8552
11.015383218085756 71.8307
11.037785768347074 70.7945
11.06020621697282 70.2376
11.082627090322113 70.0392
11.105030913430326 69.3995
11.12745263854165 68.6825
11.149857314510728 67.9431
11.172279894912576 67.8717
11.194702904450653 66.7526
11.217108866490921 65.921
11.239532736615194 65.6445
11.26193956033512 65.4802
11.284364294577085 65.2103
11.306789462371718 64.5347
11.329197585398376 64.1012
11.351623622610898 64.1139
11.37403261614354 63.571000000000005
11.396459526308487 63.6061
11.418869393879497 63.3631
11.441297180532617 62.8942
11.463725406927658 62.5203
11.486136592353875 62.1293
11.508565700543707 62.1981
11.530977768845315 61.7296
11.553407762368774 61.3126
11.575838200059769 61.4606
11.598251599479612 61.2827
11.620682927815501 61.0664
11.64309721895548 61.3163
11.665529441478206 61.0616
11.687962112597958 60.7341
11.710377748130886 61.0345
11.732811318753434 60.9836
11.755227854859067 60.6618
11.777662328529495 60.5279
11.800079768750786 60.2343
11.822515149015453 60.2863
11.844950984084935 60.7638
11.867369787303163 60.6022
11.889806534289491 60.738
11.912226250487029 62.3002
11.934663912939751 65.1516
11.9571020346363 68.0065
11.979523127133968 68.4477
12.001962169624331 67.5706
12.024384183972964 66.236
12.046824150809913 68.036
12.069264581333726 78.3077
12.091687985297767 92.1087
12.11412934550045 102.8
12.136553680195208 107.169
12.158995973632788 106.38799999999999
12.181438735204349 107.42
12.20386447284199 115.11
12.226308172985636 131.744
12.24873485024193 158.319
12.271179492516982 181.81400000000002
12.293607112949127 181.81599999999997
12.316052700916226 152.596
12.338498763250042 108.147
12.360927805303868 79.2032
12.383374818673879 67.6441
12.405804812803074 63.8666
12.428252780773262 62.8929
12.45070122756722 62.7816
12.473132656675375 62.4352
12.49558206341869 62.43600000000001
12.518014453510101 62.4424
12.540464823770117 62.4778
12.562915677315177 62.4207
12.58534951575545 62.5936
12.607801338171472 62.3871
12.630236146511358 62.9255
12.652688941369085 63.265
12.675124723177234 63.8131
12.697578494048786 64.0609
12.720032754458185 64.3759
12.742470003354093 64.6287
12.764925245138771 65.2803
12.787363476431278 65.5806
12.809819703166806 66.0364
12.83227642391173 66.7584
12.854716135692716 67.0958
12.877173846755147 68.3563
12.899614549869717 68.666
12.9220732548287 69.6804
12.94453245827299 70.206
12.966974655289818 71.0892
12.989434858002571 71.9964
13.011878055298721 73.0605
13.034339260862497 74.1298
13.056800969391883 75.8021
13.079245674017244 78.7169
13.101708390774869 81.204
13.12415410463411 86.9684
13.146617833206086 104.427
13.169064559883248 136.877
13.191529303857127 169.968
13.213994557076367 191.99900000000002
13.236442809902437 194.738
13.258909083908291 189.192
13.28135835851934 191.85
13.30382565690295 209.613
13.326293469022952 247.423
13.348744283242008 306.379
13.371213125129904 370.63699999999994
13.39366497011003 389.306
13.416134845360597 335.939
13.438605238843131 242.805
13.46105863690397 161.175
13.483530069144786 126.993
13.505984506951902 134.333
13.528456981549432 159.283
13.550929978879088 178.459
13.573385983253365 183.483
13.595860028340867 176.65099999999998
13.618317081455832 173.627
13.64079217790333 181.71400000000003
13.663250283359057 203.158
13.685726434770173 241.166
13.708203115221277 297.05400000000003
13.730662806148091 335.284
13.75314054697177 322.694
13.775601299246777 261.735
13.798080104050406 177.71
13.820559442405358 115.758
13.843021793671388 90.8733
13.865502201420897 82.765
13.887965623051947 80.3492
13.910447103807167 78.5801
13.932929122629764 76.9652
13.955394156785959 76.2885
13.977877254034569 75.313
14.000343367582113 74.2644
14.022827546871707 73.3797
14.045294743423524 72.8726
14.06778000837062 72.4585
14.090265817715476 72.0718
14.112734645763819 72.5789
14.13522154619454 74.0032
14.157691466286913 75.6532
14.180179461423874 75.3391
14.202668005486178 74.3427
14.22513957064374 72.079
14.247629214846473 70.5457
14.270101881097517 69.4088
14.29259262906496 68.5161
14.315083930490205 68.382
14.337558255389705 67.9942
14.360050666019726 67.7427
14.382526101071944 67.6797
14.405019624534942 67.7695
14.427513705993134 67.3228
14.449990813291825 67.34899999999999
14.47248601302899 67.0446
14.49496423954951 67.3559
14.517460561197822 67.4972
14.539939910570322 67.1012
14.562437357763558 67.1863
14.58493536931253 67.5677
14.607416409993311 67.7436
14.62991555254159 67.8905
14.652397725157423 67.9929
14.674898002342799 68.3746
14.697398848433282 68.8979
14.719882725991326 69.7656
14.74238471217934 70.6557
14.764869730765593 73.4892
14.787372860692983 80.5784
14.809876564079925 94.6263
14.83236330125751 108.76700000000001
14.854868153850365 118.001
14.877356041159485 120.28399999999999
14.899862046604186 117.63
14.922351087688757 116.765
14.944858249632887 120.184
14.967365991421232 129.66899999999998
14.989856770231246 145.575
15.012365673994204 171.218
15.03485761569738 199.252
15.05736768508665 207.257
15.07987833888692 191.99400000000003
15.102372032001655 155.264
15.124883856909658 112.34899999999999
15.14737872204565 86.311
15.169891721717274 75.1233
15.192405310371893 71.0982
15.214901940621196 69.8246
15.237416709527137 68.48899999999999
15.259914520936249 67.8887
15.282430473753607 67.0816
15.304947020131227 66.4105
15.327446610371178 66.1087
15.349964346154254 65.5633
15.372465126703139 65.3926
15.394984055556009 65.1328
15.417486030076159 65.2565
15.44000615566487 64.8479
15.462526881230803 64.8484
15.485030653812652 64.5907
15.507552581617434 64.4157
15.530057557334603 64.4802
15.55258069104857 64.7519
15.575104429329837 64.8204
15.597611216864632 64.6895
15.620136166564563 65.1265
15.6426441664095 65.7757
15.665170331202765 67.7613
15.687697105158826 73.6851
15.710206930593545 84.6985
15.732734925158933 96.9248
15.755245972089478 105.09100000000001
15.77777519094324 107.865
15.800287463046663 106.006
15.822817909869592 103.69
15.84534897229804 104.288
15.867863089299354 110.39
15.890395385222186 119.935
15.912910736597423 135.792
15.935444269699861 158.70600000000002
15.957978423016485 178.399
15.980495633101265 182.12400000000002
16.003031029129367 164.65900000000002
16.02554948280019 130.375
16.048086125229432 97.9835
16.070623392487107 77.7007
16.09314371869582 68.1295
16.11568223789321 63.7529
16.13820381691126 61.9723
16.160743591742527 60.7869
16.183283996022084 59.777
16.205807461423195 58.7464
16.228349126881973 58.1772
16.25087385432698 57.8632
16.27341678466365 57.2657
16.29594277784926 56.9676
16.31848697676433 56.4142
16.341031811604868 56.0417
16.36355971058487 55.9885
16.3861058195587 55.747
16.40863499352978 55.1567
16.431182380342005 55.0748
16.453730407713202 54.6548
16.476261501364792 54.3888
16.498810812136167 54.2426
16.52134319004079 54.3315
16.54389378792203 54.1482
16.566445031001553 53.9828
16.588979342490088 53.861999999999995
16.61153187824822 53.8717
16.634067483263312 53.6441
16.656621315414416 53.5711
16.679175797408888 53.1548
16.701713349928728 53.2521
16.72426913389191 53.4611
16.74680798922351 53.4532
16.76936507887444 53.3606
16.791905240734874 53.5192
16.814463639794468 53.2744
16.837022695210294 53.1718
16.859564824093756 53.536
16.882125194503903 53.646
16.904668639217885 54.0924
16.927230328348003 54.1133
16.949792678493612 54.4239
16.972338104193863 54.3231
16.994901778652235 54.3185
17.017448529496576 54.6756
17.040013531998152 54.6955
17.06257920018044 55.0017
17.0851279459922 56.1252
17.107694947817667 58.2239
17.130245028099072 60.5948
17.15281336730298 62.7085
17.17536478578733 64.0209
17.19793446610687 63.9093
17.220504818648422 63.4558
17.243058251703697 63.1022
17.265629950971032 63.9896
17.288184731571736 65.6377
17.310757781306908 68.2379
17.33333150794385 71.1433
17.355888317140174 75.5093
17.37846339986244 79.5238
17.401021565958885 80.7417
17.42359800851343 78.6693
17.44617513265564 73.4892
17.468735341390783 67.168
17.491261035594565 62.1163
17.51396340099364 59.578
17.536490463869136 58.6269
17.559018209820174 58.2104
17.58154663977963 58.2535
17.604251766089718 58.3106
17.626781572227713 58.3875
17.64931206518155 58.6422
17.671843245885103 59.0047
17.69455114821572 59.1232
17.717083712612634 59.3818
17.739616967569667 59.9382
17.762150914021706 60.4936
17.78486160749854 60.9193
17.807396945166804 61.6432
17.829932977143503 62.0226
17.85246970436452 63.163000000000004
17.875183204129467 66.0911
17.897721330097664 71.8878
17.920260154126645 78.9054
17.942799677153296 84.5342
17.9655159983646 87.6015
17.988056927677544 87.8262
18.010598558807683 86.5567
18.033140892692916 85.89399999999999
18.05586005052525 86.9426
18.07840379824407 89.7039
18.10094825154059 95.084
18.12366954819864 103.65
18.146215420998306 116.76
18.16876200220057 132.601
18.191309292745153 144.142
18.214033452627167 146.69
18.236582170236648 136.445
18.259131600016456 118.325
18.281681742907335 99.6159
18.304408781233683 87.785
18.32696035875955 82.4232
18.349512652227624 81.8386
18.372065662579683 84.1988
18.394795594587553 88.6706
18.41735004715306 94.4452
18.43990521943684 99.8838
18.46246111238171 102.04899999999999
18.485193953325208 98.3351
18.507751296070428 89.7075
18.530309362314178 79.5813
18.552868153000343 71.0796
18.57560391815056 65.6486
18.59816416623245 63.138999999999996
18.620725141597372 61.8398
18.643286845190268 60.9041
18.666025549835414 60.3644
18.688588718427933 59.3917
18.711152618092243 59.1071
18.73389353884365 58.8571
18.75645890921984 58.4016
18.77902501351406 58.0436
18.801591852673102 57.9278
18.824335739722738 57.5022
18.846904057212626 57.5889
18.8694731124168 57.2062
18.89204290628315 57.3261
18.914789774966803 57.1742
18.937361054791623 56.6908
18.959933076131318 56.2443
18.982505839934877 56.3619
19.00525570560582 56.2373
19.027829963004184 56.0033
19.05040496572238 55.9382
19.072980714710468 55.8921
19.095733592739563 56.1384
19.11831084296757 56.751000000000005
19.140888842324735 57.8131
19.16346759176222 59.1015
19.18622349753803 60.3018
19.208803755869358 61.4435
19.231384767143577 61.5649
19.253966532312948 61.3164
19.276725481241822 61.0805
19.29930876296784 61.2534
19.3218928014549 61.681000000000004
19.34465404436217 62.6249
19.36723960516257 64.1386
19.389825925592426 65.9014
19.412413006605938 68.244
19.43517731967805 71.4025
19.457765930683355 73.1884
19.48035530514408 73.093
19.50294544401556 70.2906
19.525712842708348 65.6647
19.54830451925909 60.9949
19.570896963095727 56.8461
19.593490175174704 54.7548
19.616260674962184 53.7681
19.638855432416964 53.1486
19.661450960992624 53.1262
19.68404726164677 53.035
19.706820878021247 52.6752
19.729418731756834 52.9565
19.752017360452857 52.5097
19.77461676506804 52.8361
19.797393513540218 52.8577
19.819994478951667 52.9923
19.84259622316767 53.8889
19.8651987471481 55.4777
19.887978643247177 56.4689
19.91058273574792 57.2218
19.933187610901943 57.8056
19.955969879466828 57.81100000000001
19.97857632894404 57.6316
20.00118356396599 57.0647
20.023791585494575 57.2876
20.046577028914875 58.0689
20.069186632506966 59.3511
20.091797025500632 61.8021
20.114408208858933 64.3613
20.137196842715273 67.3544
20.159809615886765 70.4408
20.18242318232135 71.6665
20.20503754298326 71.0453
20.227829382875154 68.94
20.250445341109344 65.779
20.27306209647285 62.0945
20.29567964993108 59.8293
20.31847471147704 58.7622
20.34109387027612 59.1962
20.363713830075454 60.5678
20.386334591841646 62.3151
20.409132890679302 64.0026
20.431755265564437 64.1352
20.454378445325528 62.8017
20.477002430930366 60.1214
20.499803982716553 56.7592
20.522429589228004 53.6651
20.54505600449589 51.8028
20.567683229489194 50.5741
20.590488049900088 50.0084
20.61311690359731 49.7108
20.63574656993626 49.7108
20.658553853717297 49.1776
20.681185154618298 49.0626
20.703817271080066 48.9094
20.72645020407368 48.638999999999996
20.749260783967177 48.5689
20.771895359337133 48.4871
20.794530754161617 48.5309
20.817166969412938 48.6648
20.83998086114876 48.4777
20.86261872660049 48.2919
20.885257415405402 48.2482
20.90789692853701 48.0425
20.930714147864748 47.9328
20.953355319030678 48.0153
20.97599731745334 48.2807
20.99864014410749 48.1706
21.021460706796564 48.3456
21.044105199328826 48.6671
21.06675052302631 48.7222
21.089396678865015 48.6982
21.112220600704806 48.7798
21.134868430275347 48.8281
21.15751709492456 48.5481
21.180166595629693 48.4113
21.202993892429635 48.5547
21.22564507473034 48.9151
21.24829709602816 48.986999999999995
21.27112693608965 49.5662
21.293780644891275 50.3058
21.316435195634053 50.5947
21.339090589297417 50.713
21.361923832041875 50.7969
21.384580921090404 50.198
21.407238856007325 49.573
21.429897637773326 49.0638
21.45273429906592 48.4079
21.475394784108598 48.2102
21.498056118951983 47.8406
21.520718304578022 48.1085
21.543558400304388 48.1436
21.566222297108816 48.3708
21.58888704765135 48.4348
21.61155265291521 48.7309
21.63439619898156 49.7678
21.657063523335786 50.6978
21.67973170537063 51.8947
21.7024007460706 52.8108
21.72524775840385 53.2505
21.747918526116475 53.4536
21.770590155457388 53.2491
21.79326264741238 53.227
21.816113141960237 53.4171
21.838787368860547 53.9452
21.861462461341976 54.8827
21.884315579735777 56.3144
21.90699241312273 57.6619
21.92967011506078 59.4108
21.95234868653799 61.6222
21.9752053151131 63.5475
21.997885635446785 64.7433
22.020566828293532 65.4941
22.04324889464272 63.9947
22.066109049404666 61.3713
22.088792872571794 58.32899999999999
22.111477572219204 55.9252
22.1341631493376 54.6907
22.157026846313123 54.3322
22.179714188221507 54.7147
22.202402410582668 55.4272
22.22509151438863 55.5539
22.24795876962584 55.0567
22.270649646204486 54.0457
22.293341407213727 52.8417
22.316034053646906 51.1198
22.338904883215342 49.7911
22.36159931041458 48.9985
22.38429462602756 48.6211
22.40699083104897 48.369
22.429865251039757 48.2424
22.452563244831367 48.3213
22.47526213102522 48.4165
22.49813925616515 48.3625
22.520839937143307 48.162
22.543541513520587 48.2505
22.56624398629403 48.0354
22.589124730075895 48.1487
22.611829005656723 48.372
22.63453418063466 48.2313
22.657240256008077 48.5373
22.680124634582935 48.9206
22.70283252079775 49.7649
22.725541310413075 50.5876
22.74825100442868 50.9886
22.771139033969575 51.684
22.79385054687155 51.4396
22.81656296718292 51.2436
22.83927629590484 51.1226
22.862167992606945 51.0082
22.88488314827121 51.3538
22.907599215359284 51.3522
22.93031619487366 51.7641
22.953211574954405 52.2486
22.975930389478226 53.1448
22.998650119445763 54.1072
23.02137076586092 55.0827
23.044269845560063 56.48
23.06699233506288 57.4504
23.089715744034912 57.4597
23.112617610931565 56.3098
23.135342869061212 54.7632
23.158069049684816 52.8133
23.1807961538087 50.8677
23.20370174880544 49.7151
23.226430710184808 49.0502
23.249160598093425 48.7471
23.271891413539002 48.6862
23.294800752937697 49.2585
23.31753343374794 50.0495
23.340267045128353 50.5373
23.36300158808808 51.1178
23.38591468821339 51.3375
23.408651104658304 51.4033
23.431388455719986 51.1403
23.454126742409 50.7587
23.4770436196085 50.7531
23.499783787914662 50.9705
23.522524894889884 50.8234
23.54526694154616 51.0146
23.56818761219047 51.7176
23.59093154860734 52.4521
23.613676427751283 53.652
23.636422250635754 54.8454
23.659346731118656 56.1005
23.68209445191868 57.0422
23.704843119509587 57.2592
23.72759273490623 56.1778
23.750521041644767 54.2961
23.77327256312355 51.8839
23.796025035462787 49.6367
23.818956224555475 47.6429
23.841710609113413 46.7215
23.86446594758979 45.9351
23.887222241002014 45.6159
23.910157285144578 45.1249
23.932915498962537 45.132
23.955674670778713 44.9721
23.978434801611975 44.8693
24.001373717286125 44.6697
24.024135776723917 44.4269
24.046898798245582 44.3752
24.06966278287146 44.2177
24.092605586582614 44.056999999999995
24.115371508023642 43.7449
24.1381383956401 43.6615
24.16090625045381 43.5878
24.183852958731244 43.4434
24.206622758582608 43.278
24.229393528706886 43.2116
24.252165270127392 43.2697
24.27511589952438 43.3161
24.297889594216997 43.0705
24.32066426328598 42.9361
24.34343990775613 43.0894
24.36639447485003 42.881
24.38917208083877 42.6798
24.41195066531332 42.5798
24.43490819850244 42.6798
24.457688750692377 42.4858
24.48047028445616 42.3123
24.503252800821233 42.5285
24.526214300784112 42.4247
24.548998793132213 42.5201
24.57178427117417 42.2928
24.59457073593893 42.5651
24.617536219319863 42.3966
24.64032466834748 42.5644
24.663114107195035 42.5625
24.685904536893013 42.5005
24.708874020360852 42.4963
24.731666442613744 42.4721
24.754459858818787 42.4509
24.777254270007962 42.2761
24.80022777025625 41.913000000000004
24.82302418230472 41.8436
24.845821592443674 42.0337
24.86862000170663 42.0415
24.891597535453727 41.9487
24.914397953892728 42.3597
24.93719937456671 42.0218
24.96000179851076 42.2702
24.98298338249997 42.1973
25.00578782394922 42.4434
25.028593271784167 42.276
25.05157790644186 42.5542
25.07438537804115 42.7841
25.097193859145293 43.0853
25.120003350792075 43.1953
25.142992065061257 43.4494
25.165803588823465 43.4561
25.18861612625217 43.4927
25.211429678386736 43.8011
25.234422489079968 43.9815
25.257238081693636 44.1587
25.280054692141732 44.3407
25.3028723214652 44.2358
25.325869245420463 43.9381
25.348688923599397 43.968999999999994
25.371509623787006 43.8252
25.394331347025812 43.8626
25.41733240110666 44.1242
25.440156181590016 44.2092
25.46298098826268 44.5663
25.48580682216873 44.3688
25.50881202326435 43.7129
25.53163992281684 42.9572
25.55446885274561 42.2767
25.577298814096377 41.4329
25.600308179121807 41.1162
25.623140214533745 40.9969
25.64597328451537 40.6843
25.66898578564376 40.4874
25.691820936010206 40.4756
25.714657124097695 40.3113
25.737494350954734 40.4077
25.760511045684957 40.2171
25.783350361364224 40.3369
25.806190718969255 40.4106
25.82903211955018 40.6244
25.852053024868923 40.69
25.874896522722523 40.7194
25.897741066713106 40.5385
25.920586657892454 40.4297
25.943611790812668 40.3978
25.966459487728237 40.4488
25.989308234998564 40.3838
26.01215803367705 40.488
26.03518741123814 40.56
26.05803932412957 40.4789
26.080892291600094 40.4481
26.10374631470478 40.5748
26.12677995397268 40.8409
26.14963609978026 41.13399999999999
26.172493304397875 41.1904
26.19535156888223 41.4807
26.218389486949604 41.4649
26.241249882640123 41.2441
26.26411134137826 41.1827
26.28715248187403 41.0586
26.31001607820869 40.6652
26.3328807407756 40.3588
26.35574647063438 40.4297
26.37879191991473 40.2705
26.401659795896734 40.2816
26.424528742360263 40.3961
26.447398760366614 40.3926
26.470448535598294 40.2225
26.49332070826805 40.291
26.516193955675355 40.535
26.53906827888316 40.4923
26.562122397260108 40.4641
26.584998883685063 40.7459
26.607876449110325 40.7712
26.63075509460056 40.7718
26.65381357334404 40.9706
26.67669439061878 41.1937
26.699576291163382 41.4128
26.722459276044212 41.739
26.745522132402975 41.9621
26.768407297649354 42.1519
26.791293550442003 41.8876
26.814180891848974 41.7126
26.837248143099337 41.2482
26.860137673466657 41.0231
26.88302829566349 40.6334
26.90592001075963 40.4245
26.92899167420566 40.3679
26.951885586870763 39.9406
26.974780595655517 39.8684
26.99785558178161 39.6588
27.020752794605112 39.3685
27.043651106772522 39.1382
27.06655051935668 39.0259
27.089629948036183 38.8431
27.112531573292053 38.793
27.135434302194138 38.6563
27.158338135817015 38.5186
27.181422024430987 38.5468
27.204328079372566 38.4292
27.22723524226965 38.4898
27.250143514198573 38.5044
27.273231880156334 38.4329
27.296142382065014 38.2632
27.319053996245536 38.1858
27.341966723775965 38.1738
27.365059584515222 38.1227
27.38797455070062 38.2412
27.410890633481237 38.1001
27.433807833936918 38.031
27.456905206923906 38.0697
27.47982465472398 38.044000000000004
27.502745223449743 38.1485
27.525666914182825 38.118
27.548768816912457 38.097
27.571692763693633 38.1291
27.59461783573812 38.1722
27.617723149491244 38.1723
27.640650484125285 38.2487
27.66357894728264 38.378
27.686508540048052 38.3729
27.709618414237887 38.2952
27.732550278321757 38.1803
27.755483275279115 38.1087
27.778417406196485 38.0938
27.801531858397514 38.0762
27.824468269376716 37.9524
27.847405817586786 37.9023
27.870344504116094 37.7536
27.893463551932008 37.7639
27.916404527281053 37.9601
27.93934664422563 37.9714
27.962289903855886 37.8739
27.98541356491974 38.0038
28.00835912214229 37.9895
28.03130582533231 38.0686
28.054253675581805 38.1903
28.077381967556104 38.1421
28.100332124185126 38.266
28.123283431160893 38.5638
28.146235889577238 38.6519
28.169368830154156 38.8685
28.192323603752033 38.8725
28.215279532083304 38.5534
28.238415973016764 38.3518
28.261374223145094 38.2192
28.284333631303806 37.9521
28.307294198589954 37.7567
28.330435319167677 37.652
28.353398217078915 37.4307
28.376362277420153 37.2243
28.39932750129032 37.0789
28.422473319286713 36.9323
28.44544088262495 36.7156
28.468409612800283 36.4406
28.491379510913497 35.9566
28.51453004413313 35.9042
28.53750229057244 35.9882
28.56047570826344 35.746
28.583450298308804 35.8104
28.606605564586562 35.6706
28.629582511831156 35.6902
28.65256063474956 35.5048
28.675539934446338 35.5019
28.698699951647605 35.4404
28.72168161743193 35.2516
28.74466446331978 35.2267
28.767648490417624 35.0843
28.790813276438353 35.1043
28.813799678527303 35.0279
28.836787265157085 35.0841
28.859955641890075 35.0641
28.882945610203045 35.0364
28.905936766392035 35.0678
28.928929111566863 35.0267
28.952102288520145 34.9623
28.975097024308607 34.9902
28.998092952423807 34.9312
29.021090073977508 34.8576
29.04426806913204 34.8866
29.067267590245258 34.6959
29.090268308143695 34.7806
29.11327022394099 34.5973
29.13645305530891 34.4942
29.159457379627167 34.4229
29.18246290519685 34.1704
29.20546963313352 34.168
29.22865731875826 34.1965
29.25166646419296 34.0522
29.27467681535305 33.8946
29.29768837335608 33.9539
29.320880931312562 33.9503
29.34389491580634 33.78
29.366910110507334 33.6188
29.38992651653503 33.7135
29.41312396492981 33.8348
29.436142806456754 33.7134
29.45916286268059 33.6773
29.48236399319994 33.7242
29.50538649169417 33.6634
29.528410208259935 33.7943
29.55143514402014 33.6649
29.574641196749695 33.5563
29.597668583816574 33.4776
29.6206971934585 33.1031
29.64372702680042 33.1038
29.666938019934474 32.9926
29.689970313635285 32.9115
29.713003834422636 32.7836
29.73603858342347 32.7051
29.759254535188578 32.5876
29.78229175361658 32.5763
29.80533020365064 32.584
29.82836988641968 32.6219
29.85159081507472 32.6241
29.874632976355343 32.5905
29.89767637376955 32.5439
29.920721008448314 32.3669
29.9439469322847 32.2863
29.96699405457564 32.229
29.9900424175358 32.3969
30.013092022298157 32.2937
30.03632295963995 32.259
30.059375061131373 32.2438
30.08242840783577 32.364000000000004
30.105483000888153 32.2474
30.128718970092244 32.1397
30.151776069006917 32.1036
30.17483441768648 32.2307
30.198074175317235 32.0597
30.221135036724256 32.0095
30.24419715131772 31.9497
30.267260520236203 32.0462
30.290505341942243 32.0991
30.313571232750228 32.2089
30.336638381310948 32.1812
30.35970678876503 32.1651
30.38295669299435 32.0956
30.40602763151657 32.1627
30.429099832366074 32.1454
30.452173296685572 32.0044
30.47542830191959 31.9763
30.498504306502497 31.8095
30.521581577995562 31.9135
30.544660117543582 31.9184
30.56792024229725 31.8018
30.59100133132069 31.8404
30.614083691845494 31.7109
30.637167325018545 31.7308
30.660432587840603 31.7981
30.683518779717886 31.6999
30.70660624769615 31.7559
30.729694992924372 31.7751
30.75296541239743 31.7703
30.77605672557558 31.8323
30.799149319462742 32.0559
30.8224236211637 32.0039
30.845518789950724 31.8958
30.868615242910597 31.9763
30.891712981195973 31.6772
30.91499247215866 31.6624
30.938092794619365 31.5872
30.96119440587579 31.5923
30.984297307082752 31.4278
31.00758200598383 31.4107
31.030687500658694 31.3083
31.053794288760695 31.1716
31.076902371446767 31.0621
31.100192296997445 31.0112
31.12330298246119 30.9682
31.14641496599209 30.8466
31.169528248749216 30.8185
31.19282341969534 30.7807
31.215939314557186 30.8185
31.239056512134788 30.8168
31.262175013589378 30.7374
31.28547544871168 30.6327
31.30859657161541 30.6973
31.331719001892175 30.635
31.35484274070538 30.7209
31.378148458819545 30.6932
31.401274828443725 30.5199
31.424402510106933 30.5657
31.447712205419993 30.6862
31.470842524931633 30.5344
31.493974159989783 30.4965
31.51710711176168 30.541
31.54042212308802 30.5805
31.563557722100917 30.6895
31.586694641341655 30.52
31.609832881979628 30.4651
31.63315322823208 30.5619
31.656294125521327 30.5259
31.679436347728515 30.4623
31.70257989602529 30.3365
31.725905596152327 30.1529
31.74905181052835 30.0809
31.772199354521323 30.1612
31.79534822930507 30.1028
31.818679302290967 30.0431
31.84183085259981 29.9582
31.864983737233473 29.9674
31.88813795736804 29.8918
31.911474422233013 29.776999999999997
31.934631327356435 29.8331
31.9577895715215 29.7465
31.980949155906522 29.7894
32.004291031706956 29.7854
32.027453310562606 29.7548
32.05061693318573 29.6553
32.07396288236386 29.7644
32.09712920658542 29.7724
32.12029687812702 29.651
32.14346589817093 29.6537
32.166817291729984 29.5478
32.18998902288583 29.453000000000003
32.21316210610336 29.3545
32.23633654256711 29.2665
32.259693399663725 29.281
32.282870556771144 29.1043
32.30604907069099 29.1064
32.329228942610065 29.0764
32.35259128243769 28.949
32.375773884550505 28.8628
32.398957848235646 28.7864
32.422143174682176 28.7101
32.445511016471215 28.6794
32.468699082679954 28.6969
32.49188851523011 28.430999999999997
32.51507931531304 28.4013
32.538452678331 28.4259
32.56164622776311 28.3754
32.58484114831493 28.305
32.60803744118015 28.3061
32.631416344731896 28.3614
32.654615396551876 28.3048
32.67781582427913 28.3126
32.701198898634416 28.1714
32.72440209253756 28.1784
32.747606665947124 28.1237
32.77081262006088 27.9231
32.79420126883317 27.9784
32.81740999876112 28.002
32.840620112999424 27.8724
32.86383161274818 27.9261
32.88722585534586 27.8641
32.91044014056596 27.8976
32.933655814909734 27.8655
32.95687287957963 27.803
32.98027273544904 27.7243
33.00349259526636 27.6734
33.026713849030116 27.6978
33.04993649794511 27.6123
33.073341986570746 27.61
33.09656744032826 27.5541
33.11979429286444 27.5608
33.14302254538647 27.4938
33.166433686291185 27.5046
33.18966475336992 27.4645
33.212897224069096 27.4283
33.23613109959831 27.3666
33.259547912343415 27.2673
33.2827846121627 27.3824
33.306022720453775 27.316999999999997
33.32926223842861 27.1952
33.352684742614166 27.1854
33.37592709463173 27.3197
33.399170859982064 27.2986
33.422597648419426 27.1922
33.44584425514446 27.0994
33.46909227885668 27.0919
33.4923417207723 26.9484
33.51577423505344 27.0691
33.539026528130385 26.9388
33.56228024307245 26.8259
33.585535381098246 26.6141
33.60897364093058 26.6259
33.63223163992385 26.5869
33.6554910656699 26.4514
33.678751919389796 26.4838
33.702195944520106 26.3979
33.72545966903325 26.3994
33.74872482519663 26.3046
33.771991414233746 26.3661
33.79544122444841 26.2713
33.81871069412428 26.1922
33.84198160035767 26.1617
33.86525394437455 26.1656
33.88870955949969 26.1526
33.911984794020626 26.086
33.93526147001624 26.0691
33.958539588715006 25.9481
33.98200102861669 25.9927
34.0052820477047 25.9928
34.02856451319451 25.9167
34.05203033759056 25.8865
34.07531571090147 25.96
34.09860253431845 25.8526
34.121890809074316 25.7929
34.145362493118924 25.79
34.16865368561615 25.6942
34.191946333164054 25.6135
34.21524043699793 25.5509
34.23871800066799 25.5742
34.26201503218366 25.4825
34.28531352370466 25.4431
34.30861347646881 25.3356
34.33209693978188 25.3016
34.3553998301885 25.3292
34.378704185565205 25.2641
34.402010007152356 25.2161
34.42549939016683 25.1801
34.44880815937748 25.1136
34.472118398533134 25.0731
34.49543010887669 25.0839
34.51892543169198 24.9825
34.54224009966052 24.9641
34.56555624255917 25.0014
34.58887386163339 24.9437
34.61237514439016 24.9006
34.6356957311114 24.798000000000002
34.65901779775809 24.7526
34.68252356662995 24.7747
34.705848608458616 24.7342
34.72917513396849 24.6483
34.75250314440949 24.6542
34.77601490857862 24.6139
34.799345904259795 24.4674
34.82267838863559 24.4688
34.846012362958525 24.4192
34.869530142679984 24.3769
34.89286711232212 24.358
34.91620557568269 24.3876
34.93954553401677 24.3552
34.9630693495876 24.2823
34.986412313340814 24.3266
35.00975677584668 24.3586
35.033102738362956 24.237
35.05663261012228 24.0898
35.0799815881786 24.160999999999998
35.10333207003229 24.0991
35.12668405694369 24.0999
35.150220005273056 24.0729
35.17357501786656 24.1457
35.19693153931268 24.0159
35.220289570874385 23.9875
35.24383161619786 23.9853
35.267192683604904 23.9729
35.290555264930376 23.912
35.314101899412165 23.9256
35.33746752422433 23.8331
35.36083466676374 23.8461
35.38420332829803 23.7776
35.407756095629054 23.7989
35.43112781085063 23.750999999999998
35.45450104888391 23.7954
35.477875810999194 23.8093
35.50143473172161 23.6527
35.52481255774625 23.7619
35.54819191167777 23.649
35.57157279478914 23.6474
35.595137889488406 23.5636
35.61852184675279 23.6209
35.641907337029984 23.5643
35.665294361595684 23.5378
35.68886565090076 23.4763
35.7122557598848 23.3739
35.73564740699838 23.4248
35.759040593519934 23.3548
35.78261809810353 23.3437
35.80601437933051 23.2419
35.829412203814705 23.2415
35.85281157283719 23.0792
35.876395313415884 23.0921
35.8997977874528 23.0465
35.92320180988546 23.0681
35.946790244133936 22.9804
35.97019737933222 23.0257
35.993606066789866 22.927
36.01701630779276 22.8744
36.04061101440684 22.7777
36.06402437852291 22.8253
36.08743930005611 22.8305
36.1108557802951 22.7092
36.13445678011326 22.6824
36.15787639383515 22.67
36.18129757014299 22.6501
36.20472031032821 22.6213
36.22832762423364 22.5767
36.25175350829375 22.5847
36.275180960119776 22.5158
36.298609981005924 22.5763
36.32222362992669 22.5295
36.34565580510207 22.4952
36.36908955323448 22.3781
36.39252487562093 22.2986
36.416144880530226 22.3952
36.43958336764275 22.2904
36.463023432914625 22.2964
36.486465077645676 22.2198
36.51009145956204 22.3088
36.53353627947859 22.18
36.55698268276811 22.1684
36.58043067073321 22.1565
36.60406345072071 22.0637
36.62751462435344 22.0105
36.65096738658405 22.0398
36.67460498210655 21.9684
36.69806093788647 21.9657
36.72151848619297 21.9624
36.744977628333636 21.8702
36.76862165890998 21.8023
36.79208400512205 21.7908
36.81554794910557 21.8627
36.83901349217101 21.826
36.862663978991606 21.7057
36.88613273667352 21.6627
36.90960309738324 21.7362
36.933075062434064 21.6675
36.95673202673572 21.5846
36.98020721697122 21.5516
37.003684015502365 21.4164
37.027162423645365 21.4503
37.050825886711465 21.44
37.07430753063053 21.3189
37.09779078812467 21.3574
37.121275660513014 21.3812
37.144945643673694 21.2953
37.16843376245278 21.2266
37.19192350009803 21.2573
37.215414857931435 21.2029
37.239091382563885 21.1273
37.262585997426164 21.121
37.28608223645736 21.1376
37.309763684451696 21.0244
37.33326318851098 21.0214
37.356764320726555 21.000999999999998
37.380267082425526 21.0122
37.40395510942588 21.0188
37.42746114683234 20.9546
37.45096881771841 20.8585
37.474478123414166 20.8945
37.49817275092816 20.7922
37.52168534303452 20.7903
37.54519957395567 20.6629
37.568715445024665 20.6577
37.592416694607714 20.5982
37.61593586281424 20.6449
37.63945667518264 20.7316
37.66297913304891 20.5943
37.68668702630454 20.5732
37.710212792059274 20.4761
37.733740207334854 20.4744
37.757269273470364 20.4797
37.780983832050374 20.4529
37.80451621684926 20.4125
37.82805025654007 20.4098
37.851585952464795 20.3197
37.8753071980695 20.2839
37.89884622345676 20.2354
37.92238690911902 20.1773
37.94611318753442 20.1307
37.969657210779765 20.1556
37.99320289834801 20.1268
38.016750251586465 20.0252
38.04048325513017 20.0684
38.06403395679343 19.9799
38.087586328183946 19.9203
38.11114037065203 19.9079
38.13488012115898 19.9384
38.1584375229181 19.9254
38.181996599821 19.9087
38.205557353221124 19.7478
38.229303872575656 19.7802
38.2528679961576 19.7944
38.27643380031219 19.7382
38.30000128639589 19.6658
38.32375459653193 19.6856
38.34732546371299 19.6965
38.37089801690786 19.602
38.39447225747609 19.5842
38.418232380377425 19.5651
38.441810012983396 19.6163
38.46538933705673 19.538
38.488970353960084 19.5209
38.51273731166058 19.4134
38.536321731567014 19.3436
38.55990784840681 19.3538
38.58367995004091 19.3224
38.60726947812959 19.2777
38.63086070726198 19.3004
38.654453638806274 19.3225
38.678232613930824 19.2419
38.70182896773327 19.1573
38.72542702806741 19.0574
38.7490267963045 19.1678
38.77281266709232 19.1117
38.79641586862214 19.0579
38.8200207821842 18.999000000000002
38.843627409152944 18.9697
38.86742019782782 18.9787
38.891030269149255 18.9192
38.914642058016156 18.9279
38.938255565806124 18.9143
38.96205529464307 18.8665
38.98567225787121 18.8382
39.00929094417078 18.7721
39.03291135492255 18.8112
39.05671804624804 18.7091
39.080341923549106 18.6876
39.103967529460334 18.6101
39.127594865365744 18.5925
39.15140854155791 18.5953
39.17503935514948 18.542
39.19867190290282 18.5367
39.22249083587951 18.5465
39.24612686969409 18.5518
39.269764641845306 18.482
39.293404153722804 18.4517
39.317230110864074 18.3528
39.34087311998506 18.3096
39.36451787301696 18.3254
39.388164371352595 18.3117
39.41199737518003 18.2345
39.43564738196752 18.2704
39.45929913825317 18.2691
39.48295264543308 18.1768
39.506792718520884 18.1423
39.530449745387216 18.0934
39.55410852735203 18.0563
39.57776906581474 18.0952
39.60161623079 18.0627
39.625280300200025 18.0289
39.64894613032202 17.9399
39.67261372255866 17.96
39.6964680021016 17.8938
39.72013913657293 17.9151
39.74381203738292 17.8233
39.76748670593756 17.8035
39.79134812278169 17.8278
39.81502634488497 17.848
39.83870633896685 17.7486
39.862388106436654 17.7228
39.88625668336918 17.6802
39.90994201572829 17.7294
39.933629125719285 17.6166
39.957503091207826 17.6226
39.9811937746168 17.6483
40.00488623990914 17.5805
40.02858048850006 17.5443
40.05246165409549 17.5063
40.076159487492085 17.4421
40.099859108448875 17.4093
40.123560518384345 17.4108
40.1474489070226 17.4343
40.171153913178564 17.3251
40.194860712584955 17.3792
40.2185693066637 17.3877
40.242464941335314 17.3132
40.26617714307655 17.3013
40.289891143772046 17.3005
40.3136069448471 17.1958
40.33750984859743 17.2055
40.3612292688043 17.186
40.3849504936829 17.1292
40.40867352466194 17.0931
40.43258372059144 17.0449
40.45631038219906 17.0769
40.48003885420956 17.0276
40.503769138055105 16.9946
40.52768664931955 17.0083
40.55142057531802 17.0126
40.57515631746428 16.9573
40.599079334038514 16.8742
40.62281872700477 16.826
40.64655994043941 16.7943
40.67030297578061 16.7606
40.69423334835778 16.7885
40.71798004609188 16.7414
40.74172857006355 16.7415
40.76547892171441 16.7209
40.7894166736039 16.6904
40.813170699248566 16.6016
40.83692655691388 16.6034
40.86068424804498 16.6583
40.884629402612525 16.6033
40.908390779366385 16.6164
40.932153993938 16.5894
40.95591904777605 16.519000000000002
40.979871628443995 16.5263
41.003640379561936 16.4382
41.02741097430883 16.3878
41.05118341413683 16.4018
41.075143444384416 16.3528
41.098919593177826 16.3519
41.1226975914255 16.3267
41.14647744058318 16.2604
41.170444943946755 16.2597
41.19422851378379 16.2808
41.218013938914645 16.1508
41.24198706625173 16.1283
41.26577622087193 16.1066
41.289567235177785 16.0982
41.31336011063129 16.0931
41.337340752422875 16.0688
41.361137369129835 16.0949
41.38493585138705 15.9938
41.40873620066004 15.9682
41.43272438060107 15.9755
41.45652848292052 15.9228
41.48033445666918 15.8663
41.50414230331616 15.8422
41.528138045159764 15.8463
41.551949656675205 15.7771
41.575763145513235 15.7783
41.59957851314666 15.7495
41.62358184070442 15.7107
41.64740098505737 15.7081
41.6712220126409 15.7038
41.69504492493139 15.6599
41.71905586207357 15.567
41.74288256296395 15.594000000000001
41.766711153007456 15.5829
41.79054163368412 15.4819
41.814560204340054 15.5154
41.838394485526365 15.5756
41.86223066180303 15.5004
41.88625497706819 15.4749
41.910094962812 15.3897
41.93393684811168 15.3933
41.95778063445365 15.3085
41.981812625263366 15.2913
42.00566023303407 15.3419
42.029509746323676 15.3333
42.05336116662236 15.2705
42.077400857069705 15.2945
42.10125611078846 15.2298
42.12511327600405 15.1982
42.14897235421036 15.1499
42.173019768448455 15.1079
42.19688269209613 15.0923
42.22074753323349 15.05
42.24461429335818 15.0872
42.268669455600495 15.0672
42.292540073217886 15.017000000000001
42.31641261433284 15.0174
42.34028708044675 14.9616
42.36435001496739 14.905
42.38822835065557 14.9046
42.41210861586426 14.8874
42.4359908120986 14.919
42.46006154323262 14.8621
42.48394762115317 14.8021
42.507835634632315 14.800999999999998
42.531912233047436 14.7843
42.55580413732265 14.7369
42.579697981698 14.7324
42.60359376768525 14.6839
42.62767820545945 14.6598
42.65157789440821 14.6342
42.67547952952185 14.6201
42.699383112316 14.6452
42.72347541395347 14.5352
42.74738291190531 14.5515
42.771292362102166 14.4919
42.795203766063516 14.5097
42.819303956130405 14.5142
42.843219287476536 14.4532
42.86713657716324 14.3938
42.89105582671383 14.3766
42.91516392983864 14.37
42.939087119032166 14.3545
42.963012272677304 14.3135
42.98693939230129 14.3245
43.01105543317513 14.287
43.034986504731386 14.2145
43.05891954686589 14.2467
43.08285456110972 14.2216
43.10697856448665 14.1856
43.130917542983475 14.1219
43.15485849820081 14.1516
43.17880143167367 14.0602
43.20293342237094 14.1016
43.226880332449 14.064
43.25082922540554 14.0394
43.27496722682525 13.9779
43.29892010567796 13.9542
43.32287497204102 14.0246
43.34683182745632 13.9623
43.370977859791836 13.8951
43.39493871351105 13.907
43.41890156092628 13.9052
43.44286640358341 13.9059
43.46702049182749 13.8198
43.49098934522816 13.7285
43.51496019852649 13.7142
43.5389330532723 13.7667
43.56309522248204 13.7286
43.58707210044314 13.7479
43.61105098451946 13.6416
43.63503187626491 13.6104
43.659202151562134 13.6149
43.68318707902681 13.6088
43.70717401884041 13.55
43.731162972560874 13.5357
43.75534137913236 13.5255
43.779334381108384 13.4915
43.803329401683186 13.4763
43.82732644241872 13.4579
43.8515130055166 13.4281
43.87551410707659 13.3802
43.89951723350145 13.4343
43.923709934595614 13.366
43.94771713129917 13.3522
43.97172635758096 13.352
43.99573761501002 13.3006
44.0199385169922 13.2483
44.04395385732619 13.2923
44.067971233533086 13.2401
44.09199064718605 13.210999999999999
44.11619977548961 13.1956
44.14022328470671 13.120999999999999
44.16424883610785 13.137
44.18827643127035 13.1603
44.21249381139513 13.1073
44.236525514814076 13.0235
44.26055926674478 13.0445
44.28459506876863 13.049000000000001
44.3088207262813 12.9798
44.33286064928722 12.9388
44.35690262714919 12.9539
44.38094666145278 12.9316
44.4051806219871 12.9404
44.42922879003185 12.9131
44.45327901929361 12.8586
44.477331311362136 12.8455
44.501573600619416 12.8102
44.525630039221795 12.815999999999999
44.54968854541895 12.7636
44.573937102200176 12.7357
44.5979997645541 12.7219
44.622064499300315 12.7253
44.64613130803592 12.6807
44.67038823869318 12.6974
44.69445921643748 12.6448
44.718532272981385 12.5728
44.742607409926194 12.5807
44.76687274034801 12.5793
44.79095205918753 12.4976
44.81503346325094 12.5352
44.839116954143876 12.5333
44.86339071028742 12.4836
44.88747839599524 12.4354
44.91156817336837 12.4231
44.93566004401666 12.4324
44.959942251908146 12.402000000000001
44.984038330325966 12.3921
45.00813650686762 12.3231
45.03223678314731 12.3287
45.05652746888232 12.2485
45.08063196592069 12.2659
45.104738567558705 12.2296
45.128847275414856 12.2174
45.15314646515866 12.1564
45.17725940679741 12.1596
45.20137445952892 12.149000000000001
45.22568004865265 12.1435
45.24979934496396 12.1311
45.27392075725247 12.0706
45.29804428714431 12.0882
45.322358426247604 12.0712
45.346486212804315 12.0679
45.370616121861914 12.038
45.39474815505086 11.9997
45.41907087049246 11.9888
45.4432071734666 11.9039
45.46734560548283 11.9343
45.49148616817604 11.8891
45.51581748638564 11.8425
45.5399623320197 11.8708
45.56410931325473 11.832
45.58825843173002 11.8804
45.61259837920865 11.8468
45.636751793816 11.802999999999999
45.66090735060093 11.7809
45.68506505120716 11.741
45.7094136545275 11.7539
45.73357566449271 11.7001
45.75773982322992 11.7231
45.78190613238733 11.6847
45.806263418194064 11.6238
45.83043404997326 11.6143
45.85460683713677 11.6357
45.87897065658495 11.6046
45.90314777634752 11.5223
45.92732705646868 11.5187
45.9515084986045 11.5064
45.97588104735473 11.5208
46.00006683541565 11.5009
46.02425479047904 11.4576
46.04844491420549 11.4161
46.0728262191024 11.3972
46.09702070211635 11.3922
46.12121735879483 11.3806
46.14541619080294 11.3348
46.169806278764455 11.309000000000001
46.194009483459034 11.344000000000001
46.21821486849841 11.3092
46.24242243555223 11.3032
46.266821333570014 11.2898
46.29103328674601 11.243
46.31524742696538 11.2572
46.33946375590237 11.2094
46.36387149104216 11.1871
46.38809221957392 11.1066
46.41231514186606 11.1369
46.436540259597464 11.177999999999999
46.460956858999374 11.1152
46.48518638983522 11.0603
46.509418121166966 11.0174
46.533652054678114 11.0464
46.55807754555709 11.0125
46.58231590571962 11.0031
46.60655647313217 11.0027
46.630988654873654 10.9589
46.655233659129024 10.9729
46.67948087571551 10.9309
46.70373030632484 10.8621
46.72817142736393 10.8936
46.752425308428684 10.8772
46.77668140861147 10.8419
46.80093972960865 10.7608
46.82538981736788 10.7612
46.849652602470904 10.777999999999999
46.87391761349769 10.7767
46.8981848521493 10.7118
46.9226439341274 10.6785
46.946915650573224 10.6857
46.97118959976749 10.6506
46.99546578341598 10.6797
47.019933887188216 10.6509
47.04421456235744 10.6402
47.06849747711879 10.6063
47.09278263318286 10.6043
47.11725978640143 10.5337
47.14154944775105 10.4959
47.165841355555656 10.5189
47.1901355115306 10.4888
47.214621741924994 10.5005
47.23892041698887 10.4831
47.26322134538975 10.4365
47.28771440635075 10.3979
47.31201986422527 10.4192
47.33632758061436 10.3718
47.360637557241866 10.3593
47.38513974410611 10.3394
47.40945426407847 10.3075
47.43377104948137 10.2983
47.45809010204344 10.2996
47.48260144275502 10.2598
47.506925052572285 10.2725
47.53125093475548 10.1785
47.55557909103813 10.2023
47.58009961361992 10.1747
47.60443234110732 10.1484
47.62876734791564 10.1427
47.65310463578333 10.0994
47.6776343683373 10.1418
47.7019762413987 10.076
47.72632040075572 10.0695
47.75066684815169 10.0779
47.77520581885936 9.979280000000001
47.799556865477655 10.0278
47.823910205386 10.0369
47.84826584033272 10.0132
47.87281407745551 9.973939999999999
47.89717432569297 9.96347
47.92153687423484 9.94107
47.94609208429692 9.93453
47.97045925671401 9.878060000000001
47.99482873471275 9.86797
48.01920052005013 9.862160000000001
48.04376504619224 9.82873
48.068141469543484 9.81943
48.09252020552573 9.83159
48.11690125590099 9.799489999999999
48.1414751266064 9.775360000000001
48.16586082917454 9.74948
48.19024885144316 9.743210000000001
48.2146391951793 9.70503
48.239222439012764 9.71344
48.26361744916137 9.690710000000001
48.28801478610016 9.695030000000001
48.31241445160131 9.660860000000001
48.337007097209366 9.61563
48.36141144338331 9.657789999999999
48.38581812345755 9.620389999999999
48.41022713920929 9.619019999999999
48.434829215320704 9.596260000000001
48.45924292604658 9.55141
48.48365897780325 9.57381
48.50807737237308 9.53675
48.532688907799276 9.51361
48.55711201168574 9.48643
48.581537463754074 9.43783
48.60615611725119 9.424539999999999
48.63058628942721 9.426219999999999
48.65501881516546 9.43004
48.6794536962573 9.411760000000001
48.70408185970339 9.397310000000001
48.72852147531801 9.35798
48.75296345168211 9.326260000000001
48.77740779059232 9.36714
48.80204549302823 9.31237
48.82649458091802 9.28875
48.85094603676547 9.28707
48.87539986237231 9.267389999999999
48.90004713292306 9.233239999999999
48.92450572200832 9.25736
48.94896668628025 9.21918
48.97343002754588 9.181569999999999
48.99808689542115 9.17614
49.02255501470614 9.15047
49.04702551642794 9.099910000000001
49.0714984023988 9.0765
49.096164896893235 9.10713
49.120642575466796 9.10871
49.145122643748394 9.071639999999999
49.16960510355558 9.03725
49.19428125404938 9.03876
49.2187685210852 9.01443
49.243258185121555 9.00935
49.26794160167084 8.9561
49.2924360839405 8.94989
49.31693296869764 8.92528
49.34143225776915 8.92728
49.36612538195438 8.93665
49.39062950396021 8.95584
49.41513603578346 8.86328
49.4396449792564 8.84549
49.46434784069503 8.853530000000001
49.488861631846454 8.83716
49.513377840166804 8.834760000000001
49.537896467493745 8.78957
49.56260909589029 8.72672
49.587132585683285 8.76551
49.611658500018365 8.74525
49.636186840738596 8.708960000000001
49.66090926588511 8.72178
49.685442483902584 8.71548
49.70997813385706 8.685360000000001
49.734516217597076 8.672089999999999
49.75924846937352 8.638860000000001
49.7837914452858 8.59179
49.80833686055187 8.57131
49.83288471702571 8.58797
49.85762682540054 8.5844
49.882179588965734 8.54723
49.9067347993235 8.583160000000001
49.93129245833333 8.506780000000001
49.95604445336378 8.51529
49.98060703442832 8.481639999999999
50.005172069746266 8.45909
50.02993150438364 8.48547
50.05450147301533 8.4828
50.07907390151433 8.45177
50.10364879174981 8.41879
50.12841816587289 8.39902
50.1529980044635 8.37684
50.17758031042124 8.38674
50.20216508562089 8.37089
50.22694442953363 8.352310000000001
50.25153416817468 8.3169
50.27612638170508 8.298810000000001
50.300721072005196 8.27801
50.325510416102105 8.256789999999999
50.350110084975064 8.24889
50.37471223628208 8.257060000000001
50.39931687190919 8.24178
50.424116246675766 8.20842
50.44872587605249 8.19345
50.47333799543065 8.16336
50.49795260670191 8.16915
50.52276204271512 8.16686
50.54738166295838 8.141810000000001
50.57200378079314 8.11096
50.596628398116835 8.08308
50.62144792604559 8.068019999999999
50.646077567609396 8.069939999999999
50.670709714377715 8.0723
50.69553683636198 8.02707
50.72017401885922 8.06006
50.7448137122895 8.02276
50.76945591856022 7.98338
50.79429318636823 7.959630000000001
50.818940443716784 7.98425
50.84359021965163 7.9651
50.868242516085964 7.943230000000001
50.893089960641895 7.8951
50.917747323549435 7.897310000000001
50.94240721271973 7.869689999999999
50.96706963007175 7.83447
50.99192728239342 7.846030000000001
51.01659478166073 7.8593
51.04126481489051 7.7930399999999995
51.06593738400761 7.83295
51.090805275207074 7.793589999999999
51.11548294172845 7.787660000000001
51.14016314993547 7.75563
51.164845901758845 7.75224
51.18972406304274 7.72007
51.21441192780656 7.71581
51.23910234200271 7.715269999999999
51.2637953075678 7.6593100000000005
51.288683770237945 7.648969999999999
51.31338186432707 7.630039999999999
51.33808251561888 7.63479
51.362978729967345 7.6420699999999995
51.387684521509755 7.62953
51.41239287610203 7.6308300000000004
51.437103795691165 7.550910000000001
51.46201036644977 7.511310000000001
51.486726441956634 7.52462
51.51144508832545 7.5386
51.536166307509156 7.513260000000001
51.56108326624387 7.497380000000001
51.58580965706056 7.49977
51.61053862657523 7.4710399999999995
51.635270176746864 7.426989999999999
51.66019755512065 7.458139999999999
51.68493429268881 7.4192100000000005
51.70967361681515 7.40953
51.73441552946465 7.39447
51.759353359237934 7.39618
51.7841004750961 7.354080000000001
51.80885018539685 7.36596
51.833602492111254 7.32879
51.8585508051424 7.29701
51.883308330926425 7.318
51.90806845906181 7.26278
51.932831191525715 7.24027
51.95779001977161 7.274439999999999
51.98255798721516 7.250660000000001
52.00732856494335 7.182930000000001
52.03229530577543 7.2006
52.057071130455945 7.182460000000001
52.081849571391054 7.1718399999999995
52.106630630568695 7.17903
52.13160794279417 7.15004
52.15639426492067 7.14158
52.18118321127822 7.11632
52.205974783860896 7.09541
52.23096269971011 7.07649
52.255759551287994 7.07395
52.280559035098186 7.057930000000001
52.30536115314103 7.05121
52.33035970494467 7.058669999999999
52.35516711807904 7.047680000000001
52.37997717147198 7.02734
52.40478986713005 6.988289999999999
52.42979908731974 6.96775
52.454617094216 6.965319999999999
52.47943774942214 6.9356
52.50426105495102 6.95103
52.529280976059844 6.91708
52.554109609024096 6.89032
52.57894089837482 6.93054
52.60377484613117 6.9013100000000005
52.62880550079408 6.84577
52.65364479223379 6.83533
52.67848674816189 6.829739999999999
52.70352547971946 6.81265
52.72837279155837 6.8248
52.753222773982785 6.788880000000001
52.778075429022984 6.771789999999999
52.80312495150885 6.783510000000001
52.827982978797436 6.79475
52.85284368481815 6.71622
52.87770707160767 6.67345
52.90276741793998 6.722230000000001
52.92763619336701 6.675839999999999
52.952507655698504 6.640910000000001
52.977381806977576 6.6539
53.00245301017842 6.694780000000001
53.02733256653592 6.68049
53.052214817996074 6.653630000000001
53.077099766608484 6.621160000000001
53.102181859804446 6.6239300000000005
53.127072229988265 6.5813
53.15196530349892 6.56405
53.17686108239249 6.54476
53.20195409881522 6.52022
53.22685531582556 6.54486
53.25175924441303 6.502619999999999
53.27666588664027 6.49023
53.30176985962693 6.48123
53.3266819565689 6.47233
53.35159677336455 6.45228
53.376514312083096 6.45447
53.40162927507703 6.42898
53.42655228516116 6.45575
53.45147802340193 6.4032800000000005
53.47660125628886 6.374140000000001
53.50153247842639 6.33648
53.52646643496923 6.34229
53.55140312799818 6.36894
53.576537409691696 6.324319999999999
53.60147960336152 6.30173
53.626424539786164 6.30786
53.65137222105307 6.29617
53.67651758529126 6.28367
53.70147078399681 6.244280000000001
53.72642673383343 6.19278
53.75138543689533 6.20507
53.776541917524526 6.1811
53.801506154876755 6.2020599999999995
53.826473151763246 6.18813
53.851442910284916 6.1310400000000005
53.87661054126026 6.16794
53.9015858509782 6.14565
53.92656392866066 6.11899
53.95154477641532 6.12143
53.976723591801296 6.09691
54.00171000771266 6.0359
54.02669920004598 6.10215
54.051691170915745 6.0926
54.076881204886796 6.01992
54.101878760928514 6.01883
54.12687910187696 5.98902
54.152077577768296 5.98134
54.1770835166946 5.97296
54.20209224691339 5.99011
54.22710377055121 5.92596
54.25231352511594 5.90477
54.27733066384342 5.90279
54.30235060239643 5.903919999999999
54.32737334290836 5.92427
54.35259441062629 5.85364
54.377622783395324 5.842969999999999
54.40265396455061 5.78373
54.42768795623251 5.76307
54.45292037169559 5.75852
54.477960012857906 5.76434
54.50300247099511 5.69083
54.52804774825457 5.704280000000001
54.55329154616743 5.62803
54.57834249018678 5.659009999999999
54.6033962597977 5.58434
54.6284528571545 5.60415
54.653708072335164 5.6048
54.67877035378786 5.5862300000000005
54.70383546947698 5.54667
54.72890342156389 5.52939
54.7541700889442 5.47982
54.77924374251975 5.48419
54.8043202390049 5.46347
54.82959552413022 5.461069999999999
54.8546777351945 5.46161
54.87976279569621 5.41066
54.90485070780914 5.4153
54.930137506558005 5.35749
54.95523115074295 5.35082
54.98032765308844 5.2973
55.005427015775496 5.30017
55.03072536339621 5.32027
55.05583047570572 5.25164
55.080938454927676 5.2327900000000005
55.10604930325027 5.19803
55.131359235107396 5.19064
55.15647585066083 5.1816
55.181595341907496 5.14738
55.20671771104285 5.08655
55.232039262617704 5.076219999999999
55.25716741665048 5.0647199999999994
55.28229845518636 5.0221599999999995
55.30743238042802 4.99904
55.33276558731939 4.98965
55.357905315183636 4.98264
55.383047936390035 4.89669
55.40819345314859 4.9391300000000005
55.433538351073295 4.92338
55.458689688238415 4.9314
55.483843927614096 4.84647
55.509197623043605 4.81896
55.53435769621134 4.78025
55.55952067826466 4.79218
55.5846865714265 4.80748
55.61005202069737 4.8
55.63522376553902 4.81652
55.66039842818645 4.69632
55.68557601087004 4.71819
55.7109532500271 4.63671
55.73613670233794 4.71464
