TT I
1.2716486653135266 6.576960000000001
1.2939594142134223 6.63939
1.3162702121660406 6.58778
1.3385810600174564 6.20125
1.3608919586137629 6.14095
1.383202908801069 5.51768
1.405513911425503 6.33001
1.4278249673332093 6.3362099999999995
1.4501343378461518 5.53632
1.4724455028545926 5.01015
1.4947567236847858 5.04594
1.517068001182951 5.3679
1.5393793361953272 5.18586
1.5616907295681737 4.4168400000000005
1.5840021821477681 4.75523
1.60631369478041 4.5490900000000005
1.6286252683124185 5.221419999999999
1.6509369035901333 4.51642
1.6732468618895553 4.75751
1.695558623192809 4.266030000000001
1.7178704487808514 4.46312
1.7401823395001077 3.94155
1.7625012545597203 4.2634
1.7848028405262486 4.59131
1.8071218901122095 4.15656
1.8294236121921872 3.8449
1.8517427996910911 3.88101
1.8740620574440425 4.04464
1.8963639900671978 4.0285
1.9186833908139995 3.97915
1.9409854680117449 4.34615
1.9633050151394713 4.3147199999999994
1.9856246367570705 4.40276
2.0079269371922672 3.9844800000000005
2.03024671027244 4.17265
2.0525491637446027 3.95415
2.074869091674931 4.069780000000001
2.097171701569106 3.8632400000000002
2.1194917877373847 4.43476
2.141811954326636 4.36477
2.164114805233074 3.95024
2.186435135143035 4.925680000000001
2.208738150935709 5.3716800000000005
2.231058647554722 6.77491
2.2533792288321184 6.14268
2.275682498336085 5.218780000000001
2.298003251406138 5.38046
2.3203066942619714 5.39317
2.3426276225136022 5.08767
2.3649486396617507 5.84857
2.387252348930071 5.41305
2.4095735463442893 5.80363
2.4318774374315884 6.2653300000000005
2.4541988185014043 6.75691
2.476502894794693 6.72365
2.498824462909887 6.54711
2.521146125856138 6.82246
2.5434504863470337 7.38298
2.5657723414244717 7.92245
2.588076895590662 7.5372699999999995
2.610398946189713 8.386339999999999
2.6327210958598384 8.23219
2.6550259469304716 7.79245
2.6773482972090137 8.41019
2.6996533504259 8.560889999999999
2.7219759047039602 8.73778
2.744298562293959 8.53365
2.7666039251246595 8.45072
2.7889267918020164 8.46546
2.8112323652516555 8.83217
2.833555444408179 8.94613
2.8558786311183852 8.191239999999999
2.8781845268938557 8.76176
2.9005079311721484 9.0354
2.9228140460410397 9.114980000000001
2.9451376712799635 9.1906
2.967444008632326 9.547189999999999
2.9897678582247247 9.99003
3.0120918213106695 10.123
3.0343984987899373 10.3719
3.0567226913198637 10.7561
3.079029599759726 11.4756
3.101354025127254 11.9184
3.123678568232338 13.4427
3.145985829517914 13.1126
3.16831061055229 13.2168
3.1906181112775593 13.9155
3.212943133635653 14.4097
3.2352682779763207 14.7874
3.2575761442691227 15.0593
3.2799015350264273 15.2532
3.302209649240067 15.5586
3.3245352898092655 16.2952
3.3468436553365257 17.0262
3.369169549113219 17.0962
3.3914955708171384 17.9827
3.413804319727358 18.1526
3.4361305997334863 18.6296
3.4584396084414553 18.8883
3.4807661501462652 19.5791
3.503092824025881 19.9483
3.5254022288463154 19.5875
3.5477291695206588 20.5439
3.5700388426251948 20.7309
3.5923660534916446 21.3595
3.6146934007816114 22.803
3.637003482731501 28.1489
3.6593311053109985 30.6195
3.681641464033634 26.984
3.7039693653009733 24.0799
3.726297407241705 23.7507
3.7486081875460804 24.3644
3.7709365132734978 24.8631
3.793247578841633 25.4105
3.8155761917550093 25.410999999999998
3.8378875459837216 25.5814
3.8602164494827234 26.0559
3.882545499606844 26.7513
3.9048572932539183 27.6113
3.9271866390645718 27.5178
3.9494987298666713 28.0482
3.971828374764527 28.8758
3.9941581705403255 28.9632
4.016470713506008 29.4181
4.038800813471445 30.1151
4.061113662089144 30.214000000000002
4.0834440696459176 30.7648
4.105774632334751 31.5162
4.128087945865126 32.2092
4.150418821249301 32.7725
4.172732448931298 33.5096
4.195063640413578 34.1727
4.2173775856475215 35.5272
4.239709096631102 38.062
4.262040768704612 53.1035
4.284355196706267 65.7293
4.306687193387355 58.101000000000006
4.329001947444346 44.8433
4.35133427213731 40.5637
4.373666762177566 40.3139
4.395982011761091 40.1716
4.418314834921175 41.1099
4.44063041906622 43.041000000000004
4.4629635787515625 45.1197
4.4852969080429785 46.3006
4.5076130004776225 46.1159
4.529946671403969 46.4013
4.552263106909177 46.9353
4.574597122877047 47.843999999999994
4.596931312711224 49.6907
4.619248269273446 50.0226
4.6415828092605835 51.0589
4.663900117405352 51.9969
4.686235010953232 53.5108
4.708552674085913 54.4996
4.730887924602802 56.2152
4.753223354952695 57.2944
4.775541557023902 58.7881
4.797877349456786 60.1347
4.820195915032126 61.6027
4.842532072957498 62.9022
4.864868414979744 65.2254
4.88718753227192 66.5602
4.909524244902505 68.7351
4.931843734218147 70.5474
4.954180820867835 72.7918
4.976518095879839 75.6052
4.998838149695359 78.9312
5.021175803844231 82.0808
5.043496238205739 84.4204
5.065834274903528 88.5429
5.088172504230693 92.4541
5.1104935158799565 96.1926
5.132832132875765 103.869
5.155153533596801 116.162
5.1774925416746225 134.901
5.199814334878411 224.13
5.2221537374521505 738.725
5.244493338631803 2305.52
5.266815727034316 6976.58
5.289155727832427 13375.1
5.311478517248165 9751.55
5.333818921080011 3447.76
5.356159527788849 757.7639999999999
5.3784829252032536 236.046
5.400823940070432 151.85299999999998
5.423147747031976 125.48200000000001
5.445489173474152 114.038
5.467830807066149 108.18799999999999
5.490155234831516 103.712
5.512497285125229 101.025
5.534822130975162 98.9643
5.557164601388673 96.6833
5.579489868738879 94.2419
5.601832762690846 91.6341
5.6241758697774475 90.669
5.646501775867269 89.975
5.668845311622074 89.3804
5.691171647754637 88.8393
5.713515615597765 87.7478
5.735859800852677 86.5663
5.758186788542988 85.9779
5.780531411018185 86.4075
5.802858837297399 86.0841
5.825203900414495 85.6482
5.8475491852224 85.7147
5.869877275883075 86.1523
5.892223006467101 86.5598
5.914551544266608 87.6879
5.936897724049891 89.3296
5.959244129804903 93.5873
5.981573344815301 104.61200000000001
6.0039202049061 156.556
6.026249875609095 359.57099999999997
6.04859719346037 807.8
6.070927323278297 1942.5
6.093275102315365 4315.49
6.115623113320588 5694.24
6.137953938319995 3513.61
6.160302415650845 1061.79
6.182633708324452 247.88099999999997
6.2049826554078376 111.00399999999999
6.227331838745022 87.1239
6.249663839443684 79.5186
6.27201349767565 75.4465
6.294345974611799 73.22399999999999
6.316696111167083 72.304
6.339046488263839 71.1893
6.361379686074702 68.074
6.383730546639482 65.8989
6.406064229255215 64.1318
6.428415576718203 63.6781
6.450749747566656 62.7367
6.47310158535871 62.0108
6.495453669698332 60.8609
6.517788579421056 60.45399999999999
6.540141159237969 59.6606
6.562476565766648 59.1963
6.5848296444934045 58.2673
6.607182974060425 57.9758
6.6295191323281015 57.2097
6.651872965955752 56.7666
6.6742096296068985 58.0317
6.6965639707294615 63.1652
6.71891856698715 64.3125
6.741255995248479 60.018
6.763611104154477 56.3097
6.785949046381137 54.7224
6.808304671371482 53.781000000000006
6.8306605557940046 53.6261
6.852999275508618 53.0934
6.875355681171544 52.9704
6.897694923437771 52.6244
6.92005185377892 52.9633
6.9423916220322655 53.0416
6.964749080490181 52.2259
6.987106804399774 51.9975
7.009447368180821 52.0114
7.031805625367033 51.7159
7.054146723727803 51.8756
7.076505517631004 51.6317
7.098864581288365 51.7532
7.121206488070854 51.482
7.143566093607822 51.1215
7.165908543567245 51.2465
7.188268694426048 50.8836
7.2106291193438095 50.5432
7.232972390625943 50.8154
7.255333366030969 51.0711
7.277677189091925 55.6876
7.300038718428332 62.5417
7.322400526130865 62.161
7.344745183422596 56.1207
7.367107550224791 51.8658
7.389452767901992 51.5722
7.411815697249891 51.2978
7.434161478756298 50.7138
7.456524974096713 50.8446
7.478888753837185 51.5976
7.501235387657368 53.2265
7.523599738562711 62.1357
7.545946944825532 77.2211
7.568311870344528 83.62899999999999
7.5906770845765665 72.3239
7.613025156078678 59.1686
7.635390950099687 53.898
7.657739602662809 52.6824
7.680105979923558 52.3819
7.702472650212829 52.8437
7.724822180948224 52.5758
7.747189439655568 52.7553
7.769539560075357 52.4609
7.791907410653562 53.123999999999995
7.81425812420825 53.0858
7.836626570110925 53.3178
7.858995315087906 54.2628
7.881346924933401 54.2203
7.903716270417482 54.7668
7.926068482028405 54.8778
7.948438431475253 55.6302
7.9708086843180235 56.1907
7.993161805171116 56.9145
8.015532667162402 56.946000000000005
8.037886398416653 57.7714
8.060257873014221 58.236999999999995
8.082629655331942 58.8059
8.104984308787587 59.2943
8.127356708900503 60.1561
8.149711981398308 61.3225
8.172085002766314 62.7284
8.194458336181368 63.2151
8.216814543847752 63.9247
8.23918850371002 64.9799
8.26154533906492 65.6841
8.283919928836452 67.1864
8.306277395339652 68.4498
8.328652618483376 69.6756
8.351028159736202 71.316
8.373386579575245 73.4203
8.395762759396959 74.5111
8.418121819038275 76.4541
8.440498640894003 80.053
8.462875785192262 85.2972
8.485235811156207 92.7302
8.507613602688501 123.50299999999999
8.529974277114228 214.262
8.552352719347912 337.827
8.574731488360351 571.9019999999999
8.59709314210385 1045.79
8.619472567021075 1806.41
8.64183487789147 2273.27
8.664214962183097 2005.71
8.686577933647762 1112.3
8.708958680784317 442.319
8.731339760774953 183.81099999999998
8.753703729764451 110.62700000000001
8.77608547780821 94.76299999999999
8.798450116065078 90.2626
8.820832535634787 87.3853
8.843215292401656 86.0612
8.865580941199045 84.6638
8.887964374703538 83.5312
8.910330701447199 83.0278
8.932714815164482 82.4279
8.955099270424924 81.4977
8.977466620733543 80.8866
8.999851761421976 80.3731
9.022219798361645 79.3384
9.04460562795561 79.7676
9.066991803441677 79.523
9.089360876979615 78.961
9.111747746589993 78.4562
9.13411751544971 78.4728
9.156505082664324 78.5258
9.178875550323522 79.3248
9.20126381862328 82.8984
9.223652438908596 96.8569
9.246023961427412 121.00299999999999
9.26841328802173 129.889
9.290785518039224 114.90899999999999
9.313175554425882 94.5519
9.335565947154315 82.8981
9.357939245086508 80.2294
9.380330352834827 79.6103
9.40270436697103 79.1493
9.425096193225055 79.0211
9.447488380180165 80.0146
9.469863475295412 79.8029
9.492256385987508 79.9774
9.514632206018318 80.5524
9.537025843935714 80.9291
9.559402392368193 81.3638
9.581796761000229 82.3557
9.604191496441521 82.6002
9.626569144158516 83.3679
9.648964615551032 84.2669
9.671343000390081 85.664
9.693739211225699 86.1304
9.716135793237463 86.3474
9.738515290448102 87.3364
9.760912617143402 88.2529
9.783292860202891 89.1908
9.805690935076182 90.699
9.828089385495742 91.0124
9.850470754023561 92.5493
9.872869957865444 94.3792
9.89525208097539 97.726
9.917652041736662 101.4
9.940052382417589 104.527
9.962435644102392 113.266
9.984836746950979 141.601
10.007220771957746 212.45
10.029622640473708 318.754
10.052007432299963 470.145
10.074410069984072 723.605
10.096813093716005 1158.85
10.119199042482517 1727.32
10.141602840636468 2085.09
10.163989564971628 1706.72
10.186394141051062 1020.82
10.208799107559706 456.526
10.231187001965623 209.655
10.253592751657669 127.139
10.275981430388155 107.323
10.298387966769793 102.38799999999999
10.320794897965431 101.072
10.343184759907361 99.7778
10.36559248305461 98.0341
10.387983138083852 96.26299999999999
10.410391656691655 97.3359
10.432800574501677 105.227
10.455192425893369 124.37100000000001
10.47760214443012 151.498
10.499994797678786 190.325
10.522405320453982 255.81599999999997
10.54479877906917 366.032
10.567210109595656 490.125
10.5896218454736 576.298
10.612016518879773 526.3969999999999
10.634429067781074 378.454
10.656824555333241 223.80900000000003
10.679237920773568 145.741
10.701651695961992 108.405
10.724048411481384 95.4791
10.746463008485165 87.3496
10.768860546937125 82.4868
10.791275969274796 79.2671
10.81369180576079 78.0676
10.836090585366925 76.7819
10.858507252467449 75.626
10.88090686379991 74.4015
10.903324365036394 73.891
10.925724811614439 72.6918
10.948143150509463 72.4044
10.970561909719066 71.6392
10.992963615930844 70.9217
11.015383218085756 69.7923
11.037785768347074 69.0482
11.06020621697282 68.5041
11.082627090322113 68.0303
11.105030913430326 67.2987
11.12745263854165 67.2598
11.149857314510728 66.8376
11.172279894912576 66.9276
11.194702904450653 66.5301
11.217108866490921 65.6523
11.239532736615194 64.9363
11.26193956033512 64.168
11.284364294577085 64.137
11.306789462371718 63.2263
11.329197585398376 63.0815
11.351623622610898 62.9249
11.37403261614354 62.4307
11.396459526308487 62.1236
11.418869393879497 61.6416
11.441297180532617 61.3828
11.463725406927658 61.1473
11.486136592353875 60.8413
11.508565700543707 60.4705
11.530977768845315 60.6378
11.553407762368774 60.5212
11.575838200059769 60.3518
11.598251599479612 60.0561
11.620682927815501 59.8673
11.64309721895548 59.946999999999996
11.665529441478206 59.7564
11.687962112597958 59.4843
11.710377748130886 59.5411
11.732811318753434 59.4213
11.755227854859067 59.3245
11.777662328529495 59.1386
11.800079768750786 58.778
11.822515149015453 58.7951
11.844950984084935 59.5054
11.867369787303163 59.4043
11.889806534289491 59.8644
11.912226250487029 62.3578
11.934663912939751 67.1551
11.9571020346363 71.5986
11.979523127133968 72.1525
12.001962169624331 69.1792
12.024384183972964 64.8525
12.046824150809913 63.8706
12.069264581333726 67.9463
12.091687985297767 74.045
12.11412934550045 81.8472
12.136553680195208 94.3503
12.158995973632788 115.01899999999999
12.181438735204349 143.102
12.20386447284199 175.373
12.226308172985636 200.09
12.24873485024193 204.24400000000003
12.271179492516982 170.667
12.293607112949127 131.207
12.316052700916226 94.4903
12.338498763250042 72.9328
12.360927805303868 63.9072
12.383374818673879 61.336999999999996
12.405804812803074 60.5804
12.428252780773262 60.2534
12.45070122756722 60.5336
12.473132656675375 60.4808
12.49558206341869 60.5374
12.518014453510101 60.5399
12.540464823770117 60.6928
12.562915677315177 60.7998
12.58534951575545 61.4908
12.607801338171472 60.9572
12.630236146511358 61.739
12.652688941369085 62.6572
12.675124723177234 62.9795
12.697578494048786 63.4466
12.720032754458185 63.2485
12.742470003354093 63.0052
12.764925245138771 63.4739
12.787363476431278 63.9272
12.809819703166806 64.3159
12.83227642391173 65.0455
12.854716135692716 65.6267
12.877173846755147 66.6947
12.899614549869717 66.9003
12.9220732548287 67.793
12.94453245827299 68.1424
12.966974655289818 69.0939
12.989434858002571 70.0031
13.011878055298721 70.3812
13.034339260862497 71.5276
13.056800969391883 73.2476
13.079245674017244 75.9579
13.101708390774869 78.0932
13.12415410463411 81.8358
13.146617833206086 90.7957
13.169064559883248 103.656
13.191529303857127 119.04899999999999
13.213994557076367 139.093
13.236442809902437 169.463
13.258909083908291 217.888
13.28135835851934 281.86
13.30382565690295 358.20300000000003
13.326293469022952 422.86699999999996
13.348744283242008 441.301
13.371213125129904 377.07
13.39366497011003 280.85200000000003
13.416134845360597 186.209
13.438605238843131 127.67
13.46105863690397 101.383
13.483530069144786 97.0745
13.505984506951902 103.94
13.528456981549432 114.936
13.550929978879088 128.428
13.573385983253365 148.861
13.595860028340867 180.37099999999998
13.618317081455832 228.424
13.64079217790333 289.087
13.663250283359057 352.43199999999996
13.685726434770173 386.721
13.708203115221277 363.00300000000004
13.730662806148091 286.025
13.75314054697177 206.72400000000002
13.775601299246777 139.237
13.798080104050406 99.787
13.820559442405358 83.8234
13.843021793671388 78.7679
13.865502201420897 76.7039
13.887965623051947 76.1908
13.910447103807167 74.9842
13.932929122629764 73.7793
13.955394156785959 73.4874
13.977877254034569 72.938
14.000343367582113 72.0248
14.022827546871707 71.26899999999999
14.045294743423524 70.4152
14.06778000837062 70.2233
14.090265817715476 70.6317
14.112734645763819 71.9588
14.13522154619454 74.9028
14.157691466286913 77.5449
14.180179461423874 78.1676
14.202668005486178 75.2045
14.22513957064374 71.4877
14.247629214846473 68.9499
14.270101881097517 67.5895
14.29259262906496 66.8957
14.315083930490205 66.6572
14.337558255389705 66.5043
14.360050666019726 66.444
14.382526101071944 66.1908
14.405019624534942 65.759
14.427513705993134 65.5995
14.449990813291825 65.3666
14.47248601302899 65.3594
14.49496423954951 65.4811
14.517460561197822 65.4926
14.539939910570322 65.2113
14.562437357763558 65.458
14.58493536931253 65.9578
14.607416409993311 65.8159
14.62991555254159 66.1278
14.652397725157423 66.1962
14.674898002342799 66.4696
14.697398848433282 66.592
14.719882725991326 67.2802
14.74238471217934 67.6438
14.764869730765593 69.3765
14.787372860692983 72.9233
14.809876564079925 78.7055
14.83236330125751 85.2521
14.854868153850365 93.4304
14.877356041159485 104.941
14.899862046604186 120.103
14.922351087688757 143.503
14.944858249632887 174.893
14.967365991421232 204.907
14.989856770231246 226.27900000000002
15.012365673994204 225.615
15.03485761569738 199.472
15.05736768508665 159.204
15.07987833888692 123.944
15.102372032001655 94.5648
15.124883856909658 77.2514
15.14737872204565 71.0106
15.169891721717274 68.4984
15.192405310371893 67.3035
15.214901940621196 66.6689
15.237416709527137 65.8384
15.259914520936249 65.3731
15.282430473753607 64.9349
15.304947020131227 64.3637
15.327446610371178 64.2343
15.349964346154254 63.7661
15.372465126703139 63.4767
15.394984055556009 63.4869
15.417486030076159 63.3364
15.44000615566487 63.0195
15.462526881230803 62.9604
15.485030653812652 62.7786
15.507552581617434 62.7176
15.530057557334603 62.6957
15.55258069104857 62.3595
15.575104429329837 62.8555
15.597611216864632 62.5116
15.620136166564563 62.6709
15.6426441664095 62.9892
15.665170331202765 64.0777
15.687697105158826 67.292
15.710206930593545 71.8961
15.732734925158933 76.4718
15.755245972089478 82.5383
15.77777519094324 90.1136
15.800287463046663 101.14399999999999
15.822817909869592 118.15
15.84534897229804 139.653
15.867863089299354 166.46599999999998
15.890395385222186 188.28599999999997
15.912910736597423 202.108
15.935444269699861 193.21900000000002
15.957978423016485 168.47299999999998
15.980495633101265 133.817
16.003031029129367 103.413
16.02554948280019 81.2758
16.048086125229432 69.8328
16.070623392487107 65.236
16.09314371869582 63.2051
16.11568223789321 61.3995
16.13820381691126 59.7178
16.160743591742527 58.6056
16.183283996022084 57.7432
16.205807461423195 56.7716
16.228349126881973 56.1887
16.25087385432698 56.3127
16.27341678466365 55.8351
16.29594277784926 55.3302
16.31848697676433 54.8678
16.341031811604868 54.5445
16.36355971058487 54.4661
16.3861058195587 54.3712
16.40863499352978 53.7758
16.431182380342005 53.6471
16.453730407713202 53.3524
16.476261501364792 52.964
16.498810812136167 52.7121
16.52134319004079 53.0883
16.54389378792203 52.7717
16.566445031001553 52.6798
16.588979342490088 52.4961
16.61153187824822 52.3799
16.634067483263312 52.1551
16.656621315414416 52.24100000000001
16.679175797408888 51.9854
16.701713349928728 52.0398
16.72426913389191 52.2399
16.74680798922351 52.0185
16.76936507887444 52.0472
16.791905240734874 52.0617
16.814463639794468 51.8298
16.837022695210294 52.0058
16.859564824093756 52.3274
16.882125194503903 52.6178
16.904668639217885 53.1061
16.927230328348003 53.5353
16.949792678493612 54.0904
16.972338104193863 54.0377
16.994901778652235 53.6647
17.017448529496576 53.2049
17.040013531998152 53.1811
17.06257920018044 53.3126
17.0851279459922 54.0522
17.107694947817667 55.0252
17.130245028099072 55.9615
17.15281336730298 57.333999999999996
17.17536478578733 58.9127
17.19793446610687 60.8059
17.220504818648422 63.3309
17.243058251703697 66.6696
17.265629950971032 71.0889
17.288184731571736 76.3759
17.310757781306908 81.4165
17.33333150794385 83.0345
17.355888317140174 82.0146
17.37846339986244 77.5963
17.401021565958885 71.2745
17.42359800851343 64.9213
17.44617513265564 60.6174
17.468735341390783 58.1982
17.491261035594565 56.9288
17.51396340099364 56.3114
17.536490463869136 56.3866
17.559018209820174 56.221000000000004
17.58154663977963 56.501000000000005
17.604251766089718 56.7136
17.626781572227713 56.7527
17.64931206518155 56.9301
17.671843245885103 57.4271
17.69455114821572 57.6368
17.717083712612634 58.2903
17.739616967569667 58.8895
17.762150914021706 59.4467
17.78486160749854 59.6786
17.807396945166804 60.1682
17.829932977143503 60.5537
17.85246970436452 61.0122
17.875183204129467 62.6032
17.897721330097664 65.1546
17.920260154126645 67.8977
17.942799677153296 71.2145
17.9655159983646 74.308
17.988056927677544 78.9576
18.010598558807683 85.5317
18.033140892692916 94.6519
18.05586005052525 105.993
18.07840379824407 118.50200000000001
18.10094825154059 130.869
18.12366954819864 140.416
18.146215420998306 143.591
18.16876200220057 136.993
18.191309292745153 123.471
18.214033452627167 108.712
18.236582170236648 95.0068
18.259131600016456 86.9589
18.281681742907335 84.3611
18.304408781233683 87.2794
18.32696035875955 93.0228
18.349512652227624 98.0204
18.372065662579683 104.399
18.394795594587553 105.93
18.41735004715306 104.126
18.43990521943684 98.0972
18.46246111238171 88.89
18.485193953325208 78.6927
18.507751296070428 70.6488
18.530309362314178 65.3397
18.552868153000343 62.6295
18.57560391815056 60.8531
18.59816416623245 60.4893
18.620725141597372 59.7451
18.643286845190268 59.0538
18.666025549835414 58.3339
18.688588718427933 57.5581
18.711152618092243 57.3125
18.73389353884365 57.2142
18.75645890921984 56.6498
18.77902501351406 56.4231
18.801591852673102 56.23
18.824335739722738 55.8055
18.846904057212626 55.6668
18.8694731124168 55.4368
18.89204290628315 55.4608
18.914789774966803 55.2594
18.937361054791623 54.9892
18.959933076131318 54.6516
18.982505839934877 54.5601
19.00525570560582 54.5756
19.027829963004184 54.4312
19.05040496572238 54.348
19.072980714710468 54.3228
19.095733592739563 54.3818
19.11831084296757 54.4503
19.140888842324735 55.0121
19.16346759176222 55.5128
19.18622349753803 55.9641
19.208803755869358 56.9665
19.231384767143577 58.1047
19.253966532312948 59.6253
19.276725481241822 61.8852
19.29930876296784 64.8398
19.3218928014549 68.1794
19.34465404436217 71.777
19.36723960516257 74.6614
19.389825925592426 75.4913
19.412413006605938 74.8809
19.43517731967805 71.7592
19.457765930683355 67.6278
19.48035530514408 62.9479
19.50294544401556 58.8972
19.525712842708348 55.6335
19.54830451925909 53.6656
19.570896963095727 52.369
19.593490175174704 51.7975
19.616260674962184 51.4881
19.638855432416964 51.2593
19.661450960992624 51.5819
19.68404726164677 51.318999999999996
19.706820878021247 51.2681
19.729418731756834 51.3714
19.752017360452857 51.135
19.77461676506804 51.2576
19.797393513540218 51.3288
19.819994478951667 51.3584
19.84259622316767 51.9411
19.8651987471481 52.2727
19.887978643247177 52.6381
19.91058273574792 53.3645
19.933187610901943 54.1324
19.955969879466828 55.1001
19.97857632894404 56.4742
20.00118356396599 57.9705
20.023791585494575 59.9445
20.046577028914875 63.0096
20.069186632506966 65.61399999999999
20.091797025500632 67.9106
20.114408208858933 69.5304
20.137196842715273 69.9169
20.159809615886765 68.6233
20.18242318232135 65.937
20.20503754298326 63.4468
20.227829382875154 61.4948
20.250445341109344 60.7991
20.27306209647285 61.2249
20.29567964993108 62.5896
20.31847471147704 63.6105
20.34109387027612 64.8134
20.363713830075454 64.7047
20.386334591841646 63.7326
20.409132890679302 61.178000000000004
20.431755265564437 57.8568
20.454378445325528 54.876999999999995
20.477002430930366 52.4787
20.499803982716553 50.5032
20.522429589228004 49.3955
20.54505600449589 48.8867
20.567683229489194 48.7105
20.590488049900088 48.443000000000005
20.61311690359731 48.1967
20.63574656993626 48.013999999999996
20.658553853717297 47.7546
20.681185154618298 47.8993
20.703817271080066 47.7975
20.72645020407368 47.327
20.749260783967177 47.4706
20.771895359337133 47.6657
20.794530754161617 47.9066
20.817166969412938 47.8148
20.83998086114876 47.4666
20.86261872660049 47.3133
20.885257415405402 47.03
20.90789692853701 46.8818
20.930714147864748 46.7432
20.953355319030678 46.8366
20.97599731745334 46.9581
20.99864014410749 46.7077
21.021460706796564 46.8601
21.044105199328826 47.0249
21.06675052302631 47.0762
21.089396678865015 47.4753
21.112220600704806 47.5469
21.134868430275347 47.8876
21.15751709492456 48.0952
21.180166595629693 48.3751
21.202993892429635 48.8667
21.22564507473034 49.3706
21.24829709602816 49.5786
21.27112693608965 49.9767
21.293780644891275 49.9991
21.316435195634053 49.4484
21.339090589297417 48.8199
21.361923832041875 48.1539
21.384580921090404 47.5168
21.407238856007325 46.8364
21.429897637773326 46.7243
21.45273429906592 46.5561
21.475394784108598 46.7352
21.498056118951983 46.6325
21.520718304578022 46.8689
21.543558400304388 46.9219
21.566222297108816 47.0036
21.58888704765135 47.1121
21.61155265291521 47.2574
21.63439619898156 47.7935
21.657063523335786 48.1015
21.67973170537063 48.7003
21.7024007460706 49.02
21.72524775840385 49.7077
21.747918526116475 50.7429
21.770590155457388 51.7736
21.79326264741238 53.0544
21.816113141960237 54.9726
21.838787368860547 57.0968
21.861462461341976 59.5237
21.884315579735777 61.7714
21.90699241312273 63.5596
21.92967011506078 64.6083
21.95234868653799 64.6383
21.9752053151131 63.6632
21.997885635446785 61.4547
22.020566828293532 59.4329
22.04324889464272 57.2938
22.066109049404666 55.6726
22.088792872571794 55.3931
22.111477572219204 55.4487
22.1341631493376 55.622
22.157026846313123 55.5786
22.179714188221507 55.1566
22.202402410582668 54.0376
22.22509151438863 52.1634
22.24795876962584 50.5863
22.270649646204486 49.4673
22.293341407213727 48.4472
22.316034053646906 47.9414
22.338904883215342 47.4589
22.36159931041458 47.328
22.38429462602756 47.1263
22.40699083104897 46.9907
22.429865251039757 46.7747
22.452563244831367 46.8116
22.47526213102522 46.8487
22.49813925616515 46.9878
22.520839937143307 46.8138
22.543541513520587 46.9291
22.56624398629403 46.7962
22.589124730075895 46.6677
22.611829005656723 46.9988
22.63453418063466 46.7985
22.657240256008077 46.9304
22.680124634582935 47.2925
22.70283252079775 47.5133
22.725541310413075 47.9783
22.74825100442868 48.2503
22.771139033969575 48.846000000000004
22.79385054687155 48.96
22.81656296718292 49.705
22.83927629590484 50.4092
22.862167992606945 51.3905
22.88488314827121 52.5902
22.907599215359284 53.5724
22.93031619487366 55.0733
22.953211574954405 56.123000000000005
22.975930389478226 57.2324
22.998650119445763 57.5767
23.02137076586092 57.0789
23.044269845560063 55.7973
23.06699233506288 54.2114
23.089715744034912 52.3399
23.112617610931565 50.5515
23.135342869061212 49.2251
23.158069049684816 48.0581
23.1807961538087 47.4026
23.20370174880544 47.2791
23.226430710184808 47.1684
23.249160598093425 47.1373
23.271891413539002 47.1278
23.294800752937697 47.2678
23.31753343374794 47.5424
23.340267045128353 47.7999
23.36300158808808 48.2418
23.38591468821339 48.5799
23.408651104658304 48.9091
23.431388455719986 49.6312
23.454126742409 50.3832
23.4770436196085 51.3942
23.499783787914662 52.7316
23.522524894889884 53.7608
23.54526694154616 55.2159
23.56818761219047 56.4956
23.59093154860734 57.3703
23.613676427751283 57.9689
23.636422250635754 57.5968
23.659346731118656 55.9725
23.68209445191868 53.9412
23.704843119509587 51.7316
23.72759273490623 49.5189
23.750521041644767 47.7096
23.77327256312355 46.4002
23.796025035462787 45.6457
23.818956224555475 45.0067
23.841710609113413 44.7387
23.86446594758979 44.4794
23.887222241002014 44.1334
23.910157285144578 43.7065
23.932915498962537 43.7354
23.955674670778713 43.5435
23.978434801611975 43.3706
24.001373717286125 43.316
24.024135776723917 43.2912
24.046898798245582 43.0603
24.06966278287146 43.0674
24.092605586582614 42.7676
24.115371508023642 42.5325
24.1381383956401 42.5169
24.16090625045381 42.4686
24.183852958731244 42.4512
24.206622758582608 42.3617
24.229393528706886 42.005
24.252165270127392 42.0844
24.27511589952438 42.1493
24.297889594216997 41.9807
24.32066426328598 41.7572
24.34343990775613 41.7838
24.36639447485003 41.6417
24.38917208083877 41.6091
24.41195066531332 41.4229
24.43490819850244 41.7233
24.457688750692377 41.4609
24.48047028445616 41.4566
24.503252800821233 41.5246
24.526214300784112 41.6763
24.548998793132213 41.641000000000005
24.57178427117417 41.5169
24.59457073593893 41.7086
24.617536219319863 41.6737
24.64032466834748 41.6522
24.663114107195035 41.6909
24.685904536893013 41.4291
24.708874020360852 41.2883
24.731666442613744 41.1355
24.754459858818787 40.8912
24.777254270007962 40.8147
24.80022777025625 40.8774
24.82302418230472 40.7914
24.845821592443674 40.8603
24.86862000170663 40.6816
24.891597535453727 40.7147
24.914397953892728 41.0986
24.93719937456671 40.8922
24.96000179851076 40.9856
24.98298338249997 41.1439
25.00578782394922 41.2772
25.028593271784167 41.4758
25.05157790644186 41.8819
25.07438537804115 42.0145
25.097193859145293 42.2994
25.120003350792075 42.5085
25.142992065061257 42.9048
25.165803588823465 43.2741
25.18861612625217 43.5375
25.211429678386736 43.6679
25.234422489079968 43.7576
25.257238081693636 43.8618
25.280054692141732 44.0901
25.3028723214652 44.1103
25.325869245420463 44.2139
25.348688923599397 44.2821
25.371509623787006 44.1059
25.394331347025812 43.9744
25.41733240110666 43.6539
25.440156181590016 42.775
25.46298098826268 42.3078
25.48580682216873 41.64
25.50881202326435 41.0925
25.53163992281684 40.5518
25.55446885274561 40.0722
25.577298814096377 39.8321
25.600308179121807 39.5876
25.623140214533745 39.6143
25.64597328451537 39.4735
25.66898578564376 39.2411
25.691820936010206 39.3174
25.714657124097695 39.2393
25.737494350954734 39.1504
25.760511045684957 39.059
25.783350361364224 39.1359
25.806190718969255 39.2997
25.82903211955018 39.3196
25.852053024868923 39.3279
25.874896522722523 39.4637
25.897741066713106 39.3086
25.920586657892454 39.4534
25.943611790812668 39.5484
25.966459487728237 39.7211
25.989308234998564 39.7488
26.01215803367705 40.2175
26.03518741123814 40.3937
26.05803932412957 40.3787
26.080892291600094 40.4348
26.10374631470478 40.6734
26.12677995397268 40.9531
26.14963609978026 40.9126
26.172493304397875 40.5734
26.19535156888223 40.3994
26.218389486949604 39.861999999999995
26.241249882640123 39.584
26.26411134137826 39.2705
26.28715248187403 39.0553
26.31001607820869 38.8395
26.3328807407756 38.5905
26.35574647063438 38.8457
26.37879191991473 38.7415
26.401659795896734 38.8868
26.424528742360263 39.1081
26.447398760366614 39.2962
26.470448535598294 39.2454
26.49332070826805 39.4672
26.516193955675355 39.8181
26.53906827888316 40.0283
26.562122397260108 40.3139
26.584998883685063 40.8294
26.607876449110325 41.0894
26.63075509460056 41.3439
26.65381357334404 41.5712
26.67669439061878 41.6175
26.699576291163382 41.4707
26.722459276044212 41.3704
26.745522132402975 40.963
26.768407297649354 40.771
26.791293550442003 40.4207
26.814180891848974 40.1734
26.837248143099337 39.7741
26.860137673466657 39.5999
26.88302829566349 39.4493
26.90592001075963 39.2326
26.92899167420566 39.0763
26.951885586870763 38.7087
26.974780595655517 38.4575
26.99785558178161 38.1992
27.020752794605112 38.2137
27.043651106772522 37.9796
27.06655051935668 37.7247
27.089629948036183 37.5952
27.112531573292053 37.5129
27.135434302194138 37.5769
27.158338135817015 37.3836
27.181422024430987 37.433
27.204328079372566 37.4892
27.22723524226965 37.4716
27.250143514198573 37.5749
27.273231880156334 37.4865
27.296142382065014 37.3445
27.319053996245536 37.2888
27.341966723775965 37.263000000000005
27.365059584515222 37.4062
27.38797455070062 37.3553
27.410890633481237 37.3007
27.433807833936918 37.400999999999996
27.456905206923906 37.4994
27.47982465472398 37.4777
27.502745223449743 37.6104
27.525666914182825 37.7362
27.548768816912457 37.7084
27.571692763693633 37.6036
27.59461783573812 37.4798
27.617723149491244 37.2075
27.640650484125285 37.1702
27.66357894728264 37.113
27.686508540048052 37.0219
27.709618414237887 36.9162
27.732550278321757 36.9276
27.755483275279115 36.9051
27.778417406196485 36.9297
27.801531858397514 36.7818
27.824468269376716 36.7761
27.847405817586786 36.698
27.870344504116094 36.8044
27.893463551932008 36.9687
27.916404527281053 37.3122
27.93934664422563 37.4789
27.962289903855886 37.5349
27.98541356491974 37.7637
28.00835912214229 37.9645
28.03130582533231 38.1974
28.054253675581805 38.3685
28.077381967556104 38.4816
28.100332124185126 38.4435
28.123283431160893 38.3473
28.146235889577238 38.3565
28.169368830154156 38.1214
28.192323603752033 37.9422
28.215279532083304 37.7398
28.238415973016764 37.2573
28.261374223145094 37.1357
28.284333631303806 36.9021
28.307294198589954 36.6735
28.330435319167677 36.4294
28.353398217078915 36.1816
28.376362277420153 35.9889
28.39932750129032 35.6549
28.422473319286713 35.4835
28.44544088262495 35.4147
28.468409612800283 35.2722
28.491379510913497 35.0002
28.51453004413313 34.9425
28.53750229057244 34.9568
28.56047570826344 34.7995
28.583450298308804 34.917
28.606605564586562 34.705999999999996
28.629582511831156 34.736
28.65256063474956 34.6511
28.675539934446338 34.7169
28.698699951647605 34.5925
28.72168161743193 34.561
28.74466446331978 34.4471
28.767648490417624 34.4645
28.790813276438353 34.4941
28.813799678527303 34.4882
28.836787265157085 34.499
28.859955641890075 34.4196
28.882945610203045 34.4492
28.905936766392035 34.2641
28.928929111566863 34.405
28.952102288520145 34.3358
28.975097024308607 34.2351
28.998092952423807 34.0954
29.021090073977508 34.0113
29.04426806913204 33.8879
29.067267590245258 33.7223
29.090268308143695 33.724000000000004
29.11327022394099 33.5988
29.13645305530891 33.4341
29.159457379627167 33.4543
29.18246290519685 33.3514
29.20546963313352 33.2543
29.22865731875826 33.4286
29.25166646419296 33.3224
29.27467681535305 33.2777
29.29768837335608 33.3569
29.320880931312562 33.3752
29.34389491580634 33.3501
29.366910110507334 33.3749
29.38992651653503 33.4004
29.41312396492981 33.3936
29.436142806456754 33.288000000000004
29.45916286268059 33.2267
29.48236399319994 33.2033
29.50538649169417 33.0543
29.528410208259935 32.8785
29.55143514402014 32.6183
29.574641196749695 32.4332
29.597668583816574 32.391999999999996
29.6206971934585 32.1524
29.64372702680042 32.1783
29.666938019934474 32.1047
29.689970313635285 32.0378
29.713003834422636 32.0428
29.73603858342347 31.9962
29.759254535188578 31.7741
29.78229175361658 31.8013
29.80533020365064 31.9438
29.82836988641968 31.8694
29.85159081507472 31.7152
29.874632976355343 31.6883
29.89767637376955 31.743000000000002
29.920721008448314 31.6186
29.9439469322847 31.6606
29.96699405457564 31.570999999999998
29.9900424175358 31.6478
30.013092022298157 31.6067
30.03632295963995 31.5195
30.059375061131373 31.6143
30.08242840783577 31.592
30.105483000888153 31.679000000000002
30.128718970092244 31.548000000000002
30.151776069006917 31.4701
30.17483441768648 31.5391
30.198074175317235 31.5047
30.221135036724256 31.5668
30.24419715131772 31.5475
30.267260520236203 31.4033
30.290505341942243 31.4809
30.313571232750228 31.5145
30.336638381310948 31.4415
30.35970678876503 31.4018
30.38295669299435 31.305999999999997
30.40602763151657 31.2751
30.429099832366074 31.2573
30.452173296685572 31.2389
30.47542830191959 31.1678
30.498504306502497 31.1966
30.521581577995562 31.1915
30.544660117543582 31.2965
30.56792024229725 31.3399
30.59100133132069 31.3311
30.614083691845494 31.3092
30.637167325018545 31.3714
30.660432587840603 31.4188
30.683518779717886 31.375
30.70660624769615 31.476
30.729694992924372 31.5154
30.75296541239743 31.4717
30.77605672557558 31.4449
30.799149319462742 31.4143
30.8224236211637 31.3426
30.845518789950724 31.2274
30.868615242910597 31.158
30.891712981195973 31.0128
30.91499247215866 30.8641
30.938092794619365 30.8213
30.96119440587579 30.7368
30.984297307082752 30.7262
31.00758200598383 30.6259
31.030687500658694 30.5093
31.053794288760695 30.3387
31.076902371446767 30.2199
31.100192296997445 30.3369
31.12330298246119 30.2846
31.14641496599209 30.1836
31.169528248749216 30.1642
31.19282341969534 30.2083
31.215939314557186 30.1004
31.239056512134788 30.1755
31.262175013589378 30.1271
31.28547544871168 30.0815
31.30859657161541 29.9779
31.331719001892175 30.0239
31.35484274070538 30.2268
31.378148458819545 30.2025
31.401274828443725 30.1022
31.424402510106933 30.1266
31.447712205419993 30.19
31.470842524931633 30.0322
31.493974159989783 30.1197
31.51710711176168 30.112
31.54042212308802 30.0593
31.563557722100917 30.1096
31.586694641341655 29.8728
31.609832881979628 29.8133
31.63315322823208 29.7667
31.656294125521327 29.6743
31.679436347728515 29.4833
31.70257989602529 29.4745
31.725905596152327 29.403000000000002
31.74905181052835 29.3877
31.772199354521323 29.4247
31.79534822930507 29.3495
31.818679302290967 29.4046
31.84183085259981 29.4427
31.864983737233473 29.4112
31.88813795736804 29.4057
31.911474422233013 29.42
31.934631327356435 29.416999999999998
31.9577895715215 29.3714
31.980949155906522 29.3442
32.004291031706956 29.3184
32.027453310562606 29.1553
32.05061693318573 29.1277
32.07396288236386 29.197
32.09712920658542 29.11
32.12029687812702 28.8493
32.14346589817093 28.9036
32.166817291729984 28.8015
32.18998902288583 28.7499
32.21316210610336 28.6492
32.23633654256711 28.5464
32.259693399663725 28.5354
32.282870556771144 28.362
32.30604907069099 28.3848
32.329228942610065 28.3975
32.35259128243769 28.2232
32.375773884550505 28.1567
32.398957848235646 28.2125
32.422143174682176 28.204
32.445511016471215 28.0955
32.468699082679954 28.0316
32.49188851523011 27.9268
32.51507931531304 27.8828
32.538452678331 27.9549
32.56164622776311 27.7342
32.58484114831493 27.6758
32.60803744118015 27.7656
32.631416344731896 27.6778
32.654615396551876 27.7066
32.67781582427913 27.6893
32.701198898634416 27.5328
32.72440209253756 27.5011
32.747606665947124 27.4927
32.77081262006088 27.4101
32.79420126883317 27.3697
32.81740999876112 27.348000000000003
32.840620112999424 27.3649
32.86383161274818 27.2466
32.88722585534586 27.2755
32.91044014056596 27.3644
32.933655814909734 27.2552
32.95687287957963 27.2461
32.98027273544904 27.1809
33.00349259526636 27.1646
33.026713849030116 27.1864
33.04993649794511 27.1689
33.073341986570746 27.1058
33.09656744032826 27.0997
33.11979429286444 27.0438
33.14302254538647 27.13
33.166433686291185 27.1021
33.18966475336992 27.0228
33.212897224069096 26.9637
33.23613109959831 26.9739
33.259547912343415 26.9272
33.2827846121627 26.9051
33.306022720453775 26.7938
33.32926223842861 26.6457
33.352684742614166 26.7663
33.37592709463173 26.7992
33.399170859982064 26.6808
33.422597648419426 26.5315
33.44584425514446 26.5091
33.46909227885668 26.4429
33.4923417207723 26.2756
33.51577423505344 26.3524
33.539026528130385 26.2395
33.56228024307245 26.2276
33.585535381098246 26.1047
33.60897364093058 26.0379
33.63223163992385 26.0618
33.6554910656699 26.0169
33.678751919389796 26.0524
33.702195944520106 25.9336
33.72545966903325 25.9839
33.74872482519663 25.836
33.771991414233746 25.8462
33.79544122444841 25.712
33.81871069412428 25.6505
33.84198160035767 25.701
33.86525394437455 25.6988
33.88870955949969 25.6136
33.911984794020626 25.5786
33.93526147001624 25.5325
33.958539588715006 25.4971
33.98200102861669 25.4804
34.0052820477047 25.377
34.02856451319451 25.369
34.05203033759056 25.2644
34.07531571090147 25.2489
34.09860253431845 25.1781
34.121890809074316 25.1862
34.145362493118924 25.1138
34.16865368561615 25.1313
34.191946333164054 25.1261
34.21524043699793 25.1032
34.23871800066799 25.0849
34.26201503218366 24.9503
34.28531352370466 24.8902
34.30861347646881 24.8987
34.33209693978188 24.851
34.3553998301885 24.8451
34.378704185565205 24.7612
34.402010007152356 24.7228
34.42549939016683 24.6324
34.44880815937748 24.6142
34.472118398533134 24.5901
34.49543010887669 24.5878
34.51892543169198 24.4046
34.54224009966052 24.511
34.56555624255917 24.4774
34.58887386163339 24.2817
34.61237514439016 24.2487
34.6356957311114 24.2284
34.65901779775809 24.2667
34.68252356662995 24.2058
34.705848608458616 24.1823
34.72917513396849 24.1716
34.75250314440949 24.06
34.77601490857862 24.0756
34.799345904259795 23.8881
34.82267838863559 23.9814
34.846012362958525 24.0154
34.869530142679984 23.9952
34.89286711232212 23.9029
34.91620557568269 23.9565
34.93954553401677 23.95
34.9630693495876 23.8835
34.986412313340814 23.8196
35.00975677584668 23.8063
35.033102738362956 23.8037
35.05663261012228 23.7281
35.0799815881786 23.6301
35.10333207003229 23.6678
35.12668405694369 23.6685
35.150220005273056 23.6528
35.17357501786656 23.6448
35.19693153931268 23.5608
35.220289570874385 23.5325
35.24383161619786 23.5483
35.267192683604904 23.5382
35.290555264930376 23.4692
35.314101899412165 23.4174
35.33746752422433 23.4575
35.36083466676374 23.4454
35.38420332829803 23.3386
35.407756095629054 23.4525
35.43112781085063 23.3942
35.45450104888391 23.2725
35.477875810999194 23.3083
35.50143473172161 23.2542
35.52481255774625 23.3097
35.54819191167777 23.1873
35.57157279478914 23.195999999999998
35.595137889488406 23.1649
35.61852184675279 23.0818
35.641907337029984 23.0784
35.665294361595684 23.0232
35.68886565090076 22.9069
35.7122557598848 22.8825
35.73564740699838 22.8907
35.759040593519934 22.8757
35.78261809810353 22.8091
35.80601437933051 22.7543
35.829412203814705 22.6917
35.85281157283719 22.6317
35.876395313415884 22.6814
35.8997977874528 22.6271
35.92320180988546 22.6255
35.946790244133936 22.4793
35.97019737933222 22.4973
35.993606066789866 22.5223
36.01701630779276 22.4637
36.04061101440684 22.4332
36.06402437852291 22.3543
36.08743930005611 22.4075
36.1108557802951 22.2802
36.13445678011326 22.2976
36.15787639383515 22.3089
36.18129757014299 22.3025
36.20472031032821 22.2562
36.22832762423364 22.1497
36.25175350829375 22.1794
36.275180960119776 22.0938
36.298609981005924 22.1398
36.32222362992669 22.0015
36.34565580510207 21.9975
36.36908955323448 22.0664
36.39252487562093 21.9347
36.416144880530226 21.8955
36.43958336764275 21.8739
36.463023432914625 21.912
36.486465077645676 21.808000000000003
36.51009145956204 21.8525
36.53353627947859 21.7709
36.55698268276811 21.7304
36.58043067073321 21.6947
36.60406345072071 21.59
36.62751462435344 21.6105
36.65096738658405 21.6259
36.67460498210655 21.5945
36.69806093788647 21.5193
36.72151848619297 21.4297
36.744977628333636 21.4465
36.76862165890998 21.3684
36.79208400512205 21.4193
36.81554794910557 21.3884
36.83901349217101 21.2804
36.862663978991606 21.28
36.88613273667352 21.221999999999998
36.90960309738324 21.2249
36.933075062434064 21.1459
36.95673202673572 21.0854
36.98020721697122 21.070999999999998
37.003684015502365 21.0078
37.027162423645365 20.9727
37.050825886711465 20.9454
37.07430753063053 20.9302
37.09779078812467 20.8851
37.121275660513014 20.8926
37.144945643673694 20.7353
37.16843376245278 20.7985
37.19192350009803 20.7891
37.215414857931435 20.7629
37.239091382563885 20.7721
37.262585997426164 20.7673
37.28608223645736 20.7187
37.309763684451696 20.6337
37.33326318851098 20.6474
37.356764320726555 20.6237
37.380267082425526 20.6126
37.40395510942588 20.5153
37.42746114683234 20.4513
37.45096881771841 20.3079
37.474478123414166 20.4566
37.49817275092816 20.434
37.52168534303452 20.3838
37.54519957395567 20.3193
37.568715445024665 20.2783
37.592416694607714 20.2221
37.61593586281424 20.1987
37.63945667518264 20.2818
37.66297913304891 20.2234
37.68668702630454 20.1183
37.710212792059274 20.0834
37.733740207334854 20.1054
37.757269273470364 20.0338
37.780983832050374 20.0238
37.80451621684926 19.9565
37.82805025654007 19.8732
37.851585952464795 19.9016
37.8753071980695 19.9533
37.89884622345676 19.8727
37.92238690911902 19.7864
37.94611318753442 19.8163
37.969657210779765 19.667
37.99320289834801 19.7219
38.016750251586465 19.6353
38.04048325513017 19.6284
38.06403395679343 19.6192
38.087586328183946 19.6134
38.11114037065203 19.5669
38.13488012115898 19.5338
38.1584375229181 19.5408
38.181996599821 19.4479
38.205557353221124 19.4241
38.229303872575656 19.4383
38.2528679961576 19.4758
38.27643380031219 19.3084
38.30000128639589 19.3748
38.32375459653193 19.277
38.34732546371299 19.2821
38.37089801690786 19.141
38.39447225747609 19.1259
38.418232380377425 19.1075
38.441810012983396 19.1239
38.46538933705673 19.0749
38.488970353960084 19.0609
38.51273731166058 19.0134
38.536321731567014 19.0018
38.55990784840681 19.0243
38.58367995004091 19.0104
38.60726947812959 18.9607
38.63086070726198 18.9437
38.654453638806274 18.8809
38.678232613930824 18.8076
38.70182896773327 18.7932
38.72542702806741 18.7448
38.7490267963045 18.7237
38.77281266709232 18.745
38.79641586862214 18.6907
38.8200207821842 18.7021
38.843627409152944 18.6718
38.86742019782782 18.6739
38.891030269149255 18.5431
38.914642058016156 18.4434
38.938255565806124 18.5063
38.96205529464307 18.4815
38.98567225787121 18.413
39.00929094417078 18.4259
39.03291135492255 18.4103
39.05671804624804 18.3277
39.080341923549106 18.3211
39.103967529460334 18.2629
39.127594865365744 18.2442
39.15140854155791 18.1573
39.17503935514948 18.2584
39.19867190290282 18.1773
39.22249083587951 18.2207
39.24612686969409 18.1634
39.269764641845306 18.081
39.293404153722804 18.0518
39.317230110864074 18.0204
39.34087311998506 17.9621
39.36451787301696 18.0074
39.388164371352595 17.9546
39.41199737518003 17.8572
39.43564738196752 17.8925
39.45929913825317 17.8741
39.48295264543308 17.8038
39.506792718520884 17.7469
39.530449745387216 17.7517
39.55410852735203 17.757
39.57776906581474 17.7352
39.60161623079 17.6935
39.625280300200025 17.6817
39.64894613032202 17.6032
39.67261372255866 17.557000000000002
39.6964680021016 17.6139
39.72013913657293 17.6232
39.74381203738292 17.5797
39.76748670593756 17.5552
39.79134812278169 17.4678
39.81502634488497 17.4049
39.83870633896685 17.4468
39.862388106436654 17.3926
39.88625668336918 17.4032
39.90994201572829 17.3532
39.933629125719285 17.3202
39.957503091207826 17.2685
39.9811937746168 17.3337
40.00488623990914 17.182000000000002
40.02858048850006 17.1596
40.05246165409549 17.1489
40.076159487492085 17.102
40.099859108448875 17.0544
40.123560518384345 17.0879
40.1474489070226 17.0755
40.171153913178564 17.0241
40.194860712584955 16.9873
40.2185693066637 16.9928
40.242464941335314 16.9338
40.26617714307655 16.8894
40.289891143772046 16.8575
40.3136069448471 16.89
40.33750984859743 16.8816
40.3612292688043 16.8109
40.3849504936829 16.7115
40.40867352466194 16.7597
40.43258372059144 16.7476
40.45631038219906 16.7206
40.48003885420956 16.6573
40.503769138055105 16.6847
40.52768664931955 16.6579
40.55142057531802 16.665
40.57515631746428 16.6127
40.599079334038514 16.5594
40.62281872700477 16.521
40.64655994043941 16.4818
40.67030297578061 16.4902
40.69423334835778 16.4655
40.71798004609188 16.4211
40.74172857006355 16.3657
40.76547892171441 16.3805
40.7894166736039 16.3742
40.813170699248566 16.3206
40.83692655691388 16.2767
40.86068424804498 16.2822
40.884629402612525 16.2369
40.908390779366385 16.2499
40.932153993938 16.1569
40.95591904777605 16.1094
40.979871628443995 16.1281
41.003640379561936 16.116
41.02741097430883 16.0595
41.05118341413683 16.0847
41.075143444384416 16.0363
41.098919593177826 16.0337
41.1226975914255 15.9769
41.14647744058318 15.9236
41.170444943946755 15.9118
41.19422851378379 15.905999999999999
41.218013938914645 15.8676
41.24198706625173 15.8262
41.26577622087193 15.8023
41.289567235177785 15.7719
41.31336011063129 15.7918
41.337340752422875 15.7504
41.361137369129835 15.7168
41.38493585138705 15.7006
41.40873620066004 15.7284
41.43272438060107 15.6439
41.45652848292052 15.5856
41.48033445666918 15.5587
41.50414230331616 15.5345
41.528138045159764 15.4715
41.551949656675205 15.454
41.575763145513235 15.4647
41.59957851314666 15.4379
41.62358184070442 15.4338
41.64740098505737 15.3991
41.6712220126409 15.4362
41.69504492493139 15.3184
41.71905586207357 15.2918
41.74288256296395 15.2728
41.766711153007456 15.3191
41.79054163368412 15.2195
41.814560204340054 15.1933
41.838394485526365 15.1928
41.86223066180303 15.1264
41.88625497706819 15.1676
41.910094962812 15.1054
41.93393684811168 15.1083
41.95778063445365 14.9986
41.981812625263366 15.0405
42.00566023303407 14.9992
42.029509746323676 14.9547
42.05336116662236 14.9125
42.077400857069705 14.9303
42.10125611078846 14.947000000000001
42.12511327600405 14.897
42.14897235421036 14.8242
42.173019768448455 14.869000000000002
42.19688269209613 14.831
42.22074753323349 14.8036
42.24461429335818 14.770999999999999
42.268669455600495 14.7908
42.292540073217886 14.7515
42.31641261433284 14.7395
42.34028708044675 14.681
42.36435001496739 14.6116
42.38822835065557 14.6796
42.41210861586426 14.6038
42.4359908120986 14.632
42.46006154323262 14.5313
42.48394762115317 14.4929
42.507835634632315 14.5276
42.531912233047436 14.4665
42.55580413732265 14.4359
42.579697981698 14.4465
42.60359376768525 14.4146
42.62767820545945 14.3841
42.65157789440821 14.4033
42.67547952952185 14.3429
42.699383112316 14.3553
42.72347541395347 14.2303
42.74738291190531 14.2301
42.771292362102166 14.2293
42.795203766063516 14.185
42.819303956130405 14.1792
42.843219287476536 14.1212
42.86713657716324 14.1047
42.89105582671383 14.1603
42.91516392983864 14.0862
42.939087119032166 14.1315
42.963012272677304 14.0717
42.98693939230129 14.0332
43.01105543317513 13.9988
43.034986504731386 13.9581
43.05891954686589 13.9798
43.08285456110972 13.9242
43.10697856448665 13.9063
43.130917542983475 13.8146
43.15485849820081 13.8761
43.17880143167367 13.8085
43.20293342237094 13.7334
43.226880332449 13.7387
43.25082922540554 13.7561
43.27496722682525 13.7155
43.29892010567796 13.7122
43.32287497204102 13.672
43.34683182745632 13.6381
43.370977859791836 13.5746
43.39493871351105 13.6312
43.41890156092628 13.6157
43.44286640358341 13.5988
43.46702049182749 13.5785
43.49098934522816 13.5161
43.51496019852649 13.4875
43.5389330532723 13.4446
43.56309522248204 13.4376
43.58707210044314 13.4138
43.61105098451946 13.4221
43.63503187626491 13.3867
43.659202151562134 13.3451
43.68318707902681 13.357999999999999
43.70717401884041 13.3191
43.731162972560874 13.2969
43.75534137913236 13.2246
43.779334381108384 13.2069
43.803329401683186 13.1912
43.82732644241872 13.1974
43.8515130055166 13.1812
43.87551410707659 13.1587
43.89951723350145 13.136
43.923709934595614 13.0694
43.94771713129917 13.114
43.97172635758096 13.0948
43.99573761501002 13.0563
44.0199385169922 13.0059
44.04395385732619 12.9759
44.067971233533086 12.9977
44.09199064718605 12.943
44.11619977548961 12.8829
44.14022328470671 12.8505
44.16424883610785 12.8785
44.18827643127035 12.8661
44.21249381139513 12.862
44.236525514814076 12.8161
44.26055926674478 12.8063
44.28459506876863 12.7857
44.3088207262813 12.8034
44.33286064928722 12.716
44.35690262714919 12.712
44.38094666145278 12.6664
44.4051806219871 12.7029
44.42922879003185 12.6045
44.45327901929361 12.5928
44.477331311362136 12.5866
44.501573600619416 12.5308
44.525630039221795 12.5665
44.54968854541895 12.5523
44.573937102200176 12.5062
44.5979997645541 12.4968
44.622064499300315 12.4439
44.64613130803592 12.4343
44.67038823869318 12.4682
44.69445921643748 12.3806
44.718532272981385 12.3438
44.742607409926194 12.3281
44.76687274034801 12.319
44.79095205918753 12.3308
44.81503346325094 12.2693
44.839116954143876 12.2292
44.86339071028742 12.218
44.88747839599524 12.2471
44.91156817336837 12.210999999999999
44.93566004401666 12.1966
44.959942251908146 12.1663
44.984038330325966 12.1202
45.00813650686762 12.050999999999998
45.03223678314731 12.0777
45.05652746888232 12.0846
45.08063196592069 12.0651
45.104738567558705 12.0318
45.128847275414856 12.0553
45.15314646515866 11.9444
45.17725940679741 11.956
45.20137445952892 11.9083
45.22568004865265 11.9046
45.24979934496396 11.9075
45.27392075725247 11.8907
45.29804428714431 11.8846
45.322358426247604 11.8395
45.346486212804315 11.8165
45.370616121861914 11.7977
45.39474815505086 11.8004
45.41907087049246 11.7339
45.4432071734666 11.6998
45.46734560548283 11.7158
45.49148616817604 11.7157
45.51581748638564 11.6463
45.5399623320197 11.6598
45.56410931325473 11.5505
45.58825843173002 11.6308
45.61259837920865 11.6073
45.636751793816 11.5841
45.66090735060093 11.5038
45.68506505120716 11.5064
45.7094136545275 11.482000000000001
45.73357566449271 11.4484
45.75773982322992 11.493
45.78190613238733 11.4615
45.806263418194064 11.3987
45.83043404997326 11.4257
45.85460683713677 11.422
45.87897065658495 11.3286
45.90314777634752 11.317
45.92732705646868 11.3309
45.9515084986045 11.3125
45.97588104735473 11.2727
46.00006683541565 11.2835
46.02425479047904 11.2354
46.04844491420549 11.1802
46.0728262191024 11.2286
46.09702070211635 11.2006
46.12121735879483 11.1966
46.14541619080294 11.1565
46.169806278764455 11.1078
46.194009483459034 11.1103
46.21821486849841 11.1038
46.24242243555223 11.0773
46.266821333570014 11.027000000000001
46.29103328674601 11.0073
46.31524742696538 11.003
46.33946375590237 11.0019
46.36387149104216 10.9607
46.38809221957392 10.9347
46.41231514186606 10.9155
46.436540259597464 10.8952
46.460956858999374 10.892999999999999
46.48518638983522 10.8786
46.509418121166966 10.809000000000001
46.533652054678114 10.8274
46.55807754555709 10.7771
46.58231590571962 10.7987
46.60655647313217 10.7669
46.630988654873654 10.727
46.655233659129024 10.6863
46.67948087571551 10.6841
46.70373030632484 10.6696
46.72817142736393 10.6703
46.752425308428684 10.6234
46.77668140861147 10.6448
46.80093972960865 10.6025
46.82538981736788 10.6038
46.849652602470904 10.6001
46.87391761349769 10.55
46.8981848521493 10.5437
46.9226439341274 10.507
46.946915650573224 10.4505
46.97118959976749 10.4759
46.99546578341598 10.4419
47.019933887188216 10.4166
47.04421456235744 10.3798
47.06849747711879 10.3644
47.09278263318286 10.3854
47.11725978640143 10.392999999999999
47.14154944775105 10.3021
47.165841355555656 10.3278
47.1901355115306 10.286
47.214621741924994 10.2725
47.23892041698887 10.2506
47.26322134538975 10.2554
47.28771440635075 10.1865
47.31201986422527 10.2183
47.33632758061436 10.2029
47.360637557241866 10.1553
47.38513974410611 10.1728
47.40945426407847 10.1123
47.43377104948137 10.0942
47.45809010204344 10.0844
47.48260144275502 10.0516
47.506925052572285 10.031
47.53125093475548 10.0104
47.55557909103813 10.0095
47.58009961361992 9.98179
47.60443234110732 9.97978
47.62876734791564 9.93416
47.65310463578333 9.9657
47.6776343683373 9.95544
47.7019762413987 9.88218
47.72632040075572 9.86064
47.75066684815169 9.864939999999999
47.77520581885936 9.86079
47.799556865477655 9.84753
47.823910205386 9.82855
47.84826584033272 9.77753
47.87281407745551 9.76422
47.89717432569297 9.7944
47.92153687423484 9.733939999999999
47.94609208429692 9.69181
47.97045925671401 9.71294
47.99482873471275 9.66818
48.01920052005013 9.65525
48.04376504619224 9.683119999999999
48.068141469543484 9.65119
48.09252020552573 9.61624
48.11690125590099 9.59624
48.1414751266064 9.54321
48.16586082917454 9.53239
48.19024885144316 9.54851
48.2146391951793 9.52919
48.239222439012764 9.517710000000001
48.26361744916137 9.493730000000001
48.28801478610016 9.496739999999999
48.31241445160131 9.45021
48.337007097209366 9.45859
48.36141144338331 9.454889999999999
48.38581812345755 9.459589999999999
48.41022713920929 9.4284
48.434829215320704 9.41206
48.45924292604658 9.36923
48.48365897780325 9.36854
48.50807737237308 9.33737
48.532688907799276 9.32147
48.55711201168574 9.328619999999999
48.581537463754074 9.26854
48.60615611725119 9.27893
48.63058628942721 9.25648
48.65501881516546 9.24173
48.6794536962573 9.17797
48.70408185970339 9.20164
48.72852147531801 9.17853
48.75296345168211 9.137839999999999
48.77740779059232 9.14648
48.80204549302823 9.14292
48.82649458091802 9.12758
48.85094603676547 9.08058
48.87539986237231 9.063369999999999
48.90004713292306 9.06461
48.92450572200832 9.06299
48.94896668628025 9.00817
48.97343002754588 9.022860000000001
48.99808689542115 9.012260000000001
49.02255501470614 9.0026
49.04702551642794 8.9581
49.0714984023988 8.94097
49.096164896893235 8.89996
49.120642575466796 8.92794
49.145122643748394 8.891060000000001
49.16960510355558 8.85882
49.19428125404938 8.82457
49.2187685210852 8.83808
49.243258185121555 8.81589
49.26794160167084 8.782680000000001
49.2924360839405 8.76909
49.31693296869764 8.78701
49.34143225776915 8.77891
49.36612538195438 8.74272
49.39062950396021 8.72885
49.41513603578346 8.676919999999999
49.4396449792564 8.651869999999999
49.46434784069503 8.64511
49.488861631846454 8.67512
49.513377840166804 8.6386
49.537896467493745 8.62151
49.56260909589029 8.60915
49.587132585683285 8.597380000000001
49.611658500018365 8.57715
49.636186840738596 8.54402
49.66090926588511 8.55557
49.685442483902584 8.53035
49.70997813385706 8.48134
49.734516217597076 8.47355
49.75924846937352 8.45277
49.7837914452858 8.41686
49.80833686055187 8.44231
49.83288471702571 8.43453
49.85762682540054 8.429160000000001
49.882179588965734 8.38935
49.9067347993235 8.346739999999999
49.93129245833333 8.3175
49.95604445336378 8.34711
49.98060703442832 8.33107
50.005172069746266 8.28712
50.02993150438364 8.294260000000001
50.05450147301533 8.28181
50.07907390151433 8.25505
50.10364879174981 8.25699
50.12841816587289 8.24555
50.1529980044635 8.22241
50.17758031042124 8.19998
50.20216508562089 8.17378
50.22694442953363 8.14178
50.25153416817468 8.120410000000001
50.27612638170508 8.12148
50.300721072005196 8.11622
50.325510416102105 8.104280000000001
50.350110084975064 8.05078
50.37471223628208 8.07652
50.39931687190919 8.08199
50.424116246675766 8.058060000000001
50.44872587605249 8.03003
50.47333799543065 7.96956
50.49795260670191 7.98853
50.52276204271512 7.93365
50.54738166295838 7.95079
50.57200378079314 7.972689999999999
50.596628398116835 7.9382399999999995
50.62144792604559 7.9074800000000005
50.646077567609396 7.894939999999999
50.670709714377715 7.88165
50.69553683636198 7.87672
50.72017401885922 7.86039
50.7448137122895 7.81509
50.76945591856022 7.808269999999999
50.79429318636823 7.80807
50.818940443716784 7.784839999999999
50.84359021965163 7.78309
50.868242516085964 7.78454
50.893089960641895 7.7675399999999994
50.917747323549435 7.7141399999999996
50.94240721271973 7.730339999999999
50.96706963007175 7.69803
50.99192728239342 7.6631
51.01659478166073 7.66172
51.04126481489051 7.641660000000001
51.06593738400761 7.63473
51.090805275207074 7.627339999999999
51.11548294172845 7.61521
51.14016314993547 7.59598
51.164845901758845 7.58523
51.18972406304274 7.56573
51.21441192780656 7.534789999999999
51.23910234200271 7.53303
51.2637953075678 7.5284
51.288683770237945 7.4543800000000005
51.31338186432707 7.447260000000001
51.33808251561888 7.45875
51.362978729967345 7.44584
51.387684521509755 7.4499
51.41239287610203 7.437860000000001
51.437103795691165 7.4263
51.46201036644977 7.38387
51.486726441956634 7.33247
51.51144508832545 7.34985
51.536166307509156 7.36757
51.56108326624387 7.358460000000001
51.58580965706056 7.31504
51.61053862657523 7.29402
51.635270176746864 7.29488
51.66019755512065 7.28725
51.68493429268881 7.28688
51.70967361681515 7.2331199999999995
51.73441552946465 7.243860000000001
51.759353359237934 7.212789999999999
51.7841004750961 7.2462
51.80885018539685 7.21475
51.833602492111254 7.20943
51.8585508051424 7.159389999999999
51.883308330926425 7.148789999999999
51.90806845906181 7.157360000000001
51.932831191525715 7.1295399999999995
51.95779001977161 7.09845
51.98255798721516 7.064760000000001
52.00732856494335 7.05445
52.03229530577543 7.06686
52.057071130455945 7.049180000000001
52.081849571391054 7.0109
52.106630630568695 6.99487
52.13160794279417 6.96471
52.15639426492067 6.95915
52.18118321127822 6.96817
52.205974783860896 6.969939999999999
52.23096269971011 6.91454
52.255759551287994 6.93233
52.280559035098186 6.899439999999999
52.30536115314103 6.92398
52.33035970494467 6.9020399999999995
52.35516711807904 6.906039999999999
52.37997717147198 6.86791
52.40478986713005 6.84768
52.42979908731974 6.8376
52.454617094216 6.781689999999999
52.47943774942214 6.78291
52.50426105495102 6.75909
52.529280976059844 6.77826
52.554109609024096 6.77398
52.57894089837482 6.73573
52.60377484613117 6.7274899999999995
52.62880550079408 6.699339999999999
52.65364479223379 6.693630000000001
52.67848674816189 6.70413
52.70352547971946 6.68686
52.72837279155837 6.66747
52.753222773982785 6.61378
52.778075429022984 6.61492
52.80312495150885 6.63093
52.827982978797436 6.58962
52.85284368481815 6.580710000000001
52.87770707160767 6.55433
52.90276741793998 6.5450099999999996
52.92763619336701 6.50444
52.952507655698504 6.51805
52.977381806977576 6.53313
53.00245301017842 6.53484
53.02733256653592 6.49538
53.052214817996074 6.49611
53.077099766608484 6.45815
53.102181859804446 6.45291
53.127072229988265 6.45472
53.15196530349892 6.42157
53.17686108239249 6.36599
53.20195409881522 6.37044
53.22685531582556 6.39309
53.25175924441303 6.35004
53.27666588664027 6.30684
53.30176985962693 6.32452
53.3266819565689 6.31525
53.35159677336455 6.2958099999999995
53.376514312083096 6.289619999999999
53.40162927507703 6.28935
53.42655228516116 6.282830000000001
53.45147802340193 6.25791
53.47660125628886 6.24465
53.50153247842639 6.22421
53.52646643496923 6.21975
53.55140312799818 6.22625
53.576537409691696 6.16662
53.60147960336152 6.17785
53.626424539786164 6.1898
53.65137222105307 6.15651
53.67651758529126 6.12871
53.70147078399681 6.13684
53.72642673383343 6.13
53.75138543689533 6.10462
53.776541917524526 6.0522599999999995
53.801506154876755 6.06122
53.826473151763246 6.05552
53.851442910284916 6.04318
53.87661054126026 6.01965
53.9015858509782 6.02655
53.92656392866066 6.00441
53.95154477641532 5.988169999999999
53.976723591801296 5.9635
54.00171000771266 5.9721400000000004
54.02669920004598 5.970280000000001
54.051691170915745 5.930680000000001
54.076881204886796 5.9425099999999995
54.101878760928514 5.90792
54.12687910187696 5.88422
54.152077577768296 5.89658
54.1770835166946 5.87399
54.20209224691339 5.852469999999999
54.22710377055121 5.80155
54.25231352511594 5.86466
54.27733066384342 5.80248
54.30235060239643 5.777909999999999
54.32737334290836 5.76969
54.35259441062629 5.745340000000001
54.377622783395324 5.7359
54.40265396455061 5.74833
54.42768795623251 5.73687
54.45292037169559 5.76321
54.477960012857906 5.72433
54.50300247099511 5.68026
54.52804774825457 5.65804
54.55329154616743 5.6443
54.57834249018678 5.61468
54.6033962597977 5.57952
54.6284528571545 5.56685
54.653708072335164 5.53852
54.67877035378786 5.5275
54.70383546947698 5.53935
54.72890342156389 5.50258
54.7541700889442 5.46279
54.77924374251975 5.46683
54.8043202390049 5.44601
54.82959552413022 5.3935900000000006
54.8546777351945 5.42571
54.87976279569621 5.40142
54.90485070780914 5.32138
54.930137506558005 5.34424
54.95523115074295 5.31692
54.98032765308844 5.28958
55.005427015775496 5.29788
55.03072536339621 5.2691300000000005
55.05583047570572 5.24887
55.080938454927676 5.2184099999999995
55.10604930325027 5.24106
55.131359235107396 5.19165
55.15647585066083 5.16161
55.181595341907496 5.13012
55.20671771104285 5.13826
55.232039262617704 5.10006
55.25716741665048 5.0713
55.28229845518636 5.06693
55.30743238042802 5.04441
55.33276558731939 5.02501
55.357905315183636 5.02383
55.383047936390035 4.95959
55.40819345314859 4.86113
55.433538351073295 4.92886
55.458689688238415 4.9648699999999995
55.483843927614096 4.86252
55.509197623043605 4.88589
55.53435769621134 4.87885
55.55952067826466 4.81466
55.5846865714265 4.816269999999999
55.61005202069737 4.81781
55.63522376553902 4.76955
55.66039842818645 4.75871
55.68557601087004 4.75539
55.7109532500271 4.661980000000001
55.73613670233794 4.65216
