TT I
1.2716486653135266 6.607530000000001
1.2939594142134223 6.56982
1.3162702121660406 6.599239999999999
1.3385810600174564 6.34439
1.3608919586137629 5.58716
1.383202908801069 6.0594
1.405513911425503 5.87959
1.4278249673332093 6.53691
1.4501343378461518 5.659590000000001
1.4724455028545926 5.15877
1.4947567236847858 5.2675
1.517068001182951 5.17261
1.5393793361953272 5.4821
1.5616907295681737 5.3872599999999995
1.5840021821477681 4.96751
1.60631369478041 4.90081
1.6286252683124185 5.38213
1.6509369035901333 4.705509999999999
1.6732468618895553 4.9369
1.695558623192809 4.3190800000000005
1.7178704487808514 4.56379
1.7401823395001077 3.88418
1.7625012545597203 4.5659
1.7848028405262486 4.42076
1.8071218901122095 4.57145
1.8294236121921872 4.1048800000000005
1.8517427996910911 4.09989
1.8740620574440425 4.45414
1.8963639900671978 4.21098
1.9186833908139995 3.57321
1.9409854680117449 4.41565
1.9633050151394713 4.59786
1.9856246367570705 4.13641
2.0079269371922672 4.3886199999999995
2.03024671027244 4.07512
2.0525491637446027 4.29101
2.074869091674931 4.40078
2.097171701569106 3.66126
2.1194917877373847 4.10502
2.141811954326636 4.52642
2.164114805233074 4.11851
2.186435135143035 4.23977
2.208738150935709 5.21092
2.231058647554722 6.31499
2.2533792288321184 6.772410000000001
2.275682498336085 5.46825
2.298003251406138 5.31975
2.3203066942619714 5.31404
2.3426276225136022 5.3419099999999995
2.3649486396617507 5.0264
2.387252348930071 5.44739
2.4095735463442893 5.89705
2.4318774374315884 6.090330000000001
2.4541988185014043 5.8713
2.476502894794693 6.715139999999999
2.498824462909887 7.25443
2.521146125856138 7.070069999999999
2.5434504863470337 6.81717
2.5657723414244717 7.94889
2.588076895590662 8.86458
2.610398946189713 9.00997
2.6327210958598384 8.332139999999999
2.6550259469304716 7.73509
2.6773482972090137 8.55037
2.6996533504259 8.25837
2.7219759047039602 8.71793
2.744298562293959 8.50588
2.7666039251246595 7.59823
2.7889267918020164 7.8707899999999995
2.8112323652516555 7.8422
2.833555444408179 8.08649
2.8558786311183852 8.46601
2.8781845268938557 9.0065
2.9005079311721484 9.43362
2.9228140460410397 9.02513
2.9451376712799635 9.389710000000001
2.967444008632326 9.71234
2.9897678582247247 10.0368
3.0120918213106695 9.87965
3.0343984987899373 10.9295
3.0567226913198637 10.6742
3.079029599759726 12.0412
3.101354025127254 12.1745
3.123678568232338 12.839
3.145985829517914 12.9134
3.16831061055229 13.1394
3.1906181112775593 13.7365
3.212943133635653 14.3467
3.2352682779763207 14.7133
3.2575761442691227 14.7866
3.2799015350264273 14.8949
3.302209649240067 15.4191
3.3245352898092655 15.7933
3.3468436553365257 16.7142
3.369169549113219 17.0179
3.3914955708171384 17.7886
3.413804319727358 18.1476
3.4361305997334863 18.2578
3.4584396084414553 18.7482
3.4807661501462652 19.4562
3.503092824025881 19.427
3.5254022288463154 19.7681
3.5477291695206588 20.1931
3.5700388426251948 20.7423
3.5923660534916446 21.2496
3.6146934007816114 22.8221
3.637003482731501 27.6446
3.6593311053109985 30.1051
3.681641464033634 27.0449
3.7039693653009733 24.1367
3.726297407241705 24.1288
3.7486081875460804 23.55
3.7709365132734978 24.3503
3.793247578841633 25.2494
3.8155761917550093 25.7281
3.8378875459837216 25.9085
3.8602164494827234 26.0277
3.882545499606844 26.5556
3.9048572932539183 27.4287
3.9271866390645718 27.745
3.9494987298666713 28.3284
3.971828374764527 28.8089
3.9941581705403255 29.3133
4.016470713506008 29.8895
4.038800813471445 30.2773
4.061113662089144 30.5074
4.0834440696459176 31.3182
4.105774632334751 31.772
4.128087945865126 32.0328
4.150418821249301 32.5217
4.172732448931298 33.9753
4.195063640413578 34.4494
4.2173775856475215 35.0246
4.239709096631102 37.5355
4.262040768704612 51.7314
4.284355196706267 63.5931
4.306687193387355 56.3722
4.329001947444346 44.0438
4.35133427213731 40.4233
4.373666762177566 40.2646
4.395982011761091 41.0167
4.418314834921175 41.8789
4.44063041906622 43.2363
4.4629635787515625 44.7601
4.4852969080429785 46.0212
4.5076130004776225 46.4015
4.529946671403969 46.5408
4.552263106909177 47.2838
4.574597122877047 48.1128
4.596931312711224 49.9037
4.619248269273446 50.7968
4.6415828092605835 51.5396
4.663900117405352 52.43899999999999
4.686235010953232 53.9962
4.708552674085913 55.1812
4.730887924602802 56.5523
4.753223354952695 57.7656
4.775541557023902 59.2326
4.797877349456786 61.1139
4.820195915032126 63.3123
4.842532072957498 63.983000000000004
4.864868414979744 66.3114
4.88718753227192 68.1854
4.909524244902505 69.9223
4.931843734218147 71.4016
4.954180820867835 74.079
4.976518095879839 76.7107
4.998838149695359 79.6198
5.021175803844231 82.8083
5.043496238205739 85.7063
5.065834274903528 89.5849
5.088172504230693 93.7502
5.1104935158799565 97.8161
5.132832132875765 105.63600000000001
5.155153533596801 118.325
5.1774925416746225 137.822
5.199814334878411 230.50799999999998
5.2221537374521505 808.194
5.244493338631803 2522.3
5.266815727034316 7204.73
5.289155727832427 13703.0
5.311478517248165 9696.53
5.333818921080011 3341.14
5.356159527788849 675.434
5.3784829252032536 205.38400000000001
5.400823940070432 143.43200000000002
5.423147747031976 123.725
5.445489173474152 113.359
5.467830807066149 108.195
5.490155234831516 104.509
5.512497285125229 100.98899999999999
5.534822130975162 99.9624
5.557164601388673 97.9912
5.579489868738879 94.4178
5.601832762690846 92.7906
5.6241758697774475 91.9663
5.646501775867269 91.4161
5.668845311622074 90.4499
5.691171647754637 89.3666
5.713515615597765 88.5164
5.735859800852677 87.8304
5.758186788542988 87.1697
5.780531411018185 87.1253
5.802858837297399 86.5362
5.825203900414495 86.4497
5.8475491852224 86.4175
5.869877275883075 87.3195
5.892223006467101 87.94200000000001
5.914551544266608 88.671
5.936897724049891 90.9262
5.959244129804903 94.8648
5.981573344815301 106.669
6.0039202049061 164.294
6.026249875609095 397.11800000000005
6.04859719346037 889.722
6.070927323278297 2045.91
6.093275102315365 4497.57
6.115623113320588 5569.95
6.137953938319995 3679.23
6.160302415650845 1093.19
6.182633708324452 240.851
6.2049826554078376 109.25299999999999
6.227331838745022 87.4382
6.249663839443684 79.6456
6.27201349767565 75.4742
6.294345974611799 73.6018
6.316696111167083 73.0187
6.339046488263839 71.8825
6.361379686074702 68.7336
6.383730546639482 66.5789
6.406064229255215 64.5851
6.428415576718203 64.4456
6.450749747566656 63.3255
6.47310158535871 62.2444
6.495453669698332 61.7867
6.517788579421056 61.4005
6.540141159237969 60.1976
6.562476565766648 59.746
6.5848296444934045 59.523999999999994
6.607182974060425 58.3705
6.6295191323281015 57.7607
6.651872965955752 57.413999999999994
6.6742096296068985 58.7722
6.6965639707294615 63.1621
6.71891856698715 64.2508
6.741255995248479 60.3318
6.763611104154477 56.7442
6.785949046381137 55.3047
6.808304671371482 54.6081
6.8306605557940046 54.6136
6.852999275508618 53.9147
6.875355681171544 53.7525
6.897694923437771 53.382
6.92005185377892 53.4668
6.9423916220322655 52.9743
6.964749080490181 52.6869
6.987106804399774 52.4838
7.009447368180821 52.5313
7.031805625367033 51.8935
7.054146723727803 52.3854
7.076505517631004 52.1009
7.098864581288365 51.9238
7.121206488070854 51.8976
7.143566093607822 51.3814
7.165908543567245 51.8564
7.188268694426048 51.5053
7.2106291193438095 50.9239
7.232972390625943 51.2508
7.255333366030969 51.6344
7.277677189091925 55.6028
7.300038718428332 61.9587
7.322400526130865 61.1633
7.344745183422596 55.8222
7.367107550224791 52.301
7.389452767901992 51.8408
7.411815697249891 51.6607
7.434161478756298 50.9017
7.456524974096713 51.302
7.478888753837185 51.617
7.501235387657368 52.8491
7.523599738562711 57.9714
7.545946944825532 67.747
7.568311870344528 70.8257
7.5906770845765665 63.9582
7.613025156078678 56.1233
7.635390950099687 53.4846
7.657739602662809 52.6722
7.680105979923558 52.4484
7.702472650212829 53.0637
7.724822180948224 52.9926
7.747189439655568 52.923
7.769539560075357 53.5577
7.791907410653562 53.7222
7.81425812420825 53.9718
7.836626570110925 53.9602
7.858995315087906 54.8861
7.881346924933401 54.8517
7.903716270417482 55.1437
7.926068482028405 55.7212
7.948438431475253 56.2551
7.9708086843180235 57.0349
7.993161805171116 57.5444
8.015532667162402 57.8491
8.037886398416653 58.7485
8.060257873014221 58.7902
8.082629655331942 59.6428
8.104984308787587 60.4823
8.127356708900503 60.9511
8.149711981398308 62.295
8.172085002766314 63.5469
8.194458336181368 64.2478
8.216814543847752 64.6557
8.23918850371002 65.3647
8.26154533906492 66.5615
8.283919928836452 68.6865
8.306277395339652 69.5017
8.328652618483376 70.562
8.351028159736202 72.1009
8.373386579575245 74.07600000000001
8.395762759396959 75.6646
8.418121819038275 77.9786
8.440498640894003 81.3511
8.462875785192262 86.3116
8.485235811156207 94.2893
8.507613602688501 128.328
8.529974277114228 230.646
8.552352719347912 380.491
8.574731488360351 619.419
8.59709314210385 1112.2
8.619472567021075 1844.0
8.64183487789147 2283.57
8.664214962183097 1971.99
8.686577933647762 1098.49
8.708958680784317 411.32800000000003
8.731339760774953 171.50400000000002
8.753703729764451 108.95200000000001
8.77608547780821 94.9576
8.798450116065078 91.176
8.820832535634787 88.1849
8.843215292401656 86.8356
8.865580941199045 85.9482
8.887964374703538 84.7587
8.910330701447199 83.8043
8.932714815164482 83.0883
8.955099270424924 82.28299999999999
8.977466620733543 81.6033
8.999851761421976 80.9709
9.022219798361645 80.0861
9.04460562795561 79.9357
9.066991803441677 79.9741
9.089360876979615 79.6993
9.111747746589993 79.4163
9.13411751544971 78.5305
9.156505082664324 78.8914
9.178875550323522 79.6765
9.20126381862328 81.4757
9.223652438908596 90.0309
9.246023961427412 104.699
9.26841328802173 110.684
9.290785518039224 101.19
9.313175554425882 88.2489
9.335565947154315 81.0662
9.357939245086508 80.074
9.380330352834827 79.8528
9.40270436697103 79.7464
9.425096193225055 79.5337
9.447488380180165 80.3126
9.469863475295412 80.3522
9.492256385987508 80.8423
9.514632206018318 81.5138
9.537025843935714 81.9516
9.559402392368193 82.5772
9.581796761000229 83.82700000000001
9.604191496441521 83.5853
9.626569144158516 84.2943
9.648964615551032 85.3578
9.671343000390081 86.376
9.693739211225699 87.1832
9.716135793237463 87.6104
9.738515290448102 88.4758
9.760912617143402 89.3316
9.783292860202891 90.4602
9.805690935076182 91.6187
9.828089385495742 92.428
9.850470754023561 94.0662
9.872869957865444 95.8244
9.89525208097539 99.0635
9.917652041736662 102.881
9.940052382417589 105.999
9.962435644102392 115.318
9.984836746950979 147.284
10.007220771957746 229.01
10.029622640473708 351.70300000000003
10.052007432299963 520.206
10.074410069984072 778.321
10.096813093716005 1203.16
10.119199042482517 1760.46
10.141602840636468 2094.95
10.163989564971628 1715.64
10.186394141051062 1028.65
10.208799107559706 448.031
10.231187001965623 199.71599999999998
10.253592751657669 124.802
10.275981430388155 107.559
10.298387966769793 103.19
10.320794897965431 101.949
10.343184759907361 100.8
10.36559248305461 99.0767
10.387983138083852 98.0174
10.410391656691655 98.9223
10.432800574501677 108.205
10.455192425893369 130.333
10.47760214443012 163.131
10.499994797678786 205.26
10.522405320453982 273.836
10.54479877906917 385.92900000000003
10.567210109595656 513.73
10.5896218454736 591.998
10.612016518879773 567.811
10.634429067781074 401.44
10.656824555333241 231.385
10.679237920773568 140.132
10.701651695961992 102.96
10.724048411481384 92.0975
10.746463008485165 86.2135
10.768860546937125 82.5405
10.791275969274796 79.9715
10.81369180576079 78.9995
10.836090585366925 77.8636
10.858507252467449 76.3526
10.88090686379991 75.5843
10.903324365036394 74.8583
10.925724811614439 73.5566
10.948143150509463 73.2733
10.970561909719066 72.5115
10.992963615930844 71.6513
11.015383218085756 70.6357
11.037785768347074 69.8416
11.06020621697282 69.6582
11.082627090322113 68.87899999999999
11.105030913430326 68.3839
11.12745263854165 67.485
11.149857314510728 66.8826
11.172279894912576 67.581
11.194702904450653 67.3548
11.217108866490921 66.4443
11.239532736615194 65.6352
11.26193956033512 65.2841
11.284364294577085 64.8995
11.306789462371718 64.08
11.329197585398376 64.0446
11.351623622610898 63.8612
11.37403261614354 63.1421
11.396459526308487 63.1307
11.418869393879497 62.5117
11.441297180532617 62.3014
11.463725406927658 61.809
11.486136592353875 61.4317
11.508565700543707 61.4256
11.530977768845315 61.3972
11.553407762368774 61.1868
11.575838200059769 61.0327
11.598251599479612 60.9378
11.620682927815501 60.5232
11.64309721895548 60.54
11.665529441478206 60.4235
11.687962112597958 60.3603
11.710377748130886 60.1889
11.732811318753434 59.92
11.755227854859067 59.8021
11.777662328529495 59.9732
11.800079768750786 59.8602
11.822515149015453 59.8963
11.844950984084935 60.3422
11.867369787303163 59.9403
11.889806534289491 60.3307
11.912226250487029 61.9194
11.934663912939751 64.8224
11.9571020346363 67.4802
11.979523127133968 67.7469
12.001962169624331 66.1152
12.024384183972964 63.6516
12.046824150809913 64.296
12.069264581333726 69.8011
12.091687985297767 77.0983
12.11412934550045 86.5283
12.136553680195208 99.5253
12.158995973632788 120.48299999999999
12.181438735204349 147.031
12.20386447284199 177.979
12.226308172985636 202.84
12.24873485024193 209.299
12.271179492516982 174.94400000000002
12.293607112949127 134.748
12.316052700916226 96.1429
12.338498763250042 74.0588
12.360927805303868 64.5137
12.383374818673879 61.9461
12.405804812803074 61.4125
12.428252780773262 61.1346
12.45070122756722 61.2778
12.473132656675375 60.9342
12.49558206341869 61.3062
12.518014453510101 61.4495
12.540464823770117 61.5239
12.562915677315177 61.7024
12.58534951575545 61.9028
12.607801338171472 62.0333
12.630236146511358 62.7117
12.652688941369085 63.4934
12.675124723177234 64.264
12.697578494048786 64.3727
12.720032754458185 64.0514
12.742470003354093 64.2841
12.764925245138771 64.7422
12.787363476431278 64.9443
12.809819703166806 65.3215
12.83227642391173 65.8416
12.854716135692716 66.6773
12.877173846755147 67.6431
12.899614549869717 67.7409
12.9220732548287 68.6657
12.94453245827299 69.3654
12.966974655289818 70.1958
12.989434858002571 70.7659
13.011878055298721 71.6639
13.034339260862497 72.9565
13.056800969391883 74.4072
13.079245674017244 76.4684
13.101708390774869 78.3892
13.12415410463411 82.4347
13.146617833206086 92.6448
13.169064559883248 108.21
13.191529303857127 126.73100000000001
13.213994557076367 149.556
13.236442809902437 181.942
13.258909083908291 230.514
13.28135835851934 292.26099999999997
13.30382565690295 370.289
13.326293469022952 437.184
13.348744283242008 451.02099999999996
13.371213125129904 379.64300000000003
13.39366497011003 279.471
13.416134845360597 183.50599999999997
13.438605238843131 126.06200000000001
13.46105863690397 102.36399999999999
13.483530069144786 99.1171
13.505984506951902 107.334
13.528456981549432 120.37899999999999
13.550929978879088 136.22299999999998
13.573385983253365 157.267
13.595860028340867 190.18200000000002
13.618317081455832 237.22099999999998
13.64079217790333 298.301
13.663250283359057 356.68800000000005
13.685726434770173 388.74699999999996
13.708203115221277 361.79900000000004
13.730662806148091 287.14099999999996
13.75314054697177 205.50900000000001
13.775601299246777 137.54399999999998
13.798080104050406 100.212
13.820559442405358 84.6821
13.843021793671388 79.5215
13.865502201420897 77.5869
13.887965623051947 76.6948
13.910447103807167 75.9465
13.932929122629764 74.3532
13.955394156785959 74.1226
13.977877254034569 73.4186
14.000343367582113 72.6882
14.022827546871707 71.9762
14.045294743423524 71.2773
14.06778000837062 70.8596
14.090265817715476 70.9735
14.112734645763819 71.7508
14.13522154619454 73.1408
14.157691466286913 75.0152
14.180179461423874 74.7499
14.202668005486178 73.0227
14.22513957064374 70.6149
14.247629214846473 68.9008
14.270101881097517 68.0531
14.29259262906496 67.6221
14.315083930490205 67.7893
14.337558255389705 67.3736
14.360050666019726 67.2093
14.382526101071944 66.749
14.405019624534942 66.4556
14.427513705993134 66.3698
14.449990813291825 66.5142
14.47248601302899 66.2093
14.49496423954951 66.4716
14.517460561197822 66.5439
14.539939910570322 66.1873
14.562437357763558 66.2463
14.58493536931253 66.8272
14.607416409993311 66.9843
14.62991555254159 67.0027
14.652397725157423 67.155
14.674898002342799 67.5984
14.697398848433282 67.5662
14.719882725991326 68.1565
14.74238471217934 68.9253
14.764869730765593 70.7762
14.787372860692983 74.3505
14.809876564079925 81.5792
14.83236330125751 89.406
14.854868153850365 97.8892
14.877356041159485 110.664
14.899862046604186 126.461
14.922351087688757 148.959
14.944858249632887 179.925
14.967365991421232 209.168
14.989856770231246 228.46
15.012365673994204 228.296
15.03485761569738 200.795
15.05736768508665 158.691
15.07987833888692 121.027
15.102372032001655 93.6986
15.124883856909658 77.5124
15.14737872204565 70.9865
15.169891721717274 68.7249
15.192405310371893 68.2783
15.214901940621196 67.5195
15.237416709527137 66.76
15.259914520936249 66.5387
15.282430473753607 65.9803
15.304947020131227 65.3133
15.327446610371178 65.0502
15.349964346154254 64.6802
15.372465126703139 64.2956
15.394984055556009 64.2735
15.417486030076159 64.1279
15.44000615566487 63.8575
15.462526881230803 63.7003
15.485030653812652 63.7805
15.507552581617434 63.5696
15.530057557334603 63.3611
15.55258069104857 63.595
15.575104429329837 63.9101
15.597611216864632 63.5598
15.620136166564563 63.4919
15.6426441664095 64.0354
15.665170331202765 65.227
15.687697105158826 68.6386
15.710206930593545 74.0767
15.732734925158933 79.8708
15.755245972089478 87.0528
15.77777519094324 95.3233
15.800287463046663 106.61200000000001
15.822817909869592 123.54299999999999
15.84534897229804 143.743
15.867863089299354 169.65599999999998
15.890395385222186 190.924
15.912910736597423 202.15900000000002
15.935444269699861 193.31099999999998
15.957978423016485 169.201
15.980495633101265 134.60299999999998
16.003031029129367 104.694
16.02554948280019 81.5225
16.048086125229432 69.5484
16.070623392487107 64.7257
16.09314371869582 62.4416
16.11568223789321 61.0945
16.13820381691126 59.7756
16.160743591742527 59.1137
16.183283996022084 58.331
16.205807461423195 57.4123
16.228349126881973 57.0057
16.25087385432698 57.0157
16.27341678466365 56.4295
16.29594277784926 56.1425
16.31848697676433 55.6563
16.341031811604868 55.1586
16.36355971058487 55.1065
16.3861058195587 54.9961
16.40863499352978 54.5392
16.431182380342005 54.2993
16.453730407713202 53.9862
16.476261501364792 53.8013
16.498810812136167 53.4881
16.52134319004079 53.6929
16.54389378792203 53.4061
16.566445031001553 53.3013
16.588979342490088 53.1093
16.61153187824822 52.9766
16.634067483263312 53.013999999999996
16.656621315414416 52.8888
16.679175797408888 52.6274
16.701713349928728 52.7948
16.72426913389191 52.8304
16.74680798922351 52.818999999999996
16.76936507887444 52.9
16.791905240734874 52.8571
16.814463639794468 52.7819
16.837022695210294 52.8756
16.859564824093756 52.9885
16.882125194503903 53.1413
16.904668639217885 53.5708
16.927230328348003 53.7796
16.949792678493612 54.3362
16.972338104193863 54.2518
16.994901778652235 54.1727
17.017448529496576 53.8825
17.040013531998152 54.0223
17.06257920018044 54.0011
17.0851279459922 54.7672
17.107694947817667 55.9843
17.130245028099072 57.0581
17.15281336730298 58.6762
17.17536478578733 60.3205
17.19793446610687 62.2378
17.220504818648422 65.1331
17.243058251703697 68.0647
17.265629950971032 72.6163
17.288184731571736 77.5134
17.310757781306908 82.1132
17.33333150794385 83.3455
17.355888317140174 82.706
17.37846339986244 78.6705
17.401021565958885 72.1866
17.42359800851343 65.6376
17.44617513265564 61.2345
17.468735341390783 58.924
17.491261035594565 57.5386
17.51396340099364 57.153
17.536490463869136 57.3008
17.559018209820174 57.2041
17.58154663977963 57.3955
17.604251766089718 57.6134
17.626781572227713 57.6841
17.64931206518155 58.0403
17.671843245885103 58.3194
17.69455114821572 58.4979
17.717083712612634 58.9496
17.739616967569667 59.5231
17.762150914021706 60.091
17.78486160749854 60.0942
17.807396945166804 60.673
17.829932977143503 60.9939
17.85246970436452 61.8102
17.875183204129467 63.6954
17.897721330097664 66.6755
17.920260154126645 70.1351
17.942799677153296 73.5947
17.9655159983646 77.3758
17.988056927677544 82.5427
18.010598558807683 88.9193
18.033140892692916 97.8747
18.05586005052525 109.24600000000001
18.07840379824407 120.999
18.10094825154059 133.045
18.12366954819864 142.119
18.146215420998306 144.559
18.16876200220057 137.858
18.191309292745153 123.889
18.214033452627167 109.109
18.236582170236648 96.2732
18.259131600016456 88.5009
18.281681742907335 86.2416
18.304408781233683 89.0697
18.32696035875955 94.0301
18.349512652227624 99.3731
18.372065662579683 105.35700000000001
18.394795594587553 107.212
18.41735004715306 104.471
18.43990521943684 98.3199
18.46246111238171 88.9132
18.485193953325208 78.9828
18.507751296070428 70.8039
18.530309362314178 65.5694
18.552868153000343 62.8248
18.57560391815056 61.4597
18.59816416623245 60.8055
18.620725141597372 60.1376
18.643286845190268 59.5186
18.666025549835414 59.0631
18.688588718427933 58.0497
18.711152618092243 58.1286
18.73389353884365 58.0219
18.75645890921984 57.6233
18.77902501351406 57.2014
18.801591852673102 57.1186
18.824335739722738 56.6625
18.846904057212626 56.4437
18.8694731124168 56.141000000000005
18.89204290628315 56.2786
18.914789774966803 56.0063
18.937361054791623 55.5909
18.959933076131318 55.4475
18.982505839934877 55.3198
19.00525570560582 55.3913
19.027829963004184 55.0831
19.05040496572238 55.2649
19.072980714710468 55.1061
19.095733592739563 55.045
19.11831084296757 55.3346
19.140888842324735 55.9799
19.16346759176222 56.3576
19.18622349753803 57.0142
19.208803755869358 58.2722
19.231384767143577 59.339
19.253966532312948 60.8726
19.276725481241822 62.9666
19.29930876296784 65.7357
19.3218928014549 68.8787
19.34465404436217 72.0284
19.36723960516257 74.6519
19.389825925592426 76.0038
19.412413006605938 75.1771
19.43517731967805 72.1702
19.457765930683355 67.7796
19.48035530514408 63.375
19.50294544401556 59.31
19.525712842708348 56.1782
19.54830451925909 54.1701
19.570896963095727 53.0357
19.593490175174704 52.7158
19.616260674962184 52.467
19.638855432416964 52.196000000000005
19.661450960992624 52.2876
19.68404726164677 52.0307
19.706820878021247 51.7329
19.729418731756834 52.0465
19.752017360452857 51.8634
19.77461676506804 51.8968
19.797393513540218 51.8708
19.819994478951667 52.2836
19.84259622316767 52.6774
19.8651987471481 53.3623
19.887978643247177 53.6311
19.91058273574792 54.4099
19.933187610901943 55.3683
19.955969879466828 56.288999999999994
19.97857632894404 57.5729
20.00118356396599 59.0605
20.023791585494575 61.0021
20.046577028914875 64.0066
20.069186632506966 66.62
20.091797025500632 69.0647
20.114408208858933 70.6439
20.137196842715273 70.7034
20.159809615886765 69.2291
20.18242318232135 66.7017
20.20503754298326 64.1357
20.227829382875154 62.7462
20.250445341109344 61.8675
20.27306209647285 62.3527
20.29567964993108 63.6735
20.31847471147704 64.8378
20.34109387027612 65.4463
20.363713830075454 65.5184
20.386334591841646 63.9256
20.409132890679302 61.4319
20.431755265564437 58.3537
20.454378445325528 55.1921
20.477002430930366 52.8214
20.499803982716553 51.0959
20.522429589228004 50.0988
20.54505600449589 49.4476
20.567683229489194 49.4241
20.590488049900088 49.0989
20.61311690359731 48.8237
20.63574656993626 48.7447
20.658553853717297 48.4998
20.681185154618298 48.3808
20.703817271080066 48.3589
20.72645020407368 48.1038
20.749260783967177 47.9692
20.771895359337133 47.9803
20.794530754161617 47.9796
20.817166969412938 48.0219
20.83998086114876 47.8418
20.86261872660049 47.751000000000005
20.885257415405402 47.536
20.90789692853701 47.3524
20.930714147864748 47.2931
20.953355319030678 47.3098
20.97599731745334 47.4092
20.99864014410749 47.2845
21.021460706796564 47.4032
21.044105199328826 47.7036
21.06675052302631 47.7638
21.089396678865015 47.9603
21.112220600704806 48.378
21.134868430275347 48.6224
21.15751709492456 48.7425
21.180166595629693 49.0441
21.202993892429635 49.7239
21.22564507473034 50.1081
21.24829709602816 50.4602
21.27112693608965 50.6616
21.293780644891275 50.7469
21.316435195634053 49.9838
21.339090589297417 49.2026
21.361923832041875 48.8187
21.384580921090404 47.9653
21.407238856007325 47.6116
21.429897637773326 47.3595
21.45273429906592 47.3955
21.475394784108598 47.3467
21.498056118951983 47.2471
21.520718304578022 47.5563
21.543558400304388 47.7532
21.566222297108816 47.7009
21.58888704765135 47.7314
21.61155265291521 47.9288
21.63439619898156 48.4721
21.657063523335786 48.9136
21.67973170537063 49.5365
21.7024007460706 50.1601
21.72524775840385 51.0304
21.747918526116475 52.0571
21.770590155457388 52.9988
21.79326264741238 54.243
21.816113141960237 56.3006
21.838787368860547 58.2909
21.861462461341976 60.6238
21.884315579735777 62.9232
21.90699241312273 64.4819
21.92967011506078 65.2992
21.95234868653799 65.3166
21.9752053151131 64.0154
21.997885635446785 62.0954
22.020566828293532 59.7751
22.04324889464272 57.7761
22.066109049404666 56.3798
22.088792872571794 55.9581
22.111477572219204 55.9699
22.1341631493376 55.9841
22.157026846313123 55.9609
22.179714188221507 55.3896
22.202402410582668 54.4289
22.22509151438863 52.7884
22.24795876962584 51.1841
22.270649646204486 49.9583
22.293341407213727 49.0438
22.316034053646906 48.4529
22.338904883215342 48.222
22.36159931041458 47.7608
22.38429462602756 47.6854
22.40699083104897 47.5233
22.429865251039757 47.4451
22.452563244831367 47.6356
22.47526213102522 47.5816
22.49813925616515 47.4595
22.520839937143307 47.3906
22.543541513520587 47.5079
22.56624398629403 47.4571
22.589124730075895 47.3492
22.611829005656723 47.5473
22.63453418063466 47.5778
22.657240256008077 47.777
22.680124634582935 48.0265
22.70283252079775 48.2709
22.725541310413075 48.6709
22.74825100442868 49.0744
22.771139033969575 49.5813
22.79385054687155 49.7922
22.81656296718292 50.589
22.83927629590484 51.3505
22.862167992606945 52.3254
22.88488314827121 53.4238
22.907599215359284 54.4673
22.93031619487366 55.733999999999995
22.953211574954405 56.842
22.975930389478226 57.6015
22.998650119445763 57.96
23.02137076586092 57.4033
23.044269845560063 56.2645
23.06699233506288 54.728
23.089715744034912 52.6848
23.112617610931565 50.9216
23.135342869061212 49.621
23.158069049684816 48.6899
23.1807961538087 48.0928
23.20370174880544 47.7791
23.226430710184808 47.7094
23.249160598093425 47.856
23.271891413539002 47.8293
23.294800752937697 47.8437
23.31753343374794 48.4019
23.340267045128353 48.5389
23.36300158808808 48.94
23.38591468821339 49.338
23.408651104658304 49.827
23.431388455719986 50.5959
23.454126742409 51.2602
23.4770436196085 52.3071
23.499783787914662 53.3543
23.522524894889884 54.6185
23.54526694154616 55.7746
23.56818761219047 57.09
23.59093154860734 57.9347
23.613676427751283 58.5276
23.636422250635754 57.9745
23.659346731118656 56.5054
23.68209445191868 54.511
23.704843119509587 52.053000000000004
23.72759273490623 50.0215
23.750521041644767 48.2482
23.77327256312355 46.7092
23.796025035462787 46.0124
23.818956224555475 45.3305
23.841710609113413 45.2246
23.86446594758979 45.0189
23.887222241002014 44.687
23.910157285144578 44.3199
23.932915498962537 44.3433
23.955674670778713 44.2007
23.978434801611975 44.0221
24.001373717286125 43.7768
24.024135776723917 43.6793
24.046898798245582 43.6454
24.06966278287146 43.5249
24.092605586582614 43.4123
24.115371508023642 43.2019
24.1381383956401 43.0946
24.16090625045381 42.9953
24.183852958731244 42.9192
24.206622758582608 42.8491
24.229393528706886 42.5848
24.252165270127392 42.7333
24.27511589952438 42.4971
24.297889594216997 42.4871
24.32066426328598 42.3509
24.34343990775613 42.1603
24.36639447485003 42.2728
24.38917208083877 42.2561
24.41195066531332 42.021
24.43490819850244 41.9994
24.457688750692377 42.0892
24.48047028445616 42.0103
24.503252800821233 42.0921
24.526214300784112 42.1031
24.548998793132213 42.2197
24.57178427117417 41.9994
24.59457073593893 42.1724
24.617536219319863 42.1335
24.64032466834748 42.0685
24.663114107195035 42.0559
24.685904536893013 41.7661
24.708874020360852 41.6758
24.731666442613744 41.6277
24.754459858818787 41.48
24.777254270007962 41.3543
24.80022777025625 41.18
24.82302418230472 41.4139
24.845821592443674 41.3473
24.86862000170663 41.3602
24.891597535453727 41.2953
24.914397953892728 41.3938
24.93719937456671 41.4036
24.96000179851076 41.653999999999996
24.98298338249997 41.7383
25.00578782394922 41.7933
25.028593271784167 42.0136
25.05157790644186 42.5623
25.07438537804115 42.5326
25.097193859145293 42.9309
25.120003350792075 43.1807
25.142992065061257 43.6206
25.165803588823465 43.9301
25.18861612625217 44.1594
25.211429678386736 44.3403
25.234422489079968 44.4713
25.257238081693636 44.3706
25.280054692141732 44.4306
25.3028723214652 44.5374
25.325869245420463 44.626999999999995
25.348688923599397 44.7286
25.371509623787006 44.727
25.394331347025812 44.4316
25.41733240110666 43.9583
25.440156181590016 43.3514
25.46298098826268 42.6639
25.48580682216873 42.1052
25.50881202326435 41.3588
25.53163992281684 40.9162
25.55446885274561 40.528
25.577298814096377 40.0364
25.600308179121807 40.1625
25.623140214533745 40.2858
25.64597328451537 39.9343
25.66898578564376 39.801
25.691820936010206 39.900999999999996
25.714657124097695 39.7436
25.737494350954734 39.705999999999996
25.760511045684957 39.5873
25.783350361364224 39.7364
25.806190718969255 39.8825
25.82903211955018 39.9596
25.852053024868923 39.9054
25.874896522722523 40.0133
25.897741066713106 39.9648
25.920586657892454 40.0173
25.943611790812668 40.0641
25.966459487728237 40.1566
25.989308234998564 40.478
26.01215803367705 40.6603
26.03518741123814 40.7735
26.05803932412957 41.1397
26.080892291600094 40.9536
26.10374631470478 41.1418
26.12677995397268 41.4003
26.14963609978026 41.4073
26.172493304397875 41.0474
26.19535156888223 40.6235
26.218389486949604 40.3088
26.241249882640123 39.9622
26.26411134137826 39.7238
26.28715248187403 39.6409
26.31001607820869 39.522
26.3328807407756 39.2611
26.35574647063438 39.5528
26.37879191991473 39.5382
26.401659795896734 39.5437
26.424528742360263 39.6646
26.447398760366614 39.7897
26.470448535598294 39.9165
26.49332070826805 40.152
26.516193955675355 40.4179
26.53906827888316 40.7085
26.562122397260108 40.7912
26.584998883685063 41.1839
26.607876449110325 41.3796
26.63075509460056 41.797
26.65381357334404 41.9176
26.67669439061878 41.9389
26.699576291163382 41.9823
26.722459276044212 41.9561
26.745522132402975 41.631
26.768407297649354 41.3116
26.791293550442003 40.8712
26.814180891848974 40.6572
26.837248143099337 40.1645
26.860137673466657 39.9751
26.88302829566349 39.8497
26.90592001075963 39.6527
26.92899167420566 39.525999999999996
26.951885586870763 39.0267
26.974780595655517 38.8473
26.99785558178161 38.5975
27.020752794605112 38.4771
27.043651106772522 38.2358
27.06655051935668 38.3654
27.089629948036183 38.0929
27.112531573292053 38.0565
27.135434302194138 38.1155
27.158338135817015 37.9325
27.181422024430987 37.9899
27.204328079372566 37.9192
27.22723524226965 37.8712
27.250143514198573 37.937
27.273231880156334 37.981
27.296142382065014 37.7637
27.319053996245536 37.8017
27.341966723775965 37.8466
27.365059584515222 37.7929
27.38797455070062 37.898
27.410890633481237 37.8021
27.433807833936918 37.8069
27.456905206923906 38.0489
27.47982465472398 38.0351
27.502745223449743 38.069
27.525666914182825 38.0501
27.548768816912457 38.1608
27.571692763693633 37.9832
27.59461783573812 37.8769
27.617723149491244 37.8769
27.640650484125285 37.7522
27.66357894728264 37.65
27.686508540048052 37.5871
27.709618414237887 37.4491
27.732550278321757 37.4547
27.755483275279115 37.3476
27.778417406196485 37.3093
27.801531858397514 37.3682
27.824468269376716 37.319
27.847405817586786 37.2763
27.870344504116094 37.4459
27.893463551932008 37.6662
27.916404527281053 37.76
27.93934664422563 38.0111
27.962289903855886 38.1165
27.98541356491974 38.3136
28.00835912214229 38.4403
28.03130582533231 38.6368
28.054253675581805 38.8324
28.077381967556104 38.8368
28.100332124185126 38.9427
28.123283431160893 38.9088
28.146235889577238 38.5632
28.169368830154156 38.5156
28.192323603752033 38.2892
28.215279532083304 38.1067
28.238415973016764 37.8027
28.261374223145094 37.7232
28.284333631303806 37.3545
28.307294198589954 37.148
28.330435319167677 36.9089
28.353398217078915 36.6308
28.376362277420153 36.3958
28.39932750129032 36.1588
28.422473319286713 35.9095
28.44544088262495 35.900999999999996
28.468409612800283 35.6408
28.491379510913497 35.5885
28.51453004413313 35.5301
28.53750229057244 35.4079
28.56047570826344 35.3145
28.583450298308804 35.3203
28.606605564586562 35.1364
28.629582511831156 35.2034
28.65256063474956 35.0802
28.675539934446338 35.0992
28.698699951647605 35.0603
28.72168161743193 34.9416
28.74466446331978 34.8289
28.767648490417624 34.8143
28.790813276438353 34.8721
28.813799678527303 34.884
28.836787265157085 34.8053
28.859955641890075 34.8702
28.882945610203045 34.8881
28.905936766392035 34.8449
28.928929111566863 34.9114
28.952102288520145 34.7517
28.975097024308607 34.5736
28.998092952423807 34.4495
29.021090073977508 34.3363
29.04426806913204 34.3371
29.067267590245258 34.178000000000004
29.090268308143695 34.1512
29.11327022394099 34.0558
29.13645305530891 33.9656
29.159457379627167 33.8821
29.18246290519685 33.7735
29.20546963313352 33.7284
29.22865731875826 33.7853
29.25166646419296 33.6842
29.27467681535305 33.5587
29.29768837335608 33.6828
29.320880931312562 33.7994
29.34389491580634 33.7396
29.366910110507334 33.6822
29.38992651653503 33.8298
29.41312396492981 33.7479
29.436142806456754 33.7061
29.45916286268059 33.6104
29.48236399319994 33.4855
29.50538649169417 33.4023
29.528410208259935 33.3258
29.55143514402014 33.0343
29.574641196749695 32.8957
29.597668583816574 32.8092
29.6206971934585 32.6059
29.64372702680042 32.5675
29.666938019934474 32.4839
29.689970313635285 32.4289
29.713003834422636 32.3956
29.73603858342347 32.3678
29.759254535188578 32.3716
29.78229175361658 32.2553
29.80533020365064 32.3568
29.82836988641968 32.3594
29.85159081507472 32.2561
29.874632976355343 32.1626
29.89767637376955 32.1065
29.920721008448314 32.0258
29.9439469322847 32.047
29.96699405457564 31.9377
29.9900424175358 32.0767
30.013092022298157 31.9556
30.03632295963995 31.9992
30.059375061131373 32.0392
30.08242840783577 32.1212
30.105483000888153 31.9687
30.128718970092244 31.8334
30.151776069006917 31.8662
30.17483441768648 31.9201
30.198074175317235 31.9773
30.221135036724256 31.9413
30.24419715131772 31.8518
30.267260520236203 31.7835
30.290505341942243 31.9035
30.313571232750228 31.8796
30.336638381310948 31.8178
30.35970678876503 31.6776
30.38295669299435 31.691
30.40602763151657 31.7493
30.429099832366074 31.7174
30.452173296685572 31.6548
30.47542830191959 31.5878
30.498504306502497 31.5405
30.521581577995562 31.5631
30.544660117543582 31.7402
30.56792024229725 31.7326
30.59100133132069 31.6693
30.614083691845494 31.6549
30.637167325018545 31.8026
30.660432587840603 31.8233
30.683518779717886 31.717
30.70660624769615 31.7689
30.729694992924372 31.8717
30.75296541239743 31.9315
30.77605672557558 31.8724
30.799149319462742 31.8062
30.8224236211637 31.6534
30.845518789950724 31.5134
30.868615242910597 31.5284
30.891712981195973 31.3606
30.91499247215866 31.2851
30.938092794619365 31.2818
30.96119440587579 31.1202
30.984297307082752 31.0781
31.00758200598383 30.9898
31.030687500658694 30.8592
31.053794288760695 30.8101
31.076902371446767 30.6485
31.100192296997445 30.7089
31.12330298246119 30.6223
31.14641496599209 30.5659
31.169528248749216 30.459
31.19282341969534 30.5014
31.215939314557186 30.5865
31.239056512134788 30.5148
31.262175013589378 30.444000000000003
31.28547544871168 30.3967
31.30859657161541 30.4208
31.331719001892175 30.4719
31.35484274070538 30.471999999999998
31.378148458819545 30.4994
31.401274828443725 30.5296
31.424402510106933 30.5353
31.447712205419993 30.6078
31.470842524931633 30.4567
31.493974159989783 30.4729
31.51710711176168 30.5362
31.54042212308802 30.4582
31.563557722100917 30.4751
31.586694641341655 30.3105
31.609832881979628 30.1523
31.63315322823208 30.2298
31.656294125521327 30.0806
31.679436347728515 30.0194
31.70257989602529 29.9477
31.725905596152327 29.8231
31.74905181052835 29.7431
31.772199354521323 29.8378
31.79534822930507 29.7834
31.818679302290967 29.7666
31.84183085259981 29.6543
31.864983737233473 29.7288
31.88813795736804 29.7446
31.911474422233013 29.6624
31.934631327356435 29.683000000000003
31.9577895715215 29.6811
31.980949155906522 29.649
32.004291031706956 29.6434
32.027453310562606 29.5678
32.05061693318573 29.475
32.07396288236386 29.4894
32.09712920658542 29.5042
32.12029687812702 29.3483
32.14346589817093 29.2152
32.166817291729984 29.261999999999997
32.18998902288583 29.0812
32.21316210610336 28.9908
32.23633654256711 28.8466
32.259693399663725 28.8784
32.282870556771144 28.805
32.30604907069099 28.8122
32.329228942610065 28.7377
32.35259128243769 28.5407
32.375773884550505 28.4735
32.398957848235646 28.4699
32.422143174682176 28.4382
32.445511016471215 28.4312
32.468699082679954 28.3132
32.49188851523011 28.2277
32.51507931531304 28.2246
32.538452678331 28.2152
32.56164622776311 28.236
32.58484114831493 28.0726
32.60803744118015 28.1254
32.631416344731896 28.073
32.654615396551876 28.0135
32.67781582427913 28.0307
32.701198898634416 27.9709
32.72440209253756 27.9025
32.747606665947124 27.9217
32.77081262006088 27.7569
32.79420126883317 27.726
32.81740999876112 27.7366
32.840620112999424 27.6846
32.86383161274818 27.546999999999997
32.88722585534586 27.6647
32.91044014056596 27.73
32.933655814909734 27.6077
32.95687287957963 27.6112
32.98027273544904 27.4957
33.00349259526636 27.4558
33.026713849030116 27.4645
33.04993649794511 27.534000000000002
33.073341986570746 27.4807
33.09656744032826 27.3766
33.11979429286444 27.4841
33.14302254538647 27.4443
33.166433686291185 27.4112
33.18966475336992 27.3664
33.212897224069096 27.2423
33.23613109959831 27.3049
33.259547912343415 27.2444
33.2827846121627 27.3303
33.306022720453775 27.1811
33.32926223842861 27.1243
33.352684742614166 27.0233
33.37592709463173 27.0341
33.399170859982064 26.8893
33.422597648419426 26.8715
33.44584425514446 26.7988
33.46909227885668 26.7542
33.4923417207723 26.5844
33.51577423505344 26.621
33.539026528130385 26.4832
33.56228024307245 26.486
33.585535381098246 26.4191
33.60897364093058 26.4007
33.63223163992385 26.3552
33.6554910656699 26.2686
33.678751919389796 26.3122
33.702195944520106 26.2377
33.72545966903325 26.1819
33.74872482519663 26.1169
33.771991414233746 26.1774
33.79544122444841 26.1008
33.81871069412428 26.075
33.84198160035767 26.0831
33.86525394437455 26.0455
33.88870955949969 25.9198
33.911984794020626 25.8967
33.93526147001624 25.9005
33.958539588715006 25.9395
33.98200102861669 25.8665
34.0052820477047 25.6949
34.02856451319451 25.6557
34.05203033759056 25.6235
34.07531571090147 25.5968
34.09860253431845 25.6358
34.121890809074316 25.4451
34.145362493118924 25.5121
34.16865368561615 25.4291
34.191946333164054 25.3639
34.21524043699793 25.4369
34.23871800066799 25.4288
34.26201503218366 25.2548
34.28531352370466 25.2584
34.30861347646881 25.1764
34.33209693978188 25.2035
34.3553998301885 25.1056
34.378704185565205 25.0685
34.402010007152356 24.9925
34.42549939016683 25.108
34.44880815937748 24.9329
34.472118398533134 24.9648
34.49543010887669 24.9266
34.51892543169198 24.8074
34.54224009966052 24.7626
34.56555624255917 24.721999999999998
34.58887386163339 24.6663
34.61237514439016 24.6574
34.6356957311114 24.6072
34.65901779775809 24.5368
34.68252356662995 24.5175
34.705848608458616 24.5088
34.72917513396849 24.4877
34.75250314440949 24.4856
34.77601490857862 24.3865
34.799345904259795 24.3109
34.82267838863559 24.3726
34.846012362958525 24.3062
34.869530142679984 24.3085
34.89286711232212 24.2683
34.91620557568269 24.2868
34.93954553401677 24.2419
34.9630693495876 24.1992
34.986412313340814 24.1745
35.00975677584668 24.1312
35.033102738362956 24.1149
35.05663261012228 24.0263
35.0799815881786 23.9995
35.10333207003229 23.9476
35.12668405694369 23.9247
35.150220005273056 24.0172
35.17357501786656 23.9274
35.19693153931268 23.8504
35.220289570874385 23.8457
35.24383161619786 23.8239
35.267192683604904 23.8303
35.290555264930376 23.8178
35.314101899412165 23.7068
35.33746752422433 23.7286
35.36083466676374 23.8545
35.38420332829803 23.6309
35.407756095629054 23.756999999999998
35.43112781085063 23.7498
35.45450104888391 23.6178
35.477875810999194 23.655
35.50143473172161 23.5597
35.52481255774625 23.5364
35.54819191167777 23.5987
35.57157279478914 23.4739
35.595137889488406 23.4412
35.61852184675279 23.3526
35.641907337029984 23.3843
35.665294361595684 23.3448
35.68886565090076 23.324
35.7122557598848 23.2426
35.73564740699838 23.2628
35.759040593519934 23.1199
35.78261809810353 23.1808
35.80601437933051 23.055999999999997
35.829412203814705 22.934
35.85281157283719 22.9311
35.876395313415884 22.9605
35.8997977874528 22.9354
35.92320180988546 22.8741
35.946790244133936 22.8439
35.97019737933222 22.8373
35.993606066789866 22.8042
36.01701630779276 22.7492
36.04061101440684 22.6841
36.06402437852291 22.6414
36.08743930005611 22.7773
36.1108557802951 22.6185
36.13445678011326 22.6473
36.15787639383515 22.5551
36.18129757014299 22.480999999999998
36.20472031032821 22.4539
36.22832762423364 22.399
36.25175350829375 22.4077
36.275180960119776 22.3651
36.298609981005924 22.3688
36.32222362992669 22.3936
36.34565580510207 22.3444
36.36908955323448 22.2874
36.39252487562093 22.1575
36.416144880530226 22.2113
36.43958336764275 22.1262
36.463023432914625 22.176
36.486465077645676 22.1058
36.51009145956204 22.1837
36.53353627947859 22.125
36.55698268276811 22.0627
36.58043067073321 21.9915
36.60406345072071 21.9376
36.62751462435344 21.9364
36.65096738658405 21.9039
36.67460498210655 21.857
36.69806093788647 21.8028
36.72151848619297 21.7298
36.744977628333636 21.8075
36.76862165890998 21.7426
36.79208400512205 21.706999999999997
36.81554794910557 21.6113
36.83901349217101 21.5525
36.862663978991606 21.6099
36.88613273667352 21.5512
36.90960309738324 21.458000000000002
36.933075062434064 21.4703
36.95673202673572 21.4533
36.98020721697122 21.4113
37.003684015502365 21.2986
37.027162423645365 21.2988
37.050825886711465 21.3117
37.07430753063053 21.2361
37.09779078812467 21.2194
37.121275660513014 21.2176
37.144945643673694 21.1747
37.16843376245278 21.1471
37.19192350009803 21.0958
37.215414857931435 21.0586
37.239091382563885 20.9909
37.262585997426164 20.9709
37.28608223645736 20.9758
37.309763684451696 20.9051
37.33326318851098 20.8425
37.356764320726555 20.8766
37.380267082425526 20.8793
37.40395510942588 20.7703
37.42746114683234 20.7555
37.45096881771841 20.7204
37.474478123414166 20.7936
37.49817275092816 20.6988
37.52168534303452 20.6232
37.54519957395567 20.5158
37.568715445024665 20.5239
37.592416694607714 20.495
37.61593586281424 20.5421
37.63945667518264 20.5333
37.66297913304891 20.4302
37.68668702630454 20.4129
37.710212792059274 20.3536
37.733740207334854 20.3749
37.757269273470364 20.2408
37.780983832050374 20.2168
37.80451621684926 20.221
37.82805025654007 20.18
37.851585952464795 20.1281
37.8753071980695 20.1954
37.89884622345676 20.0994
37.92238690911902 20.0291
37.94611318753442 20.0233
37.969657210779765 19.9832
37.99320289834801 19.9437
38.016750251586465 19.9044
38.04048325513017 19.9219
38.06403395679343 19.8903
38.087586328183946 19.7931
38.11114037065203 19.8382
38.13488012115898 19.7937
38.1584375229181 19.7535
38.181996599821 19.7138
38.205557353221124 19.7275
38.229303872575656 19.6483
38.2528679961576 19.6375
38.27643380031219 19.5564
38.30000128639589 19.4939
38.32375459653193 19.5507
38.34732546371299 19.5436
38.37089801690786 19.4506
38.39447225747609 19.4619
38.418232380377425 19.4439
38.441810012983396 19.428
38.46538933705673 19.3019
38.488970353960084 19.3245
38.51273731166058 19.3396
38.536321731567014 19.2348
38.55990784840681 19.2485
38.58367995004091 19.1835
38.60726947812959 19.1339
38.63086070726198 19.1471
38.654453638806274 19.1321
38.678232613930824 19.0805
38.70182896773327 19.0211
38.72542702806741 18.959
38.7490267963045 18.996
38.77281266709232 18.9693
38.79641586862214 18.9286
38.8200207821842 18.8715
38.843627409152944 18.8716
38.86742019782782 18.8172
38.891030269149255 18.8069
38.914642058016156 18.7239
38.938255565806124 18.759
38.96205529464307 18.6747
38.98567225787121 18.6434
39.00929094417078 18.6945
39.03291135492255 18.6866
39.05671804624804 18.6192
39.080341923549106 18.6017
39.103967529460334 18.4939
39.127594865365744 18.4288
39.15140854155791 18.397000000000002
39.17503935514948 18.3926
39.19867190290282 18.3604
39.22249083587951 18.3335
39.24612686969409 18.3167
39.269764641845306 18.3377
39.293404153722804 18.3029
39.317230110864074 18.2755
39.34087311998506 18.2528
39.36451787301696 18.241
39.388164371352595 18.2176
39.41199737518003 18.1178
39.43564738196752 18.1146
39.45929913825317 18.0484
39.48295264543308 18.0492
39.506792718520884 18.011
39.530449745387216 18.009
39.55410852735203 17.9446
39.57776906581474 17.9608
39.60161623079 17.9475
39.625280300200025 17.9391
39.64894613032202 17.8225
39.67261372255866 17.8215
39.6964680021016 17.7913
39.72013913657293 17.7317
39.74381203738292 17.7971
39.76748670593756 17.7222
39.79134812278169 17.7198
39.81502634488497 17.6718
39.83870633896685 17.6803
39.862388106436654 17.5955
39.88625668336918 17.6465
39.90994201572829 17.6265
39.933629125719285 17.5192
39.957503091207826 17.4658
39.9811937746168 17.5688
40.00488623990914 17.4396
40.02858048850006 17.3864
40.05246165409549 17.3491
40.076159487492085 17.3409
40.099859108448875 17.378
40.123560518384345 17.3194
40.1474489070226 17.2845
40.171153913178564 17.242
40.194860712584955 17.1905
40.2185693066637 17.2123
40.242464941335314 17.0856
40.26617714307655 17.1356
40.289891143772046 17.1518
40.3136069448471 17.0685
40.33750984859743 17.0525
40.3612292688043 17.0082
40.3849504936829 16.9712
40.40867352466194 17.02
40.43258372059144 16.9029
40.45631038219906 16.9955
40.48003885420956 16.902
40.503769138055105 16.8615
40.52768664931955 16.8593
40.55142057531802 16.8442
40.57515631746428 16.8296
40.599079334038514 16.8378
40.62281872700477 16.7585
40.64655994043941 16.7093
40.67030297578061 16.6666
40.69423334835778 16.6792
40.71798004609188 16.6733
40.74172857006355 16.6593
40.76547892171441 16.6172
40.7894166736039 16.5984
40.813170699248566 16.5752
40.83692655691388 16.5398
40.86068424804498 16.5714
40.884629402612525 16.5048
40.908390779366385 16.4917
40.932153993938 16.4141
40.95591904777605 16.4016
40.979871628443995 16.4092
41.003640379561936 16.3616
41.02741097430883 16.3564
41.05118341413683 16.2979
41.075143444384416 16.2472
41.098919593177826 16.2395
41.1226975914255 16.1992
41.14647744058318 16.114
41.170444943946755 16.1353
41.19422851378379 16.0908
41.218013938914645 16.0791
41.24198706625173 16.0098
41.26577622087193 16.0217
41.289567235177785 16.0192
41.31336011063129 16.0259
41.337340752422875 15.9618
41.361137369129835 15.9352
41.38493585138705 15.8662
41.40873620066004 15.8543
41.43272438060107 15.7804
41.45652848292052 15.7273
41.48033445666918 15.8087
41.50414230331616 15.7625
41.528138045159764 15.7159
41.551949656675205 15.7114
41.575763145513235 15.7262
41.59957851314666 15.6263
41.62358184070442 15.5816
41.64740098505737 15.5402
41.6712220126409 15.6209
41.69504492493139 15.5468
41.71905586207357 15.5471
41.74288256296395 15.4801
41.766711153007456 15.4426
41.79054163368412 15.4257
41.814560204340054 15.4202
41.838394485526365 15.4782
41.86223066180303 15.3736
41.88625497706819 15.3142
41.910094962812 15.3413
41.93393684811168 15.2955
41.95778063445365 15.2438
41.981812625263366 15.2366
42.00566023303407 15.2251
42.029509746323676 15.2213
42.05336116662236 15.1813
42.077400857069705 15.1064
42.10125611078846 15.1392
42.12511327600405 15.0805
42.14897235421036 15.0537
42.173019768448455 15.0467
42.19688269209613 15.002
42.22074753323349 14.9894
42.24461429335818 14.9954
42.268669455600495 14.9281
42.292540073217886 14.9184
42.31641261433284 14.9163
42.34028708044675 14.8034
42.36435001496739 14.8245
42.38822835065557 14.8703
42.41210861586426 14.7701
42.4359908120986 14.7502
42.46006154323262 14.7523
42.48394762115317 14.7226
42.507835634632315 14.6672
42.531912233047436 14.6925
42.55580413732265 14.6179
42.579697981698 14.6183
42.60359376768525 14.6092
42.62767820545945 14.5674
42.65157789440821 14.5196
42.67547952952185 14.5324
42.699383112316 14.4957
42.72347541395347 14.4797
42.74738291190531 14.4296
42.771292362102166 14.4137
42.795203766063516 14.3395
42.819303956130405 14.3537
42.843219287476536 14.3211
42.86713657716324 14.3162
42.89105582671383 14.2929
42.91516392983864 14.2711
42.939087119032166 14.2378
42.963012272677304 14.1664
42.98693939230129 14.1866
43.01105543317513 14.1657
43.034986504731386 14.1493
43.05891954686589 14.1079
43.08285456110972 14.1194
43.10697856448665 14.0504
43.130917542983475 14.007
43.15485849820081 14.0229
43.17880143167367 13.9736
43.20293342237094 13.9564
43.226880332449 13.9997
43.25082922540554 13.9611
43.27496722682525 13.8628
43.29892010567796 13.8932
43.32287497204102 13.822000000000001
43.34683182745632 13.8054
43.370977859791836 13.7959
43.39493871351105 13.7691
43.41890156092628 13.8115
43.44286640358341 13.7802
43.46702049182749 13.7208
43.49098934522816 13.6716
43.51496019852649 13.6323
43.5389330532723 13.663
43.56309522248204 13.602
43.58707210044314 13.546
43.61105098451946 13.5631
43.63503187626491 13.5483
43.659202151562134 13.5263
43.68318707902681 13.504000000000001
43.70717401884041 13.46
43.731162972560874 13.42
43.75534137913236 13.4456
43.779334381108384 13.3987
43.803329401683186 13.3784
43.82732644241872 13.3693
43.8515130055166 13.3447
43.87551410707659 13.3366
43.89951723350145 13.2921
43.923709934595614 13.2622
43.94771713129917 13.3009
43.97172635758096 13.1997
43.99573761501002 13.2179
44.0199385169922 13.195
44.04395385732619 13.1677
44.067971233533086 13.1585
44.09199064718605 13.1361
44.11619977548961 13.062000000000001
44.14022328470671 13.0557
44.16424883610785 13.062999999999999
44.18827643127035 13.0277
44.21249381139513 13.0141
44.236525514814076 12.9826
44.26055926674478 12.9698
44.28459506876863 12.9367
44.3088207262813 12.8802
44.33286064928722 12.8773
44.35690262714919 12.8394
44.38094666145278 12.7842
44.4051806219871 12.8317
44.42922879003185 12.7587
44.45327901929361 12.7287
44.477331311362136 12.7382
44.501573600619416 12.6966
44.525630039221795 12.6683
44.54968854541895 12.6874
44.573937102200176 12.6404
44.5979997645541 12.6369
44.622064499300315 12.6168
44.64613130803592 12.5935
44.67038823869318 12.5884
44.69445921643748 12.5272
44.718532272981385 12.507
44.742607409926194 12.538
44.76687274034801 12.4466
44.79095205918753 12.4785
44.81503346325094 12.4665
44.839116954143876 12.3766
44.86339071028742 12.3724
44.88747839599524 12.3364
44.91156817336837 12.3784
44.93566004401666 12.3673
44.959942251908146 12.3006
44.984038330325966 12.2822
45.00813650686762 12.2091
45.03223678314731 12.2228
45.05652746888232 12.2068
45.08063196592069 12.2049
45.104738567558705 12.1799
45.128847275414856 12.1807
45.15314646515866 12.1243
45.17725940679741 12.081
45.20137445952892 12.0878
45.22568004865265 12.052
45.24979934496396 12.0527
45.27392075725247 12.0238
45.29804428714431 12.0011
45.322358426247604 11.9972
45.346486212804315 11.9708
45.370616121861914 11.946
45.39474815505086 11.892000000000001
45.41907087049246 11.8556
45.4432071734666 11.9091
45.46734560548283 11.8635
45.49148616817604 11.882
45.51581748638564 11.8607
45.5399623320197 11.8201
45.56410931325473 11.7526
45.58825843173002 11.777000000000001
45.61259837920865 11.7459
45.636751793816 11.7708
45.66090735060093 11.7269
45.68506505120716 11.6308
45.7094136545275 11.6563
45.73357566449271 11.5922
45.75773982322992 11.6126
45.78190613238733 11.5995
45.806263418194064 11.5571
45.83043404997326 11.5497
45.85460683713677 11.4965
45.87897065658495 11.5235
45.90314777634752 11.4862
45.92732705646868 11.4589
45.9515084986045 11.4874
45.97588104735473 11.44
46.00006683541565 11.4235
46.02425479047904 11.411
46.04844491420549 11.3847
46.0728262191024 11.366
46.09702070211635 11.3401
46.12121735879483 11.3412
46.14541619080294 11.2944
46.169806278764455 11.2421
46.194009483459034 11.2608
46.21821486849841 11.1924
46.24242243555223 11.1874
46.266821333570014 11.196
46.29103328674601 11.1792
46.31524742696538 11.1607
46.33946375590237 11.0801
46.36387149104216 11.1022
46.38809221957392 11.0724
46.41231514186606 11.0819
46.436540259597464 11.0524
46.460956858999374 11.0393
46.48518638983522 11.0224
46.509418121166966 10.9794
46.533652054678114 10.956
46.55807754555709 10.9397
46.58231590571962 10.9336
46.60655647313217 10.9058
46.630988654873654 10.8762
46.655233659129024 10.8375
46.67948087571551 10.8262
46.70373030632484 10.8378
46.72817142736393 10.7891
46.752425308428684 10.7846
46.77668140861147 10.7625
46.80093972960865 10.6822
46.82538981736788 10.6973
46.849652602470904 10.6788
46.87391761349769 10.674000000000001
46.8981848521493 10.6663
46.9226439341274 10.6429
46.946915650573224 10.5939
46.97118959976749 10.569
46.99546578341598 10.5235
47.019933887188216 10.542
47.04421456235744 10.5711
47.06849747711879 10.5243
47.09278263318286 10.5043
47.11725978640143 10.4833
47.14154944775105 10.4456
47.165841355555656 10.4214
47.1901355115306 10.3729
47.214621741924994 10.4179
47.23892041698887 10.4274
47.26322134538975 10.3704
47.28771440635075 10.3462
47.31201986422527 10.347999999999999
47.33632758061436 10.3202
47.360637557241866 10.2743
47.38513974410611 10.2661
47.40945426407847 10.255999999999998
47.43377104948137 10.25
47.45809010204344 10.2044
47.48260144275502 10.1872
47.506925052572285 10.1679
47.53125093475548 10.1593
47.55557909103813 10.1187
47.58009961361992 10.0966
47.60443234110732 10.0856
47.62876734791564 10.0529
47.65310463578333 10.0547
47.6776343683373 10.0771
47.7019762413987 10.0001
47.72632040075572 9.96545
47.75066684815169 9.97423
47.77520581885936 9.94861
47.799556865477655 9.96087
47.823910205386 9.946530000000001
47.84826584033272 9.93924
47.87281407745551 9.85416
47.89717432569297 9.86085
47.92153687423484 9.88381
47.94609208429692 9.86514
47.97045925671401 9.83267
47.99482873471275 9.8078
48.01920052005013 9.81841
48.04376504619224 9.7707
48.068141469543484 9.76874
48.09252020552573 9.78955
48.11690125590099 9.71561
48.1414751266064 9.67648
48.16586082917454 9.68122
48.19024885144316 9.657160000000001
48.2146391951793 9.62429
48.239222439012764 9.63064
48.26361744916137 9.60372
48.28801478610016 9.603439999999999
48.31241445160131 9.61475
48.337007097209366 9.569289999999999
48.36141144338331 9.50676
48.38581812345755 9.53941
48.41022713920929 9.550360000000001
48.434829215320704 9.52074
48.45924292604658 9.53128
48.48365897780325 9.48825
48.50807737237308 9.43322
48.532688907799276 9.40144
48.55711201168574 9.42708
48.581537463754074 9.40018
48.60615611725119 9.40933
48.63058628942721 9.374369999999999
48.65501881516546 9.35195
48.6794536962573 9.321010000000001
48.70408185970339 9.30371
48.72852147531801 9.30562
48.75296345168211 9.26323
48.77740779059232 9.272210000000001
48.80204549302823 9.25895
48.82649458091802 9.22303
48.85094603676547 9.22597
48.87539986237231 9.19263
48.90004713292306 9.17543
48.92450572200832 9.14527
48.94896668628025 9.167580000000001
48.97343002754588 9.11548
48.99808689542115 9.10085
49.02255501470614 9.08265
49.04702551642794 9.045639999999999
49.0714984023988 9.03519
49.096164896893235 9.01985
49.120642575466796 9.02385
49.145122643748394 8.97362
49.16960510355558 8.96166
49.19428125404938 8.93562
49.2187685210852 8.929739999999999
49.243258185121555 8.94099
49.26794160167084 8.912989999999999
49.2924360839405 8.88693
49.31693296869764 8.884830000000001
49.34143225776915 8.87513
49.36612538195438 8.83286
49.39062950396021 8.80585
49.41513603578346 8.82969
49.4396449792564 8.80414
49.46434784069503 8.82906
49.488861631846454 8.78588
49.513377840166804 8.747489999999999
49.537896467493745 8.713980000000001
49.56260909589029 8.68
49.587132585683285 8.73962
49.611658500018365 8.72597
49.636186840738596 8.686630000000001
49.66090926588511 8.6454
49.685442483902584 8.62257
49.70997813385706 8.60313
49.734516217597076 8.572989999999999
49.75924846937352 8.60062
49.7837914452858 8.55669
49.80833686055187 8.52287
49.83288471702571 8.47927
49.85762682540054 8.512780000000001
49.882179588965734 8.50047
49.9067347993235 8.46481
49.93129245833333 8.49284
49.95604445336378 8.46819
49.98060703442832 8.439910000000001
50.005172069746266 8.42255
50.02993150438364 8.40659
50.05450147301533 8.40156
50.07907390151433 8.393130000000001
50.10364879174981 8.37685
50.12841816587289 8.3131
50.1529980044635 8.2818
50.17758031042124 8.30107
50.20216508562089 8.307910000000001
50.22694442953363 8.26168
50.25153416817468 8.26701
50.27612638170508 8.22599
50.300721072005196 8.21738
50.325510416102105 8.23218
50.350110084975064 8.18576
50.37471223628208 8.184619999999999
50.39931687190919 8.14674
50.424116246675766 8.15446
50.44872587605249 8.14034
50.47333799543065 8.124789999999999
50.49795260670191 8.08933
50.52276204271512 8.08451
50.54738166295838 8.07305
50.57200378079314 8.04087
50.596628398116835 8.0109
50.62144792604559 8.03745
50.646077567609396 8.023019999999999
50.670709714377715 7.99045
50.69553683636198 7.97993
50.72017401885922 7.959389999999999
50.7448137122895 7.928260000000001
50.76945591856022 7.927389999999999
50.79429318636823 7.924519999999999
50.818940443716784 7.9111899999999995
50.84359021965163 7.868869999999999
50.868242516085964 7.838369999999999
50.893089960641895 7.83443
50.917747323549435 7.815989999999999
50.94240721271973 7.81606
50.96706963007175 7.7844
50.99192728239342 7.7736600000000005
51.01659478166073 7.791689999999999
51.04126481489051 7.76532
51.06593738400761 7.751510000000001
51.090805275207074 7.7407699999999995
51.11548294172845 7.70107
51.14016314993547 7.67813
51.164845901758845 7.68744
51.18972406304274 7.66965
51.21441192780656 7.61445
51.23910234200271 7.61994
51.2637953075678 7.5953
51.288683770237945 7.5913699999999995
51.31338186432707 7.58787
51.33808251561888 7.55766
51.362978729967345 7.53145
51.387684521509755 7.54103
51.41239287610203 7.535069999999999
51.437103795691165 7.49775
51.46201036644977 7.4661
51.486726441956634 7.43785
51.51144508832545 7.486039999999999
51.536166307509156 7.458080000000001
51.56108326624387 7.463239999999999
51.58580965706056 7.39744
51.61053862657523 7.38784
51.635270176746864 7.38345
51.66019755512065 7.37095
51.68493429268881 7.36455
51.70967361681515 7.3655
51.73441552946465 7.3304
51.759353359237934 7.361680000000001
51.7841004750961 7.322210000000001
51.80885018539685 7.30547
51.833602492111254 7.26858
51.8585508051424 7.24645
51.883308330926425 7.2374600000000004
51.90806845906181 7.23913
51.932831191525715 7.18357
51.95779001977161 7.168310000000001
51.98255798721516 7.136830000000001
52.00732856494335 7.11833
52.03229530577543 7.16075
52.057071130455945 7.1217
52.081849571391054 7.092389999999999
52.106630630568695 7.08437
52.13160794279417 7.074139999999999
52.15639426492067 7.097760000000001
52.18118321127822 7.05882
52.205974783860896 7.0422
52.23096269971011 7.03379
52.255759551287994 6.99127
52.280559035098186 7.00299
52.30536115314103 6.97877
52.33035970494467 6.9772
52.35516711807904 6.941839999999999
52.37997717147198 6.952310000000001
52.40478986713005 6.957260000000001
52.42979908731974 6.891539999999999
52.454617094216 6.87045
52.47943774942214 6.88543
52.50426105495102 6.87605
52.529280976059844 6.88201
52.554109609024096 6.79863
52.57894089837482 6.82285
52.60377484613117 6.785260000000001
52.62880550079408 6.80883
52.65364479223379 6.80139
52.67848674816189 6.75846
52.70352547971946 6.732819999999999
52.72837279155837 6.74055
52.753222773982785 6.6992199999999995
52.778075429022984 6.6796
52.80312495150885 6.72107
52.827982978797436 6.721019999999999
52.85284368481815 6.6829
52.87770707160767 6.6425600000000005
52.90276741793998 6.66104
52.92763619336701 6.60445
52.952507655698504 6.61947
52.977381806977576 6.617139999999999
53.00245301017842 6.59087
53.02733256653592 6.58396
53.052214817996074 6.558860000000001
53.077099766608484 6.53809
53.102181859804446 6.50191
53.127072229988265 6.4951099999999995
53.15196530349892 6.48545
53.17686108239249 6.50587
53.20195409881522 6.496519999999999
53.22685531582556 6.46404
53.25175924441303 6.452719999999999
53.27666588664027 6.40928
53.30176985962693 6.39266
53.3266819565689 6.4120099999999995
53.35159677336455 6.37455
53.376514312083096 6.397130000000001
53.40162927507703 6.36688
53.42655228516116 6.38344
53.45147802340193 6.33511
53.47660125628886 6.33614
53.50153247842639 6.35808
53.52646643496923 6.32796
53.55140312799818 6.27235
53.576537409691696 6.24602
53.60147960336152 6.24755
53.626424539786164 6.29366
53.65137222105307 6.26979
53.67651758529126 6.25287
53.70147078399681 6.2054
53.72642673383343 6.20679
53.75138543689533 6.20118
53.776541917524526 6.184159999999999
53.801506154876755 6.14687
53.826473151763246 6.1601099999999995
53.851442910284916 6.12964
53.87661054126026 6.0906
53.9015858509782 6.10067
53.92656392866066 6.066319999999999
53.95154477641532 6.0769400000000005
53.976723591801296 6.082269999999999
54.00171000771266 6.05896
54.02669920004598 6.03043
54.051691170915745 5.98834
54.076881204886796 5.99105
54.101878760928514 6.04081
54.12687910187696 5.98337
54.152077577768296 5.97165
54.1770835166946 5.93582
54.20209224691339 5.9418
54.22710377055121 5.86236
54.25231352511594 5.89354
54.27733066384342 5.89714
54.30235060239643 5.887569999999999
54.32737334290836 5.88342
54.35259441062629 5.7989
54.377622783395324 5.81452
54.40265396455061 5.81061
54.42768795623251 5.7752300000000005
54.45292037169559 5.73372
54.477960012857906 5.76351
54.50300247099511 5.75154
54.52804774825457 5.74303
54.55329154616743 5.6874199999999995
54.57834249018678 5.7138599999999995
54.6033962597977 5.6359699999999995
54.6284528571545 5.68162
54.653708072335164 5.632969999999999
54.67877035378786 5.62344
54.70383546947698 5.56193
54.72890342156389 5.56274
54.7541700889442 5.554869999999999
54.77924374251975 5.54676
54.8043202390049 5.53519
54.82959552413022 5.52384
54.8546777351945 5.4705900000000005
54.87976279569621 5.44605
54.90485070780914 5.4591400000000005
54.930137506558005 5.38605
54.95523115074295 5.41937
54.98032765308844 5.39445
55.005427015775496 5.3181
55.03072536339621 5.357530000000001
55.05583047570572 5.29322
55.080938454927676 5.25528
55.10604930325027 5.28101
55.131359235107396 5.2758199999999995
55.15647585066083 5.24916
55.181595341907496 5.1971
55.20671771104285 5.20949
55.232039262617704 5.17575
55.25716741665048 5.1443900000000005
55.28229845518636 5.12207
55.30743238042802 5.07445
55.33276558731939 5.1010599999999995
55.357905315183636 5.0924
55.383047936390035 5.0016
55.40819345314859 4.98577
55.433538351073295 4.97625
55.458689688238415 5.01193
55.483843927614096 4.92816
55.509197623043605 4.93966
55.53435769621134 4.90221
55.55952067826466 4.880319999999999
55.5846865714265 4.82774
55.61005202069737 4.7866599999999995
55.63522376553902 4.81902
55.66039842818645 4.84783
55.68557601087004 4.77884
55.7109532500271 4.68607
55.73613670233794 4.781540000000001
