TT I
1.2716486653135266 7.22911
1.2939594142134223 6.74637
1.3162702121660406 6.98261
1.3385810600174564 6.10726
1.3608919586137629 6.670089999999999
1.383202908801069 6.30757
1.405513911425503 5.46304
1.4278249673332093 6.1773
1.4501343378461518 6.279780000000001
1.4724455028545926 5.84112
1.4947567236847858 5.60979
1.517068001182951 6.2167
1.5393793361953272 5.7369900000000005
1.5616907295681737 5.32569
1.5840021821477681 4.7443599999999995
1.60631369478041 5.486680000000001
1.6286252683124185 5.57425
1.6509369035901333 5.3947400000000005
1.6732468618895553 5.25606
1.695558623192809 5.04978
1.7178704487808514 5.179180000000001
1.7401823395001077 4.7576
1.7625012545597203 4.47889
1.7848028405262486 4.9485
1.8071218901122095 4.838430000000001
1.8294236121921872 4.40947
1.8517427996910911 4.41366
1.8740620574440425 5.47191
1.8963639900671978 4.95239
1.9186833908139995 4.3628599999999995
1.9409854680117449 4.4802800000000005
1.9633050151394713 5.30755
1.9856246367570705 4.78216
2.0079269371922672 4.49677
2.03024671027244 4.7203800000000005
2.0525491637446027 4.52877
2.074869091674931 4.63394
2.097171701569106 4.5907599999999995
2.1194917877373847 4.83606
2.141811954326636 4.56195
2.164114805233074 4.81158
2.186435135143035 5.41635
2.208738150935709 8.38074
2.231058647554722 14.6499
2.2533792288321184 11.7039
2.275682498336085 6.67863
2.298003251406138 5.03228
2.3203066942619714 5.495
2.3426276225136022 5.76152
2.3649486396617507 5.0797
2.387252348930071 5.54265
2.4095735463442893 5.13427
2.4318774374315884 6.30305
2.4541988185014043 6.83016
2.476502894794693 7.3151399999999995
2.498824462909887 6.935039999999999
2.521146125856138 7.409680000000001
2.5434504863470337 7.45225
2.5657723414244717 7.82172
2.588076895590662 8.14546
2.610398946189713 8.68905
2.6327210958598384 8.55044
2.6550259469304716 8.08191
2.6773482972090137 8.03631
2.6996533504259 8.005289999999999
2.7219759047039602 8.57417
2.744298562293959 8.30942
2.7666039251246595 8.59946
2.7889267918020164 8.42757
2.8112323652516555 7.935460000000001
2.833555444408179 8.40108
2.8558786311183852 8.09545
2.8781845268938557 8.69063
2.9005079311721484 8.92228
2.9228140460410397 9.23049
2.9451376712799635 9.455860000000001
2.967444008632326 9.7169
2.9897678582247247 10.1385
3.0120918213106695 10.2044
3.0343984987899373 10.9195
3.0567226913198637 10.8997
3.079029599759726 11.9042
3.101354025127254 12.4711
3.123678568232338 13.0158
3.145985829517914 13.267999999999999
3.16831061055229 13.8257
3.1906181112775593 14.8032
3.212943133635653 15.5367
3.2352682779763207 14.8592
3.2575761442691227 14.8266
3.2799015350264273 15.4965
3.302209649240067 15.7973
3.3245352898092655 16.8244
3.3468436553365257 16.9504
3.369169549113219 17.7528
3.3914955708171384 18.2975
3.413804319727358 19.0387
3.4361305997334863 19.5537
3.4584396084414553 20.1
3.4807661501462652 20.271
3.503092824025881 20.5884
3.5254022288463154 20.9733
3.5477291695206588 21.3387
3.5700388426251948 21.9953
3.5923660534916446 23.3653
3.6146934007816114 29.5139
3.637003482731501 47.4807
3.6593311053109985 51.2182
3.681641464033634 36.2833
3.7039693653009733 26.3491
3.726297407241705 25.3835
3.7486081875460804 25.4997
3.7709365132734978 25.6564
3.793247578841633 26.4526
3.8155761917550093 26.4504
3.8378875459837216 26.7639
3.8602164494827234 27.3209
3.882545499606844 27.8564
3.9048572932539183 28.1324
3.9271866390645718 28.5624
3.9494987298666713 29.9189
3.971828374764527 30.0207
3.9941581705403255 30.4154
4.016470713506008 31.1986
4.038800813471445 32.2321
4.061113662089144 32.5236
4.0834440696459176 32.7182
4.105774632334751 33.2499
4.128087945865126 34.3815
4.150418821249301 34.8445
4.172732448931298 35.5495
4.195063640413578 36.6068
4.2173775856475215 38.5517
4.239709096631102 52.3791
4.262040768704612 114.21700000000001
4.284355196706267 144.045
4.306687193387355 102.321
4.329001947444346 56.4343
4.35133427213731 44.1641
4.373666762177566 42.6128
4.395982011761091 42.7595
4.418314834921175 44.5542
4.44063041906622 48.2904
4.4629635787515625 52.5491
4.4852969080429785 53.4024
4.5076130004776225 52.5846
4.529946671403969 57.1158
4.552263106909177 61.0531
4.574597122877047 57.8121
4.596931312711224 54.1658
4.619248269273446 53.7457
4.6415828092605835 54.341
4.663900117405352 55.474
4.686235010953232 57.1968
4.708552674085913 58.2341
4.730887924602802 59.2075
4.753223354952695 61.2842
4.775541557023902 65.2205
4.797877349456786 68.4081
4.820195915032126 68.7044
4.842532072957498 68.1041
4.864868414979744 70.8617
4.88718753227192 75.1767
4.909524244902505 76.8711
4.931843734218147 75.9218
4.954180820867835 77.4226
4.976518095879839 80.0433
4.998838149695359 83.1715
5.021175803844231 86.8985
5.043496238205739 89.6038
5.065834274903528 93.9387
5.088172504230693 98.8462
5.1104935158799565 105.068
5.132832132875765 124.995
5.155153533596801 155.644
5.1774925416746225 196.692
5.199814334878411 400.972
5.2221537374521505 1020.49
5.244493338631803 2879.68
5.266815727034316 7977.56
5.289155727832427 12419.7
5.311478517248165 8135.16
5.333818921080011 2465.92
5.356159527788849 481.05199999999996
5.3784829252032536 192.37599999999998
5.400823940070432 152.25
5.423147747031976 129.806
5.445489173474152 119.596
5.467830807066149 119.434
5.490155234831516 119.455
5.512497285125229 112.01899999999999
5.534822130975162 105.243
5.557164601388673 101.37700000000001
5.579489868738879 98.7802
5.601832762690846 97.8105
5.6241758697774475 96.4024
5.646501775867269 95.4996
5.668845311622074 94.6281
5.691171647754637 94.1171
5.713515615597765 92.7186
5.735859800852677 92.10799999999999
5.758186788542988 94.5374
5.780531411018185 98.3102
5.802858837297399 98.8329
5.825203900414495 97.8691
5.8475491852224 101.426
5.869877275883075 101.23700000000001
5.892223006467101 96.7432
5.914551544266608 94.3489
5.936897724049891 96.75
5.959244129804903 103.458
5.981573344815301 131.75
6.0039202049061 240.053
6.026249875609095 473.64300000000003
6.04859719346037 966.102
6.070927323278297 2263.41
6.093275102315365 4578.98
6.115623113320588 5253.51
6.137953938319995 3015.59
6.160302415650845 875.704
6.182633708324452 208.987
6.2049826554078376 106.49600000000001
6.227331838745022 89.3918
6.249663839443684 82.8392
6.27201349767565 79.6236
6.294345974611799 80.4989
6.316696111167083 83.3818
6.339046488263839 80.2955
6.361379686074702 73.6009
6.383730546639482 70.2669
6.406064229255215 69.4511
6.428415576718203 71.1121
6.450749747566656 69.6805
6.47310158535871 66.7083
6.495453669698332 64.9871
6.517788579421056 64.0931
6.540141159237969 62.9318
6.562476565766648 62.4497
6.5848296444934045 62.3385
6.607182974060425 62.5325
6.6295191323281015 62.3429
6.651872965955752 62.6938
6.6742096296068985 71.9149
6.6965639707294615 88.3573
6.71891856698715 86.4862
6.741255995248479 70.5169
6.763611104154477 61.005
6.785949046381137 58.6454
6.808304671371482 58.9744
6.8306605557940046 60.5611
6.852999275508618 59.6426
6.875355681171544 57.9766
6.897694923437771 56.195
6.92005185377892 55.8287
6.9423916220322655 55.5911
6.964749080490181 54.865
6.987106804399774 54.8606
7.009447368180821 55.7113
7.031805625367033 55.4555
7.054146723727803 54.985
7.076505517631004 54.4051
7.098864581288365 54.0147
7.121206488070854 54.1869
7.143566093607822 54.4016
7.165908543567245 55.5106
7.188268694426048 55.9035
7.2106291193438095 54.6864
7.232972390625943 54.3296
7.255333366030969 59.3766
7.277677189091925 78.6624
7.300038718428332 96.7506
7.322400526130865 87.4428
7.344745183422596 66.2569
7.367107550224791 56.2364
7.389452767901992 54.398
7.411815697249891 53.9695
7.434161478756298 53.5477
7.456524974096713 52.9302
7.478888753837185 53.056999999999995
7.501235387657368 53.7811
7.523599738562711 53.873000000000005
7.545946944825532 54.2686
7.568311870344528 54.4244
7.5906770845765665 54.7279
7.613025156078678 55.1427
7.635390950099687 55.6992
7.657739602662809 55.6779
7.680105979923558 55.5254
7.702472650212829 56.3659
7.724822180948224 56.1308
7.747189439655568 56.0497
7.769539560075357 55.6206
7.791907410653562 55.8139
7.81425812420825 55.9675
7.836626570110925 56.1453
7.858995315087906 56.8977
7.881346924933401 57.1883
7.903716270417482 57.5737
7.926068482028405 57.865
7.948438431475253 58.4704
7.9708086843180235 59.0085
7.993161805171116 59.8079
8.015532667162402 60.2511
8.037886398416653 61.3084
8.060257873014221 62.2428
8.082629655331942 62.8263
8.104984308787587 63.7083
8.127356708900503 65.9744
8.149711981398308 70.2657
8.172085002766314 72.5542
8.194458336181368 70.4687
8.216814543847752 68.7823
8.23918850371002 68.7193
8.26154533906492 69.4678
8.283919928836452 71.3804
8.306277395339652 72.0829
8.328652618483376 73.4105
8.351028159736202 75.77199999999999
8.373386579575245 78.1457
8.395762759396959 79.7963
8.418121819038275 82.9043
8.440498640894003 90.4921
8.462875785192262 102.07700000000001
8.485235811156207 126.70200000000001
8.507613602688501 177.326
8.529974277114228 257.661
8.552352719347912 381.969
8.574731488360351 658.313
8.59709314210385 1223.8
8.619472567021075 1946.72
8.64183487789147 2212.05
8.664214962183097 1727.7
8.686577933647762 838.1469999999999
8.708958680784317 312.524
8.731339760774953 146.108
8.753703729764451 106.19200000000001
8.77608547780821 96.855
8.798450116065078 93.5701
8.820832535634787 91.369
8.843215292401656 92.1945
8.865580941199045 92.3183
8.887964374703538 91.5632
8.910330701447199 91.6481
8.932714815164482 91.3556
8.955099270424924 88.9632
8.977466620733543 86.3219
8.999851761421976 84.8609
9.022219798361645 83.6415
9.04460562795561 83.2259
9.066991803441677 83.1358
9.089360876979615 83.56299999999999
9.111747746589993 83.3673
9.13411751544971 82.2162
9.156505082664324 81.5825
9.178875550323522 81.4963
9.20126381862328 81.3434
9.223652438908596 81.7045
9.246023961427412 81.6949
9.26841328802173 81.3529
9.290785518039224 81.8881
9.313175554425882 84.236
9.335565947154315 86.162
9.357939245086508 86.3572
9.380330352834827 85.5411
9.40270436697103 85.259
9.425096193225055 84.5112
9.447488380180165 84.7591
9.469863475295412 84.2587
9.492256385987508 84.389
9.514632206018318 84.816
9.537025843935714 85.1048
9.559402392368193 86.1896
9.581796761000229 89.1093
9.604191496441521 91.5289
9.626569144158516 94.0719
9.648964615551032 95.4807
9.671343000390081 94.6812
9.693739211225699 93.2689
9.716135793237463 92.256
9.738515290448102 92.6117
9.760912617143402 94.2519
9.783292860202891 97.1689
9.805690935076182 99.1997
9.828089385495742 99.7767
9.850470754023561 101.19200000000001
9.872869957865444 104.35799999999999
9.89525208097539 111.056
9.917652041736662 117.902
9.940052382417589 126.08200000000001
9.962435644102392 150.928
9.984836746950979 189.637
10.007220771957746 245.533
10.029622640473708 342.711
10.052007432299963 522.9780000000001
10.074410069984072 839.002
10.096813093716005 1319.96
10.119199042482517 1830.43
10.141602840636468 1987.34
10.163989564971628 1507.3
10.186394141051062 808.232
10.208799107559706 346.728
10.231187001965623 169.167
10.253592751657669 120.111
10.275981430388155 110.456
10.298387966769793 108.06700000000001
10.320794897965431 108.62799999999999
10.343184759907361 107.345
10.36559248305461 104.45700000000001
10.387983138083852 104.411
10.410391656691655 110.723
10.432800574501677 121.31700000000001
10.455192425893369 136.39700000000002
10.47760214443012 162.793
10.499994797678786 209.757
10.522405320453982 295.813
10.54479877906917 429.161
10.567210109595656 539.0930000000001
10.5896218454736 581.327
10.612016518879773 489.889
10.634429067781074 320.615
10.656824555333241 183.78799999999998
10.679237920773568 115.588
10.701651695961992 93.5391
10.724048411481384 87.8647
10.746463008485165 85.2921
10.768860546937125 84.1769
10.791275969274796 82.4692
10.81369180576079 81.29
10.836090585366925 80.2608
10.858507252467449 79.0369
10.88090686379991 78.0852
10.903324365036394 77.7084
10.925724811614439 77.0278
10.948143150509463 77.8584
10.970561909719066 77.5537
10.992963615930844 76.3822
11.015383218085756 74.7263
11.037785768347074 73.1833
11.06020621697282 72.3254
11.082627090322113 71.5506
11.105030913430326 70.8281
11.12745263854165 70.4518
11.149857314510728 71.3131
11.172279894912576 73.66199999999999
11.194702904450653 73.1415
11.217108866490921 71.3043
11.239532736615194 69.5372
11.26193956033512 68.2483
11.284364294577085 67.5873
11.306789462371718 66.8572
11.329197585398376 66.4556
11.351623622610898 66.2896
11.37403261614354 65.6712
11.396459526308487 65.4114
11.418869393879497 64.9924
11.441297180532617 64.4548
11.463725406927658 64.0025
11.486136592353875 63.7048
11.508565700543707 63.8253
11.530977768845315 64.7545
11.553407762368774 64.8585
11.575838200059769 64.6044
11.598251599479612 63.6106
11.620682927815501 62.835
11.64309721895548 62.7575
11.665529441478206 62.3047
11.687962112597958 62.2241
11.710377748130886 62.382
11.732811318753434 62.4048
11.755227854859067 62.0659
11.777662328529495 62.0158
11.800079768750786 62.1072
11.822515149015453 62.1705
11.844950984084935 62.5282
11.867369787303163 61.9781
11.889806534289491 62.0341
11.912226250487029 61.9543
11.934663912939751 62.1583
11.9571020346363 62.5245
11.979523127133968 62.6433
12.001962169624331 63.9997
12.024384183972964 65.5461
12.046824150809913 68.335
12.069264581333726 72.1745
12.091687985297767 77.874
12.11412934550045 87.0702
12.136553680195208 103.194
12.158995973632788 129.056
12.181438735204349 161.06
12.20386447284199 194.78900000000002
12.226308172985636 215.655
12.24873485024193 202.957
12.271179492516982 162.881
12.293607112949127 117.206
12.316052700916226 86.3928
12.338498763250042 71.6167
12.360927805303868 66.3805
12.383374818673879 64.1682
12.405804812803074 63.19
12.428252780773262 63.1479
12.45070122756722 63.4066
12.473132656675375 63.552
12.49558206341869 63.8907
12.518014453510101 63.9986
12.540464823770117 64.5747
12.562915677315177 64.3439
12.58534951575545 64.6708
12.607801338171472 65.524
12.630236146511358 67.6781
12.652688941369085 69.567
12.675124723177234 69.5542
12.697578494048786 68.9013
12.720032754458185 67.4796
12.742470003354093 67.0153
12.764925245138771 67.0855
12.787363476431278 67.4108
12.809819703166806 67.6949
12.83227642391173 68.5086
12.854716135692716 69.3743
12.877173846755147 70.6307
12.899614549869717 70.904
12.9220732548287 72.0593
12.94453245827299 72.5145
12.966974655289818 73.2728
12.989434858002571 74.1658
13.011878055298721 74.6261
13.034339260862497 75.4549
13.056800969391883 76.9481
13.079245674017244 79.972
13.101708390774869 84.0438
13.12415410463411 92.3887
13.146617833206086 101.46700000000001
13.169064559883248 111.171
13.191529303857127 125.571
13.213994557076367 149.328
13.236442809902437 189.095
13.258909083908291 249.209
13.28135835851934 315.212
13.30382565690295 393.985
13.326293469022952 426.76099999999997
13.348744283242008 412.404
13.371213125129904 331.31800000000004
13.39366497011003 233.99200000000002
13.416134845360597 156.467
13.438605238843131 117.529
13.46105863690397 105.24
13.483530069144786 105.802
13.505984506951902 110.196
13.528456981549432 120.164
13.550929978879088 135.341
13.573385983253365 161.899
13.595860028340867 201.701
13.618317081455832 259.031
13.64079217790333 316.884
13.663250283359057 366.074
13.685726434770173 376.93300000000005
13.708203115221277 327.704
13.730662806148091 245.27599999999998
13.75314054697177 169.627
13.775601299246777 118.318
13.798080104050406 93.1333
13.820559442405358 83.8149
13.843021793671388 80.6908
13.865502201420897 79.1759
13.887965623051947 78.9282
13.910447103807167 77.6603
13.932929122629764 76.6308
13.955394156785959 76.4166
13.977877254034569 75.0942
14.000343367582113 74.1746
14.022827546871707 73.6579
14.045294743423524 73.0488
14.06778000837062 72.4715
14.090265817715476 72.3403
14.112734645763819 71.6684
14.13522154619454 71.3191
14.157691466286913 71.2105
14.180179461423874 70.7586
14.202668005486178 70.369
14.22513957064374 69.9636
14.247629214846473 69.6099
14.270101881097517 69.5438
14.29259262906496 69.265
14.315083930490205 69.5823
14.337558255389705 69.6153
14.360050666019726 69.5403
14.382526101071944 69.0006
14.405019624534942 68.6194
14.427513705993134 68.2453
14.449990813291825 68.388
14.47248601302899 68.295
14.49496423954951 68.182
14.517460561197822 68.2422
14.539939910570322 67.9607
14.562437357763558 68.3922
14.58493536931253 69.0301
14.607416409993311 69.2074
14.62991555254159 69.5359
14.652397725157423 69.7822
14.674898002342799 69.9815
14.697398848433282 70.00399999999999
14.719882725991326 71.2971
14.74238471217934 73.2431
14.764869730765593 76.5246
14.787372860692983 79.0988
14.809876564079925 83.0608
14.83236330125751 88.5211
14.854868153850365 97.4717
14.877356041159485 112.1
14.899862046604186 132.89700000000002
14.922351087688757 160.27100000000002
14.944858249632887 189.97799999999998
14.967365991421232 218.53900000000002
14.989856770231246 229.27599999999998
15.012365673994204 218.93400000000003
15.03485761569738 187.00099999999998
15.05736768508665 140.269
15.07987833888692 107.405
15.102372032001655 85.7782
15.124883856909658 74.8126
15.14737872204565 71.3551
15.169891721717274 69.7179
15.192405310371893 69.4694
15.214901940621196 69.2603
15.237416709527137 68.872
15.259914520936249 68.7281
15.282430473753607 67.9007
15.304947020131227 67.3869
15.327446610371178 66.8386
15.349964346154254 66.4021
15.372465126703139 66.1447
15.394984055556009 65.7121
15.417486030076159 65.5754
15.44000615566487 65.2702
15.462526881230803 65.1249
15.485030653812652 65.2071
15.507552581617434 65.0567
15.530057557334603 65.1198
15.55258069104857 65.2502
15.575104429329837 65.4533
15.597611216864632 65.2999
15.620136166564563 65.9342
15.6426441664095 67.8577
15.665170331202765 69.773
15.687697105158826 72.1956
15.710206930593545 75.5282
15.732734925158933 79.5543
15.755245972089478 85.9943
15.77777519094324 95.3747
15.800287463046663 109.48899999999999
15.822817909869592 129.812
15.84534897229804 153.463
15.867863089299354 177.614
15.890395385222186 194.91400000000002
15.912910736597423 197.38
15.935444269699861 179.375
15.957978423016485 146.144
15.980495633101265 112.836
16.003031029129367 88.4234
16.02554948280019 72.2977
16.048086125229432 65.5708
16.070623392487107 63.1625
16.09314371869582 62.3173
16.11568223789321 61.568000000000005
16.13820381691126 60.8413
16.160743591742527 60.1335
16.183283996022084 59.5528
16.205807461423195 58.8955
16.228349126881973 58.0588
16.25087385432698 58.1983
16.27341678466365 57.7272
16.29594277784926 57.2929
16.31848697676433 57.0611
16.341031811604868 56.9175
16.36355971058487 56.9268
16.3861058195587 57.0618
16.40863499352978 56.2505
16.431182380342005 55.5742
16.453730407713202 55.2776
16.476261501364792 55.082
16.498810812136167 54.9432
16.52134319004079 54.9201
16.54389378792203 54.8708
16.566445031001553 54.407
16.588979342490088 54.6129
16.61153187824822 54.4218
16.634067483263312 54.3852
16.656621315414416 54.155
16.679175797408888 53.8052
16.701713349928728 53.9787
16.72426913389191 54.0711
16.74680798922351 54.1511
16.76936507887444 53.9797
16.791905240734874 54.1349
16.814463639794468 53.8229
16.837022695210294 54.0668
16.859564824093756 54.2008
16.882125194503903 54.6349
16.904668639217885 55.073
16.927230328348003 54.9785
16.949792678493612 55.2244
16.972338104193863 55.0808
16.994901778652235 54.8113
17.017448529496576 54.9235
17.040013531998152 55.5202
17.06257920018044 55.9417
17.0851279459922 56.7179
17.107694947817667 57.3263
17.130245028099072 58.1776
17.15281336730298 59.5456
17.17536478578733 61.2743
17.19793446610687 63.5595
17.220504818648422 66.9259
17.243058251703697 70.631
17.265629950971032 75.1836
17.288184731571736 80.3339
17.310757781306908 83.8825
17.33333150794385 83.7478
17.355888317140174 80.5879
17.37846339986244 74.8385
17.401021565958885 68.5606
17.42359800851343 63.2957
17.44617513265564 60.7969
17.468735341390783 59.2996
17.491261035594565 58.5106
17.51396340099364 58.224
17.536490463869136 58.5104
17.559018209820174 58.5747
17.58154663977963 58.4441
17.604251766089718 58.8058
17.626781572227713 59.0696
17.64931206518155 59.1159
17.671843245885103 59.6504
17.69455114821572 59.911
17.717083712612634 60.1131
17.739616967569667 60.3587
17.762150914021706 60.6183
17.78486160749854 60.9518
17.807396945166804 61.7214
17.829932977143503 63.3824
17.85246970436452 64.8078
17.875183204129467 66.2556
17.897721330097664 67.7807
17.920260154126645 70.0371
17.942799677153296 73.2976
17.9655159983646 77.1309
17.988056927677544 83.0123
18.010598558807683 91.3096
18.033140892692916 101.931
18.05586005052525 113.734
18.07840379824407 125.917
18.10094825154059 136.036
18.12366954819864 141.457
18.146215420998306 137.829
18.16876200220057 126.63799999999999
18.191309292745153 111.865
18.214033452627167 98.73299999999999
18.236582170236648 88.6249
18.259131600016456 84.8371
18.281681742907335 86.105
18.304408781233683 91.0401
18.32696035875955 96.7467
18.349512652227624 101.626
18.372065662579683 105.446
18.394795594587553 105.353
18.41735004715306 100.059
18.43990521943684 91.9299
18.46246111238171 82.3603
18.485193953325208 74.0085
18.507751296070428 67.6421
18.530309362314178 64.3569
18.552868153000343 62.3564
18.57560391815056 61.3211
18.59816416623245 61.0184
18.620725141597372 60.2921
18.643286845190268 59.8456
18.666025549835414 59.4916
18.688588718427933 59.0875
18.711152618092243 58.8566
18.73389353884365 58.6868
18.75645890921984 58.3493
18.77902501351406 57.9421
18.801591852673102 57.898999999999994
18.824335739722738 57.4714
18.846904057212626 57.2951
18.8694731124168 57.128
18.89204290628315 57.0241
18.914789774966803 56.7529
18.937361054791623 56.5866
18.959933076131318 56.3009
18.982505839934877 56.1153
19.00525570560582 56.483000000000004
19.027829963004184 56.1942
19.05040496572238 56.4435
19.072980714710468 56.6558
19.095733592739563 56.5814
19.11831084296757 56.7496
19.140888842324735 57.0057
19.16346759176222 57.1468
19.18622349753803 57.8848
19.208803755869358 58.6346
19.231384767143577 59.8719
19.253966532312948 61.8234
19.276725481241822 64.0637
19.29930876296784 66.8475
19.3218928014549 69.6309
19.34465404436217 72.4992
19.36723960516257 75.5032
19.389825925592426 75.572
19.412413006605938 74.1929
19.43517731967805 69.6952
19.457765930683355 65.235
19.48035530514408 60.7675
19.50294544401556 57.7934
19.525712842708348 55.4804
19.54830451925909 54.2995
19.570896963095727 53.6155
19.593490175174704 53.3696
19.616260674962184 53.3162
19.638855432416964 52.9268
19.661450960992624 53.0677
19.68404726164677 52.9692
19.706820878021247 52.7004
19.729418731756834 53.0025
19.752017360452857 52.8542
19.77461676506804 53.1483
19.797393513540218 53.2679
19.819994478951667 53.5935
19.84259622316767 53.8644
19.8651987471481 54.2093
19.887978643247177 54.3071
19.91058273574792 54.8497
19.933187610901943 55.8195
19.955969879466828 57.0952
19.97857632894404 58.5467
20.00118356396599 60.5397
20.023791585494575 62.8057
20.046577028914875 65.5521
20.069186632506966 67.9364
20.091797025500632 69.6281
20.114408208858933 69.7881
20.137196842715273 69.1189
20.159809615886765 66.8981
20.18242318232135 64.2382
20.20503754298326 62.1711
20.227829382875154 61.3608
20.250445341109344 61.7167
20.27306209647285 62.8107
20.29567964993108 64.042
20.31847471147704 64.7752
20.34109387027612 65.3215
20.363713830075454 64.3897
20.386334591841646 62.3559
20.409132890679302 59.9294
20.431755265564437 56.6364
20.454378445325528 53.8989
20.477002430930366 52.3951
20.499803982716553 51.3715
20.522429589228004 50.2819
20.54505600449589 50.1038
20.567683229489194 49.865
20.590488049900088 49.7492
20.61311690359731 49.5546
20.63574656993626 49.3749
20.658553853717297 49.0749
20.681185154618298 49.0509
20.703817271080066 48.9617
20.72645020407368 48.5847
20.749260783967177 48.3542
20.771895359337133 48.4455
20.794530754161617 48.4073
20.817166969412938 48.3398
20.83998086114876 48.2537
20.86261872660049 48.2972
20.885257415405402 48.2557
20.90789692853701 48.2203
20.930714147864748 48.1845
20.953355319030678 48.216
20.97599731745334 48.2001
20.99864014410749 48.153
21.021460706796564 48.2016
21.044105199328826 48.324
21.06675052302631 48.5162
21.089396678865015 48.6895
21.112220600704806 49.1068
21.134868430275347 49.4383
21.15751709492456 49.7968
21.180166595629693 50.0135
21.202993892429635 50.599
21.22564507473034 50.851000000000006
21.24829709602816 51.0709
21.27112693608965 51.0256
21.293780644891275 50.9644
21.316435195634053 50.108000000000004
21.339090589297417 49.4933
21.361923832041875 48.8277
21.384580921090404 48.3141
21.407238856007325 47.7625
21.429897637773326 47.964
21.45273429906592 47.8932
21.475394784108598 47.9331
21.498056118951983 47.8422
21.520718304578022 48.1225
21.543558400304388 48.29
21.566222297108816 48.5155
21.58888704765135 48.5731
21.61155265291521 48.867
21.63439619898156 49.3475
21.657063523335786 49.4521
21.67973170537063 50.0298
21.7024007460706 50.477
21.72524775840385 51.173
21.747918526116475 52.4059
21.770590155457388 53.5904
21.79326264741238 55.297
21.816113141960237 57.375
21.838787368860547 59.1941
21.861462461341976 61.0919
21.884315579735777 63.1541
21.90699241312273 63.8422
21.92967011506078 64.1913
21.95234868653799 63.3945
21.9752053151131 61.6423
21.997885635446785 59.828
22.020566828293532 57.9686
22.04324889464272 56.6176
22.066109049404666 55.8289
22.088792872571794 55.5684
22.111477572219204 55.7366
22.1341631493376 55.8609
22.157026846313123 55.361000000000004
22.179714188221507 54.5839
22.202402410582668 53.3743
22.22509151438863 51.7493
22.24795876962584 50.5451
22.270649646204486 49.6417
22.293341407213727 49.0801
22.316034053646906 48.7772
22.338904883215342 48.5793
22.36159931041458 48.4844
22.38429462602756 48.2919
22.40699083104897 48.278999999999996
22.429865251039757 48.2755
22.452563244831367 48.2933
22.47526213102522 48.0755
22.49813925616515 48.1304
22.520839937143307 48.1445
22.543541513520587 48.1711
22.56624398629403 48.025
22.589124730075895 48.0193
22.611829005656723 48.2826
22.63453418063466 48.2757
22.657240256008077 48.4188
22.680124634582935 48.5604
22.70283252079775 48.9487
22.725541310413075 49.0751
22.74825100442868 49.2422
22.771139033969575 49.6823
22.79385054687155 50.0838
22.81656296718292 50.791000000000004
22.83927629590484 51.7466
22.862167992606945 52.8456
22.88488314827121 53.8799
22.907599215359284 55.1217
22.93031619487366 56.101000000000006
22.953211574954405 57.034
22.975930389478226 57.443999999999996
22.998650119445763 57.6245
23.02137076586092 56.4477
23.044269845560063 55.1766
23.06699233506288 53.4718
23.089715744034912 51.5208
23.112617610931565 50.1144
23.135342869061212 49.0468
23.158069049684816 48.5142
23.1807961538087 48.1282
23.20370174880544 48.2693
23.226430710184808 48.3829
23.249160598093425 48.4061
23.271891413539002 48.2215
23.294800752937697 48.3704
23.31753343374794 48.7054
23.340267045128353 48.5957
23.36300158808808 48.9651
23.38591468821339 49.2447
23.408651104658304 49.8391
23.431388455719986 50.5605
23.454126742409 51.4328
23.4770436196085 52.5045
23.499783787914662 53.8071
23.522524894889884 54.7532
23.54526694154616 56.0567
23.56818761219047 56.9777
23.59093154860734 57.5271
23.613676427751283 57.3733
23.636422250635754 56.1307
23.659346731118656 54.3266
23.68209445191868 52.2292
23.704843119509587 50.2181
23.72759273490623 48.8002
23.750521041644767 47.4359
23.77327256312355 46.5158
23.796025035462787 46.023999999999994
23.818956224555475 45.6585
23.841710609113413 45.4698
23.86446594758979 45.3006
23.887222241002014 45.0193
23.910157285144578 44.757
23.932915498962537 44.6893
23.955674670778713 44.5676
23.978434801611975 44.4832
24.001373717286125 44.1506
24.024135776723917 44.1003
24.046898798245582 43.9532
24.06966278287146 43.9206
24.092605586582614 43.6757
24.115371508023642 43.601000000000006
24.1381383956401 43.3923
24.16090625045381 43.372
24.183852958731244 43.4061
24.206622758582608 43.3996
24.229393528706886 43.1065
24.252165270127392 43.3171
24.27511589952438 43.1538
24.297889594216997 42.9683
24.32066426328598 42.89
24.34343990775613 42.8877
24.36639447485003 42.8096
24.38917208083877 42.6973
24.41195066531332 42.416000000000004
24.43490819850244 42.6668
24.457688750692377 42.4873
24.48047028445616 42.6533
24.503252800821233 42.6813
24.526214300784112 42.6749
24.548998793132213 42.7961
24.57178427117417 42.6156
24.59457073593893 42.4972
24.617536219319863 42.5867
24.64032466834748 42.536
24.663114107195035 42.2956
24.685904536893013 42.125
24.708874020360852 41.8634
24.731666442613744 42.0126
24.754459858818787 41.8714
24.777254270007962 41.9235
24.80022777025625 41.9029
24.82302418230472 41.7864
24.845821592443674 41.7971
24.86862000170663 41.8088
24.891597535453727 41.5421
24.914397953892728 41.8823
24.93719937456671 41.8198
24.96000179851076 42.0022
24.98298338249997 42.198
25.00578782394922 42.3246
25.028593271784167 42.4248
25.05157790644186 42.8088
25.07438537804115 42.895
25.097193859145293 43.0601
25.120003350792075 43.4729
25.142992065061257 43.7604
25.165803588823465 44.0119
25.18861612625217 44.2536
25.211429678386736 44.2287
25.234422489079968 44.2808
25.257238081693636 44.236000000000004
25.280054692141732 44.3715
25.3028723214652 44.3619
25.325869245420463 44.5278
25.348688923599397 44.4579
25.371509623787006 44.3807
25.394331347025812 43.926
25.41733240110666 43.6779
25.440156181590016 42.8461
25.46298098826268 42.1259
25.48580682216873 41.6694
25.50881202326435 41.3362
25.53163992281684 40.9289
25.55446885274561 40.5779
25.577298814096377 40.3518
25.600308179121807 40.4623
25.623140214533745 40.3416
25.64597328451537 40.3002
25.66898578564376 40.1261
25.691820936010206 40.1621
25.714657124097695 40.1014
25.737494350954734 40.172
25.760511045684957 40.0063
25.783350361364224 40.122
25.806190718969255 40.1156
25.82903211955018 40.1599
25.852053024868923 40.207
25.874896522722523 40.2451
25.897741066713106 40.0439
25.920586657892454 40.3132
25.943611790812668 40.4798
25.966459487728237 40.6274
25.989308234998564 40.6752
26.01215803367705 41.0623
26.03518741123814 41.286
26.05803932412957 41.2989
26.080892291600094 41.1786
26.10374631470478 41.1756
26.12677995397268 41.3426
26.14963609978026 41.2602
26.172493304397875 40.8058
26.19535156888223 40.5951
26.218389486949604 40.4016
26.241249882640123 39.9489
26.26411134137826 39.7438
26.28715248187403 39.8471
26.31001607820869 39.5727
26.3328807407756 39.5537
26.35574647063438 39.6941
26.37879191991473 39.696
26.401659795896734 39.7073
26.424528742360263 39.7601
26.447398760366614 39.9603
26.470448535598294 40.0411
26.49332070826805 40.3096
26.516193955675355 40.73
26.53906827888316 40.9008
26.562122397260108 41.0591
26.584998883685063 41.402
26.607876449110325 41.721000000000004
26.63075509460056 41.6605
26.65381357334404 41.7692
26.67669439061878 41.7652
26.699576291163382 41.699
26.722459276044212 41.5242
26.745522132402975 41.1692
26.768407297649354 40.9316
26.791293550442003 40.5968
26.814180891848974 40.2984
26.837248143099337 40.0437
26.860137673466657 39.8806
26.88302829566349 39.695
26.90592001075963 39.4794
26.92899167420566 39.4845
26.951885586870763 39.128
26.974780595655517 38.8296
26.99785558178161 38.6606
27.020752794605112 38.611999999999995
27.043651106772522 38.4913
27.06655051935668 38.4402
27.089629948036183 38.325
27.112531573292053 38.3196
27.135434302194138 38.2802
27.158338135817015 38.1517
27.181422024430987 38.1883
27.204328079372566 38.1188
27.22723524226965 38.2378
27.250143514198573 38.2099
27.273231880156334 38.23
27.296142382065014 38.0356
27.319053996245536 37.9862
27.341966723775965 37.9602
27.365059584515222 38.0702
27.38797455070062 38.0818
27.410890633481237 38.0906
27.433807833936918 38.0091
27.456905206923906 38.1687
27.47982465472398 38.1296
27.502745223449743 38.2008
27.525666914182825 38.2814
27.548768816912457 38.2076
27.571692763693633 38.0326
27.59461783573812 38.02
27.617723149491244 37.765
27.640650484125285 37.7493
27.66357894728264 37.6237
27.686508540048052 37.6502
27.709618414237887 37.621
27.732550278321757 37.4705
27.755483275279115 37.4101
27.778417406196485 37.4767
27.801531858397514 37.5039
27.824468269376716 37.382
27.847405817586786 37.4069
27.870344504116094 37.7208
27.893463551932008 37.7364
27.916404527281053 37.9468
27.93934664422563 37.9942
27.962289903855886 38.0645
27.98541356491974 38.2766
28.00835912214229 38.4577
28.03130582533231 38.6621
28.054253675581805 38.8501
28.077381967556104 38.5307
28.100332124185126 38.5848
28.123283431160893 38.4665
28.146235889577238 38.3561
28.169368830154156 38.1396
28.192323603752033 37.9227
28.215279532083304 37.6755
28.238415973016764 37.4123
28.261374223145094 37.4642
28.284333631303806 37.1409
28.307294198589954 36.9845
28.330435319167677 36.593
28.353398217078915 36.341
28.376362277420153 36.2578
28.39932750129032 36.1147
28.422473319286713 35.9667
28.44544088262495 35.9698
28.468409612800283 35.8282
28.491379510913497 35.6345
28.51453004413313 35.5393
28.53750229057244 35.5298
28.56047570826344 35.3585
28.583450298308804 35.418
28.606605564586562 35.211999999999996
28.629582511831156 35.2986
28.65256063474956 35.2458
28.675539934446338 35.2314
28.698699951647605 35.2074
28.72168161743193 35.0293
28.74466446331978 35.1962
28.767648490417624 35.1547
28.790813276438353 35.0304
28.813799678527303 35.0712
28.836787265157085 35.13
28.859955641890075 35.113
28.882945610203045 34.995
28.905936766392035 34.9627
28.928929111566863 34.9931
28.952102288520145 34.818000000000005
28.975097024308607 34.7708
28.998092952423807 34.6703
29.021090073977508 34.4825
29.04426806913204 34.3848
29.067267590245258 34.3473
29.090268308143695 34.1705
29.11327022394099 34.1871
29.13645305530891 34.096
29.159457379627167 34.0638
29.18246290519685 33.8978
29.20546963313352 33.9723
29.22865731875826 33.9326
29.25166646419296 33.9395
29.27467681535305 33.8269
29.29768837335608 34.0146
29.320880931312562 33.986
29.34389491580634 33.8485
29.366910110507334 33.7606
29.38992651653503 33.8618
29.41312396492981 33.8224
29.436142806456754 33.7366
29.45916286268059 33.5471
29.48236399319994 33.5205
29.50538649169417 33.4031
29.528410208259935 33.2664
29.55143514402014 33.0781
29.574641196749695 33.1026
29.597668583816574 32.9888
29.6206971934585 32.7689
29.64372702680042 32.8104
29.666938019934474 32.719
29.689970313635285 32.7389
29.713003834422636 32.6089
29.73603858342347 32.6506
29.759254535188578 32.505
29.78229175361658 32.4114
29.80533020365064 32.4828
29.82836988641968 32.4601
29.85159081507472 32.4734
29.874632976355343 32.3856
29.89767637376955 32.3868
29.920721008448314 32.1547
29.9439469322847 32.2645
29.96699405457564 32.2092
29.9900424175358 32.1817
30.013092022298157 32.083
30.03632295963995 32.116
30.059375061131373 32.1458
30.08242840783577 32.1786
30.105483000888153 32.194
30.128718970092244 32.1172
30.151776069006917 32.0547
30.17483441768648 32.0847
30.198074175317235 32.0719
30.221135036724256 32.1184
30.24419715131772 32.0034
30.267260520236203 31.9044
30.290505341942243 31.9453
30.313571232750228 31.9179
30.336638381310948 31.9848
30.35970678876503 31.9492
30.38295669299435 31.8057
30.40602763151657 31.8388
30.429099832366074 31.8791
30.452173296685572 31.7894
30.47542830191959 31.6172
30.498504306502497 31.6446
30.521581577995562 31.8054
30.544660117543582 31.9472
30.56792024229725 31.8189
30.59100133132069 31.8548
30.614083691845494 31.8146
30.637167325018545 31.8942
30.660432587840603 31.9638
30.683518779717886 31.9414
30.70660624769615 31.9267
30.729694992924372 31.8962
30.75296541239743 31.8615
30.77605672557558 31.8073
30.799149319462742 31.7248
30.8224236211637 31.5372
30.845518789950724 31.4739
30.868615242910597 31.5256
30.891712981195973 31.2919
30.91499247215866 31.3219
30.938092794619365 31.1633
30.96119440587579 31.182
30.984297307082752 31.1033
31.00758200598383 30.988000000000003
31.030687500658694 30.8367
31.053794288760695 30.7881
31.076902371446767 30.6682
31.100192296997445 30.7484
31.12330298246119 30.7394
31.14641496599209 30.6872
31.169528248749216 30.7226
31.19282341969534 30.6494
31.215939314557186 30.5703
31.239056512134788 30.5843
31.262175013589378 30.5895
31.28547544871168 30.511
31.30859657161541 30.5597
31.331719001892175 30.6263
31.35484274070538 30.5272
31.378148458819545 30.5781
31.401274828443725 30.599
31.424402510106933 30.5949
31.447712205419993 30.6479
31.470842524931633 30.5138
31.493974159989783 30.5803
31.51710711176168 30.5619
31.54042212308802 30.54
31.563557722100917 30.4455
31.586694641341655 30.3347
31.609832881979628 30.1669
31.63315322823208 30.0774
31.656294125521327 29.9654
31.679436347728515 29.9815
31.70257989602529 29.8745
31.725905596152327 29.9399
31.74905181052835 29.9676
31.772199354521323 29.8802
31.79534822930507 29.9083
31.818679302290967 29.908
31.84183085259981 29.9314
31.864983737233473 29.8215
31.88813795736804 29.9328
31.911474422233013 29.7837
31.934631327356435 29.8107
31.9577895715215 29.8161
31.980949155906522 29.801
32.004291031706956 29.7198
32.027453310562606 29.5894
32.05061693318573 29.4278
32.07396288236386 29.3979
32.09712920658542 29.3583
32.12029687812702 29.2313
32.14346589817093 29.2702
32.166817291729984 29.2018
32.18998902288583 29.1367
32.21316210610336 29.0791
32.23633654256711 28.8539
32.259693399663725 28.9747
32.282870556771144 28.8343
32.30604907069099 28.7993
32.329228942610065 28.8193
32.35259128243769 28.6915
32.375773884550505 28.664
32.398957848235646 28.6792
32.422143174682176 28.5796
32.445511016471215 28.4813
32.468699082679954 28.4055
32.49188851523011 28.3184
32.51507931531304 28.377
32.538452678331 28.4089
32.56164622776311 28.2397
32.58484114831493 28.1534
32.60803744118015 28.1818
32.631416344731896 28.2249
32.654615396551876 28.1832
32.67781582427913 28.1778
32.701198898634416 28.1217
32.72440209253756 28.0371
32.747606665947124 27.9903
32.77081262006088 27.8818
32.79420126883317 27.9119
32.81740999876112 27.9055
32.840620112999424 27.7812
32.86383161274818 27.8268
32.88722585534586 27.7869
32.91044014056596 27.8198
32.933655814909734 27.6852
32.95687287957963 27.6496
32.98027273544904 27.5639
33.00349259526636 27.5434
33.026713849030116 27.5782
33.04993649794511 27.5957
33.073341986570746 27.5494
33.09656744032826 27.4941
33.11979429286444 27.4722
33.14302254538647 27.4607
33.166433686291185 27.475
33.18966475336992 27.3662
33.212897224069096 27.3212
33.23613109959831 27.3445
33.259547912343415 27.2843
33.2827846121627 27.2989
33.306022720453775 27.2117
33.32926223842861 27.1583
33.352684742614166 27.1451
33.37592709463173 27.1146
33.399170859982064 26.9582
33.422597648419426 26.9335
33.44584425514446 26.7792
33.46909227885668 26.8511
33.4923417207723 26.7722
33.51577423505344 26.7111
33.539026528130385 26.605999999999998
33.56228024307245 26.6104
33.585535381098246 26.4953
33.60897364093058 26.5223
33.63223163992385 26.5022
33.6554910656699 26.4787
33.678751919389796 26.4302
33.702195944520106 26.366
33.72545966903325 26.3214
33.74872482519663 26.195999999999998
33.771991414233746 26.1568
33.79544122444841 26.2511
33.81871069412428 26.105
33.84198160035767 26.108
33.86525394437455 26.1309
33.88870955949969 26.0271
33.911984794020626 26.0501
33.93526147001624 26.0174
33.958539588715006 25.8968
33.98200102861669 25.8423
34.0052820477047 25.8243
34.02856451319451 25.8215
34.05203033759056 25.7337
34.07531571090147 25.8005
34.09860253431845 25.7713
34.121890809074316 25.6988
34.145362493118924 25.5988
34.16865368561615 25.5722
34.191946333164054 25.5358
34.21524043699793 25.5361
34.23871800066799 25.5074
34.26201503218366 25.2984
34.28531352370466 25.3706
34.30861347646881 25.2463
34.33209693978188 25.2909
34.3553998301885 25.2735
34.378704185565205 25.2052
34.402010007152356 25.1457
34.42549939016683 25.185
34.44880815937748 25.0345
34.472118398533134 24.9807
34.49543010887669 24.9592
34.51892543169198 24.8989
34.54224009966052 24.9127
34.56555624255917 24.8856
34.58887386163339 24.8044
34.61237514439016 24.7739
34.6356957311114 24.7458
34.65901779775809 24.6988
34.68252356662995 24.6383
34.705848608458616 24.6577
34.72917513396849 24.6553
34.75250314440949 24.537
34.77601490857862 24.5453
34.799345904259795 24.4555
34.82267838863559 24.433000000000003
34.846012362958525 24.3351
34.869530142679984 24.3704
34.89286711232212 24.3482
34.91620557568269 24.2663
34.93954553401677 24.3436
34.9630693495876 24.218000000000004
34.986412313340814 24.2579
35.00975677584668 24.2414
35.033102738362956 24.1195
35.05663261012228 24.0767
35.0799815881786 24.1446
35.10333207003229 24.094
35.12668405694369 24.0761
35.150220005273056 24.0314
35.17357501786656 24.0014
35.19693153931268 23.9744
35.220289570874385 23.951999999999998
35.24383161619786 23.9191
35.267192683604904 23.9096
35.290555264930376 23.8695
35.314101899412165 23.8246
35.33746752422433 23.8456
35.36083466676374 23.8544
35.38420332829803 23.7345
35.407756095629054 23.7319
35.43112781085063 23.7755
35.45450104888391 23.7644
35.477875810999194 23.732
35.50143473172161 23.6052
35.52481255774625 23.6591
35.54819191167777 23.5848
35.57157279478914 23.5582
35.595137889488406 23.5512
35.61852184675279 23.4702
35.641907337029984 23.3968
35.665294361595684 23.3288
35.68886565090076 23.3726
35.7122557598848 23.3292
35.73564740699838 23.2921
35.759040593519934 23.1636
35.78261809810353 23.1639
35.80601437933051 23.1158
35.829412203814705 23.1371
35.85281157283719 23.0283
35.876395313415884 22.9723
35.8997977874528 22.9711
35.92320180988546 22.9471
35.946790244133936 22.9067
35.97019737933222 22.9598
35.993606066789866 22.8227
36.01701630779276 22.7891
36.04061101440684 22.7165
36.06402437852291 22.7889
36.08743930005611 22.8019
36.1108557802951 22.6637
36.13445678011326 22.6306
36.15787639383515 22.5878
36.18129757014299 22.6029
36.20472031032821 22.4746
36.22832762423364 22.3903
36.25175350829375 22.4636
36.275180960119776 22.3236
36.298609981005924 22.3585
36.32222362992669 22.3915
36.34565580510207 22.3863
36.36908955323448 22.3591
36.39252487562093 22.2369
36.416144880530226 22.2705
36.43958336764275 22.2965
36.463023432914625 22.2742
36.486465077645676 22.123
36.51009145956204 22.1926
36.53353627947859 22.1362
36.55698268276811 22.129
36.58043067073321 22.1158
36.60406345072071 21.9198
36.62751462435344 21.976999999999997
36.65096738658405 22.0084
36.67460498210655 21.9301
36.69806093788647 21.8794
36.72151848619297 21.8272
36.744977628333636 21.8091
36.76862165890998 21.7606
36.79208400512205 21.7663
36.81554794910557 21.7171
36.83901349217101 21.6052
36.862663978991606 21.6206
36.88613273667352 21.4743
36.90960309738324 21.5236
36.933075062434064 21.5012
36.95673202673572 21.5395
36.98020721697122 21.5193
37.003684015502365 21.3813
37.027162423645365 21.3789
37.050825886711465 21.294
37.07430753063053 21.3129
37.09779078812467 21.28
37.121275660513014 21.2544
37.144945643673694 21.183000000000003
37.16843376245278 21.1672
37.19192350009803 21.1091
37.215414857931435 21.1636
37.239091382563885 21.1077
37.262585997426164 21.0096
37.28608223645736 20.9931
37.309763684451696 20.9407
37.33326318851098 20.9703
37.356764320726555 20.9075
37.380267082425526 20.9791
37.40395510942588 20.8672
37.42746114683234 20.8109
37.45096881771841 20.8211
37.474478123414166 20.8
37.49817275092816 20.6882
37.52168534303452 20.6936
37.54519957395567 20.6664
37.568715445024665 20.6063
37.592416694607714 20.5506
37.61593586281424 20.5894
37.63945667518264 20.6184
37.66297913304891 20.4713
37.68668702630454 20.5236
37.710212792059274 20.428
37.733740207334854 20.3797
37.757269273470364 20.3119
37.780983832050374 20.3016
37.80451621684926 20.3252
37.82805025654007 20.2359
37.851585952464795 20.2353
37.8753071980695 20.1741
37.89884622345676 20.1216
37.92238690911902 20.1141
37.94611318753442 20.0511
37.969657210779765 20.0357
37.99320289834801 20.0796
38.016750251586465 19.9841
38.04048325513017 19.9799
38.06403395679343 19.9676
38.087586328183946 19.9169
38.11114037065203 19.8752
38.13488012115898 19.9361
38.1584375229181 19.795
38.181996599821 19.8171
38.205557353221124 19.7518
38.229303872575656 19.7608
38.2528679961576 19.7266
38.27643380031219 19.655
38.30000128639589 19.6104
38.32375459653193 19.6795
38.34732546371299 19.5996
38.37089801690786 19.4995
38.39447225747609 19.5157
38.418232380377425 19.4545
38.441810012983396 19.4488
38.46538933705673 19.505
38.488970353960084 19.3858
38.51273731166058 19.4012
38.536321731567014 19.2896
38.55990784840681 19.2311
38.58367995004091 19.2447
38.60726947812959 19.1257
38.63086070726198 19.1534
38.654453638806274 19.2017
38.678232613930824 19.1269
38.70182896773327 19.0503
38.72542702806741 19.0996
38.7490267963045 19.0412
38.77281266709232 19.0154
38.79641586862214 19.0163
38.8200207821842 18.9012
38.843627409152944 18.9547
38.86742019782782 18.9186
38.891030269149255 18.8775
38.914642058016156 18.8364
38.938255565806124 18.7743
38.96205529464307 18.8002
38.98567225787121 18.7495
39.00929094417078 18.6741
39.03291135492255 18.7333
39.05671804624804 18.6837
39.080341923549106 18.6299
39.103967529460334 18.6466
39.127594865365744 18.5596
39.15140854155791 18.5442
39.17503935514948 18.5116
39.19867190290282 18.4961
39.22249083587951 18.4302
39.24612686969409 18.4617
39.269764641845306 18.4065
39.293404153722804 18.3669
39.317230110864074 18.264
39.34087311998506 18.3062
39.36451787301696 18.363
39.388164371352595 18.2221
39.41199737518003 18.2594
39.43564738196752 18.2166
39.45929913825317 18.1675
39.48295264543308 18.1382
39.506792718520884 18.1071
39.530449745387216 18.0493
39.55410852735203 18.0388
39.57776906581474 18.0223
39.60161623079 17.9522
39.625280300200025 18.0009
39.64894613032202 17.9077
39.67261372255866 17.8704
39.6964680021016 17.8637
39.72013913657293 17.8278
39.74381203738292 17.8209
39.76748670593756 17.8386
39.79134812278169 17.8174
39.81502634488497 17.7575
39.83870633896685 17.7247
39.862388106436654 17.660999999999998
39.88625668336918 17.6107
39.90994201572829 17.6338
39.933629125719285 17.5827
39.957503091207826 17.573
39.9811937746168 17.6586
40.00488623990914 17.5822
40.02858048850006 17.4751
40.05246165409549 17.4973
40.076159487492085 17.3578
40.099859108448875 17.4226
40.123560518384345 17.3933
40.1474489070226 17.367
40.171153913178564 17.2679
40.194860712584955 17.2128
40.2185693066637 17.2624
40.242464941335314 17.1898
40.26617714307655 17.1967
40.289891143772046 17.2183
40.3136069448471 17.2128
40.33750984859743 17.1555
40.3612292688043 17.0545
40.3849504936829 17.0443
40.40867352466194 17.0339
40.43258372059144 17.0022
40.45631038219906 17.0139
40.48003885420956 17.0095
40.503769138055105 16.9441
40.52768664931955 16.9297
40.55142057531802 16.894000000000002
40.57515631746428 16.9034
40.599079334038514 16.8566
40.62281872700477 16.7413
40.64655994043941 16.7689
40.67030297578061 16.7839
40.69423334835778 16.7678
40.71798004609188 16.6706
40.74172857006355 16.5955
40.76547892171441 16.6019
40.7894166736039 16.564
40.813170699248566 16.5199
40.83692655691388 16.5643
40.86068424804498 16.5284
40.884629402612525 16.458
40.908390779366385 16.5179
40.932153993938 16.4546
40.95591904777605 16.419
40.979871628443995 16.4345
41.003640379561936 16.4198
41.02741097430883 16.3952
41.05118341413683 16.3954
41.075143444384416 16.2892
41.098919593177826 16.2814
41.1226975914255 16.26
41.14647744058318 16.1583
41.170444943946755 16.1463
41.19422851378379 16.1375
41.218013938914645 16.1618
41.24198706625173 16.1114
41.26577622087193 16.0815
41.289567235177785 16.0435
41.31336011063129 16.0231
41.337340752422875 15.9955
41.361137369129835 15.9886
41.38493585138705 15.9413
41.40873620066004 15.879000000000001
41.43272438060107 15.8284
41.45652848292052 15.809000000000001
41.48033445666918 15.7926
41.50414230331616 15.7739
41.528138045159764 15.8311
41.551949656675205 15.758
41.575763145513235 15.7005
41.59957851314666 15.684000000000001
41.62358184070442 15.6794
41.64740098505737 15.7112
41.6712220126409 15.640999999999998
41.69504492493139 15.5831
41.71905586207357 15.5522
41.74288256296395 15.5687
41.766711153007456 15.5092
41.79054163368412 15.4964
41.814560204340054 15.4583
41.838394485526365 15.4563
41.86223066180303 15.3881
41.88625497706819 15.4215
41.910094962812 15.3825
41.93393684811168 15.3398
41.95778063445365 15.2785
41.981812625263366 15.2589
42.00566023303407 15.2739
42.029509746323676 15.2426
42.05336116662236 15.1974
42.077400857069705 15.231
42.10125611078846 15.1569
42.12511327600405 15.1381
42.14897235421036 15.1333
42.173019768448455 15.1014
42.19688269209613 15.0597
42.22074753323349 15.0397
42.24461429335818 15.003
42.268669455600495 14.9909
42.292540073217886 14.9475
42.31641261433284 14.9917
42.34028708044675 14.9151
42.36435001496739 14.9276
42.38822835065557 14.8448
42.41210861586426 14.8038
42.4359908120986 14.8351
42.46006154323262 14.7732
42.48394762115317 14.739
42.507835634632315 14.7307
42.531912233047436 14.7553
42.55580413732265 14.7303
42.579697981698 14.6549
42.60359376768525 14.6528
42.62767820545945 14.6044
42.65157789440821 14.6099
42.67547952952185 14.568
42.699383112316 14.5508
42.72347541395347 14.5047
42.74738291190531 14.4213
42.771292362102166 14.4576
42.795203766063516 14.4343
42.819303956130405 14.46
42.843219287476536 14.4083
42.86713657716324 14.3599
42.89105582671383 14.3286
42.91516392983864 14.2991
42.939087119032166 14.3023
42.963012272677304 14.2883
42.98693939230129 14.2766
43.01105543317513 14.208
43.034986504731386 14.1827
43.05891954686589 14.1941
43.08285456110972 14.16
43.10697856448665 14.1014
43.130917542983475 14.0633
43.15485849820081 14.103
43.17880143167367 14.0299
43.20293342237094 14.003
43.226880332449 13.9899
43.25082922540554 13.9174
43.27496722682525 13.9166
43.29892010567796 13.9699
43.32287497204102 13.9145
43.34683182745632 13.8213
43.370977859791836 13.8325
43.39493871351105 13.8573
43.41890156092628 13.7832
43.44286640358341 13.7396
43.46702049182749 13.7812
43.49098934522816 13.7393
43.51496019852649 13.7205
43.5389330532723 13.6711
43.56309522248204 13.6826
43.58707210044314 13.6864
43.61105098451946 13.62
43.63503187626491 13.5971
43.659202151562134 13.5843
43.68318707902681 13.571
43.70717401884041 13.5095
43.731162972560874 13.4727
43.75534137913236 13.4844
43.779334381108384 13.4668
43.803329401683186 13.4153
43.82732644241872 13.4407
43.8515130055166 13.4307
43.87551410707659 13.3205
43.89951723350145 13.3606
43.923709934595614 13.289000000000001
43.94771713129917 13.3106
43.97172635758096 13.2833
43.99573761501002 13.2454
44.0199385169922 13.184000000000001
44.04395385732619 13.1905
44.067971233533086 13.2108
44.09199064718605 13.1675
44.11619977548961 13.1176
44.14022328470671 13.0939
44.16424883610785 13.0621
44.18827643127035 13.0888
44.21249381139513 13.0524
44.236525514814076 12.9762
44.26055926674478 13.0288
44.28459506876863 13.0385
44.3088207262813 12.9696
44.33286064928722 12.9349
44.35690262714919 12.9221
44.38094666145278 12.8657
44.4051806219871 12.8378
44.42922879003185 12.825
44.45327901929361 12.7723
44.477331311362136 12.823
44.501573600619416 12.7235
44.525630039221795 12.7884
44.54968854541895 12.7105
44.573937102200176 12.6804
44.5979997645541 12.6843
44.622064499300315 12.6407
44.64613130803592 12.6175
44.67038823869318 12.6031
44.69445921643748 12.5666
44.718532272981385 12.5023
44.742607409926194 12.5431
44.76687274034801 12.523
44.79095205918753 12.4861
44.81503346325094 12.4554
44.839116954143876 12.48
44.86339071028742 12.4611
44.88747839599524 12.432
44.91156817336837 12.3928
44.93566004401666 12.4111
44.959942251908146 12.3464
44.984038330325966 12.2698
45.00813650686762 12.2777
45.03223678314731 12.2779
45.05652746888232 12.2275
45.08063196592069 12.2358
45.104738567558705 12.2244
45.128847275414856 12.1624
45.15314646515866 12.1631
45.17725940679741 12.135
45.20137445952892 12.1225
45.22568004865265 12.1047
45.24979934496396 12.0594
45.27392075725247 12.0294
45.29804428714431 12.042
45.322358426247604 12.0369
45.346486212804315 12.02
45.370616121861914 11.9741
45.39474815505086 11.9873
45.41907087049246 11.9278
45.4432071734666 11.8676
45.46734560548283 11.9083
45.49148616817604 11.8858
45.51581748638564 11.8607
45.5399623320197 11.8393
45.56410931325473 11.7857
45.58825843173002 11.844000000000001
45.61259837920865 11.7571
45.636751793816 11.7915
45.66090735060093 11.7119
45.68506505120716 11.7217
45.7094136545275 11.6762
45.73357566449271 11.6516
45.75773982322992 11.6722
45.78190613238733 11.6683
45.806263418194064 11.5786
45.83043404997326 11.5863
45.85460683713677 11.5463
45.87897065658495 11.5627
45.90314777634752 11.5262
45.92732705646868 11.507
45.9515084986045 11.4806
45.97588104735473 11.4557
46.00006683541565 11.4197
46.02425479047904 11.4219
46.04844491420549 11.4416
46.0728262191024 11.4333
46.09702070211635 11.387
46.12121735879483 11.3439
46.14541619080294 11.3214
46.169806278764455 11.3223
46.194009483459034 11.3006
46.21821486849841 11.2727
46.24242243555223 11.269
46.266821333570014 11.2182
46.29103328674601 11.1983
46.31524742696538 11.2176
46.33946375590237 11.1752
46.36387149104216 11.1121
46.38809221957392 11.1122
46.41231514186606 11.0883
46.436540259597464 11.0972
46.460956858999374 11.0769
46.48518638983522 11.0459
46.509418121166966 11.047
46.533652054678114 10.9673
46.55807754555709 10.9833
46.58231590571962 10.9223
46.60655647313217 10.9234
46.630988654873654 10.9108
46.655233659129024 10.8639
46.67948087571551 10.874
46.70373030632484 10.8593
46.72817142736393 10.8135
46.752425308428684 10.8081
46.77668140861147 10.8295
46.80093972960865 10.785
46.82538981736788 10.776
46.849652602470904 10.7383
46.87391761349769 10.7152
46.8981848521493 10.6831
46.9226439341274 10.6636
46.946915650573224 10.6339
46.97118959976749 10.6413
46.99546578341598 10.5925
47.019933887188216 10.6083
47.04421456235744 10.6171
47.06849747711879 10.5454
47.09278263318286 10.519
47.11725978640143 10.5081
47.14154944775105 10.4785
47.165841355555656 10.4737
47.1901355115306 10.431
47.214621741924994 10.4587
47.23892041698887 10.4357
47.26322134538975 10.3922
47.28771440635075 10.3558
47.31201986422527 10.3654
47.33632758061436 10.3148
47.360637557241866 10.3285
47.38513974410611 10.3025
47.40945426407847 10.267000000000001
47.43377104948137 10.2543
47.45809010204344 10.2724
47.48260144275502 10.2156
47.506925052572285 10.2097
47.53125093475548 10.1811
47.55557909103813 10.1682
47.58009961361992 10.1553
47.60443234110732 10.1028
47.62876734791564 10.0845
47.65310463578333 10.107999999999999
47.6776343683373 10.0651
47.7019762413987 10.068999999999999
47.72632040075572 10.0213
47.75066684815169 10.011000000000001
47.77520581885936 9.99307
47.799556865477655 9.98901
47.823910205386 9.97072
47.84826584033272 9.96673
47.87281407745551 9.916160000000001
47.89717432569297 9.89268
47.92153687423484 9.88701
47.94609208429692 9.85017
47.97045925671401 9.864339999999999
47.99482873471275 9.85648
48.01920052005013 9.83967
48.04376504619224 9.80712
48.068141469543484 9.78247
48.09252020552573 9.73756
48.11690125590099 9.75407
48.1414751266064 9.74053
48.16586082917454 9.718169999999999
48.19024885144316 9.67838
48.2146391951793 9.71305
48.239222439012764 9.708639999999999
48.26361744916137 9.64208
48.28801478610016 9.63053
48.31241445160131 9.64055
48.337007097209366 9.599639999999999
48.36141144338331 9.595310000000001
48.38581812345755 9.52638
48.41022713920929 9.547189999999999
48.434829215320704 9.55633
48.45924292604658 9.5233
48.48365897780325 9.51988
48.50807737237308 9.47643
48.532688907799276 9.46045
48.55711201168574 9.38785
48.581537463754074 9.37975
48.60615611725119 9.41545
48.63058628942721 9.3964
48.65501881516546 9.38671
48.6794536962573 9.35142
48.70408185970339 9.330969999999999
48.72852147531801 9.298160000000001
48.75296345168211 9.25809
48.77740779059232 9.28533
48.80204549302823 9.295169999999999
48.82649458091802 9.26338
48.85094603676547 9.2335
48.87539986237231 9.215760000000001
48.90004713292306 9.17388
48.92450572200832 9.160860000000001
48.94896668628025 9.15093
48.97343002754588 9.14248
48.99808689542115 9.150210000000001
49.02255501470614 9.13959
49.04702551642794 9.09873
49.0714984023988 9.06458
49.096164896893235 9.049439999999999
49.120642575466796 9.048969999999999
49.145122643748394 9.02435
49.16960510355558 8.986880000000001
49.19428125404938 8.97597
49.2187685210852 8.98236
49.243258185121555 8.951239999999999
49.26794160167084 8.91383
49.2924360839405 8.89051
49.31693296869764 8.92362
49.34143225776915 8.91596
49.36612538195438 8.85764
49.39062950396021 8.865960000000001
49.41513603578346 8.84338
49.4396449792564 8.79991
49.46434784069503 8.81029
49.488861631846454 8.765139999999999
49.513377840166804 8.77689
49.537896467493745 8.740910000000001
49.56260909589029 8.69615
49.587132585683285 8.721589999999999
49.611658500018365 8.727310000000001
49.636186840738596 8.66358
49.66090926588511 8.64212
49.685442483902584 8.64933
49.70997813385706 8.63813
49.734516217597076 8.602739999999999
49.75924846937352 8.563130000000001
49.7837914452858 8.56498
49.80833686055187 8.56821
49.83288471702571 8.52058
49.85762682540054 8.5676
49.882179588965734 8.5533
49.9067347993235 8.483260000000001
49.93129245833333 8.4614
49.95604445336378 8.45937
49.98060703442832 8.43805
50.005172069746266 8.43332
50.02993150438364 8.40692
50.05450147301533 8.37844
50.07907390151433 8.39098
50.10364879174981 8.39832
50.12841816587289 8.34597
50.1529980044635 8.29216
50.17758031042124 8.32713
50.20216508562089 8.30364
50.22694442953363 8.26021
50.25153416817468 8.27875
50.27612638170508 8.24137
50.300721072005196 8.20169
50.325510416102105 8.218539999999999
50.350110084975064 8.22095
50.37471223628208 8.19979
50.39931687190919 8.20133
50.424116246675766 8.18573
50.44872587605249 8.16133
50.47333799543065 8.15427
50.49795260670191 8.10435
50.52276204271512 8.101180000000001
50.54738166295838 8.087010000000001
50.57200378079314 8.08905
50.596628398116835 8.07362
50.62144792604559 8.05936
50.646077567609396 8.04365
50.670709714377715 8.02711
50.69553683636198 8.02311
50.72017401885922 8.02035
50.7448137122895 7.9624
50.76945591856022 7.95305
50.79429318636823 7.93423
50.818940443716784 7.91587
50.84359021965163 7.905480000000001
50.868242516085964 7.87427
50.893089960641895 7.85802
50.917747323549435 7.843
50.94240721271973 7.841239999999999
50.96706963007175 7.80368
50.99192728239342 7.828530000000001
51.01659478166073 7.81727
51.04126481489051 7.7765699999999995
51.06593738400761 7.74102
51.090805275207074 7.75708
51.11548294172845 7.761419999999999
51.14016314993547 7.707139999999999
51.164845901758845 7.721430000000001
51.18972406304274 7.68342
51.21441192780656 7.6493
51.23910234200271 7.651330000000001
51.2637953075678 7.63134
51.288683770237945 7.63547
51.31338186432707 7.608160000000001
51.33808251561888 7.61
51.362978729967345 7.64098
51.387684521509755 7.57543
51.41239287610203 7.545910000000001
51.437103795691165 7.546819999999999
51.46201036644977 7.5162
51.486726441956634 7.49223
51.51144508832545 7.5024
51.536166307509156 7.46758
51.56108326624387 7.436719999999999
51.58580965706056 7.430560000000001
51.61053862657523 7.43726
51.635270176746864 7.40103
51.66019755512065 7.397239999999999
51.68493429268881 7.41383
51.70967361681515 7.34788
51.73441552946465 7.34727
51.759353359237934 7.34161
51.7841004750961 7.35015
51.80885018539685 7.30397
51.833602492111254 7.27734
51.8585508051424 7.2797
51.883308330926425 7.23738
51.90806845906181 7.2122
51.932831191525715 7.20489
51.95779001977161 7.187139999999999
51.98255798721516 7.1849
52.00732856494335 7.1550199999999995
52.03229530577543 7.1852800000000006
52.057071130455945 7.11693
52.081849571391054 7.09722
52.106630630568695 7.104830000000001
52.13160794279417 7.10088
52.15639426492067 7.13956
52.18118321127822 7.091639999999999
52.205974783860896 7.047619999999999
52.23096269971011 7.0632
52.255759551287994 7.05036
52.280559035098186 7.03637
52.30536115314103 6.99384
52.33035970494467 6.98469
52.35516711807904 6.9922
52.37997717147198 6.9328199999999995
52.40478986713005 6.9728
52.42979908731974 6.932910000000001
52.454617094216 6.916689999999999
52.47943774942214 6.882610000000001
52.50426105495102 6.88275
52.529280976059844 6.8625300000000005
52.554109609024096 6.86645
52.57894089837482 6.817489999999999
52.60377484613117 6.82763
52.62880550079408 6.8144
52.65364479223379 6.79144
52.67848674816189 6.75904
52.70352547971946 6.77297
52.72837279155837 6.7548
52.753222773982785 6.739610000000001
52.778075429022984 6.718369999999999
52.80312495150885 6.698930000000001
52.827982978797436 6.7342699999999995
52.85284368481815 6.7011
52.87770707160767 6.70298
52.90276741793998 6.651680000000001
52.92763619336701 6.65103
52.952507655698504 6.63098
52.977381806977576 6.606839999999999
53.00245301017842 6.619619999999999
53.02733256653592 6.593999999999999
53.052214817996074 6.56465
53.077099766608484 6.556889999999999
53.102181859804446 6.55256
53.127072229988265 6.569710000000001
53.15196530349892 6.52065
53.17686108239249 6.52787
53.20195409881522 6.49563
53.22685531582556 6.50692
53.25175924441303 6.50058
53.27666588664027 6.47732
53.30176985962693 6.46151
53.3266819565689 6.45601
53.35159677336455 6.41409
53.376514312083096 6.3862
53.40162927507703 6.42018
53.42655228516116 6.37547
53.45147802340193 6.36065
53.47660125628886 6.3640099999999995
53.50153247842639 6.33376
53.52646643496923 6.300009999999999
53.55140312799818 6.30617
53.576537409691696 6.28125
53.60147960336152 6.26708
53.626424539786164 6.2901
53.65137222105307 6.225280000000001
53.67651758529126 6.24177
53.70147078399681 6.20932
53.72642673383343 6.21981
53.75138543689533 6.21736
53.776541917524526 6.16742
53.801506154876755 6.16335
53.826473151763246 6.1297
53.851442910284916 6.13491
53.87661054126026 6.14239
53.9015858509782 6.13462
53.92656392866066 6.15327
53.95154477641532 6.08906
53.976723591801296 6.09236
54.00171000771266 6.06011
54.02669920004598 6.05716
54.051691170915745 5.99875
54.076881204886796 5.97631
54.101878760928514 6.01309
54.12687910187696 5.9934199999999995
54.152077577768296 5.9887
54.1770835166946 5.9827699999999995
54.20209224691339 5.96349
54.22710377055121 5.95581
54.25231352511594 5.9413800000000005
54.27733066384342 5.90511
54.30235060239643 5.91782
54.32737334290836 5.87954
54.35259441062629 5.8434
54.377622783395324 5.80221
54.40265396455061 5.86156
54.42768795623251 5.81665
54.45292037169559 5.77822
54.477960012857906 5.76776
54.50300247099511 5.75615
54.52804774825457 5.716559999999999
54.55329154616743 5.66469
54.57834249018678 5.65984
54.6033962597977 5.67095
54.6284528571545 5.6588400000000005
54.653708072335164 5.66622
54.67877035378786 5.61032
54.70383546947698 5.61325
54.72890342156389 5.58856
54.7541700889442 5.56952
54.77924374251975 5.53985
54.8043202390049 5.55121
54.82959552413022 5.5481300000000005
54.8546777351945 5.5117
54.87976279569621 5.4784
54.90485070780914 5.47058
54.930137506558005 5.39222
54.95523115074295 5.41539
54.98032765308844 5.379569999999999
55.005427015775496 5.4080699999999995
55.03072536339621 5.39513
55.05583047570572 5.32466
55.080938454927676 5.3445
55.10604930325027 5.2927800000000005
55.131359235107396 5.28408
55.15647585066083 5.24671
55.181595341907496 5.1919
55.20671771104285 5.1758
55.232039262617704 5.16247
55.25716741665048 5.18341
55.28229845518636 5.1525099999999995
55.30743238042802 5.14896
55.33276558731939 5.11486
55.357905315183636 5.09689
55.383047936390035 5.0391699999999995
55.40819345314859 5.01245
55.433538351073295 4.99585
55.458689688238415 4.95664
55.483843927614096 4.91801
55.509197623043605 4.93391
55.53435769621134 4.913119999999999
55.55952067826466 4.91397
55.5846865714265 4.8792800000000005
55.61005202069737 4.87725
55.63522376553902 4.85259
55.66039842818645 4.77984
55.68557601087004 4.82475
55.7109532500271 4.70706
55.73613670233794 4.71611
