TT I
1.2716486653135266 7.3227199999999995
1.2939594142134223 7.138210000000001
1.3162702121660406 6.8181
1.3385810600174564 7.0050300000000005
1.3608919586137629 7.01196
1.383202908801069 6.68807
1.405513911425503 6.2185
1.4278249673332093 6.51004
1.4501343378461518 6.31957
1.4724455028545926 6.685960000000001
1.4947567236847858 6.1092900000000006
1.517068001182951 6.187880000000001
1.5393793361953272 5.8166400000000005
1.5616907295681737 5.61212
1.5840021821477681 5.719469999999999
1.60631369478041 5.6662300000000005
1.6286252683124185 5.3806400000000005
1.6509369035901333 4.8808300000000004
1.6732468618895553 4.84291
1.695558623192809 5.08507
1.7178704487808514 4.975569999999999
1.7401823395001077 4.5307699999999995
1.7625012545597203 4.761769999999999
1.7848028405262486 5.0397
1.8071218901122095 4.74746
1.8294236121921872 4.9046400000000006
1.8517427996910911 4.5575
1.8740620574440425 4.97881
1.8963639900671978 5.39201
1.9186833908139995 5.14449
1.9409854680117449 4.73577
1.9633050151394713 5.02108
1.9856246367570705 5.00825
2.0079269371922672 4.813359999999999
2.03024671027244 4.65496
2.0525491637446027 4.00941
2.074869091674931 4.43591
2.097171701569106 4.13735
2.1194917877373847 4.925
2.141811954326636 4.94589
2.164114805233074 5.04933
2.186435135143035 5.79504
2.208738150935709 15.6683
2.231058647554722 33.2097
2.2533792288321184 25.1409
2.275682498336085 11.1782
2.298003251406138 6.36062
2.3203066942619714 5.4915400000000005
2.3426276225136022 5.48623
2.3649486396617507 4.95423
2.387252348930071 5.38422
2.4095735463442893 5.32558
2.4318774374315884 5.925009999999999
2.4541988185014043 5.80658
2.476502894794693 6.4515
2.498824462909887 5.97788
2.521146125856138 5.983709999999999
2.5434504863470337 6.39283
2.5657723414244717 6.464980000000001
2.588076895590662 7.17965
2.610398946189713 7.77323
2.6327210958598384 7.32522
2.6550259469304716 7.17318
2.6773482972090137 7.1157
2.6996533504259 7.484780000000001
2.7219759047039602 7.7948699999999995
2.744298562293959 7.961180000000001
2.7666039251246595 6.802160000000001
2.7889267918020164 7.64285
2.8112323652516555 7.77182
2.833555444408179 8.340160000000001
2.8558786311183852 8.24762
2.8781845268938557 8.72682
2.9005079311721484 8.86482
2.9228140460410397 8.48594
2.9451376712799635 8.80075
2.967444008632326 9.17647
2.9897678582247247 9.84866
3.0120918213106695 10.2469
3.0343984987899373 10.7074
3.0567226913198637 10.9964
3.079029599759726 11.6534
3.101354025127254 12.2222
3.123678568232338 12.536
3.145985829517914 12.9891
3.16831061055229 13.603
3.1906181112775593 14.2423
3.212943133635653 14.7893
3.2352682779763207 14.6024
3.2575761442691227 15.1473
3.2799015350264273 15.9157
3.302209649240067 16.368
3.3245352898092655 16.7661
3.3468436553365257 17.2611
3.369169549113219 17.9657
3.3914955708171384 18.5962
3.413804319727358 18.9656
3.4361305997334863 19.1134
3.4584396084414553 20.014
3.4807661501462652 20.4781
3.503092824025881 21.4319
3.5254022288463154 21.8321
3.5477291695206588 21.9923
3.5700388426251948 22.7523
3.5923660534916446 24.8032
3.6146934007816114 42.4852
3.637003482731501 103.736
3.6593311053109985 114.81700000000001
3.681641464033634 63.4156
3.7039693653009733 32.3508
3.726297407241705 26.6943
3.7486081875460804 26.105
3.7709365132734978 26.627
3.793247578841633 27.0198
3.8155761917550093 27.4823
3.8378875459837216 27.3465
3.8602164494827234 27.8614
3.882545499606844 28.8715
3.9048572932539183 29.741
3.9271866390645718 29.5288
3.9494987298666713 30.1461
3.971828374764527 30.8563
3.9941581705403255 31.5156
4.016470713506008 32.1521
4.038800813471445 32.7307
4.061113662089144 33.5337
4.0834440696459176 33.7379
4.105774632334751 34.0831
4.128087945865126 35.2156
4.150418821249301 36.3103
4.172732448931298 37.6443
4.195063640413578 39.6389
4.2173775856475215 44.2039
4.239709096631102 82.4758
4.262040768704612 281.298
4.284355196706267 375.542
4.306687193387355 238.888
4.329001947444346 89.5396
4.35133427213731 50.4461
4.373666762177566 45.5286
4.395982011761091 45.2662
4.418314834921175 46.4712
4.44063041906622 55.8623
4.4629635787515625 69.71300000000001
4.4852969080429785 68.9356
4.5076130004776225 56.2168
4.529946671403969 51.5721
4.552263106909177 51.4466
4.574597122877047 52.0746
4.596931312711224 53.4263
4.619248269273446 54.121
4.6415828092605835 55.2976
4.663900117405352 56.4629
4.686235010953232 57.6021
4.708552674085913 58.7373
4.730887924602802 60.2
4.753223354952695 61.6115
4.775541557023902 62.8525
4.797877349456786 64.765
4.820195915032126 66.6197
4.842532072957498 68.23100000000001
4.864868414979744 70.5886
4.88718753227192 72.7831
4.909524244902505 74.7189
4.931843734218147 76.5128
4.954180820867835 79.2505
4.976518095879839 82.3925
4.998838149695359 85.3472
5.021175803844231 89.1548
5.043496238205739 92.7484
5.065834274903528 97.5946
5.088172504230693 103.177
5.1104935158799565 110.54299999999999
5.132832132875765 137.748
5.155153533596801 191.18
5.1774925416746225 233.222
5.199814334878411 424.99699999999996
5.2221537374521505 1173.93
5.244493338631803 3050.41
5.266815727034316 7164.41
5.289155727832427 11726.4
5.311478517248165 9069.53
5.333818921080011 3224.68
5.356159527788849 664.493
5.3784829252032536 208.50599999999997
5.400823940070432 154.262
5.423147747031976 134.09799999999998
5.445489173474152 123.12100000000001
5.467830807066149 116.76
5.490155234831516 112.211
5.512497285125229 108.149
5.534822130975162 106.463
5.557164601388673 103.988
5.579489868738879 101.11200000000001
5.601832762690846 100.116
5.6241758697774475 99.6901
5.646501775867269 98.8454
5.668845311622074 97.3974
5.691171647754637 96.7126
5.713515615597765 95.1243
5.735859800852677 94.3207
5.758186788542988 93.4938
5.780531411018185 93.774
5.802858837297399 93.3756
5.825203900414495 93.7721
5.8475491852224 94.1099
5.869877275883075 94.4365
5.892223006467101 96.2825
5.914551544266608 97.4263
5.936897724049891 100.486
5.959244129804903 107.917
5.981573344815301 129.925
6.0039202049061 235.204
6.026249875609095 507.92
6.04859719346037 1046.48
6.070927323278297 2196.38
6.093275102315365 4161.24
6.115623113320588 5245.18
6.137953938319995 3490.73
6.160302415650845 1173.86
6.182633708324452 279.818
6.2049826554078376 124.285
6.227331838745022 98.0733
6.249663839443684 89.2736
6.27201349767565 85.8703
6.294345974611799 93.98200000000001
6.316696111167083 108.25299999999999
6.339046488263839 100.926
6.361379686074702 83.4328
6.383730546639482 73.7921
6.406064229255215 70.5286
6.428415576718203 69.6751
6.450749747566656 68.7081
6.47310158535871 67.283
6.495453669698332 66.8879
6.517788579421056 66.5692
6.540141159237969 65.3049
6.562476565766648 64.7924
6.5848296444934045 64.0416
6.607182974060425 63.7401
6.6295191323281015 64.4232
6.651872965955752 68.2559
6.6742096296068985 100.027
6.6965639707294615 156.58700000000002
6.71891856698715 157.033
6.741255995248479 102.947
6.763611104154477 70.8895
6.785949046381137 62.1233
6.808304671371482 59.9628
6.8306605557940046 59.5477
6.852999275508618 58.4767
6.875355681171544 58.0155
6.897694923437771 57.9941
6.92005185377892 58.1436
6.9423916220322655 57.8087
6.964749080490181 56.8956
6.987106804399774 57.2218
7.009447368180821 56.8899
7.031805625367033 56.8776
7.054146723727803 56.39
7.076505517631004 56.3476
7.098864581288365 56.4436
7.121206488070854 56.2065
7.143566093607822 56.1522
7.165908543567245 56.8091
7.188268694426048 57.1178
7.2106291193438095 56.7189
7.232972390625943 58.4128
7.255333366030969 74.0079
7.277677189091925 140.315
7.300038718428332 196.933
7.322400526130865 164.50900000000001
7.344745183422596 96.9666
7.367107550224791 64.5979
7.389452767901992 58.1163
7.411815697249891 56.8937
7.434161478756298 55.841
7.456524974096713 55.3184
7.478888753837185 55.5235
7.501235387657368 55.5131
7.523599738562711 55.638999999999996
7.545946944825532 56.0962
7.568311870344528 56.563
7.5906770845765665 56.7174
7.613025156078678 58.5386
7.635390950099687 60.0739
7.657739602662809 58.5749
7.680105979923558 57.3321
7.702472650212829 57.085
7.724822180948224 57.0478
7.747189439655568 57.3077
7.769539560075357 57.2448
7.791907410653562 57.8312
7.81425812420825 57.7814
7.836626570110925 58.1449
7.858995315087906 58.9644
7.881346924933401 59.0706
7.903716270417482 59.5371
7.926068482028405 59.7344
7.948438431475253 60.5666
7.9708086843180235 60.743
7.993161805171116 61.6761
8.015532667162402 62.3317
8.037886398416653 63.2754
8.060257873014221 63.269
8.082629655331942 63.9131
8.104984308787587 65.0478
8.127356708900503 69.0879
8.149711981398308 75.8524
8.172085002766314 78.3153
8.194458336181368 73.7702
8.216814543847752 71.12100000000001
8.23918850371002 70.9906
8.26154533906492 71.5091
8.283919928836452 73.2577
8.306277395339652 74.1179
8.328652618483376 75.3726
8.351028159736202 77.3137
8.373386579575245 80.1954
8.395762759396959 81.6014
8.418121819038275 87.8266
8.440498640894003 103.93299999999999
8.462875785192262 120.544
8.485235811156207 133.569
8.507613602688501 176.607
8.529974277114228 271.885
8.552352719347912 413.985
8.574731488360351 665.1610000000001
8.59709314210385 1159.33
8.619472567021075 1769.08
8.64183487789147 2147.83
8.664214962183097 1858.97
8.686577933647762 1033.58
8.708958680784317 404.17199999999997
8.731339760774953 174.484
8.753703729764451 115.84299999999999
8.77608547780821 102.339
8.798450116065078 98.0972
8.820832535634787 94.7256
8.843215292401656 93.2984
8.865580941199045 91.5899
8.887964374703538 90.5681
8.910330701447199 91.8604
8.932714815164482 94.8769
8.955099270424924 93.6694
8.977466620733543 89.9755
8.999851761421976 86.8666
9.022219798361645 84.9866
9.04460562795561 85.0173
9.066991803441677 84.5392
9.089360876979615 84.3586
9.111747746589993 84.1073
9.13411751544971 83.3519
9.156505082664324 82.9296
9.178875550323522 83.1268
9.20126381862328 83.8498
9.223652438908596 84.2193
9.246023961427412 84.0359
9.26841328802173 83.2646
9.290785518039224 82.9423
9.313175554425882 83.9296
9.335565947154315 83.7965
9.357939245086508 83.9526
9.380330352834827 84.2445
9.40270436697103 84.7029
9.425096193225055 84.4249
9.447488380180165 85.2795
9.469863475295412 85.6983
9.492256385987508 86.3392
9.514632206018318 86.6501
9.537025843935714 87.2103
9.559402392368193 87.6653
9.581796761000229 89.1082
9.604191496441521 90.2283
9.626569144158516 94.0569
9.648964615551032 99.5014
9.671343000390081 101.446
9.693739211225699 98.75
9.716135793237463 95.6151
9.738515290448102 94.7482
9.760912617143402 95.8558
9.783292860202891 97.00299999999999
9.805690935076182 98.2863
9.828089385495742 99.1508
9.850470754023561 101.51799999999999
9.872869957865444 111.26700000000001
9.89525208097539 129.69799999999998
9.917652041736662 144.755
9.940052382417589 143.674
9.962435644102392 150.116
9.984836746950979 187.946
10.007220771957746 257.046
10.029622640473708 362.82599999999996
10.052007432299963 534.998
10.074410069984072 800.0830000000001
10.096813093716005 1214.0
10.119199042482517 1679.61
10.141602840636468 1929.26
10.163989564971628 1686.86
10.186394141051062 995.018
10.208799107559706 437.8
10.231187001965623 208.68200000000002
10.253592751657669 132.96
10.275981430388155 117.544
10.298387966769793 116.676
10.320794897965431 120.243
10.343184759907361 118.84
10.36559248305461 112.075
10.387983138083852 106.994
10.410391656691655 110.096
10.432800574501677 122.296
10.455192425893369 140.07299999999998
10.47760214443012 166.157
10.499994797678786 206.57
10.522405320453982 277.032
10.54479877906917 379.61400000000003
10.567210109595656 500.409
10.5896218454736 567.134
10.612016518879773 506.897
10.634429067781074 367.295
10.656824555333241 218.083
10.679237920773568 129.547
10.701651695961992 98.9397
10.724048411481384 91.4828
10.746463008485165 88.4101
10.768860546937125 86.387
10.791275969274796 84.9562
10.81369180576079 83.8094
10.836090585366925 82.1762
10.858507252467449 81.2584
10.88090686379991 80.3743
10.903324365036394 79.789
10.925724811614439 80.274
10.948143150509463 81.7209
10.970561909719066 81.1438
10.992963615930844 78.7739
11.015383218085756 76.3777
11.037785768347074 74.4969
11.06020621697282 73.9929
11.082627090322113 73.7664
11.105030913430326 73.2618
11.12745263854165 74.0239
11.149857314510728 78.3264
11.172279894912576 85.6728
11.194702904450653 86.8592
11.217108866490921 81.9523
11.239532736615194 76.6647
11.26193956033512 73.8925
11.284364294577085 72.1311
11.306789462371718 69.8488
11.329197585398376 68.7397
11.351623622610898 68.2872
11.37403261614354 67.3409
11.396459526308487 66.9461
11.418869393879497 66.7391
11.441297180532617 66.39699999999999
11.463725406927658 66.1738
11.486136592353875 65.9766
11.508565700543707 66.8643
11.530977768845315 69.2166
11.553407762368774 70.5375
11.575838200059769 69.4288
11.598251599479612 66.7986
11.620682927815501 65.3941
11.64309721895548 64.9126
11.665529441478206 64.493
11.687962112597958 64.3185
11.710377748130886 64.5037
11.732811318753434 64.1184
11.755227854859067 64.1581
11.777662328529495 64.0166
11.800079768750786 63.7666
11.822515149015453 63.986000000000004
11.844950984084935 64.0182
11.867369787303163 63.4783
11.889806534289491 63.5415
11.912226250487029 64.1629
11.934663912939751 64.0809
11.9571020346363 64.3096
11.979523127133968 64.1913
12.001962169624331 64.9001
12.024384183972964 66.1167
12.046824150809913 69.7442
12.069264581333726 75.1757
12.091687985297767 81.3547
12.11412934550045 91.0237
12.136553680195208 104.741
12.158995973632788 125.18700000000001
12.181438735204349 151.298
12.20386447284199 182.263
12.226308172985636 206.997
12.24873485024193 210.149
12.271179492516982 174.40200000000002
12.293607112949127 134.976
12.316052700916226 101.205
12.338498763250042 82.3154
12.360927805303868 72.5827
12.383374818673879 68.2935
12.405804812803074 66.1708
12.428252780773262 65.8126
12.45070122756722 65.6653
12.473132656675375 65.4208
12.49558206341869 65.508
12.518014453510101 65.6577
12.540464823770117 65.8742
12.562915677315177 65.9934
12.58534951575545 66.8279
12.607801338171472 69.4577
12.630236146511358 76.0613
12.652688941369085 81.6442
12.675124723177234 81.9102
12.697578494048786 77.37
12.720032754458185 71.9487
12.742470003354093 69.4343
12.764925245138771 69.0333
12.787363476431278 69.4124
12.809819703166806 69.6755
12.83227642391173 70.5183
12.854716135692716 70.9454
12.877173846755147 71.9353
12.899614549869717 72.2839
12.9220732548287 73.1622
12.94453245827299 73.7469
12.966974655289818 74.5133
12.989434858002571 75.3335
13.011878055298721 76.1227
13.034339260862497 77.2862
13.056800969391883 78.3457
13.079245674017244 80.5152
13.101708390774869 82.9121
13.12415410463411 90.5071
13.146617833206086 103.074
13.169064559883248 116.333
13.191529303857127 131.332
13.213994557076367 153.025
13.236442809902437 185.61
13.258909083908291 233.798
13.28135835851934 291.582
13.30382565690295 358.825
13.326293469022952 418.235
13.348744283242008 428.407
13.371213125129904 374.911
13.39366497011003 277.26099999999997
13.416134845360597 185.835
13.438605238843131 129.533
13.46105863690397 109.035
13.483530069144786 109.041
13.505984506951902 114.65299999999999
13.528456981549432 124.86
13.550929978879088 139.02200000000002
13.573385983253365 160.811
13.595860028340867 194.297
13.618317081455832 239.99900000000002
13.64079217790333 292.573
13.663250283359057 341.985
13.685726434770173 373.055
13.708203115221277 352.119
13.730662806148091 276.825
13.75314054697177 198.83
13.775601299246777 134.82299999999998
13.798080104050406 99.8766
13.820559442405358 87.0415
13.843021793671388 83.6193
13.865502201420897 81.7049
13.887965623051947 80.9263
13.910447103807167 79.8694
13.932929122629764 78.2646
13.955394156785959 78.2876
13.977877254034569 77.2941
14.000343367582113 76.332
14.022827546871707 75.7836
14.045294743423524 74.9982
14.06778000837062 74.4198
14.090265817715476 74.4731
14.112734645763819 73.9641
14.13522154619454 73.9381
14.157691466286913 73.9601
14.180179461423874 73.6885
14.202668005486178 72.672
14.22513957064374 72.2629
14.247629214846473 71.8134
14.270101881097517 71.4887
14.29259262906496 72.0268
14.315083930490205 72.8683
14.337558255389705 73.1988
14.360050666019726 72.8564
14.382526101071944 71.7374
14.405019624534942 70.8491
14.427513705993134 70.1773
14.449990813291825 70.0893
14.47248601302899 70.0219
14.49496423954951 70.15100000000001
14.517460561197822 70.19800000000001
14.539939910570322 70.0833
14.562437357763558 70.5842
14.58493536931253 72.0335
14.607416409993311 72.9938
14.62991555254159 73.8055
14.652397725157423 73.6525
14.674898002342799 72.5471
14.697398848433282 71.8739
14.719882725991326 72.3944
14.74238471217934 73.4079
14.764869730765593 76.9565
14.787372860692983 80.7363
14.809876564079925 85.5823
14.83236330125751 91.5828
14.854868153850365 99.8388
14.877356041159485 111.807
14.899862046604186 128.412
14.922351087688757 151.18200000000002
14.944858249632887 178.15400000000002
14.967365991421232 204.252
14.989856770231246 224.642
15.012365673994204 223.233
15.03485761569738 199.898
15.05736768508665 155.97299999999998
15.07987833888692 119.823
15.102372032001655 94.5004
15.124883856909658 79.5027
15.14737872204565 73.8793
15.169891721717274 72.1217
15.192405310371893 72.1619
15.214901940621196 72.5386
15.237416709527137 72.9454
15.259914520936249 73.1494
15.282430473753607 72.0129
15.304947020131227 70.6699
15.327446610371178 69.5345
15.349964346154254 68.5261
15.372465126703139 68.1698
15.394984055556009 67.7592
15.417486030076159 67.6961
15.44000615566487 67.274
15.462526881230803 67.2947
15.485030653812652 67.5214
15.507552581617434 67.7406
15.530057557334603 67.6524
15.55258069104857 67.4952
15.575104429329837 67.5754
15.597611216864632 67.2758
15.620136166564563 67.2945
15.6426441664095 68.2243
15.665170331202765 70.8503
15.687697105158826 74.0878
15.710206930593545 77.6798
15.732734925158933 82.2315
15.755245972089478 88.3574
15.77777519094324 96.4752
15.800287463046663 107.77
15.822817909869592 124.29700000000001
15.84534897229804 144.202
15.867863089299354 166.21400000000003
15.890395385222186 185.34799999999998
15.912910736597423 195.641
15.935444269699861 186.981
15.957978423016485 160.833
15.980495633101265 129.62
16.003031029129367 98.9444
16.02554948280019 78.9017
16.048086125229432 69.6828
16.070623392487107 66.9705
16.09314371869582 66.2638
16.11568223789321 65.441
16.13820381691126 64.3322
16.160743591742527 63.0221
16.183283996022084 62.0812
16.205807461423195 60.6905
16.228349126881973 60.0608
16.25087385432698 60.1494
16.27341678466365 59.5333
16.29594277784926 59.5151
16.31848697676433 59.9835
16.341031811604868 60.6134
16.36355971058487 61.0211
16.3861058195587 60.523
16.40863499352978 59.1189
16.431182380342005 58.0376
16.453730407713202 57.4537
16.476261501364792 57.0925
16.498810812136167 56.5445
16.52134319004079 56.6383
16.54389378792203 56.5777
16.566445031001553 56.4296
16.588979342490088 56.141999999999996
16.61153187824822 56.0597
16.634067483263312 56.0483
16.656621315414416 55.9395
16.679175797408888 55.7291
16.701713349928728 55.6595
16.72426913389191 55.9568
16.74680798922351 56.0659
16.76936507887444 56.1138
16.791905240734874 56.1176
16.814463639794468 55.8884
16.837022695210294 55.9951
16.859564824093756 56.3711
16.882125194503903 57.3493
16.904668639217885 58.2664
16.927230328348003 58.3584
16.949792678493612 58.4111
16.972338104193863 57.6658
16.994901778652235 56.967
17.017448529496576 56.7065
17.040013531998152 56.9543
17.06257920018044 57.6708
17.0851279459922 58.3217
17.107694947817667 59.2624
17.130245028099072 60.0879
17.15281336730298 61.333
17.17536478578733 62.8976
17.19793446610687 65.0632
17.220504818648422 67.6734
17.243058251703697 70.3887
17.265629950971032 74.2185
17.288184731571736 78.6583
17.310757781306908 82.4744
17.33333150794385 84.5471
17.355888317140174 83.425
17.37846339986244 78.6603
17.401021565958885 72.4485
17.42359800851343 66.9228
17.44617513265564 62.8855
17.468735341390783 61.1027
17.491261035594565 60.1
17.51396340099364 60.2136
17.536490463869136 60.3797
17.559018209820174 60.3011
17.58154663977963 60.5251
17.604251766089718 60.6282
17.626781572227713 60.7659
17.64931206518155 60.8904
17.671843245885103 61.4565
17.69455114821572 61.6275
17.717083712612634 62.1089
17.739616967569667 62.318999999999996
17.762150914021706 62.4175
17.78486160749854 62.2783
17.807396945166804 62.803000000000004
17.829932977143503 63.9327
17.85246970436452 65.51
17.875183204129467 67.4309
17.897721330097664 69.733
17.920260154126645 72.4033
17.942799677153296 75.5038
17.9655159983646 79.0502
17.988056927677544 83.6086
18.010598558807683 90.4081
18.033140892692916 99.2033
18.05586005052525 109.12
18.07840379824407 120.038
18.10094825154059 131.345
18.12366954819864 140.82299999999998
18.146215420998306 142.205
18.16876200220057 134.683
18.191309292745153 121.48100000000001
18.214033452627167 107.145
18.236582170236648 94.6185
18.259131600016456 88.0154
18.281681742907335 87.2239
18.304408781233683 90.5909
18.32696035875955 95.339
18.349512652227624 100.071
18.372065662579683 105.544
18.394795594587553 108.074
18.41735004715306 105.96
18.43990521943684 99.4339
18.46246111238171 89.9533
18.485193953325208 79.6723
18.507751296070428 71.881
18.530309362314178 67.2815
18.552868153000343 64.8291
18.57560391815056 63.6072
18.59816416623245 62.8467
18.620725141597372 62.4468
18.643286845190268 61.9259
18.666025549835414 61.5738
18.688588718427933 60.8413
18.711152618092243 60.8691
18.73389353884365 60.4794
18.75645890921984 59.9742
18.77902501351406 59.6223
18.801591852673102 59.6426
18.824335739722738 59.1531
18.846904057212626 59.2578
18.8694731124168 58.9063
18.89204290628315 58.751000000000005
18.914789774966803 58.6432
18.937361054791623 58.2605
18.959933076131318 58.1088
18.982505839934877 58.1966
19.00525570560582 58.2064
19.027829963004184 57.9138
19.05040496572238 57.9955
19.072980714710468 58.0281
19.095733592739563 58.2409
19.11831084296757 58.5445
19.140888842324735 59.1069
19.16346759176222 59.6253
19.18622349753803 59.9176
19.208803755869358 60.9692
19.231384767143577 61.9151
19.253966532312948 63.0364
19.276725481241822 64.9473
19.29930876296784 67.0605
19.3218928014549 70.1024
19.34465404436217 73.2628
19.36723960516257 76.52199999999999
19.389825925592426 77.89399999999999
19.412413006605938 77.5616
19.43517731967805 74.3142
19.457765930683355 69.705
19.48035530514408 64.8454
19.50294544401556 60.793
19.525712842708348 57.7491
19.54830451925909 56.361000000000004
19.570896963095727 55.4361
19.593490175174704 54.956
19.616260674962184 54.926
19.638855432416964 54.6075
19.661450960992624 54.7944
19.68404726164677 54.6021
19.706820878021247 54.3673
19.729418731756834 54.5304
19.752017360452857 54.3737
19.77461676506804 54.4439
19.797393513540218 54.6638
19.819994478951667 54.8526
19.84259622316767 55.6154
19.8651987471481 56.0281
19.887978643247177 56.1906
19.91058273574792 56.6618
19.933187610901943 57.5
19.955969879466828 58.422
19.97857632894404 59.5556
20.00118356396599 61.0413
20.023791585494575 62.8427
20.046577028914875 65.5895
20.069186632506966 67.8061
20.091797025500632 69.9765
20.114408208858933 70.8928
20.137196842715273 71.1336
20.159809615886765 69.8983
20.18242318232135 66.9606
20.20503754298326 64.6439
20.227829382875154 62.9882
20.250445341109344 62.7324
20.27306209647285 63.3542
20.29567964993108 64.507
20.31847471147704 65.5145
20.34109387027612 66.5123
20.363713830075454 66.8045
20.386334591841646 65.5121
20.409132890679302 62.8509
20.431755265564437 59.9759
20.454378445325528 57.0315
20.477002430930366 54.8662
20.499803982716553 53.6593
20.522429589228004 52.6423
20.54505600449589 52.2327
20.567683229489194 52.0664
20.590488049900088 51.5969
20.61311690359731 51.2487
20.63574656993626 51.0342
20.658553853717297 50.7729
20.681185154618298 50.7116
20.703817271080066 50.4922
20.72645020407368 50.2678
20.749260783967177 50.1638
20.771895359337133 50.0606
20.794530754161617 50.0228
20.817166969412938 49.7505
20.83998086114876 49.8231
20.86261872660049 49.7152
20.885257415405402 49.7909
20.90789692853701 49.565
20.930714147864748 49.5264
20.953355319030678 49.5008
20.97599731745334 49.6991
20.99864014410749 49.5929
21.021460706796564 49.5702
21.044105199328826 49.7947
21.06675052302631 49.9583
21.089396678865015 50.1368
21.112220600704806 50.3456
21.134868430275347 50.7959
21.15751709492456 51.0494
21.180166595629693 51.3965
21.202993892429635 51.8217
21.22564507473034 52.095
21.24829709602816 52.3444
21.27112693608965 52.6176
21.293780644891275 52.5158
21.316435195634053 51.8225
21.339090589297417 51.1619
21.361923832041875 50.6726
21.384580921090404 49.9887
21.407238856007325 49.4277
21.429897637773326 49.4818
21.45273429906592 49.3743
21.475394784108598 49.3283
21.498056118951983 49.5018
21.520718304578022 49.4943
21.543558400304388 49.5639
21.566222297108816 49.7674
21.58888704765135 49.902
21.61155265291521 50.1891
21.63439619898156 50.5769
21.657063523335786 50.7967
21.67973170537063 51.4816
21.7024007460706 51.9366
21.72524775840385 52.6665
21.747918526116475 53.5551
21.770590155457388 54.7676
21.79326264741238 56.0588
21.816113141960237 57.9313
21.838787368860547 59.4918
21.861462461341976 61.5193
21.884315579735777 63.42100000000001
21.90699241312273 64.9057
21.92967011506078 65.7949
21.95234868653799 65.8861
21.9752053151131 64.7252
21.997885635446785 62.9658
22.020566828293532 60.8265
22.04324889464272 58.9316
22.066109049404666 57.3495
22.088792872571794 56.8465
22.111477572219204 56.8396
22.1341631493376 57.1918
22.157026846313123 57.0831
22.179714188221507 56.5502
22.202402410582668 55.5248
22.22509151438863 54.1247
22.24795876962584 52.7602
22.270649646204486 51.7104
22.293341407213727 50.9613
22.316034053646906 50.4281
22.338904883215342 49.9268
22.36159931041458 50.0466
22.38429462602756 50.0102
22.40699083104897 49.8539
22.429865251039757 50.0832
22.452563244831367 49.8952
22.47526213102522 49.9632
22.49813925616515 49.8073
22.520839937143307 49.6338
22.543541513520587 49.5942
22.56624398629403 49.482
22.589124730075895 49.5204
22.611829005656723 49.5623
22.63453418063466 49.5831
22.657240256008077 49.7299
22.680124634582935 50.0726
22.70283252079775 50.4006
22.725541310413075 50.5232
22.74825100442868 50.6703
22.771139033969575 51.2097
22.79385054687155 51.3644
22.81656296718292 51.9177
22.83927629590484 52.6093
22.862167992606945 53.5706
22.88488314827121 54.8223
22.907599215359284 55.6087
22.93031619487366 56.7536
22.953211574954405 57.6058
22.975930389478226 58.6261
22.998650119445763 59.1578
23.02137076586092 58.4497
23.044269845560063 57.4388
23.06699233506288 55.9145
23.089715744034912 54.1424
23.112617610931565 52.2776
23.135342869061212 51.0328
23.158069049684816 50.1336
23.1807961538087 49.8133
23.20370174880544 49.8196
23.226430710184808 49.6451
23.249160598093425 49.8428
23.271891413539002 49.9555
23.294800752937697 49.7847
23.31753343374794 50.0319
23.340267045128353 50.2094
23.36300158808808 50.498000000000005
23.38591468821339 50.5836
23.408651104658304 51.1375
23.431388455719986 51.6663
23.454126742409 52.4496
23.4770436196085 53.2679
23.499783787914662 54.3766
23.522524894889884 55.3139
23.54526694154616 56.3704
23.56818761219047 57.5877
23.59093154860734 58.272
23.613676427751283 59.1986
23.636422250635754 58.5868
23.659346731118656 57.2482
23.68209445191868 55.2004
23.704843119509587 53.0524
23.72759273490623 51.0345
23.750521041644767 49.5033
23.77327256312355 48.1972
23.796025035462787 47.4694
23.818956224555475 46.9684
23.841710609113413 46.9744
23.86446594758979 46.6515
23.887222241002014 46.4492
23.910157285144578 46.0406
23.932915498962537 46.2212
23.955674670778713 45.9047
23.978434801611975 45.6976
24.001373717286125 45.68899999999999
24.024135776723917 45.5021
24.046898798245582 45.4488
24.06966278287146 45.4095
24.092605586582614 45.0826
24.115371508023642 45.0418
24.1381383956401 44.8844
24.16090625045381 44.9524
24.183852958731244 44.882
24.206622758582608 44.7071
24.229393528706886 44.495
24.252165270127392 44.5371
24.27511589952438 44.5022
24.297889594216997 44.2348
24.32066426328598 44.1215
24.34343990775613 44.08
24.36639447485003 43.9948
24.38917208083877 44.0802
24.41195066531332 43.9444
24.43490819850244 43.8712
24.457688750692377 43.7343
24.48047028445616 43.9048
24.503252800821233 43.9748
24.526214300784112 44.0306
24.548998793132213 43.9307
24.57178427117417 43.7617
24.59457073593893 43.8203
24.617536219319863 43.9086
24.64032466834748 43.8254
24.663114107195035 43.8179
24.685904536893013 43.4796
24.708874020360852 43.3694
24.731666442613744 43.3045
24.754459858818787 43.2762
24.777254270007962 43.0771
24.80022777025625 43.0657
24.82302418230472 43.1877
24.845821592443674 43.106
24.86862000170663 42.9975
24.891597535453727 42.791000000000004
24.914397953892728 43.0363
24.93719937456671 43.1351
24.96000179851076 43.1882
24.98298338249997 43.2995
25.00578782394922 43.5986
25.028593271784167 43.5261
25.05157790644186 44.0099
25.07438537804115 44.1377
25.097193859145293 44.323
25.120003350792075 44.4898
25.142992065061257 44.7957
25.165803588823465 45.2061
25.18861612625217 45.4692
25.211429678386736 45.4892
25.234422489079968 45.5587
25.257238081693636 45.6557
25.280054692141732 45.623000000000005
25.3028723214652 45.6109
25.325869245420463 45.5969
25.348688923599397 45.7507
25.371509623787006 45.6867
25.394331347025812 45.5448
25.41733240110666 45.0738
25.440156181590016 44.287
25.46298098826268 43.963
25.48580682216873 43.4105
25.50881202326435 42.8889
25.53163992281684 42.3702
25.55446885274561 41.9247
25.577298814096377 41.6668
25.600308179121807 41.6041
25.623140214533745 41.7114
25.64597328451537 41.5356
25.66898578564376 41.3049
25.691820936010206 41.3478
25.714657124097695 41.295
25.737494350954734 41.2673
25.760511045684957 41.1636
25.783350361364224 41.2825
25.806190718969255 41.3497
25.82903211955018 41.5221
25.852053024868923 41.5852
25.874896522722523 41.5126
25.897741066713106 41.437
25.920586657892454 41.4069
25.943611790812668 41.6074
25.966459487728237 41.5946
25.989308234998564 41.7238
26.01215803367705 42.0076
26.03518741123814 42.2742
26.05803932412957 42.3126
26.080892291600094 42.3215
26.10374631470478 42.4438
26.12677995397268 42.4218
26.14963609978026 42.5397
26.172493304397875 42.1898
26.19535156888223 42.0555
26.218389486949604 41.6983
26.241249882640123 41.31399999999999
26.26411134137826 41.0643
26.28715248187403 41.1183
26.31001607820869 40.8367
26.3328807407756 40.7478
26.35574647063438 40.9024
26.37879191991473 40.8923
26.401659795896734 40.9075
26.424528742360263 41.0063
26.447398760366614 41.1961
26.470448535598294 41.2593
26.49332070826805 41.4029
26.516193955675355 41.909
26.53906827888316 42.1642
26.562122397260108 42.129
26.584998883685063 42.3829
26.607876449110325 42.74
26.63075509460056 42.854
26.65381357334404 42.9538
26.67669439061878 42.9071
26.699576291163382 42.8896
26.722459276044212 42.7869
26.745522132402975 42.4927
26.768407297649354 42.2061
26.791293550442003 41.6615
26.814180891848974 41.5214
26.837248143099337 41.3068
26.860137673466657 41.2246
26.88302829566349 40.9507
26.90592001075963 40.9044
26.92899167420566 40.6531
26.951885586870763 40.2861
26.974780595655517 40.2425
26.99785558178161 39.9645
27.020752794605112 39.8415
27.043651106772522 39.5466
27.06655051935668 39.5719
27.089629948036183 39.4856
27.112531573292053 39.441
27.135434302194138 39.5353
27.158338135817015 39.2275
27.181422024430987 39.3636
27.204328079372566 39.2329
27.22723524226965 39.3533
27.250143514198573 39.398
27.273231880156334 39.4129
27.296142382065014 39.1697
27.319053996245536 39.0555
27.341966723775965 39.1721
27.365059584515222 39.135
27.38797455070062 39.3321
27.410890633481237 39.2071
27.433807833936918 39.1554
27.456905206923906 39.2227
27.47982465472398 39.0957
27.502745223449743 39.2628
27.525666914182825 39.4641
27.548768816912457 39.376999999999995
27.571692763693633 39.173
27.59461783573812 39.1344
27.617723149491244 38.9721
27.640650484125285 38.9993
27.66357894728264 38.8643
27.686508540048052 38.7866
27.709618414237887 38.7839
27.732550278321757 38.5138
27.755483275279115 38.5181
27.778417406196485 38.6777
27.801531858397514 38.5557
27.824468269376716 38.4972
27.847405817586786 38.5638
27.870344504116094 38.5915
27.893463551932008 38.7131
27.916404527281053 38.9557
27.93934664422563 38.9965
27.962289903855886 39.0972
27.98541356491974 39.217
28.00835912214229 39.3754
28.03130582533231 39.5156
28.054253675581805 39.7431
28.077381967556104 39.7279
28.100332124185126 39.7878
28.123283431160893 39.7603
28.146235889577238 39.5647
28.169368830154156 39.3209
28.192323603752033 39.2196
28.215279532083304 38.8887
28.238415973016764 38.6202
28.261374223145094 38.62
28.284333631303806 38.4789
28.307294198589954 38.2403
28.330435319167677 37.8055
28.353398217078915 37.7404
28.376362277420153 37.5034
28.39932750129032 37.403
28.422473319286713 37.1312
28.44544088262495 37.053000000000004
28.468409612800283 36.9287
28.491379510913497 36.7185
28.51453004413313 36.6591
28.53750229057244 36.6665
28.56047570826344 36.5919
28.583450298308804 36.5865
28.606605564586562 36.3615
28.629582511831156 36.4924
28.65256063474956 36.3927
28.675539934446338 36.367
28.698699951647605 36.2871
28.72168161743193 36.1913
28.74466446331978 36.2105
28.767648490417624 36.1107
28.790813276438353 36.0027
28.813799678527303 36.1093
28.836787265157085 36.0837
28.859955641890075 36.1392
28.882945610203045 36.0349
28.905936766392035 35.9439
28.928929111566863 36.0371
28.952102288520145 36.0187
28.975097024308607 35.9334
28.998092952423807 35.7125
29.021090073977508 35.5434
29.04426806913204 35.4734
29.067267590245258 35.3096
29.090268308143695 35.3014
29.11327022394099 35.2889
29.13645305530891 35.1582
29.159457379627167 35.1561
29.18246290519685 35.0949
29.20546963313352 34.9196
29.22865731875826 35.0436
29.25166646419296 34.9467
29.27467681535305 34.8632
29.29768837335608 34.9996
29.320880931312562 34.9345
29.34389491580634 34.855
29.366910110507334 34.8142
29.38992651653503 34.8145
29.41312396492981 34.9644
29.436142806456754 34.9127
29.45916286268059 34.8333
29.48236399319994 34.5736
29.50538649169417 34.486
29.528410208259935 34.3526
29.55143514402014 34.2292
29.574641196749695 34.004
29.597668583816574 33.9348
29.6206971934585 33.8853
29.64372702680042 33.9761
29.666938019934474 33.747
29.689970313635285 33.7469
29.713003834422636 33.6348
29.73603858342347 33.6465
29.759254535188578 33.459
29.78229175361658 33.4404
29.80533020365064 33.6039
29.82836988641968 33.4715
29.85159081507472 33.4727
29.874632976355343 33.3303
29.89767637376955 33.3817
29.920721008448314 33.3051
29.9439469322847 33.1861
29.96699405457564 33.2068
29.9900424175358 33.2591
30.013092022298157 33.2839
30.03632295963995 33.126
30.059375061131373 33.1658
30.08242840783577 33.1337
30.105483000888153 33.1047
30.128718970092244 32.9917
30.151776069006917 32.9258
30.17483441768648 33.0282
30.198074175317235 33.043
30.221135036724256 32.9724
30.24419715131772 32.9045
30.267260520236203 32.8998
30.290505341942243 32.9789
30.313571232750228 32.9581
30.336638381310948 32.9601
30.35970678876503 32.9002
30.38295669299435 32.7807
30.40602763151657 32.8569
30.429099832366074 32.8273
30.452173296685572 32.7981
30.47542830191959 32.6139
30.498504306502497 32.5656
30.521581577995562 32.6943
30.544660117543582 32.7304
30.56792024229725 32.702
30.59100133132069 32.6574
30.614083691845494 32.6896
30.637167325018545 32.871
30.660432587840603 32.9879
30.683518779717886 32.8401
30.70660624769615 32.8172
30.729694992924372 32.7159
30.75296541239743 32.8336
30.77605672557558 32.7109
30.799149319462742 32.674
30.8224236211637 32.5611
30.845518789950724 32.5201
30.868615242910597 32.4839
30.891712981195973 32.3613
30.91499247215866 32.385
30.938092794619365 32.2211
30.96119440587579 32.1897
30.984297307082752 31.9805
31.00758200598383 31.9011
31.030687500658694 31.8791
31.053794288760695 31.7971
31.076902371446767 31.6194
31.100192296997445 31.7759
31.12330298246119 31.6651
31.14641496599209 31.6169
31.169528248749216 31.6463
31.19282341969534 31.5887
31.215939314557186 31.5733
31.239056512134788 31.5734
31.262175013589378 31.5372
31.28547544871168 31.4316
31.30859657161541 31.4869
31.331719001892175 31.4789
31.35484274070538 31.5088
31.378148458819545 31.4693
31.401274828443725 31.3935
31.424402510106933 31.3702
31.447712205419993 31.511999999999997
31.470842524931633 31.3613
31.493974159989783 31.3456
31.51710711176168 31.3812
31.54042212308802 31.5476
31.563557722100917 31.4063
31.586694641341655 31.1902
31.609832881979628 31.0504
31.63315322823208 31.0214
31.656294125521327 30.9983
31.679436347728515 30.7728
31.70257989602529 30.7825
31.725905596152327 30.7508
31.74905181052835 30.7051
31.772199354521323 30.7965
31.79534822930507 30.7611
31.818679302290967 30.6616
31.84183085259981 30.7207
31.864983737233473 30.6504
31.88813795736804 30.6816
31.911474422233013 30.6189
31.934631327356435 30.7355
31.9577895715215 30.6794
31.980949155906522 30.6791
32.004291031706956 30.5612
32.027453310562606 30.4784
32.05061693318573 30.445999999999998
32.07396288236386 30.4293
32.09712920658542 30.3454
32.12029687812702 30.1658
32.14346589817093 30.1157
32.166817291729984 30.0631
32.18998902288583 30.0612
32.21316210610336 30.0245
32.23633654256711 29.8352
32.259693399663725 29.7868
32.282870556771144 29.8376
32.30604907069099 29.8186
32.329228942610065 29.7249
32.35259128243769 29.5606
32.375773884550505 29.4977
32.398957848235646 29.4136
32.422143174682176 29.4272
32.445511016471215 29.3123
32.468699082679954 29.3115
32.49188851523011 29.2639
32.51507931531304 29.1324
32.538452678331 29.1878
32.56164622776311 29.1304
32.58484114831493 28.9901
32.60803744118015 29.0675
32.631416344731896 29.0631
32.654615396551876 28.9968
32.67781582427913 28.9605
32.701198898634416 28.8315
32.72440209253756 28.815
32.747606665947124 28.8165
32.77081262006088 28.7044
32.79420126883317 28.7573
32.81740999876112 28.7215
32.840620112999424 28.5659
32.86383161274818 28.5938
32.88722585534586 28.6174
32.91044014056596 28.6227
32.933655814909734 28.5403
32.95687287957963 28.5925
32.98027273544904 28.5057
33.00349259526636 28.4906
33.026713849030116 28.4923
33.04993649794511 28.4078
33.073341986570746 28.3184
33.09656744032826 28.45
33.11979429286444 28.4131
33.14302254538647 28.3673
33.166433686291185 28.3569
33.18966475336992 28.2512
33.212897224069096 28.1532
33.23613109959831 28.1694
33.259547912343415 28.0634
33.2827846121627 28.1293
33.306022720453775 28.0508
33.32926223842861 27.9282
33.352684742614166 27.9508
33.37592709463173 27.8534
33.399170859982064 27.8544
33.422597648419426 27.7048
33.44584425514446 27.6147
33.46909227885668 27.6161
33.4923417207723 27.5176
33.51577423505344 27.5751
33.539026528130385 27.4872
33.56228024307245 27.4789
33.585535381098246 27.2895
33.60897364093058 27.2791
33.63223163992385 27.2659
33.6554910656699 27.2254
33.678751919389796 27.1729
33.702195944520106 27.0918
33.72545966903325 27.1542
33.74872482519663 27.0736
33.771991414233746 27.0343
33.79544122444841 27.0182
33.81871069412428 26.9566
33.84198160035767 26.8921
33.86525394437455 26.8334
33.88870955949969 26.7207
33.911984794020626 26.8015
33.93526147001624 26.7655
33.958539588715006 26.7529
33.98200102861669 26.7305
34.0052820477047 26.6059
34.02856451319451 26.5677
34.05203033759056 26.4574
34.07531571090147 26.5349
34.09860253431845 26.4654
34.121890809074316 26.4056
34.145362493118924 26.3513
34.16865368561615 26.3338
34.191946333164054 26.2315
34.21524043699793 26.2335
34.23871800066799 26.2796
34.26201503218366 26.0878
34.28531352370466 26.1484
34.30861347646881 26.092
34.33209693978188 26.046999999999997
34.3553998301885 26.0062
34.378704185565205 25.8982
34.402010007152356 25.8852
34.42549939016683 25.8868
34.44880815937748 25.76
34.472118398533134 25.7348
34.49543010887669 25.7421
34.51892543169198 25.5991
34.54224009966052 25.6336
34.56555624255917 25.6522
34.58887386163339 25.5806
34.61237514439016 25.4873
34.6356957311114 25.4009
34.65901779775809 25.4272
34.68252356662995 25.3832
34.705848608458616 25.3833
34.72917513396849 25.2438
34.75250314440949 25.2266
34.77601490857862 25.201999999999998
34.799345904259795 25.0989
34.82267838863559 25.158
34.846012362958525 25.0496
34.869530142679984 25.1228
34.89286711232212 25.0312
34.91620557568269 25.081999999999997
34.93954553401677 25.0747
34.9630693495876 24.9206
34.986412313340814 24.9898
35.00975677584668 24.9634
35.033102738362956 24.8373
35.05663261012228 24.8755
35.0799815881786 24.8043
35.10333207003229 24.7744
35.12668405694369 24.8049
35.150220005273056 24.7218
35.17357501786656 24.6972
35.19693153931268 24.6951
35.220289570874385 24.6348
35.24383161619786 24.5899
35.267192683604904 24.6241
35.290555264930376 24.5056
35.314101899412165 24.5072
35.33746752422433 24.4847
35.36083466676374 24.491
35.38420332829803 24.4627
35.407756095629054 24.4738
35.43112781085063 24.4202
35.45450104888391 24.3808
35.477875810999194 24.374000000000002
35.50143473172161 24.3217
35.52481255774625 24.3212
35.54819191167777 24.2948
35.57157279478914 24.236
35.595137889488406 24.2629
35.61852184675279 24.1588
35.641907337029984 24.125
35.665294361595684 24.0683
35.68886565090076 24.0161
35.7122557598848 23.9545
35.73564740699838 23.9751
35.759040593519934 23.8943
35.78261809810353 23.9133
35.80601437933051 23.8174
35.829412203814705 23.779
35.85281157283719 23.7034
35.876395313415884 23.743000000000002
35.8997977874528 23.5699
35.92320180988546 23.5942
35.946790244133936 23.5632
35.97019737933222 23.5964
35.993606066789866 23.4839
36.01701630779276 23.4792
36.04061101440684 23.4391
36.06402437852291 23.4396
36.08743930005611 23.4032
36.1108557802951 23.2066
36.13445678011326 23.2817
36.15787639383515 23.2671
36.18129757014299 23.2239
36.20472031032821 23.212
36.22832762423364 23.1401
36.25175350829375 23.1279
36.275180960119776 23.0714
36.298609981005924 23.081999999999997
36.32222362992669 23.1258
36.34565580510207 23.0392
36.36908955323448 22.921
36.39252487562093 22.8975
36.416144880530226 22.8811
36.43958336764275 22.9029
36.463023432914625 22.8978
36.486465077645676 22.7688
36.51009145956204 22.798000000000002
36.53353627947859 22.8179
36.55698268276811 22.7176
36.58043067073321 22.6996
36.60406345072071 22.6411
36.62751462435344 22.6069
36.65096738658405 22.6392
36.67460498210655 22.56
36.69806093788647 22.5675
36.72151848619297 22.4758
36.744977628333636 22.4693
36.76862165890998 22.3979
36.79208400512205 22.3935
36.81554794910557 22.3616
36.83901349217101 22.2741
36.862663978991606 22.2307
36.88613273667352 22.1821
36.90960309738324 22.1796
36.933075062434064 22.1435
36.95673202673572 22.1646
36.98020721697122 22.1094
37.003684015502365 22.087
37.027162423645365 22.0299
37.050825886711465 22.0012
37.07430753063053 21.9389
37.09779078812467 21.8862
37.121275660513014 21.8811
37.144945643673694 21.8507
37.16843376245278 21.8247
37.19192350009803 21.7726
37.215414857931435 21.7994
37.239091382563885 21.7222
37.262585997426164 21.7178
37.28608223645736 21.6388
37.309763684451696 21.6422
37.33326318851098 21.5609
37.356764320726555 21.4917
37.380267082425526 21.5162
37.40395510942588 21.5407
37.42746114683234 21.4629
37.45096881771841 21.4024
37.474478123414166 21.3919
37.49817275092816 21.3292
37.52168534303452 21.3964
37.54519957395567 21.2631
37.568715445024665 21.2455
37.592416694607714 21.1917
37.61593586281424 21.2196
37.63945667518264 21.2668
37.66297913304891 21.0965
37.68668702630454 21.1203
37.710212792059274 21.0483
37.733740207334854 20.9938
37.757269273470364 20.94
37.780983832050374 20.9632
37.80451621684926 20.9559
37.82805025654007 20.8714
37.851585952464795 20.8366
37.8753071980695 20.7397
37.89884622345676 20.7577
37.92238690911902 20.7764
37.94611318753442 20.6523
37.969657210779765 20.7134
37.99320289834801 20.684
38.016750251586465 20.6312
38.04048325513017 20.4955
38.06403395679343 20.5233
38.087586328183946 20.4876
38.11114037065203 20.4227
38.13488012115898 20.4542
38.1584375229181 20.3946
38.181996599821 20.3377
38.205557353221124 20.3258
38.229303872575656 20.2778
38.2528679961576 20.2374
38.27643380031219 20.2217
38.30000128639589 20.2362
38.32375459653193 20.2101
38.34732546371299 20.197
38.37089801690786 20.0894
38.39447225747609 20.0253
38.418232380377425 20.0715
38.441810012983396 20.0303
38.46538933705673 20.000999999999998
38.488970353960084 19.9462
38.51273731166058 19.8906
38.536321731567014 19.8383
38.55990784840681 19.8539
38.58367995004091 19.8348
38.60726947812959 19.7718
38.63086070726198 19.8026
38.654453638806274 19.7606
38.678232613930824 19.6727
38.70182896773327 19.6796
38.72542702806741 19.5828
38.7490267963045 19.6323
38.77281266709232 19.5322
38.79641586862214 19.5488
38.8200207821842 19.468
38.843627409152944 19.5101
38.86742019782782 19.5312
38.891030269149255 19.4573
38.914642058016156 19.4219
38.938255565806124 19.4034
38.96205529464307 19.3669
38.98567225787121 19.3572
39.00929094417078 19.2825
39.03291135492255 19.2702
39.05671804624804 19.1655
39.080341923549106 19.1638
39.103967529460334 19.1753
39.127594865365744 19.0641
39.15140854155791 19.0265
39.17503935514948 19.0692
39.19867190290282 19.0643
39.22249083587951 19.0453
39.24612686969409 18.9794
39.269764641845306 18.9323
39.293404153722804 18.9663
39.317230110864074 18.8484
39.34087311998506 18.8271
39.36451787301696 18.7998
39.388164371352595 18.7528
39.41199737518003 18.7233
39.43564738196752 18.7104
39.45929913825317 18.6736
39.48295264543308 18.6224
39.506792718520884 18.5887
39.530449745387216 18.6065
39.55410852735203 18.542
39.57776906581474 18.6104
39.60161623079 18.5511
39.625280300200025 18.4956
39.64894613032202 18.4608
39.67261372255866 18.3897
39.6964680021016 18.3657
39.72013913657293 18.4785
39.74381203738292 18.3693
39.76748670593756 18.349
39.79134812278169 18.3316
39.81502634488497 18.2574
39.83870633896685 18.2575
39.862388106436654 18.2027
39.88625668336918 18.244
39.90994201572829 18.1859
39.933629125719285 18.1006
39.957503091207826 18.102999999999998
39.9811937746168 18.0844
40.00488623990914 18.014
40.02858048850006 17.9674
40.05246165409549 18.0143
40.076159487492085 17.9085
40.099859108448875 17.8966
40.123560518384345 17.924
40.1474489070226 17.8555
40.171153913178564 17.8342
40.194860712584955 17.817
40.2185693066637 17.7676
40.242464941335314 17.7575
40.26617714307655 17.694000000000003
40.289891143772046 17.6996
40.3136069448471 17.6888
40.33750984859743 17.6233
40.3612292688043 17.573
40.3849504936829 17.5731
40.40867352466194 17.5958
40.43258372059144 17.5741
40.45631038219906 17.5542
40.48003885420956 17.4679
40.503769138055105 17.4171
40.52768664931955 17.4574
40.55142057531802 17.382
40.57515631746428 17.3789
40.599079334038514 17.3449
40.62281872700477 17.2652
40.64655994043941 17.2774
40.67030297578061 17.2096
40.69423334835778 17.2167
40.71798004609188 17.1569
40.74172857006355 17.1619
40.76547892171441 17.1601
40.7894166736039 17.0913
40.813170699248566 17.0679
40.83692655691388 17.0329
40.86068424804498 17.0227
40.884629402612525 16.9979
40.908390779366385 16.9725
40.932153993938 16.9144
40.95591904777605 16.9531
40.979871628443995 16.9183
41.003640379561936 16.8953
41.02741097430883 16.84
41.05118341413683 16.8392
41.075143444384416 16.8014
41.098919593177826 16.7923
41.1226975914255 16.7592
41.14647744058318 16.6785
41.170444943946755 16.6804
41.19422851378379 16.7036
41.218013938914645 16.6584
41.24198706625173 16.617
41.26577622087193 16.6001
41.289567235177785 16.5567
41.31336011063129 16.4755
41.337340752422875 16.4487
41.361137369129835 16.42
41.38493585138705 16.4872
41.40873620066004 16.396
41.43272438060107 16.3443
41.45652848292052 16.3265
41.48033445666918 16.3047
41.50414230331616 16.2439
41.528138045159764 16.3049
41.551949656675205 16.1994
41.575763145513235 16.1528
41.59957851314666 16.1516
41.62358184070442 16.1811
41.64740098505737 16.1676
41.6712220126409 16.0906
41.69504492493139 16.0494
41.71905586207357 16.0707
41.74288256296395 16.0371
41.766711153007456 15.9848
41.79054163368412 16.0269
41.814560204340054 15.9667
41.838394485526365 15.9515
41.86223066180303 15.8964
41.88625497706819 15.860999999999999
41.910094962812 15.8406
41.93393684811168 15.7839
41.95778063445365 15.6911
41.981812625263366 15.7109
42.00566023303407 15.7441
42.029509746323676 15.6826
42.05336116662236 15.6654
42.077400857069705 15.67
42.10125611078846 15.6171
42.12511327600405 15.5681
42.14897235421036 15.5552
42.173019768448455 15.5777
42.19688269209613 15.4963
42.22074753323349 15.4518
42.24461429335818 15.4539
42.268669455600495 15.4299
42.292540073217886 15.477
42.31641261433284 15.4211
42.34028708044675 15.3567
42.36435001496739 15.3938
42.38822835065557 15.3249
42.41210861586426 15.3013
42.4359908120986 15.2735
42.46006154323262 15.2332
42.48394762115317 15.2267
42.507835634632315 15.165
42.531912233047436 15.2247
42.55580413732265 15.1597
42.579697981698 15.1125
42.60359376768525 15.0717
42.62767820545945 15.078
42.65157789440821 15.020999999999999
42.67547952952185 15.0361
42.699383112316 15.0167
42.72347541395347 14.9812
42.74738291190531 14.8986
42.771292362102166 14.9407
42.795203766063516 14.8737
42.819303956130405 14.819
42.843219287476536 14.7802
42.86713657716324 14.8246
42.89105582671383 14.7708
42.91516392983864 14.7339
42.939087119032166 14.7545
42.963012272677304 14.7741
42.98693939230129 14.7126
43.01105543317513 14.7177
43.034986504731386 14.6425
43.05891954686589 14.6513
43.08285456110972 14.6126
43.10697856448665 14.5395
43.130917542983475 14.5173
43.15485849820081 14.4769
43.17880143167367 14.4286
43.20293342237094 14.4401
43.226880332449 14.4351
43.25082922540554 14.424000000000001
43.27496722682525 14.3834
43.29892010567796 14.3763
43.32287497204102 14.3083
43.34683182745632 14.2102
43.370977859791836 14.2671
43.39493871351105 14.2673
43.41890156092628 14.2457
43.44286640358341 14.2254
43.46702049182749 14.2119
43.49098934522816 14.1654
43.51496019852649 14.1231
43.5389330532723 14.0611
43.56309522248204 14.0304
43.58707210044314 14.0379
43.61105098451946 14.0077
43.63503187626491 13.9749
43.659202151562134 13.9803
43.68318707902681 13.9393
43.70717401884041 13.9626
43.731162972560874 13.9002
43.75534137913236 13.855
43.779334381108384 13.8559
43.803329401683186 13.8327
43.82732644241872 13.8257
43.8515130055166 13.7715
43.87551410707659 13.7156
43.89951723350145 13.7519
43.923709934595614 13.7366
43.94771713129917 13.7014
43.97172635758096 13.6861
43.99573761501002 13.6469
44.0199385169922 13.5991
44.04395385732619 13.6053
44.067971233533086 13.6001
44.09199064718605 13.5673
44.11619977548961 13.5108
44.14022328470671 13.4496
44.16424883610785 13.4601
44.18827643127035 13.4698
44.21249381139513 13.4188
44.236525514814076 13.377
44.26055926674478 13.3931
44.28459506876863 13.386
44.3088207262813 13.3286
44.33286064928722 13.2867
44.35690262714919 13.2707
44.38094666145278 13.2749
44.4051806219871 13.2837
44.42922879003185 13.245999999999999
44.45327901929361 13.2059
44.477331311362136 13.2036
44.501573600619416 13.1575
44.525630039221795 13.0804
44.54968854541895 13.1352
44.573937102200176 13.1006
44.5979997645541 13.0722
44.622064499300315 13.0195
44.64613130803592 12.9758
44.67038823869318 12.9372
44.69445921643748 12.9764
44.718532272981385 12.9293
44.742607409926194 12.9428
44.76687274034801 12.9047
44.79095205918753 12.8314
44.81503346325094 12.8981
44.839116954143876 12.8448
44.86339071028742 12.7968
44.88747839599524 12.7718
44.91156817336837 12.7591
44.93566004401666 12.76
44.959942251908146 12.7339
44.984038330325966 12.689
45.00813650686762 12.6772
45.03223678314731 12.6606
45.05652746888232 12.6218
45.08063196592069 12.5769
45.104738567558705 12.5445
45.128847275414856 12.5354
45.15314646515866 12.5177
45.17725940679741 12.4987
45.20137445952892 12.4587
45.22568004865265 12.5005
45.24979934496396 12.4804
45.27392075725247 12.4719
45.29804428714431 12.4284
45.322358426247604 12.3734
45.346486212804315 12.315999999999999
45.370616121861914 12.2996
45.39474815505086 12.2927
45.41907087049246 12.276
45.4432071734666 12.2202
45.46734560548283 12.2742
45.49148616817604 12.2713
45.51581748638564 12.2244
45.5399623320197 12.2257
45.56410931325473 12.1499
45.58825843173002 12.1475
45.61259837920865 12.104000000000001
45.636751793816 12.0995
45.66090735060093 12.0634
45.68506505120716 12.0073
45.7094136545275 12.0416
45.73357566449271 11.9899
45.75773982322992 12.0009
45.78190613238733 11.9771
45.806263418194064 11.9343
45.83043404997326 11.9844
45.85460683713677 11.9097
45.87897065658495 11.8914
45.90314777634752 11.8582
45.92732705646868 11.8485
45.9515084986045 11.8118
45.97588104735473 11.7686
46.00006683541565 11.7543
46.02425479047904 11.7545
46.04844491420549 11.7424
46.0728262191024 11.7421
46.09702070211635 11.7071
46.12121735879483 11.7046
46.14541619080294 11.6761
46.169806278764455 11.6446
46.194009483459034 11.6
46.21821486849841 11.6062
46.24242243555223 11.6009
46.266821333570014 11.5705
46.29103328674601 11.5614
46.31524742696538 11.5377
46.33946375590237 11.4947
46.36387149104216 11.4665
46.38809221957392 11.4211
46.41231514186606 11.4204
46.436540259597464 11.4109
46.460956858999374 11.4045
46.48518638983522 11.3709
46.509418121166966 11.3394
46.533652054678114 11.3118
46.55807754555709 11.2389
46.58231590571962 11.2688
46.60655647313217 11.2697
46.630988654873654 11.2312
46.655233659129024 11.2005
46.67948087571551 11.2492
46.70373030632484 11.1884
46.72817142736393 11.1746
46.752425308428684 11.1612
46.77668140861147 11.1321
46.80093972960865 11.0878
46.82538981736788 11.0523
46.849652602470904 11.0056
46.87391761349769 10.9919
46.8981848521493 11.0441
46.9226439341274 10.9846
46.946915650573224 10.9436
46.97118959976749 10.9579
46.99546578341598 10.9363
47.019933887188216 10.9207
47.04421456235744 10.9084
47.06849747711879 10.8739
47.09278263318286 10.8569
47.11725978640143 10.7992
47.14154944775105 10.7979
47.165841355555656 10.7881
47.1901355115306 10.762
47.214621741924994 10.7693
47.23892041698887 10.7583
47.26322134538975 10.7041
47.28771440635075 10.6829
47.31201986422527 10.7123
47.33632758061436 10.6328
47.360637557241866 10.6406
47.38513974410611 10.6159
47.40945426407847 10.6221
47.43377104948137 10.5892
47.45809010204344 10.5309
47.48260144275502 10.5145
47.506925052572285 10.5547
47.53125093475548 10.5071
47.55557909103813 10.4694
47.58009961361992 10.4254
47.60443234110732 10.4294
47.62876734791564 10.4073
47.65310463578333 10.4151
47.6776343683373 10.3671
47.7019762413987 10.3131
47.72632040075572 10.314
47.75066684815169 10.3229
47.77520581885936 10.2734
47.799556865477655 10.2764
47.823910205386 10.2653
47.84826584033272 10.2368
47.87281407745551 10.2186
47.89717432569297 10.2131
47.92153687423484 10.2136
47.94609208429692 10.1576
47.97045925671401 10.1219
47.99482873471275 10.1202
48.01920052005013 10.1238
48.04376504619224 10.0816
48.068141469543484 10.0907
48.09252020552573 10.0841
48.11690125590099 10.0616
48.1414751266064 10.0074
48.16586082917454 9.97917
48.19024885144316 9.942219999999999
48.2146391951793 9.972999999999999
48.239222439012764 9.99271
48.26361744916137 9.95762
48.28801478610016 9.9389
48.31241445160131 9.92941
48.337007097209366 9.91282
48.36141144338331 9.87999
48.38581812345755 9.849739999999999
48.41022713920929 9.81471
48.434829215320704 9.77646
48.45924292604658 9.812380000000001
48.48365897780325 9.80569
48.50807737237308 9.758339999999999
48.532688907799276 9.76656
48.55711201168574 9.69774
48.581537463754074 9.7244
48.60615611725119 9.71261
48.63058628942721 9.69736
48.65501881516546 9.68847
48.6794536962573 9.65333
48.70408185970339 9.602089999999999
48.72852147531801 9.57318
48.75296345168211 9.586910000000001
48.77740779059232 9.53308
48.80204549302823 9.55525
48.82649458091802 9.54012
48.85094603676547 9.4821
48.87539986237231 9.52645
48.90004713292306 9.458919999999999
48.92450572200832 9.50309
48.94896668628025 9.47067
48.97343002754588 9.44704
48.99808689542115 9.44548
49.02255501470614 9.46195
49.04702551642794 9.41735
49.0714984023988 9.35165
49.096164896893235 9.36359
49.120642575466796 9.32814
49.145122643748394 9.31441
49.16960510355558 9.29542
49.19428125404938 9.26565
49.2187685210852 9.28779
49.243258185121555 9.22299
49.26794160167084 9.193719999999999
49.2924360839405 9.16323
49.31693296869764 9.13451
49.34143225776915 9.15039
49.36612538195438 9.149610000000001
49.39062950396021 9.14237
49.41513603578346 9.09551
49.4396449792564 9.04138
49.46434784069503 9.08543
49.488861631846454 9.05198
49.513377840166804 9.049669999999999
49.537896467493745 9.00653
49.56260909589029 8.98198
49.587132585683285 8.98126
49.611658500018365 8.98135
49.636186840738596 8.90048
49.66090926588511 8.87691
49.685442483902584 8.89766
49.70997813385706 8.89321
49.734516217597076 8.86923
49.75924846937352 8.869639999999999
49.7837914452858 8.85188
49.80833686055187 8.798789999999999
49.83288471702571 8.793389999999999
49.85762682540054 8.8183
49.882179588965734 8.79087
49.9067347993235 8.76799
49.93129245833333 8.75654
49.95604445336378 8.74766
49.98060703442832 8.67233
50.005172069746266 8.67135
50.02993150438364 8.707089999999999
50.05450147301533 8.68903
50.07907390151433 8.66611
50.10364879174981 8.6423
50.12841816587289 8.64403
50.1529980044635 8.57478
50.17758031042124 8.52616
50.20216508562089 8.54841
50.22694442953363 8.49943
50.25153416817468 8.4801
50.27612638170508 8.49041
50.300721072005196 8.49929
50.325510416102105 8.47655
50.350110084975064 8.478819999999999
50.37471223628208 8.48976
50.39931687190919 8.45314
50.424116246675766 8.409310000000001
50.44872587605249 8.3978
50.47333799543065 8.41766
50.49795260670191 8.388060000000001
50.52276204271512 8.32368
50.54738166295838 8.31475
50.57200378079314 8.32572
50.596628398116835 8.28076
50.62144792604559 8.29761
50.646077567609396 8.27897
50.670709714377715 8.282869999999999
50.69553683636198 8.24732
50.72017401885922 8.23963
50.7448137122895 8.23352
50.76945591856022 8.195789999999999
50.79429318636823 8.17573
50.818940443716784 8.17034
50.84359021965163 8.14107
50.868242516085964 8.15105
50.893089960641895 8.14149
50.917747323549435 8.07599
50.94240721271973 8.08539
50.96706963007175 8.03048
50.99192728239342 8.03487
51.01659478166073 8.044939999999999
51.04126481489051 8.04274
51.06593738400761 8.010810000000001
51.090805275207074 8.01149
51.11548294172845 7.950539999999999
51.14016314993547 7.9693
51.164845901758845 7.95887
51.18972406304274 7.919569999999999
51.21441192780656 7.89115
51.23910234200271 7.9284300000000005
51.2637953075678 7.9082300000000005
51.288683770237945 7.8688899999999995
51.31338186432707 7.823919999999999
51.33808251561888 7.79622
51.362978729967345 7.80611
51.387684521509755 7.79149
51.41239287610203 7.78245
51.437103795691165 7.7456
51.46201036644977 7.695860000000001
51.486726441956634 7.7088600000000005
51.51144508832545 7.7062
51.536166307509156 7.734310000000001
51.56108326624387 7.6618699999999995
51.58580965706056 7.652889999999999
51.61053862657523 7.66415
51.635270176746864 7.643110000000001
51.66019755512065 7.60733
51.68493429268881 7.60292
51.70967361681515 7.60197
51.73441552946465 7.5571
51.759353359237934 7.5613399999999995
51.7841004750961 7.5841899999999995
51.80885018539685 7.54062
51.833602492111254 7.49521
51.8585508051424 7.481
51.883308330926425 7.47501
51.90806845906181 7.468999999999999
51.932831191525715 7.44871
51.95779001977161 7.437819999999999
51.98255798721516 7.4332899999999995
52.00732856494335 7.373069999999999
52.03229530577543 7.392339999999999
52.057071130455945 7.3608199999999995
52.081849571391054 7.3631899999999995
52.106630630568695 7.33523
52.13160794279417 7.267869999999999
52.15639426492067 7.310230000000001
52.18118321127822 7.31354
52.205974783860896 7.26911
52.23096269971011 7.24257
52.255759551287994 7.24148
52.280559035098186 7.220789999999999
52.30536115314103 7.2016
52.33035970494467 7.19665
52.35516711807904 7.2075
52.37997717147198 7.19142
52.40478986713005 7.1342
52.42979908731974 7.15025
52.454617094216 7.15619
52.47943774942214 7.09782
52.50426105495102 7.06195
52.529280976059844 7.05398
52.554109609024096 7.0428
52.57894089837482 7.04347
52.60377484613117 7.041519999999999
52.62880550079408 7.005719999999999
52.65364479223379 6.986439999999999
52.67848674816189 6.961989999999999
52.70352547971946 6.953710000000001
52.72837279155837 6.97469
52.753222773982785 6.95413
52.778075429022984 6.9283600000000005
52.80312495150885 6.93095
52.827982978797436 6.90234
52.85284368481815 6.89421
52.87770707160767 6.86568
52.90276741793998 6.8531
52.92763619336701 6.8422600000000005
52.952507655698504 6.8185899999999995
52.977381806977576 6.81451
53.00245301017842 6.8144100000000005
53.02733256653592 6.766710000000001
53.052214817996074 6.76335
53.077099766608484 6.75318
53.102181859804446 6.774780000000001
53.127072229988265 6.733
53.15196530349892 6.7107
53.17686108239249 6.656689999999999
53.20195409881522 6.6955800000000005
53.22685531582556 6.673369999999999
53.25175924441303 6.67576
53.27666588664027 6.642060000000001
53.30176985962693 6.66857
53.3266819565689 6.65366
53.35159677336455 6.6046
53.376514312083096 6.64658
53.40162927507703 6.58705
53.42655228516116 6.55404
53.45147802340193 6.537669999999999
53.47660125628886 6.53924
53.50153247842639 6.53937
53.52646643496923 6.488119999999999
53.55140312799818 6.5002699999999995
53.576537409691696 6.4444300000000005
53.60147960336152 6.48914
53.626424539786164 6.489730000000001
53.65137222105307 6.44461
53.67651758529126 6.41376
53.70147078399681 6.43452
53.72642673383343 6.42304
53.75138543689533 6.39623
53.776541917524526 6.36606
53.801506154876755 6.34744
53.826473151763246 6.31802
53.851442910284916 6.3108
53.87661054126026 6.30582
53.9015858509782 6.29486
53.92656392866066 6.3047
53.95154477641532 6.29882
53.976723591801296 6.27473
54.00171000771266 6.2495
54.02669920004598 6.24102
54.051691170915745 6.23029
54.076881204886796 6.20779
54.101878760928514 6.18622
54.12687910187696 6.1757800000000005
54.152077577768296 6.16406
54.1770835166946 6.144080000000001
54.20209224691339 6.12489
54.22710377055121 6.1326
54.25231352511594 6.11377
54.27733066384342 6.080369999999999
54.30235060239643 6.05769
54.32737334290836 6.06661
54.35259441062629 5.98948
54.377622783395324 5.99838
54.40265396455061 6.014419999999999
54.42768795623251 6.01299
54.45292037169559 5.9675199999999995
54.477960012857906 5.966819999999999
54.50300247099511 5.95399
54.52804774825457 5.87067
54.55329154616743 5.88417
54.57834249018678 5.85449
54.6033962597977 5.8521
54.6284528571545 5.78255
54.653708072335164 5.77203
54.67877035378786 5.80622
54.70383546947698 5.72985
54.72890342156389 5.7175
54.7541700889442 5.73378
54.77924374251975 5.681
54.8043202390049 5.68228
54.82959552413022 5.6645199999999996
54.8546777351945 5.6815
54.87976279569621 5.61954
54.90485070780914 5.64366
54.930137506558005 5.60619
54.95523115074295 5.59926
54.98032765308844 5.5559
55.005427015775496 5.51521
55.03072536339621 5.48714
55.05583047570572 5.46831
55.080938454927676 5.4951099999999995
55.10604930325027 5.49715
55.131359235107396 5.4827900000000005
55.15647585066083 5.3840699999999995
55.181595341907496 5.39417
55.20671771104285 5.37507
55.232039262617704 5.30901
55.25716741665048 5.2973099999999995
55.28229845518636 5.31075
55.30743238042802 5.2606
55.33276558731939 5.2133199999999995
55.357905315183636 5.24333
55.383047936390035 5.17227
55.40819345314859 5.16021
55.433538351073295 5.16915
55.458689688238415 5.16165
55.483843927614096 5.10944
55.509197623043605 5.1061
55.53435769621134 5.06156
55.55952067826466 5.044230000000001
55.5846865714265 4.98658
55.61005202069737 4.99051
55.63522376553902 4.978280000000001
55.66039842818645 4.967
55.68557601087004 4.98264
55.7109532500271 4.81314
55.73613670233794 4.92443
