TT I
1.2716486653135266 7.0496
1.2939594142134223 6.94212
1.3162702121660406 6.36544
1.3385810600174564 6.50727
1.3608919586137629 6.3643
1.383202908801069 6.03632
1.405513911425503 6.28199
1.4278249673332093 6.44201
1.4501343378461518 6.0271099999999995
1.4724455028545926 5.55748
1.4947567236847858 5.61005
1.517068001182951 6.16135
1.5393793361953272 6.01012
1.5616907295681737 5.63244
1.5840021821477681 4.7184800000000005
1.60631369478041 5.09476
1.6286252683124185 5.25972
1.6509369035901333 5.38431
1.6732468618895553 4.8849599999999995
1.695558623192809 4.7106900000000005
1.7178704487808514 5.00781
1.7401823395001077 5.11428
1.7625012545597203 4.85999
1.7848028405262486 4.95806
1.8071218901122095 4.8143199999999995
1.8294236121921872 4.32444
1.8517427996910911 4.5046800000000005
1.8740620574440425 4.9502
1.8963639900671978 3.87998
1.9186833908139995 4.79676
1.9409854680117449 4.52533
1.9633050151394713 5.51627
1.9856246367570705 4.769880000000001
2.0079269371922672 4.70136
2.03024671027244 4.51325
2.0525491637446027 4.580769999999999
2.074869091674931 4.98091
2.097171701569106 5.34759
2.1194917877373847 5.175269999999999
2.141811954326636 5.08009
2.164114805233074 4.7914900000000005
2.186435135143035 5.49967
2.208738150935709 10.8947
2.231058647554722 19.155
2.2533792288321184 14.7908
2.275682498336085 7.494789999999999
2.298003251406138 5.90995
2.3203066942619714 5.58406
2.3426276225136022 5.386
2.3649486396617507 6.1897199999999994
2.387252348930071 6.03536
2.4095735463442893 5.74967
2.4318774374315884 6.543769999999999
2.4541988185014043 6.824039999999999
2.476502894794693 7.23588
2.498824462909887 7.21638
2.521146125856138 7.67749
2.5434504863470337 7.6809199999999995
2.5657723414244717 8.10405
2.588076895590662 8.79397
2.610398946189713 8.00605
2.6327210958598384 7.485310000000001
2.6550259469304716 8.53053
2.6773482972090137 8.67234
2.6996533504259 8.27557
2.7219759047039602 8.608419999999999
2.744298562293959 8.19815
2.7666039251246595 7.67743
2.7889267918020164 8.753969999999999
2.8112323652516555 8.901689999999999
2.833555444408179 8.82987
2.8558786311183852 8.54614
2.8781845268938557 9.0131
2.9005079311721484 8.95227
2.9228140460410397 8.736369999999999
2.9451376712799635 9.329369999999999
2.967444008632326 9.737739999999999
2.9897678582247247 9.906839999999999
3.0120918213106695 10.8058
3.0343984987899373 10.7436
3.0567226913198637 11.2404
3.079029599759726 11.7722
3.101354025127254 12.415
3.123678568232338 13.3888
3.145985829517914 12.8948
3.16831061055229 13.5279
3.1906181112775593 14.3748
3.212943133635653 14.8768
3.2352682779763207 15.6335
3.2575761442691227 15.6008
3.2799015350264273 15.388
3.302209649240067 16.4032
3.3245352898092655 16.8513
3.3468436553365257 16.9575
3.369169549113219 17.4743
3.3914955708171384 18.1684
3.413804319727358 18.5482
3.4361305997334863 18.7002
3.4584396084414553 19.2923
3.4807661501462652 20.0503
3.503092824025881 20.6489
3.5254022288463154 20.8159
3.5477291695206588 21.3168
3.5700388426251948 22.1635
3.5923660534916446 23.7787
3.6146934007816114 32.6656
3.637003482731501 62.7934
3.6593311053109985 67.4645
3.681641464033634 43.312
3.7039693653009733 28.1892
3.726297407241705 25.3744
3.7486081875460804 24.8733
3.7709365132734978 25.6589
3.793247578841633 26.3508
3.8155761917550093 26.7649
3.8378875459837216 26.5104
3.8602164494827234 27.2862
3.882545499606844 28.1435
3.9048572932539183 28.1795
3.9271866390645718 28.6567
3.9494987298666713 29.4963
3.971828374764527 29.7371
3.9941581705403255 30.551
4.016470713506008 30.717
4.038800813471445 31.3304
4.061113662089144 32.1899
4.0834440696459176 32.7915
4.105774632334751 32.7458
4.128087945865126 34.4945
4.150418821249301 34.8306
4.172732448931298 36.2833
4.195063640413578 37.5102
4.2173775856475215 40.2064
4.239709096631102 62.0045
4.262040768704612 158.184
4.284355196706267 207.111
4.306687193387355 137.975
4.329001947444346 63.9478
4.35133427213731 45.1155
4.373666762177566 43.3689
4.395982011761091 43.5016
4.418314834921175 44.5668
4.44063041906622 50.1837
4.4629635787515625 56.6715
4.4852969080429785 56.9706
4.5076130004776225 52.3354
4.529946671403969 52.423
4.552263106909177 54.0991
4.574597122877047 53.3395
4.596931312711224 52.4739
4.619248269273446 53.013999999999996
4.6415828092605835 54.2355
4.663900117405352 54.7446
4.686235010953232 55.943000000000005
4.708552674085913 57.5422
4.730887924602802 58.9991
4.753223354952695 60.9446
4.775541557023902 63.2515
4.797877349456786 65.4765
4.820195915032126 66.5164
4.842532072957498 66.8355
4.864868414979744 69.0344
4.88718753227192 71.9762
4.909524244902505 74.3077
4.931843734218147 74.7465
4.954180820867835 76.5559
4.976518095879839 79.5724
4.998838149695359 82.5765
5.021175803844231 86.0975
5.043496238205739 89.2005
5.065834274903528 93.389
5.088172504230693 97.7779
5.1104935158799565 103.696
5.132832132875765 121.36200000000001
5.155153533596801 154.41
5.1774925416746225 187.85299999999998
5.199814334878411 344.776
5.2221537374521505 923.442
5.244493338631803 2701.36
5.266815727034316 7924.36
5.289155727832427 13659.7
5.311478517248165 8902.02
5.333818921080011 2599.48
5.356159527788849 472.19199999999995
5.3784829252032536 177.386
5.400823940070432 143.002
5.423147747031976 125.35799999999999
5.445489173474152 116.262
5.467830807066149 113.301
5.490155234831516 111.616
5.512497285125229 106.934
5.534822130975162 103.288
5.557164601388673 100.524
5.579489868738879 98.1223
5.601832762690846 97.0759
5.6241758697774475 95.6458
5.646501775867269 95.03
5.668845311622074 93.6685
5.691171647754637 92.9988
5.713515615597765 91.8879
5.735859800852677 91.0473
5.758186788542988 91.37100000000001
5.780531411018185 93.3116
5.802858837297399 93.1294
5.825203900414495 92.7465
5.8475491852224 94.4057
5.869877275883075 94.1536
5.892223006467101 93.4317
5.914551544266608 92.3456
5.936897724049891 95.0195
5.959244129804903 101.38799999999999
5.981573344815301 121.956
6.0039202049061 210.86
6.026249875609095 434.095
6.04859719346037 914.0889999999999
6.070927323278297 2251.73
6.093275102315365 4586.5
6.115623113320588 5160.38
6.137953938319995 2998.02
6.160302415650845 819.42
6.182633708324452 194.55200000000002
6.2049826554078376 105.09700000000001
6.227331838745022 88.0506
6.249663839443684 81.8137
6.27201349767565 79.1911
6.294345974611799 82.1176
6.316696111167083 88.3659
6.339046488263839 84.6192
6.361379686074702 75.0167
6.383730546639482 70.3298
6.406064229255215 68.5584
6.428415576718203 68.596
6.450749747566656 67.2842
6.47310158535871 65.4614
6.495453669698332 64.133
6.517788579421056 63.7629
6.540141159237969 63.0478
6.562476565766648 62.4423
6.5848296444934045 61.673
6.607182974060425 61.641999999999996
6.6295191323281015 61.7382
6.651872965955752 63.3979
6.6742096296068985 79.0304
6.6965639707294615 106.492
6.71891856698715 105.837
6.741255995248479 79.5145
6.763611104154477 63.7485
6.785949046381137 58.6062
6.808304671371482 57.9924
6.8306605557940046 58.5284
6.852999275508618 57.8073
6.875355681171544 56.5588
6.897694923437771 55.5936
6.92005185377892 55.5412
6.9423916220322655 55.0571
6.964749080490181 55.0593
6.987106804399774 54.9714
7.009447368180821 55.2707
7.031805625367033 54.9447
7.054146723727803 54.8821
7.076505517631004 54.1126
7.098864581288365 54.1621
7.121206488070854 54.3323
7.143566093607822 54.2022
7.165908543567245 54.2832
7.188268694426048 54.4627
7.2106291193438095 54.4951
7.232972390625943 54.8471
7.255333366030969 63.4402
7.277677189091925 95.8674
7.300038718428332 122.444
7.322400526130865 107.272
7.344745183422596 74.688
7.367107550224791 58.0133
7.389452767901992 54.8641
7.411815697249891 54.1327
7.434161478756298 53.1171
7.456524974096713 53.3752
7.478888753837185 53.2487
7.501235387657368 53.5371
7.523599738562711 53.9242
7.545946944825532 54.1699
7.568311870344528 54.3556
7.5906770845765665 54.2841
7.613025156078678 55.2888
7.635390950099687 55.9989
7.657739602662809 55.5955
7.680105979923558 55.2494
7.702472650212829 55.6314
7.724822180948224 55.7118
7.747189439655568 55.614
7.769539560075357 55.3689
7.791907410653562 55.6631
7.81425812420825 55.4297
7.836626570110925 55.7135
7.858995315087906 56.7614
7.881346924933401 57.0046
7.903716270417482 57.5066
7.926068482028405 57.7529
7.948438431475253 58.0147
7.9708086843180235 58.8765
7.993161805171116 59.3582
8.015532667162402 59.7935
8.037886398416653 61.0886
8.060257873014221 61.3937
8.082629655331942 61.893
8.104984308787587 63.1238
8.127356708900503 65.583
8.149711981398308 70.3654
8.172085002766314 71.9272
8.194458336181368 70.0376
8.216814543847752 68.1568
8.23918850371002 68.3641
8.26154533906492 69.5227
8.283919928836452 70.5432
8.306277395339652 71.3896
8.328652618483376 72.7481
8.351028159736202 74.92
8.373386579575245 77.3626
8.395762759396959 78.7976
8.418121819038275 82.848
8.440498640894003 92.4747
8.462875785192262 103.44
8.485235811156207 120.495
8.507613602688501 165.22
8.529974277114228 246.24
8.552352719347912 365.06
8.574731488360351 623.989
8.59709314210385 1191.63
8.619472567021075 1953.86
8.64183487789147 2282.66
8.664214962183097 1721.27
8.686577933647762 838.357
8.708958680784317 304.884
8.731339760774953 141.49
8.753703729764451 104.765
8.77608547780821 95.8622
8.798450116065078 92.6571
8.820832535634787 90.4863
8.843215292401656 90.0111
8.865580941199045 89.3211
8.887964374703538 88.5705
8.910330701447199 88.9291
8.932714815164482 89.9733
8.955099270424924 88.4297
8.977466620733543 85.9384
8.999851761421976 83.5915
9.022219798361645 82.7926
9.04460562795561 82.3095
9.066991803441677 82.15
9.089360876979615 81.9755
9.111747746589993 82.089
9.13411751544971 81.1024
9.156505082664324 80.9299
9.178875550323522 80.8169
9.20126381862328 80.6679
9.223652438908596 81.063
9.246023961427412 80.8837
9.26841328802173 80.9066
9.290785518039224 81.1836
9.313175554425882 82.0097
9.335565947154315 82.9128
9.357939245086508 83.4539
9.380330352834827 83.1543
9.40270436697103 83.399
9.425096193225055 83.1389
9.447488380180165 83.2247
9.469863475295412 83.3479
9.492256385987508 83.4028
9.514632206018318 83.9554
9.537025843935714 84.3253
9.559402392368193 85.1364
9.581796761000229 86.8851
9.604191496441521 88.6854
9.626569144158516 91.0994
9.648964615551032 93.8293
9.671343000390081 94.7006
9.693739211225699 93.4779
9.716135793237463 91.773
9.738515290448102 91.8141
9.760912617143402 92.8183
9.783292860202891 94.6949
9.805690935076182 96.5052
9.828089385495742 96.9055
9.850470754023561 98.9196
9.872869957865444 104.15100000000001
9.89525208097539 113.84299999999999
9.917652041736662 122.927
9.940052382417589 127.432
9.962435644102392 142.035
9.984836746950979 178.11700000000002
10.007220771957746 236.127
10.029622640473708 327.246
10.052007432299963 503.73699999999997
10.074410069984072 817.763
10.096813093716005 1305.65
10.119199042482517 1845.09
10.141602840636468 1992.66
10.163989564971628 1487.36
10.186394141051062 767.566
10.208799107559706 329.333
10.231187001965623 162.781
10.253592751657669 118.27799999999999
10.275981430388155 109.179
10.298387966769793 108.07700000000001
10.320794897965431 109.426
10.343184759907361 108.462
10.36559248305461 104.743
10.387983138083852 102.604
10.410391656691655 106.855
10.432800574501677 117.596
10.455192425893369 133.045
10.47760214443012 157.486
10.499994797678786 201.947
10.522405320453982 288.75
10.54479877906917 418.969
10.567210109595656 542.98
10.5896218454736 602.0409999999999
10.612016518879773 487.969
10.634429067781074 319.297
10.656824555333241 178.938
10.679237920773568 113.04299999999999
10.701651695961992 92.3078
10.724048411481384 87.1608
10.746463008485165 84.6541
10.768860546937125 83.3838
10.791275969274796 81.5583
10.81369180576079 80.7396
10.836090585366925 79.4842
10.858507252467449 78.4309
10.88090686379991 77.5784
10.903324365036394 77.0886
10.925724811614439 76.9727
10.948143150509463 77.5208
10.970561909719066 76.9573
10.992963615930844 75.5162
11.015383218085756 73.7101
11.037785768347074 72.178
11.06020621697282 71.3459
11.082627090322113 71.0835
11.105030913430326 70.2489
11.12745263854165 70.5322
11.149857314510728 72.5337
11.172279894912576 75.8678
11.194702904450653 75.8423
11.217108866490921 73.2593
11.239532736615194 70.495
11.26193956033512 69.0962
11.284364294577085 67.9216
11.306789462371718 66.535
11.329197585398376 65.8508
11.351623622610898 65.8342
11.37403261614354 64.8553
11.396459526308487 64.7702
11.418869393879497 64.3903
11.441297180532617 63.8137
11.463725406927658 63.8081
11.486136592353875 63.4117
11.508565700543707 63.9069
11.530977768845315 64.9113
11.553407762368774 65.1676
11.575838200059769 64.9876
11.598251599479612 63.5025
11.620682927815501 62.7147
11.64309721895548 62.4603
11.665529441478206 62.0083
11.687962112597958 61.8989
11.710377748130886 61.6189
11.732811318753434 61.8438
11.755227854859067 61.8782
11.777662328529495 61.6042
11.800079768750786 61.6346
11.822515149015453 61.6862
11.844950984084935 61.8941
11.867369787303163 61.5289
11.889806534289491 61.3588
11.912226250487029 61.74100000000001
11.934663912939751 61.7267
11.9571020346363 61.747
11.979523127133968 62.1961
12.001962169624331 63.0086
12.024384183972964 63.9282
12.046824150809913 66.9198
12.069264581333726 71.4385
12.091687985297767 77.0846
12.11412934550045 85.3507
12.136553680195208 101.45700000000001
12.158995973632788 126.42299999999999
12.181438735204349 157.067
12.20386447284199 191.204
12.226308172985636 217.91099999999997
12.24873485024193 198.967
12.271179492516982 154.888
12.293607112949127 113.839
12.316052700916226 86.2371
12.338498763250042 72.3173
12.360927805303868 66.6892
12.383374818673879 64.1314
12.405804812803074 63.0101
12.428252780773262 62.8213
12.45070122756722 62.934
12.473132656675375 63.0522
12.49558206341869 63.4051
12.518014453510101 63.4917
12.540464823770117 63.6433
12.562915677315177 63.7556
12.58534951575545 64.1372
12.607801338171472 65.4348
12.630236146511358 68.7149
12.652688941369085 71.4776
12.675124723177234 72.1809
12.697578494048786 70.1386
12.720032754458185 67.5676
12.742470003354093 66.4726
12.764925245138771 66.6443
12.787363476431278 67.1382
12.809819703166806 67.3686
12.83227642391173 67.9728
12.854716135692716 68.6614
12.877173846755147 69.708
12.899614549869717 70.1587
12.9220732548287 70.7388
12.94453245827299 71.2075
12.966974655289818 72.2871
12.989434858002571 73.0608
13.011878055298721 73.6714
13.034339260862497 74.6877
13.056800969391883 75.8157
13.079245674017244 78.4155
13.101708390774869 81.4886
13.12415410463411 88.6553
13.146617833206086 98.9152
13.169064559883248 108.824
13.191529303857127 122.479
13.213994557076367 144.734
13.236442809902437 183.155
13.258909083908291 243.27
13.28135835851934 315.819
13.30382565690295 391.51099999999997
13.326293469022952 439.32099999999997
13.348744283242008 423.668
13.371213125129904 332.915
13.39366497011003 231.06
13.416134845360597 153.423
13.438605238843131 113.96700000000001
13.46105863690397 101.978
13.483530069144786 103.82
13.505984506951902 108.51799999999999
13.528456981549432 117.131
13.550929978879088 131.404
13.573385983253365 156.142
13.595860028340867 198.095
13.618317081455832 257.92900000000003
13.64079217790333 326.47
13.663250283359057 376.18300000000005
13.685726434770173 387.504
13.708203115221277 332.087
13.730662806148091 240.59099999999998
13.75314054697177 167.232
13.775601299246777 115.67299999999999
13.798080104050406 91.5636
13.820559442405358 82.6989
13.843021793671388 79.7664
13.865502201420897 78.4796
13.887965623051947 77.8344
13.910447103807167 77.0094
13.932929122629764 75.6949
13.955394156785959 75.3139
13.977877254034569 74.669
14.000343367582113 73.8831
14.022827546871707 73.1594
14.045294743423524 72.384
14.06778000837062 71.7675
14.090265817715476 71.7084
14.112734645763819 71.2536
14.13522154619454 70.8024
14.157691466286913 70.6314
14.180179461423874 70.7147
14.202668005486178 69.9981
14.22513957064374 69.324
14.247629214846473 69.1734
14.270101881097517 69.094
14.29259262906496 69.0258
14.315083930490205 69.3684
14.337558255389705 69.5186
14.360050666019726 69.4636
14.382526101071944 68.6514
14.405019624534942 68.0545
14.427513705993134 67.6256
14.449990813291825 67.6747
14.47248601302899 67.6494
14.49496423954951 67.8038
14.517460561197822 67.6833
14.539939910570322 67.4629
14.562437357763558 67.657
14.58493536931253 68.7016
14.607416409993311 69.0074
14.62991555254159 69.5514
14.652397725157423 69.3643
14.674898002342799 69.3156
14.697398848433282 69.197
14.719882725991326 70.2143
14.74238471217934 71.4868
14.764869730765593 74.6859
14.787372860692983 78.0124
14.809876564079925 81.6657
14.83236330125751 86.8014
14.854868153850365 95.4033
14.877356041159485 109.81700000000001
14.899862046604186 129.433
14.922351087688757 157.535
14.944858249632887 189.049
14.967365991421232 218.918
14.989856770231246 228.99400000000003
15.012365673994204 214.662
15.03485761569738 179.201
15.05736768508665 139.042
15.07987833888692 104.62899999999999
15.102372032001655 84.2095
15.124883856909658 73.671
15.14737872204565 70.2892
15.169891721717274 69.047
15.192405310371893 68.8688
15.214901940621196 68.8653
15.237416709527137 68.7665
15.259914520936249 68.8323
15.282430473753607 68.1173
15.304947020131227 67.1767
15.327446610371178 66.4161
15.349964346154254 65.7249
15.372465126703139 65.5138
15.394984055556009 65.5033
15.417486030076159 65.1645
15.44000615566487 64.8483
15.462526881230803 64.87899999999999
15.485030653812652 64.8418
15.507552581617434 64.832
15.530057557334603 64.7301
15.55258069104857 64.7548
15.575104429329837 65.0625
15.597611216864632 64.774
15.620136166564563 65.1218
15.6426441664095 66.2184
15.665170331202765 68.6015
15.687697105158826 71.2533
15.710206930593545 74.3524
15.732734925158933 78.0506
15.755245972089478 84.135
15.77777519094324 92.8962
15.800287463046663 106.845
15.822817909869592 128.27
15.84534897229804 152.334
15.867863089299354 176.088
15.890395385222186 193.24599999999998
15.912910736597423 193.93900000000002
15.935444269699861 176.89700000000002
15.957978423016485 145.69799999999998
15.980495633101265 112.57600000000001
16.003031029129367 87.6685
16.02554948280019 71.7422
16.048086125229432 65.0189
16.070623392487107 62.9324
16.09314371869582 62.3287
16.11568223789321 61.4835
16.13820381691126 60.5996
16.160743591742527 59.9384
16.183283996022084 59.0496
16.205807461423195 58.4001
16.228349126881973 57.6609
16.25087385432698 57.7575
16.27341678466365 57.0786
16.29594277784926 56.9843
16.31848697676433 57.1347
16.341031811604868 57.2973
16.36355971058487 57.3733
16.3861058195587 57.1036
16.40863499352978 55.773
16.431182380342005 55.2374
16.453730407713202 54.9297
16.476261501364792 54.7049
16.498810812136167 54.1984
16.52134319004079 54.5836
16.54389378792203 54.4904
16.566445031001553 54.2342
16.588979342490088 54.0816
16.61153187824822 54.0218
16.634067483263312 53.9123
16.656621315414416 54.0131
16.679175797408888 53.5034
16.701713349928728 53.3288
16.72426913389191 53.7521
16.74680798922351 53.676
16.76936507887444 53.6955
16.791905240734874 53.8748
16.814463639794468 53.744
16.837022695210294 53.7037
16.859564824093756 53.9142
16.882125194503903 54.5506
16.904668639217885 54.9397
16.927230328348003 54.869
16.949792678493612 55.0999
16.972338104193863 54.6344
16.994901778652235 54.2173
17.017448529496576 54.4945
17.040013531998152 54.8652
17.06257920018044 55.2438
17.0851279459922 56.3258
17.107694947817667 56.7825
17.130245028099072 57.5856
17.15281336730298 58.8537
17.17536478578733 60.3922
17.19793446610687 62.9142
17.220504818648422 65.9429
17.243058251703697 69.4253
17.265629950971032 74.4157
17.288184731571736 79.5365
17.310757781306908 83.2578
17.33333150794385 82.3258
17.355888317140174 80.0733
17.37846339986244 73.7546
17.401021565958885 67.4741
17.42359800851343 62.6668
17.44617513265564 59.8992
17.468735341390783 58.8003
17.491261035594565 58.0641
17.51396340099364 57.7891
17.536490463869136 58.047
17.559018209820174 58.0666
17.58154663977963 57.9136
17.604251766089718 58.0744
17.626781572227713 58.48
17.64931206518155 58.6338
17.671843245885103 59.2795
17.69455114821572 59.5592
17.717083712612634 59.7258
17.739616967569667 59.8877
17.762150914021706 60.2626
17.78486160749854 60.3491
17.807396945166804 61.0284
17.829932977143503 62.0678
17.85246970436452 63.6561
17.875183204129467 65.3558
17.897721330097664 67.1237
17.920260154126645 69.0782
17.942799677153296 72.0519
17.9655159983646 75.8455
17.988056927677544 81.4782
18.010598558807683 89.3821
18.033140892692916 100.34899999999999
18.05586005052525 112.73
18.07840379824407 125.37100000000001
18.10094825154059 134.386
18.12366954819864 139.632
18.146215420998306 136.405
18.16876200220057 124.77
18.191309292745153 110.38
18.214033452627167 96.3714
18.236582170236648 86.6932
18.259131600016456 83.206
18.281681742907335 84.9405
18.304408781233683 90.4811
18.32696035875955 97.0036
18.349512652227624 102.455
18.372065662579683 106.273
18.394795594587553 105.889
18.41735004715306 99.9516
18.43990521943684 91.26899999999999
18.46246111238171 81.7184
18.485193953325208 73.168
18.507751296070428 67.0271
18.530309362314178 63.7752
18.552868153000343 61.9883
18.57560391815056 60.869
18.59816416623245 60.4945
18.620725141597372 60.1007
18.643286845190268 59.5655
18.666025549835414 59.1709
18.688588718427933 58.7246
18.711152618092243 58.7084
18.73389353884365 58.4315
18.75645890921984 57.8396
18.77902501351406 57.5198
18.801591852673102 57.5603
18.824335739722738 57.1857
18.846904057212626 57.0109
18.8694731124168 56.648999999999994
18.89204290628315 56.68600000000001
18.914789774966803 56.5898
18.937361054791623 56.3054
18.959933076131318 56.1622
18.982505839934877 56.1649
19.00525570560582 55.9389
19.027829963004184 55.8594
19.05040496572238 55.833
19.072980714710468 55.7842
19.095733592739563 55.8489
19.11831084296757 56.2877
19.140888842324735 56.599
19.16346759176222 56.7465
19.18622349753803 57.2293
19.208803755869358 58.13399999999999
19.231384767143577 59.3727
19.253966532312948 61.2966
19.276725481241822 63.2764
19.29930876296784 65.9295
19.3218928014549 69.0306
19.34465404436217 72.1578
19.36723960516257 74.7831
19.389825925592426 74.8706
19.412413006605938 73.3766
19.43517731967805 69.2022
19.457765930683355 64.7879
19.48035530514408 60.5299
19.50294544401556 57.3521
19.525712842708348 55.04
19.54830451925909 54.0468
19.570896963095727 53.1763
19.593490175174704 52.9799
19.616260674962184 53.0085
19.638855432416964 52.648999999999994
19.661450960992624 52.7579
19.68404726164677 52.6314
19.706820878021247 52.3679
19.729418731756834 52.6592
19.752017360452857 52.3948
19.77461676506804 52.581
19.797393513540218 52.7771
19.819994478951667 52.9706
19.84259622316767 53.4887
19.8651987471481 53.7217
19.887978643247177 54.0341
19.91058273574792 54.4641
19.933187610901943 55.3493
19.955969879466828 56.4486
19.97857632894404 57.9743
20.00118356396599 59.8216
20.023791585494575 62.2618
20.046577028914875 65.2284
20.069186632506966 67.2275
20.091797025500632 69.0999
20.114408208858933 69.3995
20.137196842715273 68.1562
20.159809615886765 66.1606
20.18242318232135 63.5862
20.20503754298326 61.5867
20.227829382875154 60.8295
20.250445341109344 61.2402
20.27306209647285 62.482
20.29567964993108 64.0105
20.31847471147704 64.8796
20.34109387027612 65.3506
20.363713830075454 64.3506
20.386334591841646 62.5617
20.409132890679302 59.4481
20.431755265564437 56.3243
20.454378445325528 53.4284
20.477002430930366 51.9507
20.499803982716553 50.8532
20.522429589228004 50.3078
20.54505600449589 49.8792
20.567683229489194 49.6726
20.590488049900088 49.4367
20.61311690359731 49.1715
20.63574656993626 49.0833
20.658553853717297 48.7155
20.681185154618298 48.8781
20.703817271080066 48.5502
20.72645020407368 48.1736
20.749260783967177 48.07899999999999
20.771895359337133 48.2024
20.794530754161617 47.9896
20.817166969412938 48.0261
20.83998086114876 47.9467
20.86261872660049 47.7942
20.885257415405402 47.8165
20.90789692853701 47.7881
20.930714147864748 47.6818
20.953355319030678 47.6837
20.97599731745334 47.7846
20.99864014410749 47.7648
21.021460706796564 47.6196
21.044105199328826 48.0409
21.06675052302631 48.2407
21.089396678865015 48.3516
21.112220600704806 48.5975
21.134868430275347 49.1764
21.15751709492456 49.3436
21.180166595629693 49.5982
21.202993892429635 50.2125
21.22564507473034 50.4909
21.24829709602816 50.6547
21.27112693608965 50.5565
21.293780644891275 50.3114
21.316435195634053 49.5306
21.339090589297417 48.8723
21.361923832041875 48.6141
21.384580921090404 47.9386
21.407238856007325 47.451
21.429897637773326 47.426
21.45273429906592 47.5831
21.475394784108598 47.5587
21.498056118951983 47.5913
21.520718304578022 47.7996
21.543558400304388 47.9717
21.566222297108816 48.1755
21.58888704765135 48.096000000000004
21.61155265291521 48.3738
21.63439619898156 48.8917
21.657063523335786 48.9213
21.67973170537063 49.422
21.7024007460706 49.9887
21.72524775840385 50.6013
21.747918526116475 51.6825
21.770590155457388 53.0887
21.79326264741238 54.8941
21.816113141960237 56.7425
21.838787368860547 58.9569
21.861462461341976 60.9814
21.884315579735777 62.978
21.90699241312273 64.0132
21.92967011506078 64.1556
21.95234868653799 63.1975
21.9752053151131 61.3825
21.997885635446785 59.3056
22.020566828293532 57.5459
22.04324889464272 56.1661
22.066109049404666 55.4638
22.088792872571794 55.4775
22.111477572219204 55.6681
22.1341631493376 55.5698
22.157026846313123 55.0309
22.179714188221507 54.0179
22.202402410582668 52.726000000000006
22.22509151438863 51.1997
22.24795876962584 49.9095
22.270649646204486 49.2175
22.293341407213727 48.8515
22.316034053646906 48.2516
22.338904883215342 48.1467
22.36159931041458 48.0374
22.38429462602756 48.0561
22.40699083104897 47.8337
22.429865251039757 47.9053
22.452563244831367 47.9433
22.47526213102522 47.8604
22.49813925616515 47.7722
22.520839937143307 47.7822
22.543541513520587 47.8172
22.56624398629403 47.7007
22.589124730075895 47.5369
22.611829005656723 47.8789
22.63453418063466 47.8973
22.657240256008077 48.0264
22.680124634582935 48.0826
22.70283252079775 48.4226
22.725541310413075 48.619
22.74825100442868 48.8028
22.771139033969575 49.3713
22.79385054687155 49.6261
22.81656296718292 50.1703
22.83927629590484 51.1264
22.862167992606945 52.3017
22.88488314827121 53.6287
22.907599215359284 54.6818
22.93031619487366 56.0004
22.953211574954405 56.6951
22.975930389478226 57.3222
22.998650119445763 57.2505
23.02137076586092 56.0559
23.044269845560063 54.5627
23.06699233506288 52.8938
23.089715744034912 51.1307
23.112617610931565 49.5289
23.135342869061212 48.761
23.158069049684816 48.1263
23.1807961538087 47.7323
23.20370174880544 47.8367
23.226430710184808 48.051
23.249160598093425 48.007
23.271891413539002 47.9504
23.294800752937697 47.9662
23.31753343374794 48.0769
23.340267045128353 48.1605
23.36300158808808 48.4873
23.38591468821339 48.8568
23.408651104658304 49.3384
23.431388455719986 50.0038
23.454126742409 50.8809
23.4770436196085 52.0329
23.499783787914662 53.4183
23.522524894889884 54.6668
23.54526694154616 55.9779
23.56818761219047 57.056999999999995
23.59093154860734 57.3214
23.613676427751283 57.4276
23.636422250635754 56.0237
23.659346731118656 54.2458
23.68209445191868 52.0699
23.704843119509587 49.7612
23.72759273490623 48.2447
23.750521041644767 47.1015
23.77327256312355 46.165
23.796025035462787 45.8102
23.818956224555475 45.3104
23.841710609113413 45.1299
23.86446594758979 44.8909
23.887222241002014 44.6543
23.910157285144578 44.3981
23.932915498962537 44.2166
23.955674670778713 44.0295
23.978434801611975 44.0759
24.001373717286125 43.9301
24.024135776723917 43.7662
24.046898798245582 43.6399
24.06966278287146 43.5422
24.092605586582614 43.4478
24.115371508023642 43.3197
24.1381383956401 43.2615
24.16090625045381 43.053000000000004
24.183852958731244 43.0641
24.206622758582608 42.9745
24.229393528706886 42.6622
24.252165270127392 42.7704
24.27511589952438 42.8318
24.297889594216997 42.6701
24.32066426328598 42.4599
24.34343990775613 42.6136
24.36639447485003 42.4427
24.38917208083877 42.3328
24.41195066531332 42.273999999999994
24.43490819850244 42.4397
24.457688750692377 42.2703
24.48047028445616 42.2348
24.503252800821233 42.2809
24.526214300784112 42.3965
24.548998793132213 42.3338
24.57178427117417 42.2268
24.59457073593893 42.2058
24.617536219319863 42.1547
24.64032466834748 42.1329
24.663114107195035 41.9828
24.685904536893013 41.6111
24.708874020360852 41.8045
24.731666442613744 41.5872
24.754459858818787 41.5731
24.777254270007962 41.6622
24.80022777025625 41.5483
24.82302418230472 41.4194
24.845821592443674 41.6265
24.86862000170663 41.4638
24.891597535453727 41.3396
24.914397953892728 41.5212
24.93719937456671 41.5611
24.96000179851076 41.7102
24.98298338249997 41.9897
25.00578782394922 41.982
25.028593271784167 42.0252
25.05157790644186 42.6031
25.07438537804115 42.6647
25.097193859145293 43.0822
25.120003350792075 43.2361
25.142992065061257 43.4855
25.165803588823465 43.8995
25.18861612625217 43.9748
25.211429678386736 43.8711
25.234422489079968 43.9325
25.257238081693636 43.981
25.280054692141732 44.1773
25.3028723214652 44.3275
25.325869245420463 44.3566
25.348688923599397 44.2875
25.371509623787006 44.1511
25.394331347025812 43.7806
25.41733240110666 43.1099
25.440156181590016 42.3227
25.46298098826268 41.9536
25.48580682216873 41.3863
25.50881202326435 41.0014
25.53163992281684 40.6186
25.55446885274561 40.4144
25.577298814096377 40.2161
25.600308179121807 40.1804
25.623140214533745 40.2266
25.64597328451537 40.0654
25.66898578564376 39.7878
25.691820936010206 39.9428
25.714657124097695 39.6728
25.737494350954734 39.7262
25.760511045684957 39.7608
25.783350361364224 39.5861
25.806190718969255 39.6446
25.82903211955018 39.8594
25.852053024868923 39.8874
25.874896522722523 39.9325
25.897741066713106 39.8922
25.920586657892454 40.0777
25.943611790812668 40.2426
25.966459487728237 40.2237
25.989308234998564 40.2565
26.01215803367705 40.6484
26.03518741123814 40.9144
26.05803932412957 40.9451
26.080892291600094 40.9261
26.10374631470478 40.8994
26.12677995397268 41.0093
26.14963609978026 40.9752
26.172493304397875 40.5804
26.19535156888223 40.2942
26.218389486949604 40.0174
26.241249882640123 39.6776
26.26411134137826 39.4538
26.28715248187403 39.4615
26.31001607820869 39.449
26.3328807407756 39.2637
26.35574647063438 39.4869
26.37879191991473 39.3075
26.401659795896734 39.389
26.424528742360263 39.5974
26.447398760366614 39.8673
26.470448535598294 39.7351
26.49332070826805 40.0515
26.516193955675355 40.4878
26.53906827888316 40.5512
26.562122397260108 40.8517
26.584998883685063 41.135
26.607876449110325 41.4683
26.63075509460056 41.6596
26.65381357334404 41.7781
26.67669439061878 41.4585
26.699576291163382 41.4238
26.722459276044212 41.227
26.745522132402975 40.8783
26.768407297649354 40.5413
26.791293550442003 40.3308
26.814180891848974 40.1747
26.837248143099337 39.9428
26.860137673466657 39.7669
26.88302829566349 39.467
26.90592001075963 39.295
26.92899167420566 39.2043
26.951885586870763 38.7682
26.974780595655517 38.6132
26.99785558178161 38.5014
27.020752794605112 38.3452
27.043651106772522 38.2225
27.06655051935668 38.2414
27.089629948036183 38.014
27.112531573292053 38.0344
27.135434302194138 38.0508
27.158338135817015 37.8417
27.181422024430987 37.9559
27.204328079372566 37.7695
27.22723524226965 37.7917
27.250143514198573 37.8088
27.273231880156334 37.8258
27.296142382065014 37.6569
27.319053996245536 37.6822
27.341966723775965 37.6901
27.365059584515222 37.696999999999996
27.38797455070062 37.8273
27.410890633481237 37.8129
27.433807833936918 37.8633
27.456905206923906 37.8982
27.47982465472398 37.8491
27.502745223449743 37.8168
27.525666914182825 37.9069
27.548768816912457 37.9705
27.571692763693633 37.9375
27.59461783573812 37.703
27.617723149491244 37.486
27.640650484125285 37.3135
27.66357894728264 37.291
27.686508540048052 37.3243
27.709618414237887 37.3383
27.732550278321757 37.2262
27.755483275279115 37.241
27.778417406196485 37.3545
27.801531858397514 37.2735
27.824468269376716 37.2326
27.847405817586786 37.1524
27.870344504116094 37.289
27.893463551932008 37.3637
27.916404527281053 37.6553
27.93934664422563 37.7441
27.962289903855886 37.8868
27.98541356491974 38.1186
28.00835912214229 38.2062
28.03130582533231 38.4148
28.054253675581805 38.4335
28.077381967556104 38.4341
28.100332124185126 38.313
28.123283431160893 38.2376
28.146235889577238 38.1102
28.169368830154156 37.9361
28.192323603752033 37.6488
28.215279532083304 37.497
28.238415973016764 37.2365
28.261374223145094 37.1434
28.284333631303806 36.9691
28.307294198589954 36.8397
28.330435319167677 36.5138
28.353398217078915 36.2884
28.376362277420153 36.0394
28.39932750129032 35.7944
28.422473319286713 35.844
28.44544088262495 35.7464
28.468409612800283 35.5156
28.491379510913497 35.3392
28.51453004413313 35.3219
28.53750229057244 35.2378
28.56047570826344 35.2623
28.583450298308804 35.3177
28.606605564586562 35.0475
28.629582511831156 35.1538
28.65256063474956 35.0856
28.675539934446338 35.0394
28.698699951647605 35.041
28.72168161743193 34.8821
28.74466446331978 34.8905
28.767648490417624 34.8234
28.790813276438353 34.8603
28.813799678527303 34.8299
28.836787265157085 34.9051
28.859955641890075 34.9272
28.882945610203045 34.7841
28.905936766392035 34.8365
28.928929111566863 34.7329
28.952102288520145 34.6283
28.975097024308607 34.5229
28.998092952423807 34.4324
29.021090073977508 34.2436
29.04426806913204 34.1297
29.067267590245258 34.0687
29.090268308143695 33.9858
29.11327022394099 33.8802
29.13645305530891 33.8068
29.159457379627167 33.9032
29.18246290519685 33.8209
29.20546963313352 33.7149
29.22865731875826 33.7983
29.25166646419296 33.7123
29.27467681535305 33.6257
29.29768837335608 33.6979
29.320880931312562 33.8334
29.34389491580634 33.6745
29.366910110507334 33.7345
29.38992651653503 33.6695
29.41312396492981 33.7079
29.436142806456754 33.6106
29.45916286268059 33.4015
29.48236399319994 33.3309
29.50538649169417 33.1232
29.528410208259935 33.1392
29.55143514402014 32.9404
29.574641196749695 32.8237
29.597668583816574 32.7374
29.6206971934585 32.6464
29.64372702680042 32.6202
29.666938019934474 32.5471
29.689970313635285 32.6111
29.713003834422636 32.3626
29.73603858342347 32.3967
29.759254535188578 32.2724
29.78229175361658 32.2449
29.80533020365064 32.2989
29.82836988641968 32.3137
29.85159081507472 32.2278
29.874632976355343 32.2309
29.89767637376955 32.2523
29.920721008448314 32.1462
29.9439469322847 32.0785
29.96699405457564 31.9394
29.9900424175358 32.0302
30.013092022298157 31.9467
30.03632295963995 31.8182
30.059375061131373 31.9957
30.08242840783577 31.9777
30.105483000888153 32.0722
30.128718970092244 31.8748
30.151776069006917 31.8542
30.17483441768648 31.9376
30.198074175317235 31.9453
30.221135036724256 31.9475
30.24419715131772 31.8098
30.267260520236203 31.7329
30.290505341942243 31.8088
30.313571232750228 31.7932
30.336638381310948 31.8261
30.35970678876503 31.7806
30.38295669299435 31.599
30.40602763151657 31.6734
30.429099832366074 31.6554
30.452173296685572 31.537
30.47542830191959 31.5159
30.498504306502497 31.563000000000002
30.521581577995562 31.6375
30.544660117543582 31.5992
30.56792024229725 31.5878
30.59100133132069 31.6552
30.614083691845494 31.6868
30.637167325018545 31.6979
30.660432587840603 31.7509
30.683518779717886 31.6708
30.70660624769615 31.7072
30.729694992924372 31.728
30.75296541239743 31.6873
30.77605672557558 31.6216
30.799149319462742 31.5562
30.8224236211637 31.403000000000002
30.845518789950724 31.3096
30.868615242910597 31.3515
30.891712981195973 31.1567
30.91499247215866 31.0516
30.938092794619365 30.9835
30.96119440587579 30.9011
30.984297307082752 30.7732
31.00758200598383 30.7551
31.030687500658694 30.8066
31.053794288760695 30.7305
31.076902371446767 30.5358
31.100192296997445 30.5986
31.12330298246119 30.4931
31.14641496599209 30.4279
31.169528248749216 30.498
31.19282341969534 30.4461
31.215939314557186 30.4241
31.239056512134788 30.4039
31.262175013589378 30.3955
31.28547544871168 30.3265
31.30859657161541 30.3254
31.331719001892175 30.2324
31.35484274070538 30.4155
31.378148458819545 30.48
31.401274828443725 30.3741
31.424402510106933 30.3738
31.447712205419993 30.4059
31.470842524931633 30.3472
31.493974159989783 30.3413
31.51710711176168 30.2435
31.54042212308802 30.2585
31.563557722100917 30.2699
31.586694641341655 30.0619
31.609832881979628 29.9839
31.63315322823208 29.9348
31.656294125521327 29.8412
31.679436347728515 29.6559
31.70257989602529 29.7815
31.725905596152327 29.6952
31.74905181052835 29.5665
31.772199354521323 29.7359
31.79534822930507 29.6788
31.818679302290967 29.6567
31.84183085259981 29.5981
31.864983737233473 29.6059
31.88813795736804 29.5593
31.911474422233013 29.5054
31.934631327356435 29.6126
31.9577895715215 29.6254
31.980949155906522 29.4926
32.004291031706956 29.469
32.027453310562606 29.3805
32.05061693318573 29.2613
32.07396288236386 29.3277
32.09712920658542 29.2459
32.12029687812702 29.1014
32.14346589817093 28.9705
32.166817291729984 28.9226
32.18998902288583 29.0163
32.21316210610336 28.9349
32.23633654256711 28.6785
32.259693399663725 28.7722
32.282870556771144 28.6257
32.30604907069099 28.7
32.329228942610065 28.6006
32.35259128243769 28.4842
32.375773884550505 28.4315
32.398957848235646 28.3758
32.422143174682176 28.284000000000002
32.445511016471215 28.2227
32.468699082679954 28.2952
32.49188851523011 28.2505
32.51507931531304 28.1986
32.538452678331 28.261999999999997
32.56164622776311 28.1517
32.58484114831493 28.0796
32.60803744118015 28.0752
32.631416344731896 28.0758
32.654615396551876 27.8878
32.67781582427913 27.9354
32.701198898634416 27.8573
32.72440209253756 27.8189
32.747606665947124 27.8768
32.77081262006088 27.6473
32.79420126883317 27.5923
32.81740999876112 27.6249
32.840620112999424 27.5812
32.86383161274818 27.5557
32.88722585534586 27.6116
32.91044014056596 27.5788
32.933655814909734 27.5333
32.95687287957963 27.5394
32.98027273544904 27.4156
33.00349259526636 27.3876
33.026713849030116 27.4173
33.04993649794511 27.3714
33.073341986570746 27.3286
33.09656744032826 27.2574
33.11979429286444 27.2909
33.14302254538647 27.3317
33.166433686291185 27.2611
33.18966475336992 27.1834
33.212897224069096 27.0946
33.23613109959831 27.1142
33.259547912343415 27.0517
33.2827846121627 27.1013
33.306022720453775 27.0713
33.32926223842861 26.9977
33.352684742614166 26.8896
33.37592709463173 26.9024
33.399170859982064 26.8875
33.422597648419426 26.7276
33.44584425514446 26.6523
33.46909227885668 26.6911
33.4923417207723 26.6238
33.51577423505344 26.6565
33.539026528130385 26.5752
33.56228024307245 26.5052
33.585535381098246 26.324
33.60897364093058 26.2834
33.63223163992385 26.2627
33.6554910656699 26.1512
33.678751919389796 26.3039
33.702195944520106 26.1973
33.72545966903325 26.1375
33.74872482519663 25.9888
33.771991414233746 26.1053
33.79544122444841 26.107
33.81871069412428 26.0277
33.84198160035767 25.9638
33.86525394437455 26.0091
33.88870955949969 25.9145
33.911984794020626 25.8241
33.93526147001624 25.811
33.958539588715006 25.7591
33.98200102861669 25.7791
34.0052820477047 25.7327
34.02856451319451 25.6002
34.05203033759056 25.5198
34.07531571090147 25.5037
34.09860253431845 25.5971
34.121890809074316 25.4234
34.145362493118924 25.4015
34.16865368561615 25.4263
34.191946333164054 25.4041
34.21524043699793 25.3008
34.23871800066799 25.2834
34.26201503218366 25.1319
34.28531352370466 25.2365
34.30861347646881 25.0555
34.33209693978188 25.147
34.3553998301885 25.0778
34.378704185565205 25.0189
34.402010007152356 24.9431
34.42549939016683 24.8891
34.44880815937748 24.8974
34.472118398533134 24.8497
34.49543010887669 24.7614
34.51892543169198 24.6838
34.54224009966052 24.7854
34.56555624255917 24.7301
34.58887386163339 24.5686
34.61237514439016 24.5677
34.6356957311114 24.5767
34.65901779775809 24.5605
34.68252356662995 24.5745
34.705848608458616 24.4922
34.72917513396849 24.4462
34.75250314440949 24.3999
34.77601490857862 24.3102
34.799345904259795 24.2049
34.82267838863559 24.2926
34.846012362958525 24.2776
34.869530142679984 24.3041
34.89286711232212 24.2129
34.91620557568269 24.1803
34.93954553401677 24.1432
34.9630693495876 24.0986
34.986412313340814 24.0943
35.00975677584668 24.0808
35.033102738362956 24.0462
35.05663261012228 23.9591
35.0799815881786 23.9356
35.10333207003229 23.8674
35.12668405694369 23.8806
35.150220005273056 23.8625
35.17357501786656 23.8354
35.19693153931268 23.8631
35.220289570874385 23.7639
35.24383161619786 23.784000000000002
35.267192683604904 23.7603
35.290555264930376 23.7572
35.314101899412165 23.7373
35.33746752422433 23.6457
35.36083466676374 23.6785
35.38420332829803 23.5992
35.407756095629054 23.5981
35.43112781085063 23.5863
35.45450104888391 23.5866
35.477875810999194 23.5885
35.50143473172161 23.4887
35.52481255774625 23.434
35.54819191167777 23.381
35.57157279478914 23.4583
35.595137889488406 23.3359
35.61852184675279 23.2638
35.641907337029984 23.25
35.665294361595684 23.2215
35.68886565090076 23.1673
35.7122557598848 23.1022
35.73564740699838 23.17
35.759040593519934 23.0625
35.78261809810353 23.0174
35.80601437933051 22.9919
35.829412203814705 22.9129
35.85281157283719 22.8811
35.876395313415884 22.8885
35.8997977874528 22.7614
35.92320180988546 22.7891
35.946790244133936 22.6887
35.97019737933222 22.7028
35.993606066789866 22.6974
36.01701630779276 22.6814
36.04061101440684 22.5504
36.06402437852291 22.6065
36.08743930005611 22.5959
36.1108557802951 22.4852
36.13445678011326 22.5334
36.15787639383515 22.4495
36.18129757014299 22.391
36.20472031032821 22.3958
36.22832762423364 22.2695
36.25175350829375 22.3058
36.275180960119776 22.2695
36.298609981005924 22.3646
36.32222362992669 22.2138
36.34565580510207 22.2172
36.36908955323448 22.208000000000002
36.39252487562093 22.0451
36.416144880530226 22.0189
36.43958336764275 22.0611
36.463023432914625 22.0445
36.486465077645676 21.956999999999997
36.51009145956204 22.034000000000002
36.53353627947859 21.9773
36.55698268276811 21.9624
36.58043067073321 21.9377
36.60406345072071 21.7441
36.62751462435344 21.8478
36.65096738658405 21.7894
36.67460498210655 21.7927
36.69806093788647 21.7568
36.72151848619297 21.6877
36.744977628333636 21.7112
36.76862165890998 21.5726
36.79208400512205 21.6541
36.81554794910557 21.5676
36.83901349217101 21.5281
36.862663978991606 21.4637
36.88613273667352 21.4671
36.90960309738324 21.4101
36.933075062434064 21.3833
36.95673202673572 21.3388
36.98020721697122 21.3609
37.003684015502365 21.2176
37.027162423645365 21.1966
37.050825886711465 21.2264
37.07430753063053 21.1733
37.09779078812467 21.1261
37.121275660513014 21.1148
37.144945643673694 21.066999999999997
37.16843376245278 21.1111
37.19192350009803 21.0312
37.215414857931435 20.9625
37.239091382563885 20.8184
37.262585997426164 20.8954
37.28608223645736 20.9198
37.309763684451696 20.8297
37.33326318851098 20.7811
37.356764320726555 20.7435
37.380267082425526 20.7611
37.40395510942588 20.7159
37.42746114683234 20.6953
37.45096881771841 20.7096
37.474478123414166 20.6576
37.49817275092816 20.5984
37.52168534303452 20.5919
37.54519957395567 20.5387
37.568715445024665 20.5312
37.592416694607714 20.4667
37.61593586281424 20.4662
37.63945667518264 20.4668
37.66297913304891 20.4241
37.68668702630454 20.4317
37.710212792059274 20.2861
37.733740207334854 20.2506
37.757269273470364 20.2175
37.780983832050374 20.1641
37.80451621684926 20.1559
37.82805025654007 20.0624
37.851585952464795 20.1
37.8753071980695 20.0522
37.89884622345676 20.0276
37.92238690911902 20.0349
37.94611318753442 19.9247
37.969657210779765 19.945
37.99320289834801 19.9146
38.016750251586465 19.9336
38.04048325513017 19.8337
38.06403395679343 19.7309
38.087586328183946 19.7362
38.11114037065203 19.7722
38.13488012115898 19.7412
38.1584375229181 19.686
38.181996599821 19.657
38.205557353221124 19.7161
38.229303872575656 19.6186
38.2528679961576 19.6185
38.27643380031219 19.6035
38.30000128639589 19.5689
38.32375459653193 19.4942
38.34732546371299 19.5221
38.37089801690786 19.4001
38.39447225747609 19.4291
38.418232380377425 19.3306
38.441810012983396 19.3104
38.46538933705673 19.2644
38.488970353960084 19.1872
38.51273731166058 19.209
38.536321731567014 19.1467
38.55990784840681 19.1803
38.58367995004091 19.0894
38.60726947812959 19.0525
38.63086070726198 19.0685
38.654453638806274 19.0872
38.678232613930824 19.0374
38.70182896773327 18.9896
38.72542702806741 18.971
38.7490267963045 18.9468
38.77281266709232 18.9147
38.79641586862214 18.8647
38.8200207821842 18.8514
38.843627409152944 18.8154
38.86742019782782 18.7362
38.891030269149255 18.7259
38.914642058016156 18.7452
38.938255565806124 18.7
38.96205529464307 18.6716
38.98567225787121 18.649
39.00929094417078 18.6175
39.03291135492255 18.5599
39.05671804624804 18.4939
39.080341923549106 18.4969
39.103967529460334 18.4388
39.127594865365744 18.3948
39.15140854155791 18.4037
39.17503935514948 18.3884
39.19867190290282 18.3284
39.22249083587951 18.326
39.24612686969409 18.3884
39.269764641845306 18.2723
39.293404153722804 18.2984
39.317230110864074 18.1429
39.34087311998506 18.1693
39.36451787301696 18.1771
39.388164371352595 18.0744
39.41199737518003 18.0414
39.43564738196752 18.0408
39.45929913825317 18.0486
39.48295264543308 18.0643
39.506792718520884 17.9713
39.530449745387216 17.9386
39.55410852735203 17.9151
39.57776906581474 18.0088
39.60161623079 17.9045
39.625280300200025 17.8584
39.64894613032202 17.7775
39.67261372255866 17.7744
39.6964680021016 17.7671
39.72013913657293 17.8425
39.74381203738292 17.7943
39.76748670593756 17.7394
39.79134812278169 17.6828
39.81502634488497 17.668
39.83870633896685 17.6553
39.862388106436654 17.5238
39.88625668336918 17.5354
39.90994201572829 17.6109
39.933629125719285 17.4837
39.957503091207826 17.439
39.9811937746168 17.4681
40.00488623990914 17.3767
40.02858048850006 17.3409
40.05246165409549 17.3384
40.076159487492085 17.2515
40.099859108448875 17.3019
40.123560518384345 17.2705
40.1474489070226 17.2438
40.171153913178564 17.1878
40.194860712584955 17.1744
40.2185693066637 17.1236
40.242464941335314 17.1235
40.26617714307655 17.0378
40.289891143772046 17.0965
40.3136069448471 17.0825
40.33750984859743 17.0628
40.3612292688043 16.992
40.3849504936829 17.015
40.40867352466194 16.9313
40.43258372059144 16.8867
40.45631038219906 16.9235
40.48003885420956 16.7837
40.503769138055105 16.8462
40.52768664931955 16.8215
40.55142057531802 16.7788
40.57515631746428 16.7506
40.599079334038514 16.7151
40.62281872700477 16.6715
40.64655994043941 16.6036
40.67030297578061 16.6231
40.69423334835778 16.6405
40.71798004609188 16.6174
40.74172857006355 16.6101
40.76547892171441 16.5848
40.7894166736039 16.5518
40.813170699248566 16.4575
40.83692655691388 16.4413
40.86068424804498 16.4313
40.884629402612525 16.4692
40.908390779366385 16.409000000000002
40.932153993938 16.3136
40.95591904777605 16.3244
40.979871628443995 16.3452
41.003640379561936 16.2875
41.02741097430883 16.2531
41.05118341413683 16.1809
41.075143444384416 16.2458
41.098919593177826 16.1939
41.1226975914255 16.1407
41.14647744058318 16.0925
41.170444943946755 16.0925
41.19422851378379 16.0839
41.218013938914645 15.9802
41.24198706625173 16.0059
41.26577622087193 15.9887
41.289567235177785 15.913
41.31336011063129 15.9892
41.337340752422875 15.9156
41.361137369129835 15.8952
41.38493585138705 15.9039
41.40873620066004 15.799000000000001
41.43272438060107 15.7759
41.45652848292052 15.7383
41.48033445666918 15.7111
41.50414230331616 15.7704
41.528138045159764 15.7075
41.551949656675205 15.6501
41.575763145513235 15.6404
41.59957851314666 15.5939
41.62358184070442 15.5755
41.64740098505737 15.5558
41.6712220126409 15.5289
41.69504492493139 15.522
41.71905586207357 15.5202
41.74288256296395 15.4219
41.766711153007456 15.3604
41.79054163368412 15.339
41.814560204340054 15.4119
41.838394485526365 15.3858
41.86223066180303 15.2844
41.88625497706819 15.2707
41.910094962812 15.3149
41.93393684811168 15.2838
41.95778063445365 15.2221
41.981812625263366 15.1893
42.00566023303407 15.1487
42.029509746323676 15.0958
42.05336116662236 15.1266
42.077400857069705 15.1403
42.10125611078846 15.0458
42.12511327600405 15.0305
42.14897235421036 14.9852
42.173019768448455 14.9974
42.19688269209613 14.9888
42.22074753323349 14.9556
42.24461429335818 14.8856
42.268669455600495 14.8803
42.292540073217886 14.8823
42.31641261433284 14.8916
42.34028708044675 14.8626
42.36435001496739 14.8014
42.38822835065557 14.8119
42.41210861586426 14.7627
42.4359908120986 14.7173
42.46006154323262 14.6779
42.48394762115317 14.6279
42.507835634632315 14.6271
42.531912233047436 14.6714
42.55580413732265 14.6306
42.579697981698 14.6064
42.60359376768525 14.5499
42.62767820545945 14.5045
42.65157789440821 14.4631
42.67547952952185 14.485
42.699383112316 14.5162
42.72347541395347 14.3777
42.74738291190531 14.3635
42.771292362102166 14.3353
42.795203766063516 14.3295
42.819303956130405 14.3471
42.843219287476536 14.2916
42.86713657716324 14.2574
42.89105582671383 14.2692
42.91516392983864 14.2428
42.939087119032166 14.2111
42.963012272677304 14.138
42.98693939230129 14.1132
43.01105543317513 14.1145
43.034986504731386 14.0931
43.05891954686589 14.1059
43.08285456110972 14.0889
43.10697856448665 14.0226
43.130917542983475 13.982000000000001
43.15485849820081 13.9694
43.17880143167367 13.9182
43.20293342237094 13.8854
43.226880332449 13.8987
43.25082922540554 13.9156
43.27496722682525 13.8594
43.29892010567796 13.8694
43.32287497204102 13.8077
43.34683182745632 13.7353
43.370977859791836 13.7409
43.39493871351105 13.7402
43.41890156092628 13.7492
43.44286640358341 13.6851
43.46702049182749 13.6687
43.49098934522816 13.6427
43.51496019852649 13.6242
43.5389330532723 13.5857
43.56309522248204 13.5513
43.58707210044314 13.5412
43.61105098451946 13.5611
43.63503187626491 13.5401
43.659202151562134 13.4549
43.68318707902681 13.453
43.70717401884041 13.4474
43.731162972560874 13.3949
43.75534137913236 13.3536
43.779334381108384 13.3591
43.803329401683186 13.3603
43.82732644241872 13.3591
43.8515130055166 13.3491
43.87551410707659 13.2532
43.89951723350145 13.265
43.923709934595614 13.2456
43.94771713129917 13.2518
43.97172635758096 13.2179
43.99573761501002 13.183
44.0199385169922 13.1535
44.04395385732619 13.165999999999999
44.067971233533086 13.1419
44.09199064718605 13.0749
44.11619977548961 13.0677
44.14022328470671 12.9928
44.16424883610785 12.9808
44.18827643127035 12.9887
44.21249381139513 12.9898
44.236525514814076 12.9613
44.26055926674478 12.9283
44.28459506876863 12.9297
44.3088207262813 12.8944
44.33286064928722 12.8321
44.35690262714919 12.8334
44.38094666145278 12.7565
44.4051806219871 12.7622
44.42922879003185 12.7569
44.45327901929361 12.7597
44.477331311362136 12.7888
44.501573600619416 12.6862
44.525630039221795 12.6573
44.54968854541895 12.6701
44.573937102200176 12.661
44.5979997645541 12.6395
44.622064499300315 12.5918
44.64613130803592 12.5647
44.67038823869318 12.5705
44.69445921643748 12.5408
44.718532272981385 12.4916
44.742607409926194 12.52
44.76687274034801 12.4534
44.79095205918753 12.3734
44.81503346325094 12.3836
44.839116954143876 12.425
44.86339071028742 12.3855
44.88747839599524 12.3646
44.91156817336837 12.3115
44.93566004401666 12.2676
44.959942251908146 12.2689
44.984038330325966 12.237
45.00813650686762 12.2177
45.03223678314731 12.2329
45.05652746888232 12.1839
45.08063196592069 12.2097
45.104738567558705 12.187000000000001
45.128847275414856 12.1499
45.15314646515866 12.062999999999999
45.17725940679741 12.1371
45.20137445952892 12.0838
45.22568004865265 12.0342
45.24979934496396 12.0323
45.27392075725247 11.9932
45.29804428714431 11.9711
45.322358426247604 11.9874
45.346486212804315 11.9595
45.370616121861914 11.9128
45.39474815505086 11.8604
45.41907087049246 11.8428
45.4432071734666 11.8363
45.46734560548283 11.8401
45.49148616817604 11.8402
45.51581748638564 11.7885
45.5399623320197 11.7604
45.56410931325473 11.7634
45.58825843173002 11.7655
45.61259837920865 11.7262
45.636751793816 11.7292
45.66090735060093 11.6302
45.68506505120716 11.6414
45.7094136545275 11.6156
45.73357566449271 11.6239
45.75773982322992 11.5661
45.78190613238733 11.5441
45.806263418194064 11.4901
45.83043404997326 11.5105
45.85460683713677 11.4981
45.87897065658495 11.485
45.90314777634752 11.4259
45.92732705646868 11.4414
45.9515084986045 11.4161
45.97588104735473 11.3807
46.00006683541565 11.3563
46.02425479047904 11.3779
46.04844491420549 11.3254
46.0728262191024 11.3227
46.09702070211635 11.3131
46.12121735879483 11.2877
46.14541619080294 11.29
46.169806278764455 11.2323
46.194009483459034 11.2098
46.21821486849841 11.1852
46.24242243555223 11.1647
46.266821333570014 11.1574
46.29103328674601 11.0928
46.31524742696538 11.1262
46.33946375590237 11.0716
46.36387149104216 11.095999999999998
46.38809221957392 10.9947
46.41231514186606 11.0119
46.436540259597464 11.0223
46.460956858999374 10.9363
46.48518638983522 10.9488
46.509418121166966 10.9706
46.533652054678114 10.882
46.55807754555709 10.9016
46.58231590571962 10.9198
46.60655647313217 10.8975
46.630988654873654 10.8347
46.655233659129024 10.8336
46.67948087571551 10.7767
46.70373030632484 10.7856
46.72817142736393 10.7514
46.752425308428684 10.735999999999999
46.77668140861147 10.7536
46.80093972960865 10.6974
46.82538981736788 10.6643
46.849652602470904 10.6508
46.87391761349769 10.6426
46.8981848521493 10.5846
46.9226439341274 10.6042
46.946915650573224 10.5838
46.97118959976749 10.5477
46.99546578341598 10.5519
47.019933887188216 10.5237
47.04421456235744 10.5196
47.06849747711879 10.484000000000002
47.09278263318286 10.4877
47.11725978640143 10.4187
47.14154944775105 10.4302
47.165841355555656 10.4046
47.1901355115306 10.3647
47.214621741924994 10.3949
47.23892041698887 10.3861
47.26322134538975 10.3462
47.28771440635075 10.2819
47.31201986422527 10.3026
47.33632758061436 10.2703
47.360637557241866 10.2622
47.38513974410611 10.2432
47.40945426407847 10.2082
47.43377104948137 10.1762
47.45809010204344 10.202
47.48260144275502 10.158999999999999
47.506925052572285 10.1181
47.53125093475548 10.0995
47.55557909103813 10.1001
47.58009961361992 10.0933
47.60443234110732 10.0579
47.62876734791564 10.051
47.65310463578333 10.0461
47.6776343683373 10.017000000000001
47.7019762413987 9.945310000000001
47.72632040075572 9.93951
47.75066684815169 9.965589999999999
47.77520581885936 9.9116
47.799556865477655 9.91072
47.823910205386 9.915389999999999
47.84826584033272 9.88214
47.87281407745551 9.82361
47.89717432569297 9.84988
47.92153687423484 9.81179
47.94609208429692 9.8184
47.97045925671401 9.853539999999999
47.99482873471275 9.75653
48.01920052005013 9.74871
48.04376504619224 9.77362
48.068141469543484 9.75724
48.09252020552573 9.71705
48.11690125590099 9.686630000000001
48.1414751266064 9.67578
48.16586082917454 9.67245
48.19024885144316 9.63424
48.2146391951793 9.63642
48.239222439012764 9.6524
48.26361744916137 9.5804
48.28801478610016 9.6004
48.31241445160131 9.55395
48.337007097209366 9.55481
48.36141144338331 9.54385
48.38581812345755 9.52401
48.41022713920929 9.50148
48.434829215320704 9.47816
48.45924292604658 9.46904
48.48365897780325 9.43014
48.50807737237308 9.40521
48.532688907799276 9.41814
48.55711201168574 9.42459
48.581537463754074 9.37383
48.60615611725119 9.33447
48.63058628942721 9.32472
48.65501881516546 9.32664
48.6794536962573 9.32209
48.70408185970339 9.30141
48.72852147531801 9.24062
48.75296345168211 9.26227
48.77740779059232 9.26428
48.80204549302823 9.23767
48.82649458091802 9.22434
48.85094603676547 9.14735
48.87539986237231 9.148060000000001
48.90004713292306 9.15783
48.92450572200832 9.12124
48.94896668628025 9.10367
48.97343002754588 9.10535
48.99808689542115 9.07217
49.02255501470614 9.04696
49.04702551642794 9.02396
49.0714984023988 9.01455
49.096164896893235 9.00196
49.120642575466796 9.01436
49.145122643748394 9.01435
49.16960510355558 8.96082
49.19428125404938 8.91365
49.2187685210852 8.9346
49.243258185121555 8.91242
49.26794160167084 8.89198
49.2924360839405 8.86045
49.31693296869764 8.83687
49.34143225776915 8.84035
49.36612538195438 8.809330000000001
49.39062950396021 8.80948
49.41513603578346 8.76924
49.4396449792564 8.75808
49.46434784069503 8.75716
49.488861631846454 8.714360000000001
49.513377840166804 8.70757
49.537896467493745 8.699019999999999
49.56260909589029 8.667539999999999
49.587132585683285 8.67559
49.611658500018365 8.68309
49.636186840738596 8.61101
49.66090926588511 8.63275
49.685442483902584 8.62202
49.70997813385706 8.5615
49.734516217597076 8.53112
49.75924846937352 8.53843
49.7837914452858 8.49388
49.80833686055187 8.50813
49.83288471702571 8.48557
49.85762682540054 8.48969
49.882179588965734 8.475710000000001
49.9067347993235 8.457230000000001
49.93129245833333 8.43293
49.95604445336378 8.43319
49.98060703442832 8.4186
50.005172069746266 8.37801
50.02993150438364 8.35786
50.05450147301533 8.359869999999999
50.07907390151433 8.348130000000001
50.10364879174981 8.31594
50.12841816587289 8.31002
50.1529980044635 8.29933
50.17758031042124 8.260769999999999
50.20216508562089 8.25986
50.22694442953363 8.25658
50.25153416817468 8.2172
50.27612638170508 8.21156
50.300721072005196 8.15431
50.325510416102105 8.188310000000001
50.350110084975064 8.181460000000001
50.37471223628208 8.14981
50.39931687190919 8.124789999999999
50.424116246675766 8.13945
50.44872587605249 8.06931
50.47333799543065 8.07141
50.49795260670191 8.083639999999999
50.52276204271512 8.070260000000001
50.54738166295838 8.02726
50.57200378079314 8.01804
50.596628398116835 7.9961899999999995
50.62144792604559 8.00559
50.646077567609396 7.985010000000001
50.670709714377715 7.97768
50.69553683636198 7.982289999999999
50.72017401885922 7.925269999999999
50.7448137122895 7.916239999999999
50.76945591856022 7.896660000000001
50.79429318636823 7.89275
50.818940443716784 7.879060000000001
50.84359021965163 7.867939999999999
50.868242516085964 7.84462
50.893089960641895 7.791510000000001
50.917747323549435 7.7964199999999995
50.94240721271973 7.795730000000001
50.96706963007175 7.79433
50.99192728239342 7.7900100000000005
51.01659478166073 7.76846
51.04126481489051 7.7515600000000004
51.06593738400761 7.7347600000000005
51.090805275207074 7.7034
51.11548294172845 7.641360000000001
51.14016314993547 7.665769999999999
51.164845901758845 7.638669999999999
51.18972406304274 7.642869999999999
51.21441192780656 7.617660000000001
51.23910234200271 7.62533
51.2637953075678 7.610339999999999
51.288683770237945 7.579610000000001
51.31338186432707 7.532019999999999
51.33808251561888 7.56358
51.362978729967345 7.53828
51.387684521509755 7.545610000000001
51.41239287610203 7.4955
51.437103795691165 7.46462
51.46201036644977 7.50979
51.486726441956634 7.4665300000000006
51.51144508832545 7.43158
51.536166307509156 7.41488
51.56108326624387 7.39098
51.58580965706056 7.41471
51.61053862657523 7.4184399999999995
51.635270176746864 7.37867
51.66019755512065 7.34625
51.68493429268881 7.33856
51.70967361681515 7.34731
51.73441552946465 7.2904800000000005
51.759353359237934 7.3123
51.7841004750961 7.30127
51.80885018539685 7.26397
51.833602492111254 7.26518
51.8585508051424 7.269589999999999
51.883308330926425 7.21771
51.90806845906181 7.20384
51.932831191525715 7.14876
51.95779001977161 7.184769999999999
51.98255798721516 7.16297
52.00732856494335 7.149430000000001
52.03229530577543 7.141430000000001
52.057071130455945 7.140789999999999
52.081849571391054 7.12027
52.106630630568695 7.068060000000001
52.13160794279417 7.02625
52.15639426492067 7.05024
52.18118321127822 7.0625800000000005
52.205974783860896 7.0244800000000005
52.23096269971011 7.00351
52.255759551287994 7.014310000000001
52.280559035098186 7.042339999999999
52.30536115314103 6.94902
52.33035970494467 6.94186
52.35516711807904 6.92915
52.37997717147198 6.8895800000000005
52.40478986713005 6.913889999999999
52.42979908731974 6.88306
52.454617094216 6.869210000000001
52.47943774942214 6.83732
52.50426105495102 6.84865
52.529280976059844 6.877680000000001
52.554109609024096 6.8329
52.57894089837482 6.812119999999999
52.60377484613117 6.78533
52.62880550079408 6.76313
52.65364479223379 6.7576
52.67848674816189 6.75563
52.70352547971946 6.76024
52.72837279155837 6.71535
52.753222773982785 6.71448
52.778075429022984 6.73935
52.80312495150885 6.69982
52.827982978797436 6.65902
52.85284368481815 6.65914
52.87770707160767 6.65148
52.90276741793998 6.65308
52.92763619336701 6.62415
52.952507655698504 6.606310000000001
52.977381806977576 6.5913
53.00245301017842 6.556
53.02733256653592 6.56305
53.052214817996074 6.55293
53.077099766608484 6.569660000000001
53.102181859804446 6.509580000000001
53.127072229988265 6.54396
53.15196530349892 6.51109
53.17686108239249 6.50362
53.20195409881522 6.46936
53.22685531582556 6.4615
53.25175924441303 6.4291
53.27666588664027 6.42995
53.30176985962693 6.43109
53.3266819565689 6.3828
53.35159677336455 6.38301
53.376514312083096 6.39732
53.40162927507703 6.3899300000000006
53.42655228516116 6.3672
53.45147802340193 6.352530000000001
53.47660125628886 6.34497
53.50153247842639 6.3207
53.52646643496923 6.31018
53.55140312799818 6.30199
53.576537409691696 6.2929
53.60147960336152 6.26308
53.626424539786164 6.23417
53.65137222105307 6.2076
53.67651758529126 6.184480000000001
53.70147078399681 6.194369999999999
53.72642673383343 6.200880000000001
53.75138543689533 6.1428199999999995
53.776541917524526 6.18014
53.801506154876755 6.15386
53.826473151763246 6.11696
53.851442910284916 6.1118
53.87661054126026 6.0903
53.9015858509782 6.07055
53.92656392866066 6.0541
53.95154477641532 6.05437
53.976723591801296 6.04159
54.00171000771266 6.01244
54.02669920004598 6.00931
54.051691170915745 5.96761
54.076881204886796 5.968780000000001
54.101878760928514 5.986280000000001
54.12687910187696 5.9442
54.152077577768296 5.95496
54.1770835166946 5.94143
54.20209224691339 5.9168199999999995
54.22710377055121 5.890969999999999
54.25231352511594 5.8882
54.27733066384342 5.8625300000000005
54.30235060239643 5.88298
54.32737334290836 5.84664
54.35259441062629 5.80952
54.377622783395324 5.82027
54.40265396455061 5.80021
54.42768795623251 5.75788
54.45292037169559 5.73956
54.477960012857906 5.79015
54.50300247099511 5.75366
54.52804774825457 5.69031
54.55329154616743 5.67634
54.57834249018678 5.660019999999999
54.6033962597977 5.6245
54.6284528571545 5.64087
54.653708072335164 5.60537
54.67877035378786 5.555540000000001
54.70383546947698 5.55189
54.72890342156389 5.58835
54.7541700889442 5.554069999999999
54.77924374251975 5.49449
54.8043202390049 5.48689
54.82959552413022 5.4696
54.8546777351945 5.48944
54.87976279569621 5.4270000000000005
54.90485070780914 5.40585
54.930137506558005 5.4204300000000005
54.95523115074295 5.41934
54.98032765308844 5.34776
55.005427015775496 5.331980000000001
55.03072536339621 5.32405
55.05583047570572 5.3247599999999995
55.080938454927676 5.28787
55.10604930325027 5.26016
55.131359235107396 5.28298
55.15647585066083 5.23464
55.181595341907496 5.18783
55.20671771104285 5.21468
55.232039262617704 5.1817400000000005
55.25716741665048 5.109380000000001
55.28229845518636 5.107819999999999
55.30743238042802 5.07205
55.33276558731939 5.062930000000001
55.357905315183636 5.0858099999999995
55.383047936390035 5.07233
55.40819345314859 4.99146
55.433538351073295 5.0066
55.458689688238415 5.01371
55.483843927614096 4.92732
55.509197623043605 4.94077
55.53435769621134 4.8922099999999995
55.55952067826466 4.8641
55.5846865714265 4.83978
55.61005202069737 4.837940000000001
55.63522376553902 4.83523
55.66039842818645 4.79637
55.68557601087004 4.7823400000000005
55.7109532500271 4.750380000000001
55.73613670233794 4.75186
