TT I
1.2716486653135266 7.196610000000001
1.2939594142134223 6.994439999999999
1.3162702121660406 6.983969999999999
1.3385810600174564 6.86649
1.3608919586137629 6.763999999999999
1.383202908801069 6.0692
1.405513911425503 6.35018
1.4278249673332093 6.5873
1.4501343378461518 6.419569999999999
1.4724455028545926 5.64955
1.4947567236847858 6.211880000000001
1.517068001182951 6.37031
1.5393793361953272 5.98228
1.5616907295681737 6.38353
1.5840021821477681 5.27124
1.60631369478041 5.35717
1.6286252683124185 5.36868
1.6509369035901333 5.18242
1.6732468618895553 5.47325
1.695558623192809 5.02385
1.7178704487808514 5.30777
1.7401823395001077 5.4228
1.7625012545597203 5.12554
1.7848028405262486 4.96033
1.8071218901122095 5.19072
1.8294236121921872 4.81923
1.8517427996910911 4.74854
1.8740620574440425 5.5643400000000005
1.8963639900671978 4.73969
1.9186833908139995 5.11855
1.9409854680117449 5.12295
1.9633050151394713 5.23168
1.9856246367570705 5.1742300000000006
2.0079269371922672 4.88157
2.03024671027244 4.48876
2.0525491637446027 4.31873
2.074869091674931 4.51216
2.097171701569106 4.46701
2.1194917877373847 5.23097
2.141811954326636 4.8977900000000005
2.164114805233074 4.67554
2.186435135143035 6.74493
2.208738150935709 15.1413
2.231058647554722 31.7571
2.2533792288321184 24.7571
2.275682498336085 11.0268
2.298003251406138 6.15731
2.3203066942619714 6.19695
2.3426276225136022 6.05253
2.3649486396617507 5.85585
2.387252348930071 5.894080000000001
2.4095735463442893 6.13135
2.4318774374315884 6.6243300000000005
2.4541988185014043 6.82862
2.476502894794693 7.34675
2.498824462909887 7.337110000000001
2.521146125856138 8.015880000000001
2.5434504863470337 7.992139999999999
2.5657723414244717 8.33746
2.588076895590662 7.75477
2.610398946189713 8.17302
2.6327210958598384 8.26704
2.6550259469304716 7.98928
2.6773482972090137 8.40002
2.6996533504259 7.97622
2.7219759047039602 8.556460000000001
2.744298562293959 8.519810000000001
2.7666039251246595 8.11668
2.7889267918020164 8.33657
2.8112323652516555 8.648489999999999
2.833555444408179 8.7038
2.8558786311183852 8.25968
2.8781845268938557 8.88233
2.9005079311721484 9.09562
2.9228140460410397 9.26409
2.9451376712799635 9.41023
2.967444008632326 9.74072
2.9897678582247247 10.222000000000001
3.0120918213106695 10.5263
3.0343984987899373 10.7642
3.0567226913198637 11.5451
3.079029599759726 12.0556
3.101354025127254 12.6889
3.123678568232338 12.9369
3.145985829517914 12.9232
3.16831061055229 13.845
3.1906181112775593 14.4083
3.212943133635653 15.2751
3.2352682779763207 14.9928
3.2575761442691227 15.7384
3.2799015350264273 16.0609
3.302209649240067 16.3742
3.3245352898092655 17.3138
3.3468436553365257 17.462
3.369169549113219 17.5221
3.3914955708171384 18.202
3.413804319727358 19.2717
3.4361305997334863 19.2749
3.4584396084414553 19.711
3.4807661501462652 20.3784
3.503092824025881 20.9634
3.5254022288463154 21.6178
3.5477291695206588 21.6099
3.5700388426251948 22.0373
3.5923660534916446 23.6792
3.6146934007816114 39.6571
3.637003482731501 96.2571
3.6593311053109985 107.647
3.681641464033634 61.2361
3.7039693653009733 31.5693
3.726297407241705 25.9955
3.7486081875460804 25.3983
3.7709365132734978 26.1897
3.793247578841633 26.6036
3.8155761917550093 27.0023
3.8378875459837216 27.1851
3.8602164494827234 27.613000000000003
3.882545499606844 28.3405
3.9048572932539183 28.8261
3.9271866390645718 29.4024
3.9494987298666713 29.8812
3.971828374764527 30.4797
3.9941581705403255 30.5381
4.016470713506008 31.4054
4.038800813471445 31.7905
4.061113662089144 32.71
4.0834440696459176 33.771
4.105774632334751 33.8003
4.128087945865126 34.7243
4.150418821249301 35.2508
4.172732448931298 36.5752
4.195063640413578 38.3987
4.2173775856475215 42.8972
4.239709096631102 77.8889
4.262040768704612 258.725
4.284355196706267 353.972
4.306687193387355 229.828
4.329001947444346 86.9271
4.35133427213731 48.9524
4.373666762177566 44.6604
4.395982011761091 44.4862
4.418314834921175 45.772
4.44063041906622 54.0592
4.4629635787515625 66.6084
4.4852969080429785 66.6626
4.5076130004776225 54.4003
4.529946671403969 49.5739
4.552263106909177 49.7356
4.574597122877047 50.8206
4.596931312711224 51.9946
4.619248269273446 53.0651
4.6415828092605835 53.7611
4.663900117405352 54.2608
4.686235010953232 56.6625
4.708552674085913 57.4977
4.730887924602802 59.1435
4.753223354952695 60.1732
4.775541557023902 61.92
4.797877349456786 63.1035
4.820195915032126 64.847
4.842532072957498 65.8886
4.864868414979744 68.1329
4.88718753227192 69.8296
4.909524244902505 71.7286
4.931843734218147 73.8322
4.954180820867835 76.4806
4.976518095879839 78.7607
4.998838149695359 81.2591
5.021175803844231 85.2065
5.043496238205739 88.4069
5.065834274903528 91.9854
5.088172504230693 96.6974
5.1104935158799565 102.321
5.132832132875765 124.05
5.155153533596801 168.824
5.1774925416746225 200.392
5.199814334878411 294.405
5.2221537374521505 783.159
5.244493338631803 2439.37
5.266815727034316 7399.09
5.289155727832427 12556.0
5.311478517248165 9164.36
5.333818921080011 2803.58
5.356159527788849 513.138
5.3784829252032536 177.42
5.400823940070432 140.173
5.423147747031976 125.54799999999999
5.445489173474152 116.49
5.467830807066149 111.022
5.490155234831516 107.709
5.512497285125229 104.605
5.534822130975162 102.698
5.557164601388673 100.494
5.579489868738879 97.4843
5.601832762690846 96.7535
5.6241758697774475 96.2352
5.646501775867269 95.1298
5.668845311622074 93.7612
5.691171647754637 92.7417
5.713515615597765 91.4706
5.735859800852677 90.0753
5.758186788542988 90.0296
5.780531411018185 89.7519
5.802858837297399 89.1914
5.825203900414495 88.8506
5.8475491852224 89.4388
5.869877275883075 89.6407
5.892223006467101 90.2983
5.914551544266608 90.9244
5.936897724049891 93.1773
5.959244129804903 96.8867
5.981573344815301 109.829
6.0039202049061 173.766
6.026249875609095 373.441
6.04859719346037 827.48
6.070927323278297 2056.01
6.093275102315365 4383.87
6.115623113320588 5185.11
6.137953938319995 3236.79
6.160302415650845 939.288
6.182633708324452 222.187
6.2049826554078376 111.24600000000001
6.227331838745022 90.7909
6.249663839443684 83.7115
6.27201349767565 81.843
6.294345974611799 89.0971
6.316696111167083 102.465
6.339046488263839 96.6446
6.361379686074702 79.8838
6.383730546639482 71.866
6.406064229255215 68.6174
6.428415576718203 68.0704
6.450749747566656 66.7178
6.47310158535871 65.5159
6.495453669698332 64.5899
6.517788579421056 64.268
6.540141159237969 63.1625
6.562476565766648 62.6922
6.5848296444934045 62.1318
6.607182974060425 61.7945
6.6295191323281015 62.1554
6.651872965955752 66.3646
6.6742096296068985 94.7715
6.6965639707294615 146.572
6.71891856698715 147.188
6.741255995248479 98.8811
6.763611104154477 68.8809
6.785949046381137 60.5648
6.808304671371482 58.0616
6.8306605557940046 57.7714
6.852999275508618 56.9577
6.875355681171544 56.583999999999996
6.897694923437771 56.7092
6.92005185377892 56.4653
6.9423916220322655 56.0211
6.964749080490181 55.2709
6.987106804399774 55.2385
7.009447368180821 55.1946
7.031805625367033 55.1005
7.054146723727803 55.0863
7.076505517631004 54.9221
7.098864581288365 55.1091
7.121206488070854 54.6547
7.143566093607822 54.0935
7.165908543567245 54.7
7.188268694426048 55.1824
7.2106291193438095 55.1128
7.232972390625943 56.7156
7.255333366030969 71.1491
7.277677189091925 130.92
7.300038718428332 181.422
7.322400526130865 153.488
7.344745183422596 93.0138
7.367107550224791 62.5009
7.389452767901992 56.1874
7.411815697249891 54.9741
7.434161478756298 54.173
7.456524974096713 53.93600000000001
7.478888753837185 53.75899999999999
7.501235387657368 54.2888
7.523599738562711 54.0757
7.545946944825532 54.5466
7.568311870344528 54.9368
7.5906770845765665 54.982
7.613025156078678 56.473
7.635390950099687 57.928000000000004
7.657739602662809 57.1644
7.680105979923558 55.8129
7.702472650212829 55.4401
7.724822180948224 55.6981
7.747189439655568 55.7268
7.769539560075357 55.2967
7.791907410653562 55.8447
7.81425812420825 56.4019
7.836626570110925 56.536
7.858995315087906 57.1215
7.881346924933401 57.1109
7.903716270417482 57.6149
7.926068482028405 58.3924
7.948438431475253 58.7806
7.9708086843180235 59.4292
7.993161805171116 59.7273
8.015532667162402 59.858000000000004
8.037886398416653 60.9094
8.060257873014221 61.5332
8.082629655331942 62.1521
8.104984308787587 63.1247
8.127356708900503 66.5677
8.149711981398308 72.714
8.172085002766314 75.4323
8.194458336181368 71.9359
8.216814543847752 68.7934
8.23918850371002 68.4838
8.26154533906492 69.4373
8.283919928836452 70.9646
8.306277395339652 71.5322
8.328652618483376 72.7188
8.351028159736202 74.7405
8.373386579575245 76.8252
8.395762759396959 78.3964
8.418121819038275 83.4245
8.440498640894003 97.3879
8.462875785192262 112.462
8.485235811156207 119.742
8.507613602688501 145.487
8.529974277114228 216.928
8.552352719347912 336.126
8.574731488360351 587.464
8.59709314210385 1140.36
8.619472567021075 1847.63
8.64183487789147 2229.52
8.664214962183097 1833.2
8.686577933647762 950.831
8.708958680784317 363.85
8.731339760774953 171.642
8.753703729764451 111.55
8.77608547780821 97.3457
8.798450116065078 94.2135
8.820832535634787 91.0877
8.843215292401656 89.8032
8.865580941199045 88.5435
8.887964374703538 87.4051
8.910330701447199 89.1259
8.932714815164482 92.0293
8.955099270424924 91.1157
8.977466620733543 87.3072
8.999851761421976 84.4013
9.022219798361645 83.0692
9.04460562795561 82.6669
9.066991803441677 82.1095
9.089360876979615 81.4595
9.111747746589993 81.4105
9.13411751544971 80.5955
9.156505082664324 80.605
9.178875550323522 81.25399999999999
9.20126381862328 81.2482
9.223652438908596 81.6054
9.246023961427412 81.9273
9.26841328802173 81.0121
9.290785518039224 80.9525
9.313175554425882 81.4267
9.335565947154315 81.1091
9.357939245086508 81.5852
9.380330352834827 81.5446
9.40270436697103 81.7716
9.425096193225055 82.0218
9.447488380180165 82.7941
9.469863475295412 83.1456
9.492256385987508 83.4277
9.514632206018318 84.1243
9.537025843935714 84.3117
9.559402392368193 84.7336
9.581796761000229 85.9673
9.604191496441521 87.1224
9.626569144158516 90.9215
9.648964615551032 95.8362
9.671343000390081 97.6644
9.693739211225699 95.3894
9.716135793237463 92.3475
9.738515290448102 91.8563
9.760912617143402 92.4292
9.783292860202891 93.2536
9.805690935076182 94.6528
9.828089385495742 95.7881
9.850470754023561 98.0973
9.872869957865444 106.63799999999999
9.89525208097539 122.448
9.917652041736662 136.105
9.940052382417589 134.268
9.962435644102392 133.695
9.984836746950979 157.471
10.007220771957746 211.90400000000002
10.029622640473708 302.894
10.052007432299963 470.481
10.074410069984072 765.426
10.096813093716005 1228.76
10.119199042482517 1769.89
10.141602840636468 1967.03
10.163989564971628 1587.15
10.186394141051062 904.3689999999999
10.208799107559706 401.722
10.231187001965623 185.763
10.253592751657669 124.348
10.275981430388155 111.564
10.298387966769793 111.571
10.320794897965431 115.089
10.343184759907361 114.03399999999999
10.36559248305461 108.036
10.387983138083852 102.882
10.410391656691655 103.538
10.432800574501677 112.25399999999999
10.455192425893369 126.336
10.47760214443012 147.502
10.499994797678786 188.81799999999998
10.522405320453982 267.925
10.54479877906917 390.006
10.567210109595656 519.971
10.5896218454736 565.8340000000001
10.612016518879773 500.774
10.634429067781074 347.18800000000005
10.656824555333241 201.62599999999998
10.679237920773568 122.897
10.701651695961992 95.7403
10.724048411481384 88.5087
10.746463008485165 85.25200000000001
10.768860546937125 83.5575
10.791275969274796 81.9354
10.81369180576079 81.0216
10.836090585366925 80.1092
10.858507252467449 78.6755
10.88090686379991 77.9456
10.903324365036394 77.6163
10.925724811614439 77.6315
10.948143150509463 78.8393
10.970561909719066 78.2399
10.992963615930844 76.3237
11.015383218085756 74.1508
11.037785768347074 72.4624
11.06020621697282 71.6956
11.082627090322113 71.5669
11.105030913430326 70.9262
11.12745263854165 71.8238
11.149857314510728 75.8479
11.172279894912576 82.6712
11.194702904450653 83.4147
11.217108866490921 78.9799
11.239532736615194 74.327
11.26193956033512 71.6183
11.284364294577085 69.7159
11.306789462371718 67.5875
11.329197585398376 66.2215
11.351623622610898 66.1935
11.37403261614354 65.3529
11.396459526308487 65.3283
11.418869393879497 64.6099
11.441297180532617 64.4923
11.463725406927658 64.1504
11.486136592353875 63.9178
11.508565700543707 64.9329
11.530977768845315 67.0898
11.553407762368774 67.7175
11.575838200059769 66.9367
11.598251599479612 65.1033
11.620682927815501 63.1436
11.64309721895548 62.6443
11.665529441478206 62.4677
11.687962112597958 62.0867
11.710377748130886 61.9489
11.732811318753434 61.8139
11.755227854859067 62.1203
11.777662328529495 62.1817
11.800079768750786 61.8932
11.822515149015453 61.7318
11.844950984084935 61.9401
11.867369787303163 61.5453
11.889806534289491 61.6747
11.912226250487029 61.9178
11.934663912939751 61.9284
11.9571020346363 61.7737
11.979523127133968 62.1019
12.001962169624331 62.3727
12.024384183972964 63.1533
12.046824150809913 65.5144
12.069264581333726 70.0244
12.091687985297767 75.4943
12.11412934550045 84.0457
12.136553680195208 98.5723
12.158995973632788 122.43799999999999
12.181438735204349 151.498
12.20386447284199 188.957
12.226308172985636 205.91400000000002
12.24873485024193 201.743
12.271179492516982 167.96099999999998
12.293607112949127 126.41799999999999
12.316052700916226 96.711
12.338498763250042 78.6858
12.360927805303868 70.1769
12.383374818673879 65.9044
12.405804812803074 63.7223
12.428252780773262 63.4363
12.45070122756722 63.3387
12.473132656675375 63.1941
12.49558206341869 63.4264
12.518014453510101 63.6891
12.540464823770117 63.6652
12.562915677315177 63.7487
12.58534951575545 64.6427
12.607801338171472 67.0958
12.630236146511358 72.7766
12.652688941369085 78.083
12.675124723177234 78.4616
12.697578494048786 74.1329
12.720032754458185 69.4031
12.742470003354093 67.3766
12.764925245138771 67.1154
12.787363476431278 66.9906
12.809819703166806 67.5492
12.83227642391173 67.9726
12.854716135692716 68.5602
12.877173846755147 69.6492
12.899614549869717 69.737
12.9220732548287 70.7504
12.94453245827299 71.1842
12.966974655289818 72.2826
12.989434858002571 72.8181
13.011878055298721 73.461
13.034339260862497 74.7026
13.056800969391883 75.585
13.079245674017244 78.2842
13.101708390774869 79.0313
13.12415410463411 84.5254
13.146617833206086 94.1627
13.169064559883248 104.969
13.191529303857127 118.09200000000001
13.213994557076367 139.14
13.236442809902437 174.334
13.258909083908291 228.845
13.28135835851934 296.39799999999997
13.30382565690295 369.855
13.326293469022952 421.18199999999996
13.348744283242008 421.401
13.371213125129904 354.593
13.39366497011003 258.884
13.416134845360597 169.919
13.438605238843131 123.038
13.46105863690397 102.84899999999999
13.483530069144786 100.774
13.505984506951902 104.855
13.528456981549432 113.473
13.550929978879088 127.383
13.573385983253365 150.66899999999998
13.595860028340867 190.30900000000003
13.618317081455832 244.604
13.64079217790333 308.664
13.663250283359057 354.167
13.685726434770173 379.699
13.708203115221277 339.031
13.730662806148091 260.529
13.75314054697177 182.74
13.775601299246777 125.815
13.798080104050406 95.6363
13.820559442405358 84.0155
13.843021793671388 80.5737
13.865502201420897 78.9063
13.887965623051947 78.5852
13.910447103807167 77.5078
13.932929122629764 75.8831
13.955394156785959 75.7358
13.977877254034569 74.8526
14.000343367582113 74.0303
14.022827546871707 73.1489
14.045294743423524 72.6378
14.06778000837062 71.9801
14.090265817715476 71.8058
14.112734645763819 71.693
14.13522154619454 71.6664
14.157691466286913 71.3016
14.180179461423874 71.1733
14.202668005486178 70.571
14.22513957064374 69.895
14.247629214846473 69.524
14.270101881097517 69.1309
14.29259262906496 69.8527
14.315083930490205 70.6045
14.337558255389705 70.8615
14.360050666019726 70.5064
14.382526101071944 69.3496
14.405019624534942 68.4956
14.427513705993134 67.8607
14.449990813291825 67.7438
14.47248601302899 67.6103
14.49496423954951 67.9162
14.517460561197822 67.6652
14.539939910570322 67.5028
14.562437357763558 67.9427
14.58493536931253 69.3584
14.607416409993311 70.2329
14.62991555254159 71.0349
14.652397725157423 70.8735
14.674898002342799 69.9974
14.697398848433282 69.2982
14.719882725991326 69.6271
14.74238471217934 70.2455
14.764869730765593 72.7038
14.787372860692983 75.6264
14.809876564079925 79.6566
14.83236330125751 84.5168
14.854868153850365 92.4711
14.877356041159485 105.381
14.899862046604186 124.001
14.922351087688757 150.997
14.944858249632887 182.715
14.967365991421232 210.142
14.989856770231246 225.37099999999998
15.012365673994204 217.52
15.03485761569738 186.047
15.05736768508665 145.983
15.07987833888692 112.391
15.102372032001655 89.3363
15.124883856909658 76.3515
15.14737872204565 71.3917
15.169891721717274 69.3625
15.192405310371893 69.5412
15.214901940621196 70.2186
15.237416709527137 70.492
15.259914520936249 70.6277
15.282430473753607 69.7092
15.304947020131227 68.2539
15.327446610371178 67.2422
15.349964346154254 66.4609
15.372465126703139 65.821
15.394984055556009 65.6401
15.417486030076159 65.4419
15.44000615566487 65.1176
15.462526881230803 65.0676
15.485030653812652 65.3593
15.507552581617434 65.514
15.530057557334603 65.3116
15.55258069104857 65.4512
15.575104429329837 65.0383
15.597611216864632 64.6606
15.620136166564563 64.6397
15.6426441664095 65.155
15.665170331202765 66.9176
15.687697105158826 69.7108
15.710206930593545 72.5068
15.732734925158933 76.0907
15.755245972089478 82.1665
15.77777519094324 90.6979
15.800287463046663 103.666
15.822817909869592 123.20299999999999
15.84534897229804 146.457
15.867863089299354 170.90900000000002
15.890395385222186 190.433
15.912910736597423 195.218
15.935444269699861 181.114
15.957978423016485 155.401
15.980495633101265 121.079
16.003031029129367 93.5991
16.02554948280019 75.7372
16.048086125229432 67.1776
16.070623392487107 64.7895
16.09314371869582 63.9155
16.11568223789321 62.9945
16.13820381691126 61.9953
16.160743591742527 60.8374
16.183283996022084 59.8859
16.205807461423195 58.8428
16.228349126881973 58.3293
16.25087385432698 58.1147
16.27341678466365 57.6332
16.29594277784926 57.7635
16.31848697676433 57.9274
16.341031811604868 58.4889
16.36355971058487 58.8079
16.3861058195587 58.4323
16.40863499352978 57.0588
16.431182380342005 56.1051
16.453730407713202 55.6596
16.476261501364792 55.1957
16.498810812136167 54.8194
16.52134319004079 54.8883
16.54389378792203 54.743
16.566445031001553 54.3996
16.588979342490088 54.3306
16.61153187824822 54.2239
16.634067483263312 54.1245
16.656621315414416 54.1168
16.679175797408888 53.8493
16.701713349928728 53.8183
16.72426913389191 54.0644
16.74680798922351 54.1817
16.76936507887444 54.1957
16.791905240734874 54.1768
16.814463639794468 53.9837
16.837022695210294 54.2414
16.859564824093756 54.6295
16.882125194503903 55.4
16.904668639217885 56.0373
16.927230328348003 56.193999999999996
16.949792678493612 56.3931
16.972338104193863 55.5514
16.994901778652235 54.989
17.017448529496576 54.6902
17.040013531998152 54.7713
17.06257920018044 55.1673
17.0851279459922 55.7513
17.107694947817667 56.757
17.130245028099072 57.2882
17.15281336730298 58.5471
17.17536478578733 60.4019
17.19793446610687 62.4585
17.220504818648422 65.4899
17.243058251703697 68.7669
17.265629950971032 73.3575
17.288184731571736 78.9834
17.310757781306908 83.5463
17.33333150794385 83.2534
17.355888317140174 81.9275
17.37846339986244 76.3946
17.401021565958885 70.2724
17.42359800851343 64.4488
17.44617513265564 60.8363
17.468735341390783 59.08
17.491261035594565 58.2198
17.51396340099364 57.9286
17.536490463869136 58.0804
17.559018209820174 58.0234
17.58154663977963 58.2572
17.604251766089718 58.3938
17.626781572227713 58.6789
17.64931206518155 58.9748
17.671843245885103 59.5468
17.69455114821572 59.8565
17.717083712612634 60.2706
17.739616967569667 60.123000000000005
17.762150914021706 60.1957
17.78486160749854 60.3522
17.807396945166804 60.8614
17.829932977143503 61.372
17.85246970436452 62.5673
17.875183204129467 64.3525
17.897721330097664 66.259
17.920260154126645 68.4524
17.942799677153296 71.2053
17.9655159983646 74.8059
17.988056927677544 79.6811
18.010598558807683 87.1926
18.033140892692916 97.4901
18.05586005052525 109.271
18.07840379824407 121.579
18.10094825154059 131.237
18.12366954819864 138.395
18.146215420998306 136.423
18.16876200220057 128.05200000000002
18.191309292745153 114.242
18.214033452627167 100.632
18.236582170236648 89.9723
18.259131600016456 84.611
18.281681742907335 84.9849
18.304408781233683 89.6944
18.32696035875955 94.8857
18.349512652227624 100.485
18.372065662579683 104.084
18.394795594587553 104.93299999999999
18.41735004715306 101.181
18.43990521943684 94.5141
18.46246111238171 85.3341
18.485193953325208 76.6541
18.507751296070428 69.2003
18.530309362314178 65.0845
18.552868153000343 62.7453
18.57560391815056 61.4748
18.59816416623245 60.8819
18.620725141597372 60.4757
18.643286845190268 59.9936
18.666025549835414 59.8376
18.688588718427933 59.2163
18.711152618092243 58.8772
18.73389353884365 58.4009
18.75645890921984 58.2178
18.77902501351406 57.8533
18.801591852673102 57.8335
18.824335739722738 57.3103
18.846904057212626 57.2416
18.8694731124168 56.9852
18.89204290628315 56.9723
18.914789774966803 56.8054
18.937361054791623 56.5641
18.959933076131318 56.1354
18.982505839934877 56.1413
19.00525570560582 56.3572
19.027829963004184 56.1203
19.05040496572238 56.2745
19.072980714710468 56.1797
19.095733592739563 56.1328
19.11831084296757 56.4719
19.140888842324735 56.9379
19.16346759176222 57.0798
19.18622349753803 57.4608
19.208803755869358 58.3505
19.231384767143577 59.4239
19.253966532312948 60.7458
19.276725481241822 62.9798
19.29930876296784 65.7781
19.3218928014549 69.1016
19.34465404436217 72.1554
19.36723960516257 75.0378
19.389825925592426 76.1663
19.412413006605938 74.9062
19.43517731967805 71.0671
19.457765930683355 66.6294
19.48035530514408 62.3019
19.50294544401556 58.7857
19.525712842708348 56.1018
19.54830451925909 54.4855
19.570896963095727 53.4136
19.593490175174704 53.2411
19.616260674962184 53.1293
19.638855432416964 52.6754
19.661450960992624 52.7718
19.68404726164677 52.7829
19.706820878021247 52.551
19.729418731756834 52.8142
19.752017360452857 52.6203
19.77461676506804 52.6664
19.797393513540218 52.7504
19.819994478951667 53.0259
19.84259622316767 53.4116
19.8651987471481 53.8612
19.887978643247177 53.9657
19.91058273574792 54.2953
19.933187610901943 55.2469
19.955969879466828 56.2037
19.97857632894404 57.8937
20.00118356396599 59.3223
20.023791585494575 61.3819
20.046577028914875 64.2428
20.069186632506966 66.7122
20.091797025500632 68.4678
20.114408208858933 68.8594
20.137196842715273 68.6741
20.159809615886765 67.1581
20.18242318232135 64.4775
20.20503754298326 62.247
20.227829382875154 61.4146
20.250445341109344 61.4648
20.27306209647285 62.2903
20.29567964993108 63.7286
20.31847471147704 64.9304
20.34109387027612 65.3127
20.363713830075454 65.0642
20.386334591841646 63.4555
20.409132890679302 60.7856
20.431755265564437 57.8233
20.454378445325528 54.9602
20.477002430930366 53.0118
20.499803982716553 51.7605
20.522429589228004 51.108000000000004
20.54505600449589 50.4342
20.567683229489194 50.1974
20.590488049900088 49.9402
20.61311690359731 49.6029
20.63574656993626 49.6392
20.658553853717297 49.0136
20.681185154618298 49.0084
20.703817271080066 48.8686
20.72645020407368 48.4996
20.749260783967177 48.4703
20.771895359337133 48.4075
20.794530754161617 48.3154
20.817166969412938 48.2315
20.83998086114876 48.1637
20.86261872660049 48.0876
20.885257415405402 48.0708
20.90789692853701 47.986000000000004
20.930714147864748 47.89
20.953355319030678 47.9754
20.97599731745334 47.9995
20.99864014410749 47.8475
21.021460706796564 47.8785
21.044105199328826 47.9555
21.06675052302631 48.1944
21.089396678865015 48.3875
21.112220600704806 48.7314
21.134868430275347 49.1294
21.15751709492456 49.2276
21.180166595629693 49.8281
21.202993892429635 50.4487
21.22564507473034 50.7593
21.24829709602816 50.8312
21.27112693608965 50.7277
21.293780644891275 50.7185
21.316435195634053 50.1415
21.339090589297417 49.2681
21.361923832041875 48.8769
21.384580921090404 48.4203
21.407238856007325 47.8778
21.429897637773326 47.702
21.45273429906592 47.732
21.475394784108598 47.7227
21.498056118951983 47.597
21.520718304578022 47.7752
21.543558400304388 47.9557
21.566222297108816 48.0928
21.58888704765135 48.0402
21.61155265291521 48.2606
21.63439619898156 48.8069
21.657063523335786 48.9556
21.67973170537063 49.3841
21.7024007460706 49.9092
21.72524775840385 50.5066
21.747918526116475 51.6552
21.770590155457388 52.799
21.79326264741238 54.3906
21.816113141960237 56.2833
21.838787368860547 58.2155
21.861462461341976 60.321999999999996
21.884315579735777 62.2159
21.90699241312273 63.4279
21.92967011506078 63.7271
21.95234868653799 63.361000000000004
21.9752053151131 62.1931
21.997885635446785 60.4823
22.020566828293532 58.4939
22.04324889464272 57.1719
22.066109049404666 56.0986
22.088792872571794 55.5629
22.111477572219204 55.5753
22.1341631493376 55.5123
22.157026846313123 55.3031
22.179714188221507 54.4965
22.202402410582668 53.4326
22.22509151438863 51.885
22.24795876962584 50.7724
22.270649646204486 49.8565
22.293341407213727 49.188
22.316034053646906 48.7635
22.338904883215342 48.4931
22.36159931041458 48.5348
22.38429462602756 48.3455
22.40699083104897 48.4187
22.429865251039757 48.448
22.452563244831367 48.4793
22.47526213102522 48.2844
22.49813925616515 48.2397
22.520839937143307 48.0253
22.543541513520587 47.9507
22.56624398629403 47.7239
22.589124730075895 47.7452
22.611829005656723 48.0618
22.63453418063466 47.9038
22.657240256008077 48.1248
22.680124634582935 48.1403
22.70283252079775 48.3995
22.725541310413075 48.6315
22.74825100442868 48.8661
22.771139033969575 49.284
22.79385054687155 49.6197
22.81656296718292 50.2218
22.83927629590484 51.1047
22.862167992606945 52.1351
22.88488314827121 53.3517
22.907599215359284 54.4623
22.93031619487366 55.5609
22.953211574954405 56.4862
22.975930389478226 57.4507
22.998650119445763 57.534
23.02137076586092 56.6736
23.044269845560063 55.4057
23.06699233506288 53.6973
23.089715744034912 51.9623
23.112617610931565 50.4186
23.135342869061212 49.1282
23.158069049684816 48.4627
23.1807961538087 48.2981
23.20370174880544 48.2331
23.226430710184808 48.1367
23.249160598093425 48.2457
23.271891413539002 48.1194
23.294800752937697 47.9602
23.31753343374794 48.2868
23.340267045128353 48.2007
23.36300158808808 48.5687
23.38591468821339 48.7881
23.408651104658304 49.1823
23.431388455719986 49.8144
23.454126742409 50.7933
23.4770436196085 51.7887
23.499783787914662 53.1126
23.522524894889884 54.3378
23.54526694154616 55.4836
23.56818761219047 56.5734
23.59093154860734 56.9984
23.613676427751283 57.2026
23.636422250635754 56.6489
23.659346731118656 54.8513
23.68209445191868 53.0566
23.704843119509587 50.7991
23.72759273490623 49.0441
23.750521041644767 47.5256
23.77327256312355 46.5516
23.796025035462787 45.9651
23.818956224555475 45.5001
23.841710609113413 45.4032
23.86446594758979 45.1422
23.887222241002014 45.0573
23.910157285144578 44.5494
23.932915498962537 44.5417
23.955674670778713 44.5364
23.978434801611975 44.3169
24.001373717286125 44.0621
24.024135776723917 44.0471
24.046898798245582 43.9221
24.06966278287146 43.9256
24.092605586582614 43.8026
24.115371508023642 43.5807
24.1381383956401 43.4123
24.16090625045381 43.4338
24.183852958731244 43.4521
24.206622758582608 43.1408
24.229393528706886 43.0563
24.252165270127392 43.1989
24.27511589952438 43.0304
24.297889594216997 42.9521
24.32066426328598 42.7635
24.34343990775613 42.7362
24.36639447485003 42.5272
24.38917208083877 42.528999999999996
24.41195066531332 42.6159
24.43490819850244 42.6479
24.457688750692377 42.4361
24.48047028445616 42.39
24.503252800821233 42.5582
24.526214300784112 42.6179
24.548998793132213 42.4859
24.57178427117417 42.478
24.59457073593893 42.4061
24.617536219319863 42.3808
24.64032466834748 42.4417
24.663114107195035 42.3262
24.685904536893013 41.9473
24.708874020360852 41.9019
24.731666442613744 41.7953
24.754459858818787 41.7903
24.777254270007962 41.7835
24.80022777025625 41.6304
24.82302418230472 41.4969
24.845821592443674 41.6285
24.86862000170663 41.6261
24.891597535453727 41.56399999999999
24.914397953892728 41.7561
24.93719937456671 41.7383
24.96000179851076 41.7449
24.98298338249997 41.7761
25.00578782394922 42.1231
25.028593271784167 42.2016
25.05157790644186 42.5807
25.07438537804115 42.7219
25.097193859145293 42.9883
25.120003350792075 43.1708
25.142992065061257 43.6658
25.165803588823465 43.6744
25.18861612625217 44.0959
25.211429678386736 44.0364
25.234422489079968 44.0603
25.257238081693636 44.2431
25.280054692141732 44.2858
25.3028723214652 44.2833
25.325869245420463 44.4199
25.348688923599397 44.4176
25.371509623787006 44.4004
25.394331347025812 43.9916
25.41733240110666 43.4999
25.440156181590016 42.8573
25.46298098826268 42.3723
25.48580682216873 41.9064
25.50881202326435 41.388000000000005
25.53163992281684 40.9963
25.55446885274561 40.5218
25.577298814096377 40.2972
25.600308179121807 40.3737
25.623140214533745 40.3914
25.64597328451537 40.2537
25.66898578564376 40.0118
25.691820936010206 40.0605
25.714657124097695 40.071999999999996
25.737494350954734 39.9861
25.760511045684957 39.9536
25.783350361364224 39.9759
25.806190718969255 39.9838
25.82903211955018 40.1278
25.852053024868923 40.0684
25.874896522722523 40.0514
25.897741066713106 39.9781
25.920586657892454 40.1728
25.943611790812668 40.3306
25.966459487728237 40.4461
25.989308234998564 40.4169
26.01215803367705 40.8031
26.03518741123814 41.0437
26.05803932412957 41.1371
26.080892291600094 41.1186
26.10374631470478 41.2002
26.12677995397268 41.1758
26.14963609978026 41.0576
26.172493304397875 40.7625
26.19535156888223 40.6928
26.218389486949604 40.2615
26.241249882640123 40.0028
26.26411134137826 39.8292
26.28715248187403 39.6721
26.31001607820869 39.4958
26.3328807407756 39.4636
26.35574647063438 39.4839
26.37879191991473 39.5438
26.401659795896734 39.49
26.424528742360263 39.7026
26.447398760366614 39.8156
26.470448535598294 39.9318
26.49332070826805 40.1613
26.516193955675355 40.5142
26.53906827888316 40.5702
26.562122397260108 40.8257
26.584998883685063 41.2673
26.607876449110325 41.4658
26.63075509460056 41.4603
26.65381357334404 41.6026
26.67669439061878 41.5717
26.699576291163382 41.5145
26.722459276044212 41.3428
26.745522132402975 40.9844
26.768407297649354 40.8954
26.791293550442003 40.5368
26.814180891848974 40.3428
26.837248143099337 40.0201
26.860137673466657 39.9126
26.88302829566349 39.6015
26.90592001075963 39.4323
26.92899167420566 39.3619
26.951885586870763 38.9837
26.974780595655517 38.7732
26.99785558178161 38.7127
27.020752794605112 38.5043
27.043651106772522 38.3294
27.06655051935668 38.3043
27.089629948036183 38.2703
27.112531573292053 38.1026
27.135434302194138 38.1024
27.158338135817015 38.0652
27.181422024430987 38.0927
27.204328079372566 37.8776
27.22723524226965 37.9427
27.250143514198573 38.0676
27.273231880156334 38.0156
27.296142382065014 37.9426
27.319053996245536 37.8007
27.341966723775965 37.9022
27.365059584515222 37.9512
27.38797455070062 38.0648
27.410890633481237 37.9892
27.433807833936918 37.8521
27.456905206923906 37.9332
27.47982465472398 37.9406
27.502745223449743 38.0609
27.525666914182825 38.1698
27.548768816912457 38.0482
27.571692763693633 37.9497
27.59461783573812 37.888000000000005
27.617723149491244 37.6652
27.640650484125285 37.6806
27.66357894728264 37.6788
27.686508540048052 37.4949
27.709618414237887 37.3584
27.732550278321757 37.3495
27.755483275279115 37.3006
27.778417406196485 37.328
27.801531858397514 37.4037
27.824468269376716 37.2258
27.847405817586786 37.2224
27.870344504116094 37.3658
27.893463551932008 37.5512
27.916404527281053 37.8401
27.93934664422563 37.8806
27.962289903855886 37.8711
27.98541356491974 38.1437
28.00835912214229 38.1259
28.03130582533231 38.5322
28.054253675581805 38.7349
28.077381967556104 38.5858
28.100332124185126 38.4918
28.123283431160893 38.4478
28.146235889577238 38.3991
28.169368830154156 38.2013
28.192323603752033 37.9506
28.215279532083304 37.7066
28.238415973016764 37.4487
28.261374223145094 37.378
28.284333631303806 37.1107
28.307294198589954 37.1094
28.330435319167677 36.5776
28.353398217078915 36.3925
28.376362277420153 36.2222
28.39932750129032 36.1121
28.422473319286713 35.9992
28.44544088262495 35.8641
28.468409612800283 35.7172
28.491379510913497 35.5411
28.51453004413313 35.6653
28.53750229057244 35.525
28.56047570826344 35.3809
28.583450298308804 35.4126
28.606605564586562 35.1984
28.629582511831156 35.293
28.65256063474956 35.1872
28.675539934446338 35.1534
28.698699951647605 35.1601
28.72168161743193 35.0665
28.74466446331978 35.0517
28.767648490417624 35.0924
28.790813276438353 34.8989
28.813799678527303 34.9654
28.836787265157085 34.9599
28.859955641890075 35.025999999999996
28.882945610203045 35.0289
28.905936766392035 34.8462
28.928929111566863 34.9412
28.952102288520145 34.8418
28.975097024308607 34.7246
28.998092952423807 34.6062
29.021090073977508 34.325
29.04426806913204 34.3537
29.067267590245258 34.1861
29.090268308143695 34.0781
29.11327022394099 34.1929
29.13645305530891 33.996
29.159457379627167 33.9867
29.18246290519685 33.9756
29.20546963313352 33.9114
29.22865731875826 33.9864
29.25166646419296 33.8982
29.27467681535305 33.7471
29.29768837335608 33.8894
29.320880931312562 33.796
29.34389491580634 33.8552
29.366910110507334 33.8787
29.38992651653503 33.7953
29.41312396492981 33.8311
29.436142806456754 33.6622
29.45916286268059 33.6379
29.48236399319994 33.5488
29.50538649169417 33.31
29.528410208259935 33.3821
29.55143514402014 33.0946
29.574641196749695 32.9212
29.597668583816574 32.812
29.6206971934585 32.7055
29.64372702680042 32.7689
29.666938019934474 32.6299
29.689970313635285 32.6125
29.713003834422636 32.5502
29.73603858342347 32.5177
29.759254535188578 32.5277
29.78229175361658 32.5773
29.80533020365064 32.4972
29.82836988641968 32.5026
29.85159081507472 32.3642
29.874632976355343 32.243
29.89767637376955 32.2181
29.920721008448314 32.2171
29.9439469322847 32.2622
29.96699405457564 32.1759
29.9900424175358 32.132
30.013092022298157 32.1632
30.03632295963995 32.0943
30.059375061131373 31.9314
30.08242840783577 32.0812
30.105483000888153 32.0521
30.128718970092244 32.0
30.151776069006917 32.0039
30.17483441768648 32.0527
30.198074175317235 31.9553
30.221135036724256 32.0121
30.24419715131772 31.8771
30.267260520236203 31.9116
30.290505341942243 31.8705
30.313571232750228 31.8346
30.336638381310948 31.8465
30.35970678876503 31.7314
30.38295669299435 31.7771
30.40602763151657 31.7997
30.429099832366074 31.769000000000002
30.452173296685572 31.7894
30.47542830191959 31.6565
30.498504306502497 31.659000000000002
30.521581577995562 31.7339
30.544660117543582 31.7127
30.56792024229725 31.8226
30.59100133132069 31.6906
30.614083691845494 31.6917
30.637167325018545 31.8599
30.660432587840603 31.8135
30.683518779717886 31.7387
30.70660624769615 31.750999999999998
30.729694992924372 31.7067
30.75296541239743 31.8402
30.77605672557558 31.6691
30.799149319462742 31.7201
30.8224236211637 31.546
30.845518789950724 31.5309
30.868615242910597 31.46
30.891712981195973 31.3096
30.91499247215866 31.2222
30.938092794619365 31.2695
30.96119440587579 31.0645
30.984297307082752 31.0315
31.00758200598383 30.891
31.030687500658694 30.8841
31.053794288760695 30.7089
31.076902371446767 30.5309
31.100192296997445 30.7267
31.12330298246119 30.6762
31.14641496599209 30.5628
31.169528248749216 30.5498
31.19282341969534 30.5741
31.215939314557186 30.6032
31.239056512134788 30.6422
31.262175013589378 30.5275
31.28547544871168 30.43
31.30859657161541 30.4446
31.331719001892175 30.5033
31.35484274070538 30.5805
31.378148458819545 30.5884
31.401274828443725 30.4439
31.424402510106933 30.4665
31.447712205419993 30.56
31.470842524931633 30.4004
31.493974159989783 30.4802
31.51710711176168 30.4298
31.54042212308802 30.4203
31.563557722100917 30.44
31.586694641341655 30.2019
31.609832881979628 30.2011
31.63315322823208 30.086
31.656294125521327 30.0461
31.679436347728515 30.0037
31.70257989602529 29.8446
31.725905596152327 29.8581
31.74905181052835 29.7704
31.772199354521323 29.8588
31.79534822930507 29.8645
31.818679302290967 29.779
31.84183085259981 29.8493
31.864983737233473 29.7398
31.88813795736804 29.8398
31.911474422233013 29.6522
31.934631327356435 29.7599
31.9577895715215 29.6748
31.980949155906522 29.6289
32.004291031706956 29.6139
32.027453310562606 29.519000000000002
32.05061693318573 29.4559
32.07396288236386 29.4249
32.09712920658542 29.3865
32.12029687812702 29.3274
32.14346589817093 29.1995
32.166817291729984 29.0879
32.18998902288583 29.1261
32.21316210610336 29.0278
32.23633654256711 29.0505
32.259693399663725 28.9638
32.282870556771144 28.7463
32.30604907069099 28.7547
32.329228942610065 28.7536
32.35259128243769 28.5922
32.375773884550505 28.6052
32.398957848235646 28.6843
32.422143174682176 28.4896
32.445511016471215 28.3844
32.468699082679954 28.4942
32.49188851523011 28.3542
32.51507931531304 28.2211
32.538452678331 28.3036
32.56164622776311 28.1363
32.58484114831493 28.0673
32.60803744118015 28.1348
32.631416344731896 28.1386
32.654615396551876 28.0309
32.67781582427913 28.0391
32.701198898634416 28.0278
32.72440209253756 27.8676
32.747606665947124 27.9635
32.77081262006088 27.7503
32.79420126883317 27.7237
32.81740999876112 27.7403
32.840620112999424 27.6381
32.86383161274818 27.6212
32.88722585534586 27.6821
32.91044014056596 27.7889
32.933655814909734 27.5612
32.95687287957963 27.6075
32.98027273544904 27.5754
33.00349259526636 27.4952
33.026713849030116 27.5617
33.04993649794511 27.5139
33.073341986570746 27.5383
33.09656744032826 27.3828
33.11979429286444 27.4361
33.14302254538647 27.3989
33.166433686291185 27.4683
33.18966475336992 27.3536
33.212897224069096 27.3008
33.23613109959831 27.261
33.259547912343415 27.1879
33.2827846121627 27.3348
33.306022720453775 27.1529
33.32926223842861 27.1012
33.352684742614166 27.1092
33.37592709463173 26.9391
33.399170859982064 26.9647
33.422597648419426 26.8929
33.44584425514446 26.7679
33.46909227885668 26.8053
33.4923417207723 26.6014
33.51577423505344 26.6873
33.539026528130385 26.5551
33.56228024307245 26.5936
33.585535381098246 26.3914
33.60897364093058 26.3281
33.63223163992385 26.3966
33.6554910656699 26.296999999999997
33.678751919389796 26.2657
33.702195944520106 26.2657
33.72545966903325 26.3008
33.74872482519663 26.1321
33.771991414233746 26.2745
33.79544122444841 26.2095
33.81871069412428 26.1212
33.84198160035767 26.0438
33.86525394437455 26.0791
33.88870955949969 25.9813
33.911984794020626 25.9995
33.93526147001624 25.9803
33.958539588715006 25.8365
33.98200102861669 25.8467
34.0052820477047 25.7711
34.02856451319451 25.7164
34.05203033759056 25.6585
34.07531571090147 25.6832
34.09860253431845 25.5916
34.121890809074316 25.5823
34.145362493118924 25.6089
34.16865368561615 25.5306
34.191946333164054 25.5116
34.21524043699793 25.5073
34.23871800066799 25.4725
34.26201503218366 25.3544
34.28531352370466 25.386
34.30861347646881 25.2565
34.33209693978188 25.3164
34.3553998301885 25.2339
34.378704185565205 25.1209
34.402010007152356 25.0445
34.42549939016683 25.1298
34.44880815937748 25.0127
34.472118398533134 24.9305
34.49543010887669 24.9262
34.51892543169198 24.8684
34.54224009966052 24.8516
34.56555624255917 24.8652
34.58887386163339 24.7353
34.61237514439016 24.6932
34.6356957311114 24.6719
34.65901779775809 24.6483
34.68252356662995 24.5991
34.705848608458616 24.664
34.72917513396849 24.5668
34.75250314440949 24.5334
34.77601490857862 24.4339
34.799345904259795 24.3364
34.82267838863559 24.4679
34.846012362958525 24.3689
34.869530142679984 24.323
34.89286711232212 24.3219
34.91620557568269 24.3059
34.93954553401677 24.2559
34.9630693495876 24.1576
34.986412313340814 24.2387
35.00975677584668 24.2136
35.033102738362956 24.1846
35.05663261012228 24.0288
35.0799815881786 24.0788
35.10333207003229 23.9512
35.12668405694369 23.9893
35.150220005273056 23.9138
35.17357501786656 23.8937
35.19693153931268 23.9489
35.220289570874385 23.8195
35.24383161619786 23.842
35.267192683604904 23.8722
35.290555264930376 23.8494
35.314101899412165 23.8559
35.33746752422433 23.723000000000003
35.36083466676374 23.8108
35.38420332829803 23.6817
35.407756095629054 23.7053
35.43112781085063 23.6905
35.45450104888391 23.6592
35.477875810999194 23.578000000000003
35.50143473172161 23.5481
35.52481255774625 23.5939
35.54819191167777 23.5549
35.57157279478914 23.4763
35.595137889488406 23.4741
35.61852184675279 23.3642
35.641907337029984 23.3748
35.665294361595684 23.3366
35.68886565090076 23.2678
35.7122557598848 23.2079
35.73564740699838 23.2367
35.759040593519934 23.1425
35.78261809810353 23.0815
35.80601437933051 23.0518
35.829412203814705 23.0409
35.85281157283719 22.9479
35.876395313415884 23.0024
35.8997977874528 23.0111
35.92320180988546 22.8294
35.946790244133936 22.8931
35.97019737933222 22.9064
35.993606066789866 22.8403
36.01701630779276 22.756999999999998
36.04061101440684 22.7186
36.06402437852291 22.6748
36.08743930005611 22.6581
36.1108557802951 22.6339
36.13445678011326 22.6289
36.15787639383515 22.5643
36.18129757014299 22.5486
36.20472031032821 22.443
36.22832762423364 22.4242
36.25175350829375 22.3944
36.275180960119776 22.2911
36.298609981005924 22.3592
36.32222362992669 22.3294
36.34565580510207 22.3635
36.36908955323448 22.3753
36.39252487562093 22.2173
36.416144880530226 22.1789
36.43958336764275 22.1924
36.463023432914625 22.2547
36.486465077645676 22.0724
36.51009145956204 22.1865
36.53353627947859 22.0773
36.55698268276811 22.0533
36.58043067073321 22.0138
36.60406345072071 21.9854
36.62751462435344 21.941999999999997
36.65096738658405 21.8842
36.67460498210655 21.9228
36.69806093788647 21.7533
36.72151848619297 21.6705
36.744977628333636 21.7501
36.76862165890998 21.6699
36.79208400512205 21.6614
36.81554794910557 21.6406
36.83901349217101 21.593000000000004
36.862663978991606 21.5704
36.88613273667352 21.5332
36.90960309738324 21.5012
36.933075062434064 21.4828
36.95673202673572 21.4762
36.98020721697122 21.3865
37.003684015502365 21.3585
37.027162423645365 21.3445
37.050825886711465 21.3152
37.07430753063053 21.1567
37.09779078812467 21.2379
37.121275660513014 21.2551
37.144945643673694 21.1976
37.16843376245278 21.1126
37.19192350009803 21.1232
37.215414857931435 21.1006
37.239091382563885 21.0347
37.262585997426164 21.0359
37.28608223645736 21.058000000000003
37.309763684451696 20.9712
37.33326318851098 20.818
37.356764320726555 20.8339
37.380267082425526 20.9092
37.40395510942588 20.8697
37.42746114683234 20.8371
37.45096881771841 20.7105
37.474478123414166 20.7517
37.49817275092816 20.6643
37.52168534303452 20.6174
37.54519957395567 20.5454
37.568715445024665 20.5782
37.592416694607714 20.5411
37.61593586281424 20.58
37.63945667518264 20.6261
37.66297913304891 20.5272
37.68668702630454 20.4389
37.710212792059274 20.4311
37.733740207334854 20.3685
37.757269273470364 20.3823
37.780983832050374 20.3174
37.80451621684926 20.2702
37.82805025654007 20.2495
37.851585952464795 20.2577
37.8753071980695 20.1248
37.89884622345676 20.0841
37.92238690911902 20.049
37.94611318753442 20.0269
37.969657210779765 20.0575
37.99320289834801 20.0057
38.016750251586465 19.9875
38.04048325513017 19.8986
38.06403395679343 19.9368
38.087586328183946 19.8637
38.11114037065203 19.8723
38.13488012115898 19.8741
38.1584375229181 19.7137
38.181996599821 19.7308
38.205557353221124 19.766
38.229303872575656 19.6608
38.2528679961576 19.6301
38.27643380031219 19.5811
38.30000128639589 19.588
38.32375459653193 19.5948
38.34732546371299 19.5265
38.37089801690786 19.4691
38.39447225747609 19.3849
38.418232380377425 19.4663
38.441810012983396 19.3949
38.46538933705673 19.3161
38.488970353960084 19.43
38.51273731166058 19.4154
38.536321731567014 19.3124
38.55990784840681 19.2569
38.58367995004091 19.2589
38.60726947812959 19.2036
38.63086070726198 19.1943
38.654453638806274 19.1432
38.678232613930824 19.04
38.70182896773327 19.0024
38.72542702806741 18.9937
38.7490267963045 19.023
38.77281266709232 19.0299
38.79641586862214 18.9597
38.8200207821842 18.9451
38.843627409152944 18.8941
38.86742019782782 18.8265
38.891030269149255 18.7978
38.914642058016156 18.7619
38.938255565806124 18.7271
38.96205529464307 18.7312
38.98567225787121 18.7042
39.00929094417078 18.6616
39.03291135492255 18.6691
39.05671804624804 18.6034
39.080341923549106 18.5939
39.103967529460334 18.5357
39.127594865365744 18.4848
39.15140854155791 18.4975
39.17503935514948 18.5063
39.19867190290282 18.4625
39.22249083587951 18.4325
39.24612686969409 18.4565
39.269764641845306 18.4064
39.293404153722804 18.3759
39.317230110864074 18.3083
39.34087311998506 18.2783
39.36451787301696 18.1789
39.388164371352595 18.1475
39.41199737518003 18.125
39.43564738196752 18.1277
39.45929913825317 18.1011
39.48295264543308 18.0756
39.506792718520884 17.9829
39.530449745387216 17.987000000000002
39.55410852735203 17.9982
39.57776906581474 18.0031
39.60161623079 17.9475
39.625280300200025 18.0029
39.64894613032202 17.8967
39.67261372255866 17.8305
39.6964680021016 17.8602
39.72013913657293 17.8707
39.74381203738292 17.8045
39.76748670593756 17.8126
39.79134812278169 17.755
39.81502634488497 17.7398
39.83870633896685 17.6519
39.862388106436654 17.6601
39.88625668336918 17.6012
39.90994201572829 17.5728
39.933629125719285 17.6103
39.957503091207826 17.5665
39.9811937746168 17.6078
40.00488623990914 17.5087
40.02858048850006 17.4392
40.05246165409549 17.4457
40.076159487492085 17.3655
40.099859108448875 17.4223
40.123560518384345 17.4022
40.1474489070226 17.3538
40.171153913178564 17.2985
40.194860712584955 17.2485
40.2185693066637 17.1983
40.242464941335314 17.2079
40.26617714307655 17.2036
40.289891143772046 17.2176
40.3136069448471 17.1672
40.33750984859743 17.0887
40.3612292688043 17.0471
40.3849504936829 17.043
40.40867352466194 17.0303
40.43258372059144 17.0023
40.45631038219906 16.9795
40.48003885420956 16.9014
40.503769138055105 16.910999999999998
40.52768664931955 16.8713
40.55142057531802 16.8352
40.57515631746428 16.7804
40.599079334038514 16.7413
40.62281872700477 16.7249
40.64655994043941 16.7304
40.67030297578061 16.7397
40.69423334835778 16.7202
40.71798004609188 16.5883
40.74172857006355 16.6395
40.76547892171441 16.6191
40.7894166736039 16.5713
40.813170699248566 16.5559
40.83692655691388 16.5058
40.86068424804498 16.5561
40.884629402612525 16.5459
40.908390779366385 16.4705
40.932153993938 16.4316
40.95591904777605 16.4146
40.979871628443995 16.4104
41.003640379561936 16.4248
41.02741097430883 16.3804
41.05118341413683 16.3381
41.075143444384416 16.2733
41.098919593177826 16.2877
41.1226975914255 16.2668
41.14647744058318 16.2124
41.170444943946755 16.1667
41.19422851378379 16.1647
41.218013938914645 16.1071
41.24198706625173 16.0855
41.26577622087193 16.0722
41.289567235177785 16.05
41.31336011063129 15.9605
41.337340752422875 15.9588
41.361137369129835 15.9869
41.38493585138705 15.9374
41.40873620066004 15.878
41.43272438060107 15.8652
41.45652848292052 15.8112
41.48033445666918 15.7733
41.50414230331616 15.7654
41.528138045159764 15.7916
41.551949656675205 15.7206
41.575763145513235 15.7104
41.59957851314666 15.7549
41.62358184070442 15.6651
41.64740098505737 15.5878
41.6712220126409 15.5793
41.69504492493139 15.6161
41.71905586207357 15.5944
41.74288256296395 15.5068
41.766711153007456 15.5001
41.79054163368412 15.4919
41.814560204340054 15.4802
41.838394485526365 15.456
41.86223066180303 15.4267
41.88625497706819 15.3308
41.910094962812 15.3791
41.93393684811168 15.3108
41.95778063445365 15.2686
41.981812625263366 15.2327
42.00566023303407 15.2765
42.029509746323676 15.2442
42.05336116662236 15.2289
42.077400857069705 15.2008
42.10125611078846 15.175999999999998
42.12511327600405 15.0686
42.14897235421036 15.0389
42.173019768448455 15.0483
42.19688269209613 15.0512
42.22074753323349 15.0911
42.24461429335818 14.9843
42.268669455600495 14.9223
42.292540073217886 14.9725
42.31641261433284 14.915
42.34028708044675 14.9225
42.36435001496739 14.8935
42.38822835065557 14.8891
42.41210861586426 14.8497
42.4359908120986 14.8176
42.46006154323262 14.7323
42.48394762115317 14.7786
42.507835634632315 14.7296
42.531912233047436 14.6449
42.55580413732265 14.6814
42.579697981698 14.6715
42.60359376768525 14.5616
42.62767820545945 14.5721
42.65157789440821 14.6407
42.67547952952185 14.6073
42.699383112316 14.5664
42.72347541395347 14.4764
42.74738291190531 14.4715
42.771292362102166 14.4833
42.795203766063516 14.4189
42.819303956130405 14.3579
42.843219287476536 14.349
42.86713657716324 14.3108
42.89105582671383 14.3011
42.91516392983864 14.2958
42.939087119032166 14.3081
42.963012272677304 14.261
42.98693939230129 14.2508
43.01105543317513 14.2294
43.034986504731386 14.2083
43.05891954686589 14.1568
43.08285456110972 14.1196
43.10697856448665 14.0892
43.130917542983475 14.0572
43.15485849820081 14.1145
43.17880143167367 13.9431
43.20293342237094 13.9349
43.226880332449 13.9963
43.25082922540554 14.0193
43.27496722682525 13.9394
43.29892010567796 13.9405
43.32287497204102 13.898
43.34683182745632 13.8279
43.370977859791836 13.8317
43.39493871351105 13.8067
43.41890156092628 13.7672
43.44286640358341 13.7317
43.46702049182749 13.7609
43.49098934522816 13.706
43.51496019852649 13.7266
43.5389330532723 13.6864
43.56309522248204 13.6466
43.58707210044314 13.6624
43.61105098451946 13.62
43.63503187626491 13.5958
43.659202151562134 13.5437
43.68318707902681 13.5251
43.70717401884041 13.5189
43.731162972560874 13.4252
43.75534137913236 13.43
43.779334381108384 13.4021
43.803329401683186 13.4079
43.82732644241872 13.4147
43.8515130055166 13.4114
43.87551410707659 13.3089
43.89951723350145 13.3182
43.923709934595614 13.3037
43.94771713129917 13.3138
43.97172635758096 13.2395
43.99573761501002 13.2416
44.0199385169922 13.1671
44.04395385732619 13.2003
44.067971233533086 13.1934
44.09199064718605 13.1413
44.11619977548961 13.1282
44.14022328470671 13.0435
44.16424883610785 13.1111
44.18827643127035 13.1039
44.21249381139513 13.0251
44.236525514814076 12.9833
44.26055926674478 12.9692
44.28459506876863 12.969000000000001
44.3088207262813 12.9626
44.33286064928722 12.9323
44.35690262714919 12.9031
44.38094666145278 12.8657
44.4051806219871 12.8372
44.42922879003185 12.8392
44.45327901929361 12.7915
44.477331311362136 12.7949
44.501573600619416 12.7291
44.525630039221795 12.7118
44.54968854541895 12.7469
44.573937102200176 12.7404
44.5979997645541 12.7226
44.622064499300315 12.6522
44.64613130803592 12.6225
44.67038823869318 12.6601
44.69445921643748 12.592
44.718532272981385 12.5361
44.742607409926194 12.5259
44.76687274034801 12.5206
44.79095205918753 12.4235
44.81503346325094 12.4846
44.839116954143876 12.4777
44.86339071028742 12.3969
44.88747839599524 12.4015
44.91156817336837 12.3784
44.93566004401666 12.3835
44.959942251908146 12.3555
44.984038330325966 12.3435
45.00813650686762 12.2909
45.03223678314731 12.3036
45.05652746888232 12.3203
45.08063196592069 12.2109
45.104738567558705 12.2115
45.128847275414856 12.207
45.15314646515866 12.0982
45.17725940679741 12.1416
45.20137445952892 12.1388
45.22568004865265 12.0948
45.24979934496396 12.0422
45.27392075725247 12.0786
45.29804428714431 12.0637
45.322358426247604 12.0133
45.346486212804315 12.0111
45.370616121861914 11.9883
45.39474815505086 11.9457
45.41907087049246 11.912
45.4432071734666 11.9124
45.46734560548283 11.9241
45.49148616817604 11.8506
45.51581748638564 11.8098
45.5399623320197 11.7954
45.56410931325473 11.7925
45.58825843173002 11.7976
45.61259837920865 11.7795
45.636751793816 11.8486
45.66090735060093 11.708
45.68506505120716 11.7248
45.7094136545275 11.6993
45.73357566449271 11.649000000000001
45.75773982322992 11.6137
45.78190613238733 11.6156
45.806263418194064 11.5804
45.83043404997326 11.6094
45.85460683713677 11.5713
45.87897065658495 11.5575
45.90314777634752 11.5084
45.92732705646868 11.4837
45.9515084986045 11.4544
45.97588104735473 11.4366
46.00006683541565 11.4174
46.02425479047904 11.4097
46.04844491420549 11.4181
46.0728262191024 11.4067
46.09702070211635 11.3766
46.12121735879483 11.3382
46.14541619080294 11.2937
46.169806278764455 11.3198
46.194009483459034 11.2876
46.21821486849841 11.2907
46.24242243555223 11.2457
46.266821333570014 11.2036
46.29103328674601 11.1509
46.31524742696538 11.1479
46.33946375590237 11.1426
46.36387149104216 11.1238
46.38809221957392 11.116
46.41231514186606 11.1383
46.436540259597464 11.0709
46.460956858999374 11.052999999999999
46.48518638983522 11.059000000000001
46.509418121166966 11.0329
46.533652054678114 10.9771
46.55807754555709 10.9475
46.58231590571962 10.9468
46.60655647313217 10.8871
46.630988654873654 10.8669
46.655233659129024 10.8856
46.67948087571551 10.8667
46.70373030632484 10.8211
46.72817142736393 10.8344
46.752425308428684 10.8307
46.77668140861147 10.7935
46.80093972960865 10.7586
46.82538981736788 10.7457
46.849652602470904 10.735999999999999
46.87391761349769 10.7425
46.8981848521493 10.71
46.9226439341274 10.6655
46.946915650573224 10.6509
46.97118959976749 10.6688
46.99546578341598 10.6269
47.019933887188216 10.5733
47.04421456235744 10.561
47.06849747711879 10.5495
47.09278263318286 10.5029
47.11725978640143 10.5
47.14154944775105 10.5158
47.165841355555656 10.4815
47.1901355115306 10.4487
47.214621741924994 10.4504
47.23892041698887 10.4221
47.26322134538975 10.3498
47.28771440635075 10.3654
47.31201986422527 10.3622
47.33632758061436 10.305
47.360637557241866 10.3064
47.38513974410611 10.286
47.40945426407847 10.3102
47.43377104948137 10.2951
47.45809010204344 10.2321
47.48260144275502 10.2068
47.506925052572285 10.1867
47.53125093475548 10.1652
47.55557909103813 10.1603
47.58009961361992 10.1161
47.60443234110732 10.09
47.62876734791564 10.1263
47.65310463578333 10.0867
47.6776343683373 10.1035
47.7019762413987 10.0528
47.72632040075572 10.0552
47.75066684815169 10.0489
47.77520581885936 10.006
47.799556865477655 10.0102
47.823910205386 9.9788
47.84826584033272 9.940660000000001
47.87281407745551 9.88375
47.89717432569297 9.8947
47.92153687423484 9.890419999999999
47.94609208429692 9.88621
47.97045925671401 9.85564
47.99482873471275 9.81983
48.01920052005013 9.81113
48.04376504619224 9.80327
48.068141469543484 9.809460000000001
48.09252020552573 9.75496
48.11690125590099 9.74509
48.1414751266064 9.769789999999999
48.16586082917454 9.73051
48.19024885144316 9.67789
48.2146391951793 9.6757
48.239222439012764 9.69952
48.26361744916137 9.631310000000001
48.28801478610016 9.65391
48.31241445160131 9.60333
48.337007097209366 9.5748
48.36141144338331 9.57002
48.38581812345755 9.545110000000001
48.41022713920929 9.5633
48.434829215320704 9.54321
48.45924292604658 9.51336
48.48365897780325 9.50928
48.50807737237308 9.49105
48.532688907799276 9.45843
48.55711201168574 9.451989999999999
48.581537463754074 9.42885
48.60615611725119 9.42591
48.63058628942721 9.38963
48.65501881516546 9.378160000000001
48.6794536962573 9.34796
48.70408185970339 9.35406
48.72852147531801 9.3178
48.75296345168211 9.277519999999999
48.77740779059232 9.289539999999999
48.80204549302823 9.29089
48.82649458091802 9.2596
48.85094603676547 9.24087
48.87539986237231 9.218210000000001
48.90004713292306 9.20485
48.92450572200832 9.20257
48.94896668628025 9.16034
48.97343002754588 9.10722
48.99808689542115 9.10705
49.02255501470614 9.150830000000001
49.04702551642794 9.07423
49.0714984023988 9.061919999999999
49.096164896893235 9.09753
49.120642575466796 9.04443
49.145122643748394 9.01015
49.16960510355558 8.99215
49.19428125404938 9.0065
49.2187685210852 8.976239999999999
49.243258185121555 8.94283
49.26794160167084 8.90315
49.2924360839405 8.90766
49.31693296869764 8.90822
49.34143225776915 8.8437
49.36612538195438 8.857999999999999
49.39062950396021 8.8591
49.41513603578346 8.81424
49.4396449792564 8.79951
49.46434784069503 8.79396
49.488861631846454 8.73126
49.513377840166804 8.76856
49.537896467493745 8.74415
49.56260909589029 8.71262
49.587132585683285 8.67592
49.611658500018365 8.67015
49.636186840738596 8.64977
49.66090926588511 8.640239999999999
49.685442483902584 8.63588
49.70997813385706 8.61924
49.734516217597076 8.5913
49.75924846937352 8.59625
49.7837914452858 8.62021
49.80833686055187 8.58388
49.83288471702571 8.53808
49.85762682540054 8.53185
49.882179588965734 8.49034
49.9067347993235 8.4515
49.93129245833333 8.48069
49.95604445336378 8.50163
49.98060703442832 8.41288
50.005172069746266 8.42734
50.02993150438364 8.40898
50.05450147301533 8.37844
50.07907390151433 8.3612
50.10364879174981 8.3703
50.12841816587289 8.35213
50.1529980044635 8.316980000000001
50.17758031042124 8.28379
50.20216508562089 8.26727
50.22694442953363 8.32576
50.25153416817468 8.277510000000001
50.27612638170508 8.23819
50.300721072005196 8.24392
50.325510416102105 8.22284
50.350110084975064 8.197000000000001
50.37471223628208 8.18241
50.39931687190919 8.166839999999999
50.424116246675766 8.17868
50.44872587605249 8.10012
50.47333799543065 8.12226
50.49795260670191 8.13195
50.52276204271512 8.09281
50.54738166295838 8.06085
50.57200378079314 8.05926
50.596628398116835 8.02386
50.62144792604559 8.0447
50.646077567609396 8.02621
50.670709714377715 8.002410000000001
50.69553683636198 7.9905
50.72017401885922 7.9918
50.7448137122895 7.98062
50.76945591856022 7.95061
50.79429318636823 7.92904
50.818940443716784 7.94652
50.84359021965163 7.91828
50.868242516085964 7.88508
50.893089960641895 7.8543199999999995
50.917747323549435 7.830310000000001
50.94240721271973 7.83028
50.96706963007175 7.79206
50.99192728239342 7.81761
51.01659478166073 7.82131
51.04126481489051 7.80817
51.06593738400761 7.7715
51.090805275207074 7.770580000000001
51.11548294172845 7.72558
51.14016314993547 7.70633
51.164845901758845 7.695289999999999
51.18972406304274 7.6953
51.21441192780656 7.67853
51.23910234200271 7.677410000000001
51.2637953075678 7.646380000000001
51.288683770237945 7.61572
51.31338186432707 7.57862
51.33808251561888 7.59045
51.362978729967345 7.57597
51.387684521509755 7.5651399999999995
51.41239287610203 7.554689999999999
51.437103795691165 7.53907
51.46201036644977 7.51823
51.486726441956634 7.480980000000001
51.51144508832545 7.5030399999999995
51.536166307509156 7.476539999999999
51.56108326624387 7.438839999999999
51.58580965706056 7.44238
51.61053862657523 7.42271
51.635270176746864 7.389469999999999
51.66019755512065 7.407139999999999
51.68493429268881 7.36888
51.70967361681515 7.367189999999999
51.73441552946465 7.33851
51.759353359237934 7.343210000000001
51.7841004750961 7.328460000000001
51.80885018539685 7.3056600000000005
51.833602492111254 7.284610000000001
51.8585508051424 7.27323
51.883308330926425 7.271260000000001
51.90806845906181 7.251410000000001
51.932831191525715 7.203869999999999
51.95779001977161 7.24385
51.98255798721516 7.21275
52.00732856494335 7.18277
52.03229530577543 7.1718399999999995
52.057071130455945 7.15025
52.081849571391054 7.11648
52.106630630568695 7.11983
52.13160794279417 7.100460000000001
52.15639426492067 7.10867
52.18118321127822 7.07707
52.205974783860896 7.04892
52.23096269971011 7.062139999999999
52.255759551287994 7.040769999999999
52.280559035098186 7.018660000000001
52.30536115314103 6.992189999999999
52.33035970494467 6.972389999999999
52.35516711807904 6.9912399999999995
52.37997717147198 6.94428
52.40478986713005 6.93991
52.42979908731974 6.9440100000000005
52.454617094216 6.95528
52.47943774942214 6.917739999999999
52.50426105495102 6.88738
52.529280976059844 6.880510000000001
52.554109609024096 6.88973
52.57894089837482 6.8582600000000005
52.60377484613117 6.844539999999999
52.62880550079408 6.810980000000001
52.65364479223379 6.80293
52.67848674816189 6.760689999999999
52.70352547971946 6.7572600000000005
52.72837279155837 6.7343399999999995
52.753222773982785 6.69866
52.778075429022984 6.740010000000001
52.80312495150885 6.7585
52.827982978797436 6.75177
52.85284368481815 6.6841
52.87770707160767 6.6496
52.90276741793998 6.63933
52.92763619336701 6.644369999999999
52.952507655698504 6.631989999999999
52.977381806977576 6.62063
53.00245301017842 6.64965
53.02733256653592 6.5945800000000006
53.052214817996074 6.551880000000001
53.077099766608484 6.55928
53.102181859804446 6.57247
53.127072229988265 6.53751
53.15196530349892 6.49598
53.17686108239249 6.48664
53.20195409881522 6.443890000000001
53.22685531582556 6.47331
53.25175924441303 6.46214
53.27666588664027 6.47764
53.30176985962693 6.39532
53.3266819565689 6.420380000000001
53.35159677336455 6.39964
53.376514312083096 6.37437
53.40162927507703 6.39171
53.42655228516116 6.3754
53.45147802340193 6.36423
53.47660125628886 6.34563
53.50153247842639 6.31738
53.52646643496923 6.29459
53.55140312799818 6.31712
53.576537409691696 6.26619
53.60147960336152 6.2795
53.626424539786164 6.27698
53.65137222105307 6.247719999999999
53.67651758529126 6.2076199999999995
53.70147078399681 6.1704099999999995
53.72642673383343 6.21799
53.75138543689533 6.20592
53.776541917524526 6.1774
53.801506154876755 6.12594
53.826473151763246 6.165080000000001
53.851442910284916 6.13184
53.87661054126026 6.132969999999999
53.9015858509782 6.0974
53.92656392866066 6.10475
53.95154477641532 6.07303
53.976723591801296 6.07885
54.00171000771266 6.06506
54.02669920004598 6.0660099999999995
54.051691170915745 6.04523
54.076881204886796 6.0262199999999995
54.101878760928514 6.01886
54.12687910187696 6.00531
54.152077577768296 6.01061
54.1770835166946 5.943169999999999
54.20209224691339 5.94652
54.22710377055121 5.91047
54.25231352511594 5.9275400000000005
54.27733066384342 5.86449
54.30235060239643 5.87258
54.32737334290836 5.8722900000000005
54.35259441062629 5.8379900000000005
54.377622783395324 5.84966
54.40265396455061 5.8326400000000005
54.42768795623251 5.8103
54.45292037169559 5.78603
54.477960012857906 5.76654
54.50300247099511 5.75707
54.52804774825457 5.73755
54.55329154616743 5.72506
54.57834249018678 5.72388
54.6033962597977 5.7396199999999995
54.6284528571545 5.6971
54.653708072335164 5.64895
54.67877035378786 5.63321
54.70383546947698 5.598269999999999
54.72890342156389 5.61935
54.7541700889442 5.56251
54.77924374251975 5.56594
54.8043202390049 5.53924
54.82959552413022 5.48802
54.8546777351945 5.4727
54.87976279569621 5.4062
54.90485070780914 5.4407
54.930137506558005 5.42307
54.95523115074295 5.49788
54.98032765308844 5.357069999999999
55.005427015775496 5.37666
55.03072536339621 5.41033
55.05583047570572 5.30147
55.080938454927676 5.34172
55.10604930325027 5.30346
55.131359235107396 5.22823
55.15647585066083 5.18584
55.181595341907496 5.21563
55.20671771104285 5.19119
55.232039262617704 5.1348
55.25716741665048 5.13422
55.28229845518636 5.10412
55.30743238042802 5.10243
55.33276558731939 5.10189
55.357905315183636 5.04038
55.383047936390035 5.01432
55.40819345314859 5.00819
55.433538351073295 4.99028
55.458689688238415 4.96213
55.483843927614096 4.96062
55.509197623043605 4.9871099999999995
55.53435769621134 4.94881
55.55952067826466 4.87954
55.5846865714265 4.88936
55.61005202069737 4.854
55.63522376553902 4.87836
55.66039842818645 4.81455
55.68557601087004 4.8040199999999995
55.7109532500271 4.73033
55.73613670233794 4.7554099999999995
