TT I
1.2716486653135266 7.756469999999999
1.2939594142134223 8.15201
1.3162702121660406 7.32402
1.3385810600174564 7.25321
1.3608919586137629 7.809810000000001
1.383202908801069 6.7636
1.405513911425503 6.7566
1.4278249673332093 6.670380000000001
1.4501343378461518 6.912489999999999
1.4724455028545926 6.883710000000001
1.4947567236847858 6.86527
1.517068001182951 6.64248
1.5393793361953272 6.84445
1.5616907295681737 6.955189999999999
1.5840021821477681 6.651510000000001
1.60631369478041 6.0746
1.6286252683124185 6.1601099999999995
1.6509369035901333 5.662730000000001
1.6732468618895553 5.22326
1.695558623192809 5.44344
1.7178704487808514 5.01773
1.7401823395001077 5.20758
1.7625012545597203 5.02096
1.7848028405262486 5.45752
1.8071218901122095 5.5423
1.8294236121921872 4.9266
1.8517427996910911 4.91953
1.8740620574440425 4.7212
1.8963639900671978 5.14586
1.9186833908139995 5.11377
1.9409854680117449 4.97779
1.9633050151394713 5.33965
1.9856246367570705 5.100169999999999
2.0079269371922672 5.35173
2.03024671027244 4.91033
2.0525491637446027 5.145980000000001
2.074869091674931 4.65509
2.097171701569106 4.2407699999999995
2.1194917877373847 4.4646
2.141811954326636 4.78242
2.164114805233074 4.1855400000000005
2.186435135143035 4.48546
2.208738150935709 4.940980000000001
2.231058647554722 4.3457
2.2533792288321184 4.84049
2.275682498336085 5.13427
2.298003251406138 5.10326
2.3203066942619714 4.02155
2.3426276225136022 4.989380000000001
2.3649486396617507 4.87984
2.387252348930071 4.40998
2.4095735463442893 4.6299
2.4318774374315884 4.93308
2.4541988185014043 5.15433
2.476502894794693 5.0563199999999995
2.498824462909887 5.35769
2.521146125856138 4.71141
2.5434504863470337 4.9714
2.5657723414244717 5.45999
2.588076895590662 5.78028
2.610398946189713 6.12429
2.6327210958598384 6.17236
2.6550259469304716 5.19444
2.6773482972090137 5.60166
2.6996533504259 6.06454
2.7219759047039602 6.16536
2.744298562293959 6.2908
2.7666039251246595 6.79332
2.7889267918020164 6.76618
2.8112323652516555 7.3716800000000005
2.833555444408179 7.02756
2.8558786311183852 7.98941
2.8781845268938557 8.01553
2.9005079311721484 8.38513
2.9228140460410397 8.72993
2.9451376712799635 8.765089999999999
2.967444008632326 8.94696
2.9897678582247247 9.32286
3.0120918213106695 9.77247
3.0343984987899373 10.7288
3.0567226913198637 10.9415
3.079029599759726 11.8418
3.101354025127254 12.4825
3.123678568232338 12.8007
3.145985829517914 13.2377
3.16831061055229 13.6084
3.1906181112775593 14.1915
3.212943133635653 14.6314
3.2352682779763207 14.9704
3.2575761442691227 15.7835
3.2799015350264273 16.1878
3.302209649240067 16.1269
3.3245352898092655 16.6835
3.3468436553365257 17.5743
3.369169549113219 17.882
3.3914955708171384 19.04
3.413804319727358 18.8846
3.4361305997334863 18.9814
3.4584396084414553 19.6416
3.4807661501462652 20.6975
3.503092824025881 20.7296
3.5254022288463154 20.509
3.5477291695206588 21.699
3.5700388426251948 21.9924
3.5923660534916446 22.4561
3.6146934007816114 22.8473
3.637003482731501 23.1915
3.6593311053109985 23.4433
3.681641464033634 23.9679
3.7039693653009733 24.0674
3.726297407241705 25.0062
3.7486081875460804 25.1554
3.7709365132734978 25.8156
3.793247578841633 26.7516
3.8155761917550093 26.935
3.8378875459837216 27.1288
3.8602164494827234 27.8219
3.882545499606844 28.7128
3.9048572932539183 28.9257
3.9271866390645718 29.2474
3.9494987298666713 29.9697
3.971828374764527 30.9972
3.9941581705403255 31.3979
4.016470713506008 31.6014
4.038800813471445 32.9587
4.061113662089144 33.652
4.0834440696459176 34.0633
4.105774632334751 34.1037
4.128087945865126 34.719
4.150418821249301 35.5293
4.172732448931298 36.4851
4.195063640413578 37.2046
4.2173775856475215 38.3091
4.239709096631102 38.4151
4.262040768704612 39.4801
4.284355196706267 40.2052
4.306687193387355 40.7913
4.329001947444346 42.1676
4.35133427213731 43.1622
4.373666762177566 43.6214
4.395982011761091 44.4637
4.418314834921175 45.4481
4.44063041906622 46.6733
4.4629635787515625 47.507
4.4852969080429785 48.909
4.5076130004776225 50.8189
4.529946671403969 52.9778
4.552263106909177 54.2208
4.574597122877047 54.5552
4.596931312711224 54.8825
4.619248269273446 55.3166
4.6415828092605835 56.7844
4.663900117405352 58.2054
4.686235010953232 59.5768
4.708552674085913 61.2919
4.730887924602802 62.4753
4.753223354952695 64.8949
4.775541557023902 66.5482
4.797877349456786 68.5336
4.820195915032126 70.5539
4.842532072957498 71.7413
4.864868414979744 74.2955
4.88718753227192 77.2305
4.909524244902505 79.3359
4.931843734218147 81.028
4.954180820867835 84.6088
4.976518095879839 88.6329
4.998838149695359 92.2888
5.021175803844231 96.4425
5.043496238205739 100.87700000000001
5.065834274903528 106.87100000000001
5.088172504230693 114.439
5.1104935158799565 123.896
5.132832132875765 140.332
5.155153533596801 169.747
5.1774925416746225 286.861
5.199814334878411 888.2
5.2221537374521505 2193.95
5.244493338631803 3978.53
5.266815727034316 6784.24
5.289155727832427 10797.3
5.311478517248165 9435.57
5.333818921080011 4194.7
5.356159527788849 993.3589999999999
5.3784829252032536 273.812
5.400823940070432 182.622
5.423147747031976 153.21
5.445489173474152 137.904
5.467830807066149 129.756
5.490155234831516 124.38600000000001
5.512497285125229 118.54
5.534822130975162 115.37200000000001
5.557164601388673 111.898
5.579489868738879 108.88
5.601832762690846 106.943
5.6241758697774475 105.036
5.646501775867269 104.161
5.668845311622074 103.774
5.691171647754637 102.87200000000001
5.713515615597765 101.652
5.735859800852677 101.305
5.758186788542988 101.229
5.780531411018185 102.01299999999999
5.802858837297399 101.566
5.825203900414495 102.735
5.8475491852224 104.26100000000001
5.869877275883075 104.73
5.892223006467101 106.76100000000001
5.914551544266608 110.087
5.936897724049891 117.421
5.959244129804903 132.996
5.981573344815301 198.468
6.0039202049061 448.07099999999997
6.026249875609095 895.22
6.04859719346037 1423.16
6.070927323278297 2217.04
6.093275102315365 3673.15
6.115623113320588 4702.27
6.137953938319995 3677.21
6.160302415650845 1410.34
6.182633708324452 356.96
6.2049826554078376 146.188
6.227331838745022 108.962
6.249663839443684 95.9024
6.27201349767565 88.7486
6.294345974611799 84.2357
6.316696111167083 80.9056
6.339046488263839 78.4901
6.361379686074702 75.9176
6.383730546639482 74.7371
6.406064229255215 73.1246
6.428415576718203 72.867
6.450749747566656 71.1423
6.47310158535871 69.3259
6.495453669698332 68.5098
6.517788579421056 67.7671
6.540141159237969 66.6404
6.562476565766648 65.5081
6.5848296444934045 65.2582
6.607182974060425 64.8392
6.6295191323281015 64.1515
6.651872965955752 63.3011
6.6742096296068985 62.4574
6.6965639707294615 62.3508
6.71891856698715 61.6327
6.741255995248479 61.0668
6.763611104154477 60.7405
6.785949046381137 60.7265
6.808304671371482 59.9361
6.8306605557940046 60.3131
6.852999275508618 59.2328
6.875355681171544 58.9829
6.897694923437771 58.4145
6.92005185377892 58.5285
6.9423916220322655 58.4003
6.964749080490181 57.5377
6.987106804399774 57.4197
7.009447368180821 57.6261
7.031805625367033 57.1427
7.054146723727803 57.2442
7.076505517631004 57.1138
7.098864581288365 56.9502
7.121206488070854 56.637
7.143566093607822 56.1728
7.165908543567245 56.4412
7.188268694426048 56.3637
7.2106291193438095 55.7877
7.232972390625943 56.0365
7.255333366030969 55.8646
7.277677189091925 55.5704
7.300038718428332 55.9668
7.322400526130865 55.8709
7.344745183422596 55.9897
7.367107550224791 55.7366
7.389452767901992 56.2367
7.411815697249891 55.8191
7.434161478756298 55.3986
7.456524974096713 55.7473
7.478888753837185 55.6584
7.501235387657368 56.0176
7.523599738562711 56.0575
7.545946944825532 56.5771
7.568311870344528 56.8851
7.5906770845765665 57.0722
7.613025156078678 57.0892
7.635390950099687 57.5331
7.657739602662809 57.2607
7.680105979923558 57.4991
7.702472650212829 58.2704
7.724822180948224 58.2337
7.747189439655568 58.5525
7.769539560075357 58.4048
7.791907410653562 58.9857
7.81425812420825 58.8032
7.836626570110925 59.2495
7.858995315087906 60.2075
7.881346924933401 60.4382
7.903716270417482 61.20399999999999
7.926068482028405 61.5403
7.948438431475253 61.7167
7.9708086843180235 62.2484
7.993161805171116 63.26
8.015532667162402 63.7105
8.037886398416653 65.029
8.060257873014221 65.6804
8.082629655331942 66.2699
8.104984308787587 66.7541
8.127356708900503 67.5696
8.149711981398308 68.8443
8.172085002766314 69.9726
8.194458336181368 70.8098
8.216814543847752 71.5837
8.23918850371002 73.3287
8.26154533906492 74.3097
8.283919928836452 76.1446
8.306277395339652 77.7634
8.328652618483376 78.7738
8.351028159736202 81.3237
8.373386579575245 84.4233
8.395762759396959 86.3222
8.418121819038275 90.2588
8.440498640894003 96.5365
8.462875785192262 110.83
8.485235811156207 165.331
8.507613602688501 292.122
8.529974277114228 449.33
8.552352719347912 583.85
8.574731488360351 761.1189999999999
8.59709314210385 1074.03
8.619472567021075 1554.39
8.64183487789147 1979.45
8.664214962183097 1925.51
8.686577933647762 1204.76
8.708958680784317 519.265
8.731339760774953 217.044
8.753703729764451 131.004
8.77608547780821 110.79700000000001
8.798450116065078 104.195
8.820832535634787 100.34299999999999
8.843215292401656 98.133
8.865580941199045 96.2674
8.887964374703538 94.4389
8.910330701447199 93.6407
8.932714815164482 92.2442
8.955099270424924 90.7678
8.977466620733543 89.7943
8.999851761421976 89.2239
9.022219798361645 88.5762
9.04460562795561 88.3699
9.066991803441677 87.7885
9.089360876979615 88.0586
9.111747746589993 87.3041
9.13411751544971 86.545
9.156505082664324 86.5522
9.178875550323522 86.5755
9.20126381862328 86.3706
9.223652438908596 86.6822
9.246023961427412 86.9341
9.26841328802173 86.6383
9.290785518039224 87.24799999999999
9.313175554425882 88.3284
9.335565947154315 88.4451
9.357939245086508 88.5769
9.380330352834827 88.4006
9.40270436697103 88.2232
9.425096193225055 88.066
9.447488380180165 89.2196
9.469863475295412 89.2751
9.492256385987508 89.6853
9.514632206018318 90.2509
9.537025843935714 90.4155
9.559402392368193 91.7241
9.581796761000229 92.8599
9.604191496441521 93.70700000000001
9.626569144158516 94.46799999999999
9.648964615551032 95.1694
9.671343000390081 95.7009
9.693739211225699 96.6617
9.716135793237463 97.3697
9.738515290448102 98.4667
9.760912617143402 100.053
9.783292860202891 102.01899999999999
9.805690935076182 103.772
9.828089385495742 104.395
9.850470754023561 106.88
9.872869957865444 109.389
9.89525208097539 112.777
9.917652041736662 118.351
9.940052382417589 137.292
9.962435644102392 201.59799999999998
9.984836746950979 304.987
10.007220771957746 415.01599999999996
10.029622640473708 517.369
10.052007432299963 637.6659999999999
10.074410069984072 809.069
10.096813093716005 1080.23
10.119199042482517 1457.42
10.141602840636468 1788.09
10.163989564971628 1686.79
10.186394141051062 1125.44
10.208799107559706 556.502
10.231187001965623 251.644
10.253592751657669 148.287
10.275981430388155 124.13600000000001
10.298387966769793 117.711
10.320794897965431 115.056
10.343184759907361 112.93299999999999
10.36559248305461 111.616
10.387983138083852 115.20299999999999
10.410391656691655 132.056
10.432800574501677 159.577
10.455192425893369 186.84900000000002
10.47760214443012 211.89
10.499994797678786 237.891
10.522405320453982 282.921
10.54479877906917 356.458
10.567210109595656 451.375
10.5896218454736 536.175
10.612016518879773 531.283
10.634429067781074 419.57800000000003
10.656824555333241 255.982
10.679237920773568 154.32
10.701651695961992 108.212
10.724048411481384 95.898
10.746463008485165 92.2699
10.768860546937125 90.1729
10.791275969274796 87.9082
10.81369180576079 87.0174
10.836090585366925 85.2442
10.858507252467449 83.8548
10.88090686379991 82.6268
10.903324365036394 81.7008
10.925724811614439 80.5341
10.948143150509463 80.7471
10.970561909719066 79.5347
10.992963615930844 78.7863
11.015383218085756 77.9106
11.037785768347074 76.8871
11.06020621697282 76.2332
11.082627090322113 75.4354
11.105030913430326 74.6632
11.12745263854165 74.2994
11.149857314510728 73.279
11.172279894912576 73.2345
11.194702904450653 72.1398
11.217108866490921 71.6511
11.239532736615194 71.28399999999999
11.26193956033512 71.0566
11.284364294577085 70.6965
11.306789462371718 69.7777
11.329197585398376 69.6512
11.351623622610898 69.6494
11.37403261614354 68.9887
11.396459526308487 68.872
11.418869393879497 68.6327
11.441297180532617 67.9956
11.463725406927658 67.5366
11.486136592353875 67.363
11.508565700543707 66.8366
11.530977768845315 67.2305
11.553407762368774 66.5924
11.575838200059769 66.7784
11.598251599479612 66.2721
11.620682927815501 66.212
11.64309721895548 66.4276
11.665529441478206 65.935
11.687962112597958 65.8707
11.710377748130886 65.6683
11.732811318753434 65.5913
11.755227854859067 65.6633
11.777662328529495 65.4677
11.800079768750786 65.3357
11.822515149015453 65.1867
11.844950984084935 65.6985
11.867369787303163 65.2311
11.889806534289491 65.4048
11.912226250487029 65.9657
11.934663912939751 66.2065
11.9571020346363 66.2963
11.979523127133968 66.6662
12.001962169624331 68.5794
12.024384183972964 72.8935
12.046824150809913 79.7478
12.069264581333726 87.9401
12.091687985297767 93.8603
12.11412934550045 100.059
12.136553680195208 109.09899999999999
12.158995973632788 122.84200000000001
12.181438735204349 142.197
12.20386447284199 165.002
12.226308172985636 194.269
12.24873485024193 208.327
12.271179492516982 182.26
12.293607112949127 143.78
12.316052700916226 103.571
12.338498763250042 78.7978
12.360927805303868 70.1421
12.383374818673879 68.1161
12.405804812803074 67.2839
12.428252780773262 67.0758
12.45070122756722 67.1703
12.473132656675375 67.0853
12.49558206341869 67.4369
12.518014453510101 67.4279
12.540464823770117 67.3241
12.562915677315177 67.3
12.58534951575545 67.8564
12.607801338171472 67.9136
12.630236146511358 67.9926
12.652688941369085 68.5129
12.675124723177234 68.8288
12.697578494048786 69.4869
12.720032754458185 69.8072
12.742470003354093 70.3338
12.764925245138771 70.7807
12.787363476431278 71.3521
12.809819703166806 71.7227
12.83227642391173 72.6875
12.854716135692716 73.1772
12.877173846755147 74.3391
12.899614549869717 74.5794
12.9220732548287 75.6512
12.94453245827299 76.3112
12.966974655289818 77.6441
12.989434858002571 78.6138
13.011878055298721 79.46600000000001
13.034339260862497 80.6138
13.056800969391883 82.2693
13.079245674017244 86.1657
13.101708390774869 94.0544
13.12415410463411 111.31
13.146617833206086 130.798
13.169064559883248 146.80700000000002
13.191529303857127 160.024
13.213994557076367 174.748
13.236442809902437 197.56900000000002
13.258909083908291 230.39700000000002
13.28135835851934 270.378
13.30382565690295 324.392
13.326293469022952 386.902
13.348744283242008 420.04
13.371213125129904 393.85400000000004
13.39366497011003 310.402
13.416134845360597 210.65599999999998
13.438605238843131 149.722
13.46105863690397 129.846
13.483530069144786 133.58
13.505984506951902 143.077
13.528456981549432 153.011
13.550929978879088 161.80100000000002
13.573385983253365 175.442
13.595860028340867 197.227
13.618317081455832 227.092
13.64079217790333 265.317
13.663250283359057 310.937
13.685726434770173 354.142
13.708203115221277 354.44699999999995
13.730662806148091 303.653
13.75314054697177 224.31599999999997
13.775601299246777 155.013
13.798080104050406 110.479
13.820559442405358 92.4737
13.843021793671388 87.1834
13.865502201420897 84.7643
13.887965623051947 83.8849
13.910447103807167 82.7601
13.932929122629764 81.3229
13.955394156785959 81.0588
13.977877254034569 80.1647
14.000343367582113 79.0881
14.022827546871707 78.3899
14.045294743423524 77.4722
14.06778000837062 77.036
14.090265817715476 76.7659
14.112734645763819 76.1249
14.13522154619454 75.6138
14.157691466286913 75.3147
14.180179461423874 75.1361
14.202668005486178 74.7976
14.22513957064374 74.2646
14.247629214846473 74.0314
14.270101881097517 73.6093
14.29259262906496 73.3421
14.315083930490205 73.2125
14.337558255389705 73.1543
14.360050666019726 72.9959
14.382526101071944 72.3941
14.405019624534942 72.5702
14.427513705993134 72.2494
14.449990813291825 72.5012
14.47248601302899 72.4319
14.49496423954951 72.5273
14.517460561197822 72.5449
14.539939910570322 72.1112
14.562437357763558 72.5644
14.58493536931253 72.7186
14.607416409993311 73.0305
14.62991555254159 73.264
14.652397725157423 73.4061
14.674898002342799 74.1942
14.697398848433282 74.8253
14.719882725991326 76.8478
14.74238471217934 81.1476
14.764869730765593 88.6935
14.787372860692983 95.1275
14.809876564079925 101.436
14.83236330125751 106.43
14.854868153850365 111.68799999999999
14.877356041159485 119.89399999999999
14.899862046604186 131.024
14.922351087688757 146.226
14.944858249632887 165.282
14.967365991421232 187.847
14.989856770231246 210.21599999999998
15.012365673994204 222.863
15.03485761569738 206.287
15.05736768508665 169.838
15.07987833888692 132.221
15.102372032001655 100.845
15.124883856909658 83.27600000000001
15.14737872204565 76.9096
15.169891721717274 74.4188
15.192405310371893 73.6944
15.214901940621196 72.919
15.237416709527137 72.4751
15.259914520936249 72.1731
15.282430473753607 71.5017
15.304947020131227 70.8415
15.327446610371178 70.5568
15.349964346154254 70.1432
15.372465126703139 70.132
15.394984055556009 69.848
15.417486030076159 69.82600000000001
15.44000615566487 69.3784
15.462526881230803 69.3748
15.485030653812652 69.4496
15.507552581617434 69.0544
15.530057557334603 68.9451
15.55258069104857 69.3215
15.575104429329837 69.9734
15.597611216864632 69.933
15.620136166564563 71.3059
15.6426441664095 75.2537
15.665170331202765 80.6989
15.687697105158826 85.89
15.710206930593545 90.9663
15.732734925158933 94.6373
15.755245972089478 98.369
15.77777519094324 103.904
15.800287463046663 111.531
15.822817909869592 122.61200000000001
15.84534897229804 136.063
15.867863089299354 153.524
15.890395385222186 173.28799999999998
15.912910736597423 190.05599999999998
15.935444269699861 193.86599999999999
15.957978423016485 174.24200000000002
15.980495633101265 142.81
16.003031029129367 111.303
16.02554948280019 85.7066
16.048086125229432 72.5578
16.070623392487107 67.645
16.09314371869582 65.6839
16.11568223789321 64.5094
16.13820381691126 63.8672
16.160743591742527 63.5211
16.183283996022084 63.0071
16.205807461423195 62.1059
16.228349126881973 61.5065
16.25087385432698 61.6119
16.27341678466365 60.9006
16.29594277784926 60.8449
16.31848697676433 60.3273
16.341031811604868 59.5315
16.36355971058487 59.6792
16.3861058195587 59.3188
16.40863499352978 58.8395
16.431182380342005 58.7195
16.453730407713202 58.5923
16.476261501364792 58.3789
16.498810812136167 58.0692
16.52134319004079 58.1848
16.54389378792203 57.9426
16.566445031001553 57.7499
16.588979342490088 57.8175
16.61153187824822 57.4307
16.634067483263312 57.42
16.656621315414416 57.251999999999995
16.679175797408888 57.021
16.701713349928728 57.0895
16.72426913389191 57.542
16.74680798922351 57.181999999999995
16.76936507887444 57.3314
16.791905240734874 57.397
16.814463639794468 57.1353
16.837022695210294 57.1114
16.859564824093756 57.31100000000001
16.882125194503903 57.4146
16.904668639217885 57.3853
16.927230328348003 57.3021
16.949792678493612 57.6674
16.972338104193863 57.6256
16.994901778652235 57.8882
17.017448529496576 58.3778
17.040013531998152 59.3526
17.06257920018044 60.4854
17.0851279459922 61.8296
17.107694947817667 62.8038
17.130245028099072 63.7454
17.15281336730298 64.503
17.17536478578733 65.7007
17.19793446610687 67.181
17.220504818648422 68.9555
17.243058251703697 70.8056
17.265629950971032 74.0172
17.288184731571736 77.5501
17.310757781306908 82.1314
17.33333150794385 85.3757
17.355888317140174 86.3821
17.37846339986244 82.994
17.401021565958885 77.0575
17.42359800851343 70.7368
17.44617513265564 66.65899999999999
17.468735341390783 64.1225
17.491261035594565 62.5673
17.51396340099364 62.0595
17.536490463869136 62.0288
17.559018209820174 62.027
17.58154663977963 62.1221
17.604251766089718 62.2352
17.626781572227713 62.5755
17.64931206518155 62.7632
17.671843245885103 63.1434
17.69455114821572 63.243
17.717083712612634 63.4352
17.739616967569667 63.9216
17.762150914021706 64.52600000000001
17.78486160749854 65.0999
17.807396945166804 66.5132
17.829932977143503 69.0503
17.85246970436452 72.4491
17.875183204129467 75.358
17.897721330097664 78.0946
17.920260154126645 80.4821
17.942799677153296 82.6067
17.9655159983646 84.7904
17.988056927677544 88.29700000000001
18.010598558807683 93.2187
18.033140892692916 99.3317
18.05586005052525 106.34700000000001
18.07840379824407 115.72
18.10094825154059 127.588
18.12366954819864 139.108
18.146215420998306 145.99200000000002
18.16876200220057 144.595
18.191309292745153 133.72799999999998
18.214033452627167 118.55799999999999
18.236582170236648 103.119
18.259131600016456 93.527
18.281681742907335 89.9181
18.304408781233683 90.5758
18.32696035875955 93.1487
18.349512652227624 97.167
18.372065662579683 102.876
18.394795594587553 106.771
18.41735004715306 106.539
18.43990521943684 101.814
18.46246111238171 93.6333
18.485193953325208 83.0842
18.507751296070428 75.0031
18.530309362314178 70.0813
18.552868153000343 67.0501
18.57560391815056 65.2474
18.59816416623245 64.7701
18.620725141597372 64.3989
18.643286845190268 63.7012
18.666025549835414 63.3066
18.688588718427933 62.7837
18.711152618092243 62.528999999999996
18.73389353884365 62.3256
18.75645890921984 61.9233
18.77902501351406 61.7686
18.801591852673102 61.5965
18.824335739722738 60.8694
18.846904057212626 60.7888
18.8694731124168 60.7065
18.89204290628315 60.648999999999994
18.914789774966803 60.5046
18.937361054791623 59.9905
18.959933076131318 59.8372
18.982505839934877 59.7613
19.00525570560582 59.9614
19.027829963004184 59.5783
19.05040496572238 59.9042
19.072980714710468 60.4856
19.095733592739563 60.9389
19.11831084296757 61.2254
19.140888842324735 61.8405
19.16346759176222 62.1124
19.18622349753803 62.2637
19.208803755869358 62.8964
19.231384767143577 63.5864
19.253966532312948 64.623
19.276725481241822 65.7897
19.29930876296784 67.3192
19.3218928014549 69.1207
19.34465404436217 71.3024
19.36723960516257 73.9651
19.389825925592426 76.4093
19.412413006605938 77.5277
19.43517731967805 76.1343
19.457765930683355 72.4954
19.48035530514408 68.1803
19.50294544401556 63.8443
19.525712842708348 60.2198
19.54830451925909 58.2169
19.570896963095727 56.8855
19.593490175174704 56.466
19.616260674962184 56.4136
19.638855432416964 55.9847
19.661450960992624 56.3004
19.68404726164677 56.1065
19.706820878021247 55.8384
19.729418731756834 56.2071
19.752017360452857 56.1211
19.77461676506804 56.4749
19.797393513540218 56.9506
19.819994478951667 57.4228
19.84259622316767 58.096000000000004
19.8651987471481 58.4898
19.887978643247177 58.6334
19.91058273574792 59.0137
19.933187610901943 59.6655
19.955969879466828 60.3965
19.97857632894404 61.4241
20.00118356396599 62.6564
20.023791585494575 64.1165
20.046577028914875 66.2081
20.069186632506966 68.45
20.091797025500632 70.7808
20.114408208858933 72.7541
20.137196842715273 73.8779
20.159809615886765 73.0734
20.18242318232135 70.5826
20.20503754298326 67.6688
20.227829382875154 65.5831
20.250445341109344 64.2409
20.27306209647285 63.6917
20.29567964993108 64.4796
20.31847471147704 65.5694
20.34109387027612 67.0319
20.363713830075454 67.7121
20.386334591841646 67.4808
20.409132890679302 65.4133
20.431755265564437 62.2836
20.454378445325528 59.273
20.477002430930366 56.598
20.499803982716553 54.6784
20.522429589228004 53.5021
20.54505600449589 52.9646
20.567683229489194 52.8078
20.590488049900088 52.7658
20.61311690359731 52.5961
20.63574656993626 52.3083
20.658553853717297 52.1673
20.681185154618298 51.9452
20.703817271080066 51.9325
20.72645020407368 51.6536
20.749260783967177 51.2747
20.771895359337133 51.3879
20.794530754161617 51.3179
20.817166969412938 51.101000000000006
20.83998086114876 51.2436
20.86261872660049 51.1875
20.885257415405402 51.3595
20.90789692853701 51.2419
20.930714147864748 50.9599
20.953355319030678 51.2781
20.97599731745334 51.4095
20.99864014410749 51.1578
21.021460706796564 51.2579
21.044105199328826 51.3824
21.06675052302631 51.4686
21.089396678865015 51.5512
21.112220600704806 51.8428
21.134868430275347 51.7969
21.15751709492456 51.9508
21.180166595629693 52.07
21.202993892429635 52.3324
21.22564507473034 53.0283
21.24829709602816 53.3785
21.27112693608965 53.496
21.293780644891275 54.0181
21.316435195634053 53.4659
21.339090589297417 52.7122
21.361923832041875 52.4232
21.384580921090404 51.5004
21.407238856007325 51.0147
21.429897637773326 51.0061
21.45273429906592 50.7895
21.475394784108598 50.7877
21.498056118951983 50.5619
21.520718304578022 51.0386
21.543558400304388 51.3945
21.566222297108816 51.6748
21.58888704765135 52.2739
21.61155265291521 52.8039
21.63439619898156 53.2872
21.657063523335786 53.5004
21.67973170537063 53.9807
21.7024007460706 54.36600000000001
21.72524775840385 54.6765
21.747918526116475 55.5127
21.770590155457388 56.5862
21.79326264741238 57.5853
21.816113141960237 58.8651
21.838787368860547 60.2142
21.861462461341976 61.745
21.884315579735777 63.6166
21.90699241312273 65.3564
21.92967011506078 66.7663
21.95234868653799 67.6334
21.9752053151131 66.8019
21.997885635446785 65.2619
22.020566828293532 63.1636
22.04324889464272 60.5666
22.066109049404666 58.8167
22.088792872571794 57.9204
22.111477572219204 57.8684
22.1341631493376 58.0801
22.157026846313123 58.4769
22.179714188221507 58.3343
22.202402410582668 57.4033
22.22509151438863 56.0652
22.24795876962584 54.4949
22.270649646204486 53.3116
22.293341407213727 52.6445
22.316034053646906 51.7668
22.338904883215342 51.467
22.36159931041458 51.2275
22.38429462602756 51.0869
22.40699083104897 50.977
22.429865251039757 50.9918
22.452563244831367 50.9857
22.47526213102522 50.8862
22.49813925616515 50.9184
22.520839937143307 50.916000000000004
22.543541513520587 50.993
22.56624398629403 50.9738
22.589124730075895 51.0377
22.611829005656723 51.525
22.63453418063466 51.7225
22.657240256008077 51.8489
22.680124634582935 52.1147
22.70283252079775 52.3799
22.725541310413075 52.6454
22.74825100442868 52.8788
22.771139033969575 52.9711
22.79385054687155 53.1726
22.81656296718292 53.6402
22.83927629590484 54.2996
22.862167992606945 54.7066
22.88488314827121 55.4003
22.907599215359284 56.2252
22.93031619487366 57.1439
22.953211574954405 58.07899999999999
22.975930389478226 59.3287
22.998650119445763 59.9757
23.02137076586092 59.8898
23.044269845560063 59.0866
23.06699233506288 57.9038
23.089715744034912 56.1578
23.112617610931565 54.211999999999996
23.135342869061212 52.8218
23.158069049684816 52.0462
23.1807961538087 51.4445
23.20370174880544 51.3467
23.226430710184808 51.582
23.249160598093425 51.9026
23.271891413539002 51.9493
23.294800752937697 52.0031
23.31753343374794 52.2801
23.340267045128353 52.3058
23.36300158808808 52.4853
23.38591468821339 52.5888
23.408651104658304 52.7373
23.431388455719986 53.1983
23.454126742409 53.7151
23.4770436196085 54.2164
23.499783787914662 54.9515
23.522524894889884 55.7211
23.54526694154616 56.4047
23.56818761219047 57.7446
23.59093154860734 58.5129
23.613676427751283 59.8282
23.636422250635754 59.6957
23.659346731118656 58.6345
23.68209445191868 57.3007
23.704843119509587 55.0444
23.72759273490623 52.8348
23.750521041644767 51.1297
23.77327256312355 49.7388
23.796025035462787 49.1308
23.818956224555475 48.4187
23.841710609113413 48.1725
23.86446594758979 47.9741
23.887222241002014 47.7182
23.910157285144578 47.4717
23.932915498962537 47.4125
23.955674670778713 47.1702
23.978434801611975 47.1031
24.001373717286125 46.9372
24.024135776723917 46.7915
24.046898798245582 46.6252
24.06966278287146 46.4765
24.092605586582614 46.3366
24.115371508023642 46.1104
24.1381383956401 46.0429
24.16090625045381 45.993
24.183852958731244 46.0443
24.206622758582608 45.8199
24.229393528706886 45.641000000000005
24.252165270127392 45.6699
24.27511589952438 45.5982
24.297889594216997 45.373999999999995
24.32066426328598 45.3278
24.34343990775613 45.476000000000006
24.36639447485003 45.2937
24.38917208083877 45.13
24.41195066531332 45.0043
24.43490819850244 45.0064
24.457688750692377 44.9294
24.48047028445616 44.9073
24.503252800821233 45.1011
24.526214300784112 45.1479
24.548998793132213 45.0674
24.57178427117417 44.9228
24.59457073593893 44.9019
24.617536219319863 44.9417
24.64032466834748 44.9683
24.663114107195035 44.7354
24.685904536893013 44.5635
24.708874020360852 44.6104
24.731666442613744 44.4918
24.754459858818787 44.3899
24.777254270007962 44.3251
24.80022777025625 44.2804
24.82302418230472 44.3369
24.845821592443674 44.3523
24.86862000170663 44.3273
24.891597535453727 44.2193
24.914397953892728 44.3939
24.93719937456671 44.3055
24.96000179851076 44.6072
24.98298338249997 44.8612
25.00578782394922 44.8216
25.028593271784167 45.0351
25.05157790644186 45.3012
25.07438537804115 45.3838
25.097193859145293 45.3814
25.120003350792075 45.6643
25.142992065061257 45.9843
25.165803588823465 46.1285
25.18861612625217 46.4537
25.211429678386736 46.5573
25.234422489079968 46.713
25.257238081693636 46.5041
25.280054692141732 46.4403
25.3028723214652 46.4467
25.325869245420463 46.5914
25.348688923599397 46.7777
25.371509623787006 46.8425
25.394331347025812 46.7559
25.41733240110666 46.4179
25.440156181590016 45.8366
25.46298098826268 45.4168
25.48580682216873 44.6674
25.50881202326435 44.1879
25.53163992281684 43.5072
25.55446885274561 43.2811
25.577298814096377 42.8934
25.600308179121807 42.7499
25.623140214533745 42.8237
25.64597328451537 42.7848
25.66898578564376 42.6192
25.691820936010206 42.5477
25.714657124097695 42.5334
25.737494350954734 42.723
25.760511045684957 42.4452
25.783350361364224 42.3941
25.806190718969255 42.4104
25.82903211955018 42.6115
25.852053024868923 42.4562
25.874896522722523 42.5317
25.897741066713106 42.5134
25.920586657892454 42.5451
25.943611790812668 42.5836
25.966459487728237 42.6803
25.989308234998564 42.6334
26.01215803367705 42.8571
26.03518741123814 43.0297
26.05803932412957 43.1338
26.080892291600094 43.1657
26.10374631470478 43.3317
26.12677995397268 43.5094
26.14963609978026 43.5794
26.172493304397875 43.4491
26.19535156888223 43.3605
26.218389486949604 43.0959
26.241249882640123 42.7243
26.26411134137826 42.3731
26.28715248187403 42.406000000000006
26.31001607820869 42.2933
26.3328807407756 42.0065
26.35574647063438 42.1535
26.37879191991473 42.0757
26.401659795896734 42.1561
26.424528742360263 42.3505
26.447398760366614 42.3494
26.470448535598294 42.3817
26.49332070826805 42.5173
26.516193955675355 42.5882
26.53906827888316 42.8705
26.562122397260108 42.896
26.584998883685063 43.266000000000005
26.607876449110325 43.6055
26.63075509460056 43.7909
26.65381357334404 43.7961
26.67669439061878 43.9872
26.699576291163382 43.8839
26.722459276044212 43.9906
26.745522132402975 43.7361
26.768407297649354 43.4349
26.791293550442003 43.0705
26.814180891848974 42.8136
26.837248143099337 42.3844
26.860137673466657 42.2641
26.88302829566349 41.9718
26.90592001075963 41.9026
26.92899167420566 41.7457
26.951885586870763 41.4832
26.974780595655517 41.2302
26.99785558178161 41.1282
27.020752794605112 40.8767
27.043651106772522 40.7341
27.06655051935668 40.7922
27.089629948036183 40.7247
27.112531573292053 40.5422
27.135434302194138 40.6002
27.158338135817015 40.5272
27.181422024430987 40.5228
27.204328079372566 40.4426
27.22723524226965 40.4025
27.250143514198573 40.3943
27.273231880156334 40.4162
27.296142382065014 40.3002
27.319053996245536 40.1432
27.341966723775965 40.1475
27.365059584515222 40.2098
27.38797455070062 40.309
27.410890633481237 40.0385
27.433807833936918 40.0486
27.456905206923906 40.135999999999996
27.47982465472398 40.1852
27.502745223449743 40.3025
27.525666914182825 40.4301
27.548768816912457 40.4362
27.571692763693633 40.2825
27.59461783573812 40.2715
27.617723149491244 40.2133
27.640650484125285 40.0761
27.66357894728264 40.0098
27.686508540048052 40.0462
27.709618414237887 40.0448
27.732550278321757 39.8531
27.755483275279115 39.675
27.778417406196485 39.7424
27.801531858397514 39.7869
27.824468269376716 39.6877
27.847405817586786 39.6594
27.870344504116094 39.842
27.893463551932008 39.9246
27.916404527281053 40.0073
27.93934664422563 40.0013
27.962289903855886 40.0581
27.98541356491974 40.0298
28.00835912214229 40.1623
28.03130582533231 40.4715
28.054253675581805 40.6057
28.077381967556104 40.6913
28.100332124185126 40.6493
28.123283431160893 40.6934
28.146235889577238 40.5166
28.169368830154156 40.4957
28.192323603752033 40.2996
28.215279532083304 39.8557
28.238415973016764 39.6807
28.261374223145094 39.6253
28.284333631303806 39.5643
28.307294198589954 39.3558
28.330435319167677 38.9993
28.353398217078915 38.8132
28.376362277420153 38.5358
28.39932750129032 38.3463
28.422473319286713 38.1327
28.44544088262495 38.21
28.468409612800283 38.0909
28.491379510913497 37.689
28.51453004413313 37.6802
28.53750229057244 37.6365
28.56047570826344 37.4368
28.583450298308804 37.4267
28.606605564586562 37.3208
28.629582511831156 37.3168
28.65256063474956 37.2268
28.675539934446338 37.2762
28.698699951647605 37.2946
28.72168161743193 37.1018
28.74466446331978 37.0493
28.767648490417624 36.9979
28.790813276438353 36.9517
28.813799678527303 36.9685
28.836787265157085 36.9909
28.859955641890075 37.0664
28.882945610203045 37.0424
28.905936766392035 36.8419
28.928929111566863 36.966
28.952102288520145 36.9291
28.975097024308607 36.711999999999996
28.998092952423807 36.6389
29.021090073977508 36.4941
29.04426806913204 36.4584
29.067267590245258 36.2904
29.090268308143695 36.154
29.11327022394099 36.2306
29.13645305530891 36.1039
29.159457379627167 36.0495
29.18246290519685 35.9952
29.20546963313352 35.9088
29.22865731875826 35.8777
29.25166646419296 35.7357
29.27467681535305 35.7013
29.29768837335608 35.7319
29.320880931312562 35.8025
29.34389491580634 35.8238
29.366910110507334 35.7846
29.38992651653503 35.7548
29.41312396492981 35.6139
29.436142806456754 35.7786
29.45916286268059 35.6645
29.48236399319994 35.5076
29.50538649169417 35.4426
29.528410208259935 35.2525
29.55143514402014 35.1364
29.574641196749695 34.885
29.597668583816574 34.7718
29.6206971934585 34.6589
29.64372702680042 34.6696
29.666938019934474 34.7006
29.689970313635285 34.6489
29.713003834422636 34.588
29.73603858342347 34.5227
29.759254535188578 34.414
29.78229175361658 34.3162
29.80533020365064 34.3798
29.82836988641968 34.3746
29.85159081507472 34.2833
29.874632976355343 34.2107
29.89767637376955 34.2594
29.920721008448314 34.0779
29.9439469322847 34.0808
29.96699405457564 33.9884
29.9900424175358 34.0982
30.013092022298157 33.9832
30.03632295963995 33.9626
30.059375061131373 33.9302
30.08242840783577 34.0434
30.105483000888153 34.0386
30.128718970092244 33.8318
30.151776069006917 33.841
30.17483441768648 33.8926
30.198074175317235 33.8835
30.221135036724256 33.8689
30.24419715131772 33.8603
30.267260520236203 33.7693
30.290505341942243 33.9383
30.313571232750228 33.9739
30.336638381310948 33.8362
30.35970678876503 33.8082
30.38295669299435 33.7173
30.40602763151657 33.7174
30.429099832366074 33.6602
30.452173296685572 33.7048
30.47542830191959 33.6098
30.498504306502497 33.5089
30.521581577995562 33.632
30.544660117543582 33.6253
30.56792024229725 33.6375
30.59100133132069 33.5833
30.614083691845494 33.485
30.637167325018545 33.6128
30.660432587840603 33.617
30.683518779717886 33.5514
30.70660624769615 33.6414
30.729694992924372 33.5288
30.75296541239743 33.7399
30.77605672557558 33.7554
30.799149319462742 33.6614
30.8224236211637 33.4638
30.845518789950724 33.3805
30.868615242910597 33.3026
30.891712981195973 33.2577
30.91499247215866 33.2396
30.938092794619365 33.1292
30.96119440587579 33.0491
30.984297307082752 32.8455
31.00758200598383 32.7736
31.030687500658694 32.7255
31.053794288760695 32.5895
31.076902371446767 32.5494
31.100192296997445 32.6687
31.12330298246119 32.5025
31.14641496599209 32.4109
31.169528248749216 32.3761
31.19282341969534 32.3421
31.215939314557186 32.4414
31.239056512134788 32.3923
31.262175013589378 32.2966
31.28547544871168 32.4022
31.30859657161541 32.1944
31.331719001892175 32.348
31.35484274070538 32.3745
31.378148458819545 32.3918
31.401274828443725 32.1692
31.424402510106933 32.2439
31.447712205419993 32.2503
31.470842524931633 32.1475
31.493974159989783 32.2615
31.51710711176168 32.1738
31.54042212308802 32.2235
31.563557722100917 32.2904
31.586694641341655 32.0765
31.609832881979628 31.9212
31.63315322823208 31.9125
31.656294125521327 31.7905
31.679436347728515 31.6789
31.70257989602529 31.7103
31.725905596152327 31.6082
31.74905181052835 31.4707
31.772199354521323 31.6429
31.79534822930507 31.5541
31.818679302290967 31.4453
31.84183085259981 31.4823
31.864983737233473 31.4523
31.88813795736804 31.5037
31.911474422233013 31.467
31.934631327356435 31.4506
31.9577895715215 31.4064
31.980949155906522 31.4596
32.004291031706956 31.3264
32.027453310562606 31.3309
32.05061693318573 31.1986
32.07396288236386 31.1548
32.09712920658542 31.0984
32.12029687812702 31.0796
32.14346589817093 30.8984
32.166817291729984 30.8592
32.18998902288583 30.8408
32.21316210610336 30.7314
32.23633654256711 30.6573
32.259693399663725 30.6356
32.282870556771144 30.4678
32.30604907069099 30.489
32.329228942610065 30.394000000000002
32.35259128243769 30.3073
32.375773884550505 30.2413
32.398957848235646 30.3196
32.422143174682176 30.2499
32.445511016471215 30.0713
32.468699082679954 29.9706
32.49188851523011 30.0197
32.51507931531304 29.9221
32.538452678331 30.0009
32.56164622776311 29.8931
32.58484114831493 29.7531
32.60803744118015 29.7777
32.631416344731896 29.7699
32.654615396551876 29.8556
32.67781582427913 29.717
32.701198898634416 29.6529
32.72440209253756 29.6069
32.747606665947124 29.6645
32.77081262006088 29.4424
32.79420126883317 29.3644
32.81740999876112 29.4392
32.840620112999424 29.3064
32.86383161274818 29.331999999999997
32.88722585534586 29.4342
32.91044014056596 29.3367
32.933655814909734 29.2603
32.95687287957963 29.2899
32.98027273544904 29.191999999999997
33.00349259526636 29.0947
33.026713849030116 29.2032
33.04993649794511 29.0727
33.073341986570746 29.1564
33.09656744032826 29.0926
33.11979429286444 29.0207
33.14302254538647 29.0788
33.166433686291185 28.9925
33.18966475336992 28.9714
33.212897224069096 28.9011
33.23613109959831 28.9003
33.259547912343415 28.8016
33.2827846121627 28.8425
33.306022720453775 28.7375
33.32926223842861 28.6469
33.352684742614166 28.7114
33.37592709463173 28.6011
33.399170859982064 28.5106
33.422597648419426 28.4582
33.44584425514446 28.365
33.46909227885668 28.3007
33.4923417207723 28.1957
33.51577423505344 28.2862
33.539026528130385 28.1806
33.56228024307245 28.1676
33.585535381098246 28.0981
33.60897364093058 27.9705
33.63223163992385 27.9454
33.6554910656699 27.9291
33.678751919389796 27.9267
33.702195944520106 27.8238
33.72545966903325 27.8333
33.74872482519663 27.7011
33.771991414233746 27.7149
33.79544122444841 27.6746
33.81871069412428 27.5672
33.84198160035767 27.5533
33.86525394437455 27.6219
33.88870955949969 27.5021
33.911984794020626 27.426
33.93526147001624 27.4435
33.958539588715006 27.4225
33.98200102861669 27.3039
34.0052820477047 27.1232
34.02856451319451 27.1857
34.05203033759056 27.2143
34.07531571090147 27.2396
34.09860253431845 27.1683
34.121890809074316 27.1041
34.145362493118924 27.0858
34.16865368561615 26.9768
34.191946333164054 26.9461
34.21524043699793 26.8525
34.23871800066799 26.8117
34.26201503218366 26.7554
34.28531352370466 26.7953
34.30861347646881 26.6438
34.33209693978188 26.7051
34.3553998301885 26.6825
34.378704185565205 26.6044
34.402010007152356 26.5866
34.42549939016683 26.5842
34.44880815937748 26.4642
34.472118398533134 26.399
34.49543010887669 26.3915
34.51892543169198 26.3596
34.54224009966052 26.2718
34.56555624255917 26.2314
34.58887386163339 26.1439
34.61237514439016 26.1357
34.6356957311114 26.0785
34.65901779775809 26.1428
34.68252356662995 26.0661
34.705848608458616 26.0731
34.72917513396849 26.0029
34.75250314440949 25.9661
34.77601490857862 25.8904
34.799345904259795 25.8147
34.82267838863559 25.7946
34.846012362958525 25.8156
34.869530142679984 25.7195
34.89286711232212 25.6982
34.91620557568269 25.7084
34.93954553401677 25.6673
34.9630693495876 25.5585
34.986412313340814 25.538
35.00975677584668 25.5341
35.033102738362956 25.4208
35.05663261012228 25.4682
35.0799815881786 25.4583
35.10333207003229 25.3906
35.12668405694369 25.3421
35.150220005273056 25.3317
35.17357501786656 25.3286
35.19693153931268 25.2619
35.220289570874385 25.1972
35.24383161619786 25.244
35.267192683604904 25.1904
35.290555264930376 25.1538
35.314101899412165 25.1496
35.33746752422433 25.0595
35.36083466676374 25.0712
35.38420332829803 25.0508
35.407756095629054 25.0601
35.43112781085063 25.0741
35.45450104888391 24.9762
35.477875810999194 24.9905
35.50143473172161 24.904
35.52481255774625 24.9394
35.54819191167777 24.8929
35.57157279478914 24.8019
35.595137889488406 24.6989
35.61852184675279 24.7309
35.641907337029984 24.6646
35.665294361595684 24.7347
35.68886565090076 24.6118
35.7122557598848 24.5819
35.73564740699838 24.6127
35.759040593519934 24.5605
35.78261809810353 24.4423
35.80601437933051 24.3806
35.829412203814705 24.3508
35.85281157283719 24.2794
35.876395313415884 24.2732
35.8997977874528 24.3045
35.92320180988546 24.2025
35.946790244133936 24.1463
35.97019737933222 24.2089
35.993606066789866 24.0776
36.01701630779276 24.1092
36.04061101440684 24.0241
36.06402437852291 24.0135
36.08743930005611 24.0141
36.1108557802951 23.9066
36.13445678011326 23.9312
36.15787639383515 23.8806
36.18129757014299 23.8841
36.20472031032821 23.8042
36.22832762423364 23.693
36.25175350829375 23.691999999999997
36.275180960119776 23.5906
36.298609981005924 23.6533
36.32222362992669 23.6873
36.34565580510207 23.628
36.36908955323448 23.5548
36.39252487562093 23.4596
36.416144880530226 23.4249
36.43958336764275 23.3873
36.463023432914625 23.4241
36.486465077645676 23.3047
36.51009145956204 23.454
36.53353627947859 23.3578
36.55698268276811 23.355999999999998
36.58043067073321 23.2983
36.60406345072071 23.226
36.62751462435344 23.2123
36.65096738658405 23.178
36.67460498210655 23.1751
36.69806093788647 23.1132
36.72151848619297 23.0729
36.744977628333636 23.0648
36.76862165890998 22.9409
36.79208400512205 23.0362
36.81554794910557 22.9649
36.83901349217101 22.8693
36.862663978991606 22.8152
36.88613273667352 22.8713
36.90960309738324 22.7674
36.933075062434064 22.6928
36.95673202673572 22.6178
36.98020721697122 22.593000000000004
37.003684015502365 22.5311
37.027162423645365 22.5505
37.050825886711465 22.5313
37.07430753063053 22.4668
37.09779078812467 22.4186
37.121275660513014 22.3761
37.144945643673694 22.4038
37.16843376245278 22.4158
37.19192350009803 22.3866
37.215414857931435 22.3554
37.239091382563885 22.1858
37.262585997426164 22.2014
37.28608223645736 22.1998
37.309763684451696 22.1139
37.33326318851098 22.1253
37.356764320726555 22.0995
37.380267082425526 22.0844
37.40395510942588 22.07
37.42746114683234 22.0143
37.45096881771841 21.9071
37.474478123414166 21.9371
37.49817275092816 21.8618
37.52168534303452 21.8179
37.54519957395567 21.7571
37.568715445024665 21.7805
37.592416694607714 21.7151
37.61593586281424 21.7624
37.63945667518264 21.7552
37.66297913304891 21.6285
37.68668702630454 21.6491
37.710212792059274 21.5974
37.733740207334854 21.5561
37.757269273470364 21.4907
37.780983832050374 21.454
37.80451621684926 21.3958
37.82805025654007 21.3976
37.851585952464795 21.3656
37.8753071980695 21.3671
37.89884622345676 21.2906
37.92238690911902 21.2425
37.94611318753442 21.2058
37.969657210779765 21.1625
37.99320289834801 21.1312
38.016750251586465 21.0401
38.04048325513017 21.1036
38.06403395679343 21.0319
38.087586328183946 21.037
38.11114037065203 21.0309
38.13488012115898 21.0205
38.1584375229181 20.9258
38.181996599821 20.8815
38.205557353221124 20.8256
38.229303872575656 20.8442
38.2528679961576 20.7964
38.27643380031219 20.7533
38.30000128639589 20.7957
38.32375459653193 20.7356
38.34732546371299 20.64
38.37089801690786 20.5335
38.39447225747609 20.5746
38.418232380377425 20.5649
38.441810012983396 20.5317
38.46538933705673 20.5149
38.488970353960084 20.4749
38.51273731166058 20.464000000000002
38.536321731567014 20.3763
38.55990784840681 20.3409
38.58367995004091 20.2937
38.60726947812959 20.2081
38.63086070726198 20.2629
38.654453638806274 20.2821
38.678232613930824 20.2004
38.70182896773327 20.1357
38.72542702806741 20.1031
38.7490267963045 20.073
38.77281266709232 20.0536
38.79641586862214 20.0505
38.8200207821842 19.9604
38.843627409152944 20.0037
38.86742019782782 20.009
38.891030269149255 19.8428
38.914642058016156 19.8763
38.938255565806124 19.7923
38.96205529464307 19.7248
38.98567225787121 19.7632
39.00929094417078 19.7157
39.03291135492255 19.7737
39.05671804624804 19.7122
39.080341923549106 19.6255
39.103967529460334 19.6096
39.127594865365744 19.6184
39.15140854155791 19.5786
39.17503935514948 19.4884
39.19867190290282 19.4618
39.22249083587951 19.4627
39.24612686969409 19.4639
39.269764641845306 19.4233
39.293404153722804 19.3451
39.317230110864074 19.2781
39.34087311998506 19.26
39.36451787301696 19.3308
39.388164371352595 19.2437
39.41199737518003 19.2203
39.43564738196752 19.1937
39.45929913825317 19.1293
39.48295264543308 19.105
39.506792718520884 19.0176
39.530449745387216 18.9587
39.55410852735203 19.0137
39.57776906581474 19.0584
39.60161623079 18.9743
39.625280300200025 19.0185
39.64894613032202 18.9108
39.67261372255866 18.887
39.6964680021016 18.8851
39.72013913657293 18.8358
39.74381203738292 18.7784
39.76748670593756 18.7702
39.79134812278169 18.6914
39.81502634488497 18.7204
39.83870633896685 18.697
39.862388106436654 18.6143
39.88625668336918 18.5763
39.90994201572829 18.5901
39.933629125719285 18.5797
39.957503091207826 18.5569
39.9811937746168 18.5423
40.00488623990914 18.485
40.02858048850006 18.4384
40.05246165409549 18.4167
40.076159487492085 18.3448
40.099859108448875 18.3552
40.123560518384345 18.3505
40.1474489070226 18.3537
40.171153913178564 18.2331
40.194860712584955 18.28
40.2185693066637 18.2675
40.242464941335314 18.1975
40.26617714307655 18.1322
40.289891143772046 18.1391
40.3136069448471 18.1515
40.33750984859743 18.0591
40.3612292688043 18.0328
40.3849504936829 18.0014
40.40867352466194 17.9726
40.43258372059144 17.910999999999998
40.45631038219906 17.8765
40.48003885420956 17.88
40.503769138055105 17.8621
40.52768664931955 17.8422
40.55142057531802 17.7803
40.57515631746428 17.8126
40.599079334038514 17.777
40.62281872700477 17.7245
40.64655994043941 17.6821
40.67030297578061 17.7139
40.69423334835778 17.6144
40.71798004609188 17.6266
40.74172857006355 17.5715
40.76547892171441 17.5878
40.7894166736039 17.5067
40.813170699248566 17.5085
40.83692655691388 17.472
40.86068424804498 17.4833
40.884629402612525 17.3786
40.908390779366385 17.4177
40.932153993938 17.3381
40.95591904777605 17.3527
40.979871628443995 17.3245
41.003640379561936 17.3038
41.02741097430883 17.2969
41.05118341413683 17.2678
41.075143444384416 17.1771
41.098919593177826 17.195999999999998
41.1226975914255 17.1951
41.14647744058318 17.1831
41.170444943946755 17.0923
41.19422851378379 17.0508
41.218013938914645 17.0136
41.24198706625173 17.0086
41.26577622087193 16.9796
41.289567235177785 16.9211
41.31336011063129 16.9255
41.337340752422875 16.8271
41.361137369129835 16.8864
41.38493585138705 16.7927
41.40873620066004 16.8033
41.43272438060107 16.8248
41.45652848292052 16.7109
41.48033445666918 16.7048
41.50414230331616 16.6406
41.528138045159764 16.7039
41.551949656675205 16.5774
41.575763145513235 16.6469
41.59957851314666 16.5739
41.62358184070442 16.5362
41.64740098505737 16.4523
41.6712220126409 16.4989
41.69504492493139 16.4365
41.71905586207357 16.4276
41.74288256296395 16.3659
41.766711153007456 16.3497
41.79054163368412 16.3759
41.814560204340054 16.3754
41.838394485526365 16.3231
41.86223066180303 16.2424
41.88625497706819 16.1988
41.910094962812 16.1977
41.93393684811168 16.1867
41.95778063445365 16.095
41.981812625263366 16.093
42.00566023303407 16.1241
42.029509746323676 16.1309
42.05336116662236 16.1086
42.077400857069705 16.0869
42.10125611078846 15.977
42.12511327600405 15.9284
42.14897235421036 15.9694
42.173019768448455 15.9802
42.19688269209613 15.9074
42.22074753323349 15.909
42.24461429335818 15.87
42.268669455600495 15.8307
42.292540073217886 15.7884
42.31641261433284 15.7737
42.34028708044675 15.7231
42.36435001496739 15.7657
42.38822835065557 15.6942
42.41210861586426 15.6183
42.4359908120986 15.6699
42.46006154323262 15.6157
42.48394762115317 15.5618
42.507835634632315 15.5435
42.531912233047436 15.5067
42.55580413732265 15.513
42.579697981698 15.4771
42.60359376768525 15.4091
42.62767820545945 15.3982
42.65157789440821 15.3648
42.67547952952185 15.3288
42.699383112316 15.3526
42.72347541395347 15.2889
42.74738291190531 15.2501
42.771292362102166 15.2265
42.795203766063516 15.2185
42.819303956130405 15.2234
42.843219287476536 15.1714
42.86713657716324 15.1262
42.89105582671383 15.1345
42.91516392983864 15.127
42.939087119032166 15.0578
42.963012272677304 15.0393
42.98693939230129 15.0457
43.01105543317513 15.0143
43.034986504731386 14.9839
43.05891954686589 14.9545
43.08285456110972 14.9288
43.10697856448665 14.8742
43.130917542983475 14.863
43.15485849820081 14.8827
43.17880143167367 14.8263
43.20293342237094 14.7505
43.226880332449 14.7097
43.25082922540554 14.7278
43.27496722682525 14.7253
43.29892010567796 14.6857
43.32287497204102 14.6976
43.34683182745632 14.6722
43.370977859791836 14.6075
43.39493871351105 14.6394
43.41890156092628 14.6155
43.44286640358341 14.5492
43.46702049182749 14.5044
43.49098934522816 14.5263
43.51496019852649 14.4642
43.5389330532723 14.4751
43.56309522248204 14.4449
43.58707210044314 14.3756
43.61105098451946 14.3217
43.63503187626491 14.3176
43.659202151562134 14.2694
43.68318707902681 14.3011
43.70717401884041 14.249
43.731162972560874 14.1891
43.75534137913236 14.1897
43.779334381108384 14.2133
43.803329401683186 14.1276
43.82732644241872 14.1395
43.8515130055166 14.1066
43.87551410707659 14.0681
43.89951723350145 14.0843
43.923709934595614 14.0487
43.94771713129917 14.005
43.97172635758096 13.9802
43.99573761501002 13.96
44.0199385169922 13.9105
44.04395385732619 13.8626
44.067971233533086 13.8986
44.09199064718605 13.8347
44.11619977548961 13.8447
44.14022328470671 13.7941
44.16424883610785 13.7987
44.18827643127035 13.8115
44.21249381139513 13.7491
44.236525514814076 13.7491
44.26055926674478 13.7234
44.28459506876863 13.6919
44.3088207262813 13.6465
44.33286064928722 13.644
44.35690262714919 13.5991
44.38094666145278 13.5832
44.4051806219871 13.5796
44.42922879003185 13.4979
44.45327901929361 13.5122
44.477331311362136 13.4875
44.501573600619416 13.4636
44.525630039221795 13.4435
44.54968854541895 13.4449
44.573937102200176 13.3796
44.5979997645541 13.3565
44.622064499300315 13.3723
44.64613130803592 13.3207
44.67038823869318 13.2829
44.69445921643748 13.2836
44.718532272981385 13.2404
44.742607409926194 13.2535
44.76687274034801 13.1816
44.79095205918753 13.1673
44.81503346325094 13.1526
44.839116954143876 13.1559
44.86339071028742 13.0869
44.88747839599524 13.0659
44.91156817336837 13.0939
44.93566004401666 13.0347
44.959942251908146 13.0249
44.984038330325966 13.0405
45.00813650686762 12.9943
45.03223678314731 12.9017
45.05652746888232 12.9133
45.08063196592069 12.9141
45.104738567558705 12.8359
45.128847275414856 12.8596
45.15314646515866 12.8392
45.17725940679741 12.8403
45.20137445952892 12.7816
45.22568004865265 12.7737
45.24979934496396 12.7333
45.27392075725247 12.6869
45.29804428714431 12.6986
45.322358426247604 12.6594
45.346486212804315 12.6184
45.370616121861914 12.6331
45.39474815505086 12.6013
45.41907087049246 12.5732
45.4432071734666 12.5676
45.46734560548283 12.5404
45.49148616817604 12.53
45.51581748638564 12.4881
45.5399623320197 12.4883
45.56410931325473 12.4712
45.58825843173002 12.4798
45.61259837920865 12.4276
45.636751793816 12.4033
45.66090735060093 12.3789
45.68506505120716 12.3635
45.7094136545275 12.2903
45.73357566449271 12.2886
45.75773982322992 12.2763
45.78190613238733 12.2589
45.806263418194064 12.1978
45.83043404997326 12.2091
45.85460683713677 12.1955
45.87897065658495 12.1759
45.90314777634752 12.1645
45.92732705646868 12.0782
45.9515084986045 12.071
45.97588104735473 12.0921
46.00006683541565 12.0433
46.02425479047904 12.0325
46.04844491420549 12.0012
46.0728262191024 11.9891
46.09702070211635 12.005999999999998
46.12121735879483 11.9727
46.14541619080294 11.9701
46.169806278764455 11.9437
46.194009483459034 11.8894
46.21821486849841 11.8597
46.24242243555223 11.8566
46.266821333570014 11.8155
46.29103328674601 11.7936
46.31524742696538 11.7829
46.33946375590237 11.758
46.36387149104216 11.777999999999999
46.38809221957392 11.7011
46.41231514186606 11.6775
46.436540259597464 11.6412
46.460956858999374 11.6485
46.48518638983522 11.628
46.509418121166966 11.5912
46.533652054678114 11.5747
46.55807754555709 11.606
46.58231590571962 11.5745
46.60655647313217 11.5416
46.630988654873654 11.4996
46.655233659129024 11.4584
46.67948087571551 11.4219
46.70373030632484 11.3872
46.72817142736393 11.3959
46.752425308428684 11.3827
46.77668140861147 11.4008
46.80093972960865 11.366
46.82538981736788 11.3388
46.849652602470904 11.2765
46.87391761349769 11.2759
46.8981848521493 11.2785
46.9226439341274 11.2653
46.946915650573224 11.2227
46.97118959976749 11.2103
46.99546578341598 11.1725
47.019933887188216 11.1516
47.04421456235744 11.1677
47.06849747711879 11.1109
47.09278263318286 11.1013
47.11725978640143 11.0608
47.14154944775105 11.0254
47.165841355555656 11.0443
47.1901355115306 11.037
47.214621741924994 11.0209
47.23892041698887 10.9517
47.26322134538975 10.9083
47.28771440635075 10.913
47.31201986422527 10.9413
47.33632758061436 10.8955
47.360637557241866 10.9117
47.38513974410611 10.8597
47.40945426407847 10.8124
47.43377104948137 10.8263
47.45809010204344 10.7809
47.48260144275502 10.782
47.506925052572285 10.7514
47.53125093475548 10.7337
47.55557909103813 10.6976
47.58009961361992 10.6703
47.60443234110732 10.6669
47.62876734791564 10.6444
47.65310463578333 10.5984
47.6776343683373 10.6101
47.7019762413987 10.597999999999999
47.72632040075572 10.5322
47.75066684815169 10.5417
47.77520581885936 10.5339
47.799556865477655 10.5198
47.823910205386 10.5146
47.84826584033272 10.4779
47.87281407745551 10.4499
47.89717432569297 10.4871
47.92153687423484 10.4151
47.94609208429692 10.3678
47.97045925671401 10.3716
47.99482873471275 10.3439
48.01920052005013 10.3532
48.04376504619224 10.3517
48.068141469543484 10.3256
48.09252020552573 10.3044
48.11690125590099 10.2672
48.1414751266064 10.2457
48.16586082917454 10.2291
48.19024885144316 10.1938
48.2146391951793 10.207
48.239222439012764 10.1981
48.26361744916137 10.1811
48.28801478610016 10.1488
48.31241445160131 10.1155
48.337007097209366 10.1094
48.36141144338331 10.0939
48.38581812345755 10.0559
48.41022713920929 10.0534
48.434829215320704 9.99365
48.45924292604658 10.0443
48.48365897780325 10.0266
48.50807737237308 9.991
48.532688907799276 9.98168
48.55711201168574 9.95598
48.581537463754074 9.92105
48.60615611725119 9.941180000000001
48.63058628942721 9.9249
48.65501881516546 9.90664
48.6794536962573 9.83643
48.70408185970339 9.82746
48.72852147531801 9.77655
48.75296345168211 9.77626
48.77740779059232 9.816980000000001
48.80204549302823 9.76521
48.82649458091802 9.7561
48.85094603676547 9.75407
48.87539986237231 9.746189999999999
48.90004713292306 9.69787
48.92450572200832 9.71475
48.94896668628025 9.647910000000001
48.97343002754588 9.631680000000001
48.99808689542115 9.62197
49.02255501470614 9.59235
49.04702551642794 9.57996
49.0714984023988 9.54299
49.096164896893235 9.574639999999999
49.120642575466796 9.5314
49.145122643748394 9.51844
49.16960510355558 9.46996
49.19428125404938 9.49424
49.2187685210852 9.5187
49.243258185121555 9.45857
49.26794160167084 9.4231
49.2924360839405 9.374089999999999
49.31693296869764 9.336310000000001
49.34143225776915 9.3699
49.36612538195438 9.376430000000001
49.39062950396021 9.31788
49.41513603578346 9.30279
49.4396449792564 9.27698
49.46434784069503 9.267000000000001
49.488861631846454 9.2457
49.513377840166804 9.28222
49.537896467493745 9.20256
49.56260909589029 9.189739999999999
49.587132585683285 9.17699
49.611658500018365 9.19807
49.636186840738596 9.15653
49.66090926588511 9.14408
49.685442483902584 9.09993
49.70997813385706 9.08158
49.734516217597076 9.107000000000001
49.75924846937352 9.05182
49.7837914452858 9.0409
49.80833686055187 9.03805
49.83288471702571 8.99441
49.85762682540054 9.01393
49.882179588965734 8.9562
49.9067347993235 8.92405
49.93129245833333 8.936739999999999
49.95604445336378 8.92405
49.98060703442832 8.89665
50.005172069746266 8.89767
50.02993150438364 8.8821
50.05450147301533 8.86548
50.07907390151433 8.829310000000001
50.10364879174981 8.84285
50.12841816587289 8.81574
50.1529980044635 8.79393
50.17758031042124 8.75253
50.20216508562089 8.78031
50.22694442953363 8.76045
50.25153416817468 8.747069999999999
50.27612638170508 8.705639999999999
50.300721072005196 8.64918
50.325510416102105 8.65599
50.350110084975064 8.67046
50.37471223628208 8.66182
50.39931687190919 8.607510000000001
50.424116246675766 8.60079
50.44872587605249 8.57606
50.47333799543065 8.56222
50.49795260670191 8.542860000000001
50.52276204271512 8.52471
50.54738166295838 8.541030000000001
50.57200378079314 8.52358
50.596628398116835 8.48753
50.62144792604559 8.45576
50.646077567609396 8.454239999999999
50.670709714377715 8.468630000000001
50.69553683636198 8.43609
50.72017401885922 8.42552
50.7448137122895 8.40495
50.76945591856022 8.38286
50.79429318636823 8.35816
50.818940443716784 8.3876
50.84359021965163 8.33185
50.868242516085964 8.28476
50.893089960641895 8.26807
50.917747323549435 8.26539
50.94240721271973 8.24724
50.96706963007175 8.23776
50.99192728239342 8.24493
51.01659478166073 8.21958
51.04126481489051 8.22305
51.06593738400761 8.173789999999999
51.090805275207074 8.16784
51.11548294172845 8.15766
51.14016314993547 8.11903
51.164845901758845 8.112860000000001
51.18972406304274 8.09752
51.21441192780656 8.074910000000001
51.23910234200271 8.07555
51.2637953075678 8.03059
51.288683770237945 8.03893
51.31338186432707 8.027510000000001
51.33808251561888 7.99804
51.362978729967345 7.951280000000001
51.387684521509755 7.966589999999999
51.41239287610203 7.97018
51.437103795691165 7.90688
51.46201036644977 7.9360800000000005
51.486726441956634 7.89469
51.51144508832545 7.91017
51.536166307509156 7.899489999999999
51.56108326624387 7.8453800000000005
51.58580965706056 7.850210000000001
51.61053862657523 7.829
51.635270176746864 7.8014
51.66019755512065 7.76877
51.68493429268881 7.761189999999999
51.70967361681515 7.78838
51.73441552946465 7.73877
51.759353359237934 7.70735
51.7841004750961 7.70593
51.80885018539685 7.6928
51.833602492111254 7.647189999999999
51.8585508051424 7.64152
51.883308330926425 7.6422
51.90806845906181 7.620989999999999
51.932831191525715 7.58257
51.95779001977161 7.588939999999999
51.98255798721516 7.5528699999999995
52.00732856494335 7.540080000000001
52.03229530577543 7.51658
52.057071130455945 7.5270600000000005
52.081849571391054 7.528060000000001
52.106630630568695 7.5130300000000005
52.13160794279417 7.464119999999999
52.15639426492067 7.495830000000001
52.18118321127822 7.439960000000001
52.205974783860896 7.43645
52.23096269971011 7.426839999999999
52.255759551287994 7.392119999999999
52.280559035098186 7.39925
52.30536115314103 7.37478
52.33035970494467 7.35818
52.35516711807904 7.3574
52.37997717147198 7.33173
52.40478986713005 7.345789999999999
52.42979908731974 7.29696
52.454617094216 7.26284
52.47943774942214 7.2356300000000005
52.50426105495102 7.249739999999999
52.529280976059844 7.277660000000001
52.554109609024096 7.20562
52.57894089837482 7.17041
52.60377484613117 7.197369999999999
52.62880550079408 7.195
52.65364479223379 7.175610000000001
52.67848674816189 7.1452
52.70352547971946 7.12075
52.72837279155837 7.148389999999999
52.753222773982785 7.0934
52.778075429022984 7.11003
52.80312495150885 7.079039999999999
52.827982978797436 7.04254
52.85284368481815 7.056939999999999
52.87770707160767 6.98945
52.90276741793998 7.01577
52.92763619336701 7.038869999999999
52.952507655698504 7.01284
52.977381806977576 7.007810000000001
53.00245301017842 6.972410000000001
53.02733256653592 6.988810000000001
53.052214817996074 6.95482
53.077099766608484 6.905760000000001
53.102181859804446 6.866410000000001
53.127072229988265 6.90609
53.15196530349892 6.888439999999999
53.17686108239249 6.8403
53.20195409881522 6.866339999999999
53.22685531582556 6.81531
53.25175924441303 6.7560199999999995
53.27666588664027 6.80876
53.30176985962693 6.789289999999999
53.3266819565689 6.777639999999999
53.35159677336455 6.76358
53.376514312083096 6.74295
53.40162927507703 6.758210000000001
53.42655228516116 6.69192
53.45147802340193 6.71592
53.47660125628886 6.68191
53.50153247842639 6.677560000000001
53.52646643496923 6.66248
53.55140312799818 6.6353800000000005
53.576537409691696 6.652260000000001
53.60147960336152 6.6021600000000005
53.626424539786164 6.58564
53.65137222105307 6.5861
53.67651758529126 6.61982
53.70147078399681 6.52862
53.72642673383343 6.5379
53.75138543689533 6.581580000000001
53.776541917524526 6.47969
53.801506154876755 6.46675
53.826473151763246 6.46862
53.851442910284916 6.459309999999999
53.87661054126026 6.48784
53.9015858509782 6.4495
53.92656392866066 6.38896
53.95154477641532 6.410880000000001
53.976723591801296 6.3668
54.00171000771266 6.34128
54.02669920004598 6.40808
54.051691170915745 6.35911
54.076881204886796 6.34772
54.101878760928514 6.32945
54.12687910187696 6.32779
54.152077577768296 6.30424
54.1770835166946 6.2695099999999995
54.20209224691339 6.27766
54.22710377055121 6.2586
54.25231352511594 6.18444
54.27733066384342 6.166919999999999
54.30235060239643 6.1769300000000005
54.32737334290836 6.17138
54.35259441062629 6.15166
54.377622783395324 6.1493
54.40265396455061 6.14195
54.42768795623251 6.11768
54.45292037169559 6.01281
54.477960012857906 6.0514
54.50300247099511 6.02022
54.52804774825457 6.01769
54.55329154616743 6.0244599999999995
54.57834249018678 5.95595
54.6033962597977 5.9652400000000005
54.6284528571545 5.88245
54.653708072335164 5.84845
54.67877035378786 5.88963
54.70383546947698 5.82207
54.72890342156389 5.86658
54.7541700889442 5.8582
54.77924374251975 5.84924
54.8043202390049 5.79897
54.82959552413022 5.75652
54.8546777351945 5.71202
54.87976279569621 5.73484
54.90485070780914 5.756869999999999
54.930137506558005 5.6691
54.95523115074295 5.681369999999999
54.98032765308844 5.6894800000000005
55.005427015775496 5.6538
55.03072536339621 5.6648
55.05583047570572 5.53672
55.080938454927676 5.54081
55.10604930325027 5.54494
55.131359235107396 5.530480000000001
55.15647585066083 5.4987
55.181595341907496 5.47896
55.20671771104285 5.46631
55.232039262617704 5.4492199999999995
55.25716741665048 5.43227
55.28229845518636 5.38224
55.30743238042802 5.30724
55.33276558731939 5.27
55.357905315183636 5.269819999999999
55.383047936390035 5.25814
55.40819345314859 5.23974
55.433538351073295 5.26116
55.458689688238415 5.21638
55.483843927614096 5.18551
55.509197623043605 5.15586
55.53435769621134 5.10073
55.55952067826466 5.06451
55.5846865714265 5.07264
55.61005202069737 5.06094
55.63522376553902 5.04723
55.66039842818645 5.02236
55.68557601087004 5.01185
55.7109532500271 4.9538
55.73613670233794 4.9878
