TT I
1.2716486653135266 7.45976
1.2939594142134223 7.48981
1.3162702121660406 7.3200899999999995
1.3385810600174564 6.472180000000001
1.3608919586137629 6.64651
1.383202908801069 6.22365
1.405513911425503 6.85825
1.4278249673332093 6.45193
1.4501343378461518 5.91748
1.4724455028545926 6.13892
1.4947567236847858 6.15329
1.517068001182951 5.45828
1.5393793361953272 5.83332
1.5616907295681737 6.20295
1.5840021821477681 5.63333
1.60631369478041 5.092569999999999
1.6286252683124185 5.4302
1.6509369035901333 5.40851
1.6732468618895553 5.17242
1.695558623192809 4.94618
1.7178704487808514 4.99536
1.7401823395001077 4.78557
1.7625012545597203 5.14034
1.7848028405262486 5.05564
1.8071218901122095 4.95096
1.8294236121921872 4.73441
1.8517427996910911 5.2389
1.8740620574440425 4.612019999999999
1.8963639900671978 5.49381
1.9186833908139995 5.70119
1.9409854680117449 5.0797
1.9633050151394713 5.10954
1.9856246367570705 4.94857
2.0079269371922672 4.64056
2.03024671027244 4.72227
2.0525491637446027 4.30841
2.074869091674931 4.60996
2.097171701569106 4.8072
2.1194917877373847 4.97311
2.141811954326636 4.94733
2.164114805233074 4.6993
2.186435135143035 5.35024
2.208738150935709 10.197000000000001
2.231058647554722 18.2784
2.2533792288321184 14.3796
2.275682498336085 7.797439999999999
2.298003251406138 6.19508
2.3203066942619714 5.29865
2.3426276225136022 5.99806
2.3649486396617507 5.58588
2.387252348930071 5.67149
2.4095735463442893 5.88485
2.4318774374315884 6.21103
2.4541988185014043 6.2682
2.476502894794693 6.48134
2.498824462909887 6.971589999999999
2.521146125856138 6.43309
2.5434504863470337 6.9973600000000005
2.5657723414244717 7.82627
2.588076895590662 8.3021
2.610398946189713 8.36491
2.6327210958598384 8.11967
2.6550259469304716 7.55255
2.6773482972090137 7.778239999999999
2.6996533504259 8.619539999999999
2.7219759047039602 8.24587
2.744298562293959 8.3665
2.7666039251246595 8.118219999999999
2.7889267918020164 8.22412
2.8112323652516555 7.5216
2.833555444408179 8.4659
2.8558786311183852 8.57051
2.8781845268938557 8.851519999999999
2.9005079311721484 8.85223
2.9228140460410397 9.026110000000001
2.9451376712799635 9.25837
2.967444008632326 9.40263
2.9897678582247247 10.1705
3.0120918213106695 10.5001
3.0343984987899373 10.614
3.0567226913198637 11.0563
3.079029599759726 11.0789
3.101354025127254 11.9519
3.123678568232338 13.0758
3.145985829517914 13.4451
3.16831061055229 13.8376
3.1906181112775593 14.2975
3.212943133635653 14.6907
3.2352682779763207 14.6227
3.2575761442691227 14.8396
3.2799015350264273 15.425
3.302209649240067 16.0957
3.3245352898092655 16.951
3.3468436553365257 17.1374
3.369169549113219 17.4599
3.3914955708171384 18.5068
3.413804319727358 18.4151
3.4361305997334863 19.0305
3.4584396084414553 19.2273
3.4807661501462652 20.2171
3.503092824025881 20.9124
3.5254022288463154 20.7809
3.5477291695206588 21.5836
3.5700388426251948 22.2137
3.5923660534916446 23.3157
3.6146934007816114 32.4947
3.637003482731501 62.4426
3.6593311053109985 66.6924
3.681641464033634 42.3241
3.7039693653009733 27.5694
3.726297407241705 25.0804
3.7486081875460804 25.4658
3.7709365132734978 26.0672
3.793247578841633 26.2389
3.8155761917550093 26.296999999999997
3.8378875459837216 26.7272
3.8602164494827234 27.1876
3.882545499606844 28.1213
3.9048572932539183 28.6469
3.9271866390645718 28.6417
3.9494987298666713 29.4551
3.971828374764527 30.1656
3.9941581705403255 30.7372
4.016470713506008 31.4356
4.038800813471445 32.2171
4.061113662089144 32.875
4.0834440696459176 33.3902
4.105774632334751 33.2952
4.128087945865126 34.3633
4.150418821249301 34.8502
4.172732448931298 36.0708
4.195063640413578 37.1619
4.2173775856475215 40.1788
4.239709096631102 59.5435
4.262040768704612 152.91
4.284355196706267 200.137
4.306687193387355 132.938
4.329001947444346 62.82899999999999
4.35133427213731 44.928000000000004
4.373666762177566 43.3397
4.395982011761091 43.8171
4.418314834921175 44.9859
4.44063041906622 50.2968
4.4629635787515625 56.3035
4.4852969080429785 56.5468
4.5076130004776225 52.6592
4.529946671403969 53.4029
4.552263106909177 54.5718
4.574597122877047 53.9021
4.596931312711224 53.531000000000006
4.619248269273446 52.9637
4.6415828092605835 53.9675
4.663900117405352 55.3677
4.686235010953232 57.3031
4.708552674085913 58.3612
4.730887924602802 59.7453
4.753223354952695 61.4793
4.775541557023902 63.4318
4.797877349456786 66.0291
4.820195915032126 67.786
4.842532072957498 68.1606
4.864868414979744 70.2973
4.88718753227192 73.5456
4.909524244902505 75.3465
4.931843734218147 76.55199999999999
4.954180820867835 78.3071
4.976518095879839 81.2727
4.998838149695359 83.9386
5.021175803844231 87.3879
5.043496238205739 91.0596
5.065834274903528 95.3592
5.088172504230693 100.27600000000001
5.1104935158799565 107.119
5.132832132875765 126.376
5.155153533596801 159.961
5.1774925416746225 202.989
5.199814334878411 416.14599999999996
5.2221537374521505 1110.54
5.244493338631803 3023.9
5.266815727034316 7848.33
5.289155727832427 12715.3
5.311478517248165 8666.28
5.333818921080011 2685.23
5.356159527788849 527.567
5.3784829252032536 190.71200000000002
5.400823940070432 147.81
5.423147747031976 129.489
5.445489173474152 119.932
5.467830807066149 116.42399999999999
5.490155234831516 114.369
5.512497285125229 109.255
5.534822130975162 105.411
5.557164601388673 102.521
5.579489868738879 99.8412
5.601832762690846 98.5453
5.6241758697774475 97.0814
5.646501775867269 96.8682
5.668845311622074 95.6205
5.691171647754637 94.6957
5.713515615597765 93.6947
5.735859800852677 92.9282
5.758186788542988 93.1552
5.780531411018185 94.7585
5.802858837297399 94.3889
5.825203900414495 94.1273
5.8475491852224 96.1025
5.869877275883075 95.8042
5.892223006467101 95.1768
5.914551544266608 95.6414
5.936897724049891 98.2875
5.959244129804903 105.65
5.981573344815301 132.224
6.0039202049061 244.30900000000003
6.026249875609095 505.477
6.04859719346037 1018.42
6.070927323278297 2271.04
6.093275102315365 4581.3
6.115623113320588 5177.63
6.137953938319995 3140.44
6.160302415650845 917.308
6.182633708324452 216.704
6.2049826554078376 111.25299999999999
6.227331838745022 91.6414
6.249663839443684 83.8025
6.27201349767565 80.9814
6.294345974611799 83.8347
6.316696111167083 89.2901
6.339046488263839 85.5805
6.361379686074702 76.0338
6.383730546639482 71.0208
6.406064229255215 69.2861
6.428415576718203 69.8715
6.450749747566656 68.1693
6.47310158535871 66.308
6.495453669698332 65.1836
6.517788579421056 64.5813
6.540141159237969 63.6982
6.562476565766648 63.1554
6.5848296444934045 62.9127
6.607182974060425 62.4497
6.6295191323281015 62.333999999999996
6.651872965955752 64.0614
6.6742096296068985 78.7029
6.6965639707294615 105.48100000000001
6.71891856698715 105.176
6.741255995248479 79.377
6.763611104154477 63.8784
6.785949046381137 59.5085
6.808304671371482 58.617
6.8306605557940046 59.5124
6.852999275508618 58.1012
6.875355681171544 57.0987
6.897694923437771 56.4924
6.92005185377892 56.406000000000006
6.9423916220322655 56.31399999999999
6.964749080490181 55.6301
6.987106804399774 55.6923
7.009447368180821 55.4682
7.031805625367033 55.205
7.054146723727803 55.3963
7.076505517631004 55.3883
7.098864581288365 54.9638
7.121206488070854 54.8705
7.143566093607822 55.2338
7.165908543567245 55.5617
7.188268694426048 55.513999999999996
7.2106291193438095 55.0816
7.232972390625943 55.8237
7.255333366030969 63.211999999999996
7.277677189091925 94.3931
7.300038718428332 121.40299999999999
7.322400526130865 106.499
7.344745183422596 74.2036
7.367107550224791 58.4405
7.389452767901992 55.4351
7.411815697249891 54.6168
7.434161478756298 53.8548
7.456524974096713 53.5938
7.478888753837185 53.6577
7.501235387657368 53.9514
7.523599738562711 54.1367
7.545946944825532 54.5611
7.568311870344528 55.0349
7.5906770845765665 54.95399999999999
7.613025156078678 55.875
7.635390950099687 56.8237
7.657739602662809 56.1613
7.680105979923558 56.0405
7.702472650212829 56.2776
7.724822180948224 56.1222
7.747189439655568 55.9958
7.769539560075357 55.8665
7.791907410653562 56.4561
7.81425812420825 56.2004
7.836626570110925 56.5941
7.858995315087906 57.3875
7.881346924933401 57.6026
7.903716270417482 58.6754
7.926068482028405 58.7059
7.948438431475253 59.143
7.9708086843180235 60.1266
7.993161805171116 60.3737
8.015532667162402 60.8734
8.037886398416653 61.512
8.060257873014221 62.0853
8.082629655331942 62.9224
8.104984308787587 63.8724
8.127356708900503 66.1629
8.149711981398308 70.406
8.172085002766314 72.1292
8.194458336181368 70.7885
8.216814543847752 68.6605
8.23918850371002 69.2023
8.26154533906492 70.2827
8.283919928836452 71.7739
8.306277395339652 72.7895
8.328652618483376 74.2977
8.351028159736202 76.6515
8.373386579575245 78.7025
8.395762759396959 80.6518
8.418121819038275 84.7093
8.440498640894003 94.0581
8.462875785192262 106.311
8.485235811156207 129.759
8.507613602688501 184.21900000000002
8.529974277114228 273.825
8.552352719347912 410.38800000000003
8.574731488360351 685.2610000000001
8.59709314210385 1233.87
8.619472567021075 1928.38
8.64183487789147 2246.34
8.664214962183097 1764.36
8.686577933647762 870.685
8.708958680784317 343.212
8.731339760774953 153.561
8.753703729764451 108.455
8.77608547780821 98.4075
8.798450116065078 95.1424
8.820832535634787 92.3351
8.843215292401656 91.77600000000001
8.865580941199045 91.0547
8.887964374703538 89.9237
8.910330701447199 90.5001
8.932714815164482 91.1029
8.955099270424924 89.4282
8.977466620733543 86.8871
8.999851761421976 85.0186
9.022219798361645 83.7385
9.04460562795561 83.7183
9.066991803441677 83.286
9.089360876979615 83.6092
9.111747746589993 83.1319
9.13411751544971 82.335
9.156505082664324 82.0509
9.178875550323522 82.2355
9.20126381862328 82.1174
9.223652438908596 82.6738
9.246023961427412 82.5867
9.26841328802173 82.2132
9.290785518039224 82.5094
9.313175554425882 83.9572
9.335565947154315 84.2967
9.357939245086508 84.6238
9.380330352834827 84.4784
9.40270436697103 84.5116
9.425096193225055 84.0011
9.447488380180165 84.7395
9.469863475295412 84.4401
9.492256385987508 84.5141
9.514632206018318 85.4089
9.537025843935714 85.8114
9.559402392368193 86.7955
9.581796761000229 88.3193
9.604191496441521 90.0262
9.626569144158516 93.0048
9.648964615551032 95.1234
9.671343000390081 95.4111
9.693739211225699 94.3401
9.716135793237463 93.0429
9.738515290448102 93.2793
9.760912617143402 94.561
9.783292860202891 96.2419
9.805690935076182 97.8976
9.828089385495742 98.8775
9.850470754023561 100.704
9.872869957865444 105.633
9.89525208097539 115.514
9.917652041736662 124.538
9.940052382417589 130.94299999999998
9.962435644102392 152.225
9.984836746950979 196.84799999999998
10.007220771957746 259.902
10.029622640473708 366.478
10.052007432299963 548.877
10.074410069984072 852.177
10.096813093716005 1298.12
10.119199042482517 1795.98
10.141602840636468 1985.95
10.163989564971628 1550.57
10.186394141051062 835.913
10.208799107559706 361.791
10.231187001965623 174.704
10.253592751657669 123.054
10.275981430388155 111.87
10.298387966769793 110.09200000000001
10.320794897965431 110.98
10.343184759907361 109.994
10.36559248305461 106.274
10.387983138083852 105.042
10.410391656691655 111.41799999999999
10.432800574501677 123.735
10.455192425893369 140.405
10.47760214443012 166.403
10.499994797678786 213.15
10.522405320453982 293.353
10.54479877906917 410.15
10.567210109595656 513.0169999999999
10.5896218454736 565.528
10.612016518879773 491.959
10.634429067781074 330.311
10.656824555333241 193.231
10.679237920773568 119.715
10.701651695961992 94.4507
10.724048411481384 88.7478
10.746463008485165 86.1842
10.768860546937125 84.7733
10.791275969274796 83.2918
10.81369180576079 82.0562
10.836090585366925 81.0867
10.858507252467449 79.4787
10.88090686379991 78.7712
10.903324365036394 78.2534
10.925724811614439 77.8498
10.948143150509463 78.1657
10.970561909719066 77.8153
10.992963615930844 76.5435
11.015383218085756 74.9126
11.037785768347074 73.4948
11.06020621697282 72.6545
11.082627090322113 72.1129
11.105030913430326 71.3205
11.12745263854165 71.6197
11.149857314510728 73.2067
11.172279894912576 76.2686
11.194702904450653 76.5775
11.217108866490921 73.9668
11.239532736615194 71.3144
11.26193956033512 70.045
11.284364294577085 68.8835
11.306789462371718 67.54899999999999
11.329197585398376 66.9811
11.351623622610898 66.6683
11.37403261614354 65.8958
11.396459526308487 65.9911
11.418869393879497 65.2212
11.441297180532617 65.1074
11.463725406927658 64.617
11.486136592353875 64.5064
11.508565700543707 64.5019
11.530977768845315 65.748
11.553407762368774 66.4753
11.575838200059769 65.7935
11.598251599479612 64.4872
11.620682927815501 63.5369
11.64309721895548 63.2037
11.665529441478206 62.8372
11.687962112597958 62.7966
11.710377748130886 62.7902
11.732811318753434 62.5377
11.755227854859067 62.714
11.777662328529495 62.5764
11.800079768750786 62.5402
11.822515149015453 62.7042
11.844950984084935 62.7557
11.867369787303163 62.143
11.889806534289491 62.1253
11.912226250487029 62.9128
11.934663912939751 62.952
11.9571020346363 63.0228
11.979523127133968 63.2625
12.001962169624331 64.2433
12.024384183972964 65.7651
12.046824150809913 69.1587
12.069264581333726 73.929
12.091687985297767 79.7517
12.11412934550045 89.1602
12.136553680195208 105.292
12.158995973632788 127.80799999999999
12.181438735204349 154.895
12.20386447284199 182.66299999999998
12.226308172985636 203.708
12.24873485024193 196.387
12.271179492516982 157.05200000000002
12.293607112949127 120.49700000000001
12.316052700916226 89.0988
12.338498763250042 74.2074
12.360927805303868 67.8276
12.383374818673879 65.2581
12.405804812803074 63.975
12.428252780773262 63.8843
12.45070122756722 64.1276
12.473132656675375 64.0714
12.49558206341869 64.4255
12.518014453510101 64.5865
12.540464823770117 64.5404
12.562915677315177 64.6934
12.58534951575545 65.5098
12.607801338171472 66.3316
12.630236146511358 69.411
12.652688941369085 72.1104
12.675124723177234 72.7426
12.697578494048786 70.8489
12.720032754458185 68.7338
12.742470003354093 67.8474
12.764925245138771 67.5919
12.787363476431278 67.8672
12.809819703166806 68.4079
12.83227642391173 69.3258
12.854716135692716 69.741
12.877173846755147 70.9533
12.899614549869717 71.3864
12.9220732548287 72.39699999999999
12.94453245827299 72.7046
12.966974655289818 73.8709
12.989434858002571 74.5915
13.011878055298721 75.2236
13.034339260862497 76.0135
13.056800969391883 77.1884
13.079245674017244 79.8642
13.101708390774869 83.7455
13.12415410463411 92.5536
13.146617833206086 103.59700000000001
13.169064559883248 114.611
13.191529303857127 129.724
13.213994557076367 153.181
13.236442809902437 191.97099999999998
13.258909083908291 248.263
13.28135835851934 316.35200000000003
13.30382565690295 380.449
13.326293469022952 428.921
13.348744283242008 421.26800000000003
13.371213125129904 341.501
13.39366497011003 248.623
13.416134845360597 163.54
13.438605238843131 120.146
13.46105863690397 106.91
13.483530069144786 108.36200000000001
13.505984506951902 113.161
13.528456981549432 123.147
13.550929978879088 138.504
13.573385983253365 163.93200000000002
13.595860028340867 204.266
13.618317081455832 256.303
13.64079217790333 313.802
13.663250283359057 354.056
13.685726434770173 368.085
13.708203115221277 325.502
13.730662806148091 246.702
13.75314054697177 171.472
13.775601299246777 120.061
13.798080104050406 94.0416
13.820559442405358 84.3114
13.843021793671388 81.5277
13.865502201420897 79.9244
13.887965623051947 79.5376
13.910447103807167 78.2787
13.932929122629764 76.9621
13.955394156785959 76.6852
13.977877254034569 75.7961
14.000343367582113 74.7681
14.022827546871707 74.2578
14.045294743423524 73.5343
14.06778000837062 72.8538
14.090265817715476 73.0434
14.112734645763819 72.5466
14.13522154619454 72.0116
14.157691466286913 71.9207
14.180179461423874 71.5964
14.202668005486178 71.3025
14.22513957064374 70.8892
14.247629214846473 70.3138
14.270101881097517 69.976
14.29259262906496 70.0399
14.315083930490205 70.4285
14.337558255389705 70.5409
14.360050666019726 70.4201
14.382526101071944 69.7858
14.405019624534942 69.2271
14.427513705993134 68.8676
14.449990813291825 68.7943
14.47248601302899 68.6188
14.49496423954951 68.8004
14.517460561197822 68.78
14.539939910570322 68.7207
14.562437357763558 68.9845
14.58493536931253 69.7001
14.607416409993311 70.1714
14.62991555254159 70.6155
14.652397725157423 70.5457
14.674898002342799 70.617
14.697398848433282 70.5728
14.719882725991326 71.7933
14.74238471217934 73.3521
14.764869730765593 77.1452
14.787372860692983 80.3522
14.809876564079925 84.4613
14.83236330125751 90.4865
14.854868153850365 99.4448
14.877356041159485 113.72200000000001
14.899862046604186 133.076
14.922351087688757 159.253
14.944858249632887 188.732
14.967365991421232 213.257
14.989856770231246 227.878
15.012365673994204 216.479
15.03485761569738 182.524
15.05736768508665 140.481
15.07987833888692 108.765
15.102372032001655 86.9258
15.124883856909658 75.5558
15.14737872204565 71.8121
15.169891721717274 70.2497
15.192405310371893 69.8405
15.214901940621196 70.2306
15.237416709527137 69.9205
15.259914520936249 70.0361
15.282430473753607 69.1469
15.304947020131227 68.363
15.327446610371178 67.4441
15.349964346154254 66.8503
15.372465126703139 66.7442
15.394984055556009 66.4367
15.417486030076159 66.23100000000001
15.44000615566487 65.8664
15.462526881230803 65.6277
15.485030653812652 65.9216
15.507552581617434 65.8338
15.530057557334603 65.96
15.55258069104857 66.0284
15.575104429329837 66.2096
15.597611216864632 65.8681
15.620136166564563 66.4821
15.6426441664095 67.9834
15.665170331202765 70.7043
15.687697105158826 73.6413
15.710206930593545 76.9985
15.732734925158933 81.2058
15.755245972089478 87.6148
15.77777519094324 97.0117
15.800287463046663 110.89200000000001
15.822817909869592 130.22799999999998
15.84534897229804 151.923
15.867863089299354 175.28900000000002
15.890395385222186 191.082
15.912910736597423 195.407
15.935444269699861 176.37400000000002
15.957978423016485 149.549
15.980495633101265 116.412
16.003031029129367 91.727
16.02554948280019 74.3365
16.048086125229432 66.5627
16.070623392487107 64.1551
16.09314371869582 63.3902
16.11568223789321 62.5003
16.13820381691126 61.501999999999995
16.160743591742527 61.0061
16.183283996022084 60.2696
16.205807461423195 59.2308
16.228349126881973 58.7418
16.25087385432698 58.5613
16.27341678466365 57.9782
16.29594277784926 57.9509
16.31848697676433 58.0656
16.341031811604868 57.9654
16.36355971058487 58.0609
16.3861058195587 57.9292
16.40863499352978 56.8619
16.431182380342005 56.2832
16.453730407713202 55.8966
16.476261501364792 55.6639
16.498810812136167 55.406000000000006
16.52134319004079 55.2968
16.54389378792203 55.2876
16.566445031001553 55.0547
16.588979342490088 55.0239
16.61153187824822 55.0647
16.634067483263312 54.7693
16.656621315414416 54.724
16.679175797408888 54.3631
16.701713349928728 54.3318
16.72426913389191 54.7545
16.74680798922351 54.8162
16.76936507887444 54.7563
16.791905240734874 54.8381
16.814463639794468 54.5288
16.837022695210294 54.7514
16.859564824093756 54.9371
16.882125194503903 55.3899
16.904668639217885 55.8824
16.927230328348003 56.0294
16.949792678493612 56.1094
16.972338104193863 55.7132
16.994901778652235 55.1981
17.017448529496576 55.4433
17.040013531998152 56.0015
17.06257920018044 56.7105
17.0851279459922 57.2987
17.107694947817667 57.8918
17.130245028099072 58.6613
17.15281336730298 60.1562
17.17536478578733 61.8986
17.19793446610687 63.9554
17.220504818648422 67.1583
17.243058251703697 70.5952
17.265629950971032 75.0372
17.288184731571736 79.3489
17.310757781306908 83.3002
17.33333150794385 84.3989
17.355888317140174 81.3306
17.37846339986244 75.1686
17.401021565958885 69.9397
17.42359800851343 64.5366
17.44617513265564 61.3372
17.468735341390783 59.8319
17.491261035594565 59.0135
17.51396340099364 58.7454
17.536490463869136 58.8859
17.559018209820174 58.9929
17.58154663977963 58.9707
17.604251766089718 59.3162
17.626781572227713 59.6495
17.64931206518155 59.7855
17.671843245885103 60.1728
17.69455114821572 60.5093
17.717083712612634 60.7143
17.739616967569667 61.0288
17.762150914021706 61.1848
17.78486160749854 61.4281
17.807396945166804 62.4311
17.829932977143503 63.6639
17.85246970436452 65.3055
17.875183204129467 67.1873
17.897721330097664 68.9321
17.920260154126645 71.2933
17.942799677153296 74.4262
17.9655159983646 78.4687
17.988056927677544 84.0202
18.010598558807683 92.1055
18.033140892692916 102.264
18.05586005052525 113.53
18.07840379824407 124.835
18.10094825154059 135.657
18.12366954819864 142.523
18.146215420998306 139.935
18.16876200220057 130.97299999999998
18.191309292745153 114.97200000000001
18.214033452627167 101.102
18.236582170236648 90.2221
18.259131600016456 86.0749
18.281681742907335 86.8537
18.304408781233683 91.4648
18.32696035875955 96.3902
18.349512652227624 101.037
18.372065662579683 105.04799999999999
18.394795594587553 105.66799999999999
18.41735004715306 101.352
18.43990521943684 94.5074
18.46246111238171 84.3375
18.485193953325208 75.2194
18.507751296070428 68.7475
18.530309362314178 65.0078
18.552868153000343 63.0172
18.57560391815056 61.7647
18.59816416623245 61.7237
18.620725141597372 61.0002
18.643286845190268 60.7319
18.666025549835414 60.3263
18.688588718427933 59.6663
18.711152618092243 59.5227
18.73389353884365 59.3042
18.75645890921984 58.7442
18.77902501351406 58.4243
18.801591852673102 58.574
18.824335739722738 57.8454
18.846904057212626 57.8873
18.8694731124168 57.7185
18.89204290628315 57.6212
18.914789774966803 57.2307
18.937361054791623 57.1992
18.959933076131318 56.751999999999995
18.982505839934877 56.7754
19.00525570560582 56.8972
19.027829963004184 56.8223
19.05040496572238 56.8485
19.072980714710468 56.9145
19.095733592739563 57.1102
19.11831084296757 57.3306
19.140888842324735 57.8478
19.16346759176222 58.0083
19.18622349753803 58.3441
19.208803755869358 59.3786
19.231384767143577 60.7995
19.253966532312948 62.474
19.276725481241822 64.6644
19.29930876296784 67.4786
19.3218928014549 70.514
19.34465404436217 73.3513
19.36723960516257 75.521
19.389825925592426 76.0819
19.412413006605938 74.9346
19.43517731967805 71.2059
19.457765930683355 66.6251
19.48035530514408 62.25899999999999
19.50294544401556 58.727
19.525712842708348 56.2496
19.54830451925909 54.8357
19.570896963095727 54.1953
19.593490175174704 53.8224
19.616260674962184 53.799
19.638855432416964 53.3969
19.661450960992624 53.4889
19.68404726164677 53.5221
19.706820878021247 53.1983
19.729418731756834 53.4775
19.752017360452857 53.3836
19.77461676506804 53.5443
19.797393513540218 53.8027
19.819994478951667 54.0927
19.84259622316767 54.5359
19.8651987471481 54.7264
19.887978643247177 54.8344
19.91058273574792 55.4781
19.933187610901943 56.3105
19.955969879466828 57.6185
19.97857632894404 59.1487
20.00118356396599 60.8642
20.023791585494575 62.9693
20.046577028914875 65.7546
20.069186632506966 67.8369
20.091797025500632 69.4019
20.114408208858933 69.9991
20.137196842715273 69.3763
20.159809615886765 67.7426
20.18242318232135 65.2265
20.20503754298326 62.9755
20.227829382875154 62.0468
20.250445341109344 62.1251
20.27306209647285 62.9155
20.29567964993108 64.063
20.31847471147704 65.0882
20.34109387027612 65.4754
20.363713830075454 64.831
20.386334591841646 63.3181
20.409132890679302 60.5109
20.431755265564437 57.4351
20.454378445325528 54.5367
20.477002430930366 52.6676
20.499803982716553 51.7
20.522429589228004 51.1217
20.54505600449589 50.6851
20.567683229489194 50.5344
20.590488049900088 50.3512
20.61311690359731 50.0907
20.63574656993626 49.9525
20.658553853717297 49.4927
20.681185154618298 49.6183
20.703817271080066 49.398999999999994
20.72645020407368 48.9275
20.749260783967177 48.8849
20.771895359337133 49.0456
20.794530754161617 48.9209
20.817166969412938 48.9145
20.83998086114876 48.7327
20.86261872660049 48.6837
20.885257415405402 48.693999999999996
20.90789692853701 48.4833
20.930714147864748 48.4802
20.953355319030678 48.5718
20.97599731745334 48.6001
20.99864014410749 48.44
21.021460706796564 48.5444
21.044105199328826 48.7767
21.06675052302631 48.9317
21.089396678865015 49.0465
21.112220600704806 49.4769
21.134868430275347 49.9114
21.15751709492456 50.1108
21.180166595629693 50.2165
21.202993892429635 50.8587
21.22564507473034 51.1164
21.24829709602816 51.3437
21.27112693608965 51.438
21.293780644891275 51.3431
21.316435195634053 50.5385
21.339090589297417 49.841
21.361923832041875 49.398999999999994
21.384580921090404 48.8144
21.407238856007325 48.3952
21.429897637773326 48.4592
21.45273429906592 48.2955
21.475394784108598 48.3671
21.498056118951983 48.3882
21.520718304578022 48.6877
21.543558400304388 48.7917
21.566222297108816 48.9691
21.58888704765135 49.1496
21.61155265291521 49.4803
21.63439619898156 49.864
21.657063523335786 50.0412
21.67973170537063 50.5465
21.7024007460706 50.9427
21.72524775840385 51.748000000000005
21.747918526116475 52.7476
21.770590155457388 54.2372
21.79326264741238 55.7013
21.816113141960237 57.75
21.838787368860547 59.3946
21.861462461341976 61.2485
21.884315579735777 63.0526
21.90699241312273 64.212
21.92967011506078 64.7285
21.95234868653799 64.2796
21.9752053151131 62.8447
21.997885635446785 60.8809
22.020566828293532 58.9038
22.04324889464272 57.3601
22.066109049404666 56.3721
22.088792872571794 55.9941
22.111477572219204 56.0615
22.1341631493376 56.0357
22.157026846313123 55.7434
22.179714188221507 54.997
22.202402410582668 53.8223
22.22509151438863 52.3989
22.24795876962584 51.1742
22.270649646204486 50.2543
22.293341407213727 49.623000000000005
22.316034053646906 49.1532
22.338904883215342 48.8707
22.36159931041458 48.8687
22.38429462602756 48.8028
22.40699083104897 48.6347
22.429865251039757 48.5959
22.452563244831367 48.661
22.47526213102522 48.6468
22.49813925616515 48.6896
22.520839937143307 48.5065
22.543541513520587 48.5918
22.56624398629403 48.4625
22.589124730075895 48.5138
22.611829005656723 48.6676
22.63453418063466 48.7496
22.657240256008077 48.977
22.680124634582935 49.0064
22.70283252079775 49.3126
22.725541310413075 49.5542
22.74825100442868 49.7054
22.771139033969575 50.2885
22.79385054687155 50.4605
22.81656296718292 51.2906
22.83927629590484 52.17100000000001
22.862167992606945 53.238
22.88488314827121 54.3266
22.907599215359284 55.2939
22.93031619487366 56.4153
22.953211574954405 57.3892
22.975930389478226 57.9061
22.998650119445763 58.1226
23.02137076586092 57.23
23.044269845560063 55.966
23.06699233506288 54.1527
23.089715744034912 52.3968
23.112617610931565 50.732
23.135342869061212 49.7229
23.158069049684816 49.0735
23.1807961538087 48.6145
23.20370174880544 48.6714
23.226430710184808 48.7473
23.249160598093425 48.8674
23.271891413539002 49.0411
23.294800752937697 48.9067
23.31753343374794 49.0363
23.340267045128353 49.08
23.36300158808808 49.5502
23.38591468821339 49.8698
23.408651104658304 50.2985
23.431388455719986 50.9891
23.454126742409 51.8759
23.4770436196085 53.0162
23.499783787914662 54.1735
23.522524894889884 55.1285
23.54526694154616 56.0583
23.56818761219047 57.3675
23.59093154860734 57.8607
23.613676427751283 57.8992
23.636422250635754 56.6899
23.659346731118656 54.9836
23.68209445191868 53.1897
23.704843119509587 51.0415
23.72759273490623 49.2918
23.750521041644767 47.8912
23.77327256312355 46.8884
23.796025035462787 46.3244
23.818956224555475 45.9732
23.841710609113413 45.9763
23.86446594758979 45.7583
23.887222241002014 45.4907
23.910157285144578 45.0933
23.932915498962537 45.1828
23.955674670778713 45.0595
23.978434801611975 44.7397
24.001373717286125 44.5541
24.024135776723917 44.5173
24.046898798245582 44.4525
24.06966278287146 44.3479
24.092605586582614 44.2073
24.115371508023642 44.0046
24.1381383956401 44.0066
24.16090625045381 43.9118
24.183852958731244 43.7537
24.206622758582608 43.803999999999995
24.229393528706886 43.593999999999994
24.252165270127392 43.464
24.27511589952438 43.566
24.297889594216997 43.3295
24.32066426328598 43.1359
24.34343990775613 43.2687
24.36639447485003 43.2585
24.38917208083877 43.1303
24.41195066531332 43.0518
24.43490819850244 43.0504
24.457688750692377 42.869
24.48047028445616 42.9345
24.503252800821233 43.1164
24.526214300784112 43.2128
24.548998793132213 43.0273
24.57178427117417 42.9923
24.59457073593893 42.9027
24.617536219319863 42.8936
24.64032466834748 42.8789
24.663114107195035 42.7055
24.685904536893013 42.5148
24.708874020360852 42.3472
24.731666442613744 42.4181
24.754459858818787 42.4261
24.777254270007962 42.2168
24.80022777025625 42.2167
24.82302418230472 42.3095
24.845821592443674 42.0889
24.86862000170663 42.1836
24.891597535453727 41.9741
24.914397953892728 42.376999999999995
24.93719937456671 42.3615
24.96000179851076 42.4059
24.98298338249997 42.7303
25.00578782394922 42.8151
25.028593271784167 42.8961
25.05157790644186 43.2526
25.07438537804115 43.394
25.097193859145293 43.5984
25.120003350792075 43.8221
25.142992065061257 44.1251
25.165803588823465 44.3157
25.18861612625217 44.5398
25.211429678386736 44.7228
25.234422489079968 44.7144
25.257238081693636 44.61600000000001
25.280054692141732 44.9863
25.3028723214652 44.848
25.325869245420463 44.8796
25.348688923599397 44.8493
25.371509623787006 44.8505
25.394331347025812 44.32
25.41733240110666 43.9626
25.440156181590016 43.1522
25.46298098826268 42.7377
25.48580682216873 42.1063
25.50881202326435 41.7839
25.53163992281684 41.4375
25.55446885274561 41.1067
25.577298814096377 40.9215
25.600308179121807 40.9452
25.623140214533745 40.8531
25.64597328451537 40.7879
25.66898578564376 40.4386
25.691820936010206 40.6411
25.714657124097695 40.5375
25.737494350954734 40.5801
25.760511045684957 40.5125
25.783350361364224 40.4368
25.806190718969255 40.4136
25.82903211955018 40.5334
25.852053024868923 40.5544
25.874896522722523 40.5195
25.897741066713106 40.411
25.920586657892454 40.6922
25.943611790812668 40.7594
25.966459487728237 40.8175
25.989308234998564 40.8254
26.01215803367705 41.3406
26.03518741123814 41.5247
26.05803932412957 41.5939
26.080892291600094 41.4953
26.10374631470478 41.5267
26.12677995397268 41.6795
26.14963609978026 41.6426
26.172493304397875 41.1448
26.19535156888223 41.0896
26.218389486949604 40.7151
26.241249882640123 40.5067
26.26411134137826 40.2077
26.28715248187403 40.2331
26.31001607820869 40.0944
26.3328807407756 39.9547
26.35574647063438 39.9871
26.37879191991473 40.0136
26.401659795896734 40.1113
26.424528742360263 40.2165
26.447398760366614 40.3551
26.470448535598294 40.584
26.49332070826805 40.7433
26.516193955675355 41.1208
26.53906827888316 41.2376
26.562122397260108 41.3906
26.584998883685063 41.7158
26.607876449110325 41.9834
26.63075509460056 42.1827
26.65381357334404 42.2522
26.67669439061878 42.1601
26.699576291163382 41.8976
26.722459276044212 42.0209
26.745522132402975 41.6427
26.768407297649354 41.2344
26.791293550442003 41.0013
26.814180891848974 40.757
26.837248143099337 40.4672
26.860137673466657 40.4302
26.88302829566349 40.1326
26.90592001075963 39.9906
26.92899167420566 39.85
26.951885586870763 39.4124
26.974780595655517 39.2882
26.99785558178161 39.0985
27.020752794605112 39.0139
27.043651106772522 38.8138
27.06655051935668 38.7502
27.089629948036183 38.6779
27.112531573292053 38.6484
27.135434302194138 38.8556
27.158338135817015 38.5507
27.181422024430987 38.5252
27.204328079372566 38.3927
27.22723524226965 38.5065
27.250143514198573 38.6014
27.273231880156334 38.6102
27.296142382065014 38.4082
27.319053996245536 38.3337
27.341966723775965 38.3591
27.365059584515222 38.3845
27.38797455070062 38.5686
27.410890633481237 38.4087
27.433807833936918 38.3892
27.456905206923906 38.5767
27.47982465472398 38.449
27.502745223449743 38.5389
27.525666914182825 38.7477
27.548768816912457 38.5291
27.571692763693633 38.5721
27.59461783573812 38.3347
27.617723149491244 38.1735
27.640650484125285 38.0874
27.66357894728264 38.0035
27.686508540048052 38.0229
27.709618414237887 37.9613
27.732550278321757 37.7807
27.755483275279115 37.8222
27.778417406196485 37.8514
27.801531858397514 37.8932
27.824468269376716 37.802
27.847405817586786 37.8234
27.870344504116094 37.9762
27.893463551932008 38.1318
27.916404527281053 38.2177
27.93934664422563 38.258
27.962289903855886 38.4408
27.98541356491974 38.6181
28.00835912214229 38.8154
28.03130582533231 39.0557
28.054253675581805 39.1492
28.077381967556104 38.955
28.100332124185126 39.0554
28.123283431160893 38.944
28.146235889577238 38.826
28.169368830154156 38.5862
28.192323603752033 38.3149
28.215279532083304 37.9867
28.238415973016764 37.821999999999996
28.261374223145094 37.745
28.284333631303806 37.6081
28.307294198589954 37.4242
28.330435319167677 37.0856
28.353398217078915 36.8233
28.376362277420153 36.6094
28.39932750129032 36.4917
28.422473319286713 36.3212
28.44544088262495 36.3294
28.468409612800283 36.1188
28.491379510913497 35.9536
28.51453004413313 35.8004
28.53750229057244 35.8364
28.56047570826344 35.9018
28.583450298308804 35.77
28.606605564586562 35.62
28.629582511831156 35.6425
28.65256063474956 35.6039
28.675539934446338 35.6254
28.698699951647605 35.6261
28.72168161743193 35.3951
28.74466446331978 35.4631
28.767648490417624 35.3906
28.790813276438353 35.3584
28.813799678527303 35.4614
28.836787265157085 35.3389
28.859955641890075 35.4318
28.882945610203045 35.4144
28.905936766392035 35.4201
28.928929111566863 35.3031
28.952102288520145 35.2092
28.975097024308607 35.1381
28.998092952423807 34.923
29.021090073977508 34.9341
29.04426806913204 34.8404
29.067267590245258 34.5871
29.090268308143695 34.6722
29.11327022394099 34.5433
29.13645305530891 34.2696
29.159457379627167 34.3465
29.18246290519685 34.4298
29.20546963313352 34.2844
29.22865731875826 34.2154
29.25166646419296 34.2347
29.27467681535305 34.1968
29.29768837335608 34.2863
29.320880931312562 34.4145
29.34389491580634 34.1915
29.366910110507334 34.1068
29.38992651653503 34.2539
29.41312396492981 34.176
29.436142806456754 34.0909
29.45916286268059 34.004
29.48236399319994 33.9798
29.50538649169417 33.7614
29.528410208259935 33.5634
29.55143514402014 33.4377
29.574641196749695 33.3564
29.597668583816574 33.2821
29.6206971934585 33.0485
29.64372702680042 33.2299
29.666938019934474 33.0211
29.689970313635285 32.8927
29.713003834422636 32.898
29.73603858342347 32.9299
29.759254535188578 32.9369
29.78229175361658 32.8307
29.80533020365064 32.8663
29.82836988641968 32.8099
29.85159081507472 32.7081
29.874632976355343 32.7028
29.89767637376955 32.7108
29.920721008448314 32.5547
29.9439469322847 32.5231
29.96699405457564 32.5051
29.9900424175358 32.5919
30.013092022298157 32.4312
30.03632295963995 32.3714
30.059375061131373 32.306
30.08242840783577 32.4956
30.105483000888153 32.5313
30.128718970092244 32.4851
30.151776069006917 32.4281
30.17483441768648 32.3296
30.198074175317235 32.3831
30.221135036724256 32.3604
30.24419715131772 32.3134
30.267260520236203 32.1786
30.290505341942243 32.2056
30.313571232750228 32.3375
30.336638381310948 32.2057
30.35970678876503 32.1527
30.38295669299435 32.0852
30.40602763151657 32.1717
30.429099832366074 32.1254
30.452173296685572 32.1177
30.47542830191959 32.0025
30.498504306502497 32.0319
30.521581577995562 32.0834
30.544660117543582 32.1439
30.56792024229725 32.1616
30.59100133132069 32.1564
30.614083691845494 32.1427
30.637167325018545 32.1503
30.660432587840603 32.188
30.683518779717886 32.0595
30.70660624769615 32.2087
30.729694992924372 32.1792
30.75296541239743 32.2656
30.77605672557558 32.1753
30.799149319462742 32.0465
30.8224236211637 31.9637
30.845518789950724 31.9108
30.868615242910597 31.8184
30.891712981195973 31.6131
30.91499247215866 31.5165
30.938092794619365 31.5763
30.96119440587579 31.4018
30.984297307082752 31.3838
31.00758200598383 31.2832
31.030687500658694 31.3163
31.053794288760695 31.2336
31.076902371446767 31.095
31.100192296997445 31.0908
31.12330298246119 31.1162
31.14641496599209 30.9189
31.169528248749216 30.8866
31.19282341969534 30.8571
31.215939314557186 30.9214
31.239056512134788 30.9105
31.262175013589378 30.8423
31.28547544871168 30.7812
31.30859657161541 30.805
31.331719001892175 30.7845
31.35484274070538 30.8934
31.378148458819545 30.9433
31.401274828443725 30.8606
31.424402510106933 30.921
31.447712205419993 30.9841
31.470842524931633 30.7996
31.493974159989783 30.8342
31.51710711176168 30.788
31.54042212308802 30.7902
31.563557722100917 30.7363
31.586694641341655 30.5681
31.609832881979628 30.4658
31.63315322823208 30.5062
31.656294125521327 30.256999999999998
31.679436347728515 30.2599
31.70257989602529 30.3002
31.725905596152327 30.1234
31.74905181052835 30.1053
31.772199354521323 30.1635
31.79534822930507 30.2438
31.818679302290967 30.1837
31.84183085259981 30.1833
31.864983737233473 30.1983
31.88813795736804 30.1312
31.911474422233013 29.995
31.934631327356435 30.0328
31.9577895715215 30.0225
31.980949155906522 29.9782
32.004291031706956 29.9106
32.027453310562606 29.8195
32.05061693318573 29.7996
32.07396288236386 29.8194
32.09712920658542 29.7976
32.12029687812702 29.6255
32.14346589817093 29.5057
32.166817291729984 29.4895
32.18998902288583 29.4835
32.21316210610336 29.3589
32.23633654256711 29.2165
32.259693399663725 29.2372
32.282870556771144 29.1664
32.30604907069099 29.1303
32.329228942610065 29.0224
32.35259128243769 28.9553
32.375773884550505 28.9637
32.398957848235646 28.9265
32.422143174682176 28.8167
32.445511016471215 28.701999999999998
32.468699082679954 28.7229
32.49188851523011 28.666
32.51507931531304 28.5099
32.538452678331 28.6073
32.56164622776311 28.502
32.58484114831493 28.5089
32.60803744118015 28.4757
32.631416344731896 28.5687
32.654615396551876 28.4071
32.67781582427913 28.3335
32.701198898634416 28.2867
32.72440209253756 28.1767
32.747606665947124 28.2225
32.77081262006088 28.0515
32.79420126883317 28.1383
32.81740999876112 28.1467
32.840620112999424 27.9968
32.86383161274818 27.8895
32.88722585534586 28.0361
32.91044014056596 28.0929
32.933655814909734 27.9871
32.95687287957963 27.9525
32.98027273544904 27.8638
33.00349259526636 27.9069
33.026713849030116 27.9357
33.04993649794511 27.8553
33.073341986570746 27.794
33.09656744032826 27.8179
33.11979429286444 27.7424
33.14302254538647 27.7614
33.166433686291185 27.6967
33.18966475336992 27.768
33.212897224069096 27.6387
33.23613109959831 27.6285
33.259547912343415 27.5284
33.2827846121627 27.6202
33.306022720453775 27.5113
33.32926223842861 27.3678
33.352684742614166 27.3459
33.37592709463173 27.3799
33.399170859982064 27.3292
33.422597648419426 27.1956
33.44584425514446 27.1562
33.46909227885668 27.0845
33.4923417207723 27.039
33.51577423505344 27.0765
33.539026528130385 26.9332
33.56228024307245 26.9117
33.585535381098246 26.7842
33.60897364093058 26.6762
33.63223163992385 26.735
33.6554910656699 26.5952
33.678751919389796 26.698
33.702195944520106 26.6211
33.72545966903325 26.6089
33.74872482519663 26.4139
33.771991414233746 26.5068
33.79544122444841 26.4546
33.81871069412428 26.3287
33.84198160035767 26.3647
33.86525394437455 26.4099
33.88870955949969 26.3303
33.911984794020626 26.3002
33.93526147001624 26.2316
33.958539588715006 26.1612
33.98200102861669 26.1366
34.0052820477047 26.0256
34.02856451319451 26.0195
34.05203033759056 25.8591
34.07531571090147 25.9707
34.09860253431845 25.9214
34.121890809074316 25.8237
34.145362493118924 25.8775
34.16865368561615 25.7745
34.191946333164054 25.7418
34.21524043699793 25.7466
34.23871800066799 25.7262
34.26201503218366 25.6195
34.28531352370466 25.5486
34.30861347646881 25.4863
34.33209693978188 25.4976
34.3553998301885 25.49
34.378704185565205 25.386
34.402010007152356 25.3836
34.42549939016683 25.3242
34.44880815937748 25.24
34.472118398533134 25.2276
34.49543010887669 25.1811
34.51892543169198 25.1385
34.54224009966052 25.1444
34.56555624255917 25.1185
34.58887386163339 25.0605
34.61237514439016 24.9197
34.6356957311114 24.9083
34.65901779775809 24.8915
34.68252356662995 24.7849
34.705848608458616 24.8547
34.72917513396849 24.8098
34.75250314440949 24.7998
34.77601490857862 24.7782
34.799345904259795 24.6865
34.82267838863559 24.6299
34.846012362958525 24.6346
34.869530142679984 24.6846
34.89286711232212 24.5924
34.91620557568269 24.4963
34.93954553401677 24.5137
34.9630693495876 24.4738
34.986412313340814 24.5014
35.00975677584668 24.4528
35.033102738362956 24.3631
35.05663261012228 24.322
35.0799815881786 24.3066
35.10333207003229 24.3109
35.12668405694369 24.1931
35.150220005273056 24.1936
35.17357501786656 24.205
35.19693153931268 24.197
35.220289570874385 24.1314
35.24383161619786 24.1175
35.267192683604904 24.1131
35.290555264930376 24.1108
35.314101899412165 24.0835
35.33746752422433 24.02
35.36083466676374 24.0997
35.38420332829803 23.9819
35.407756095629054 24.0058
35.43112781085063 23.9154
35.45450104888391 23.8991
35.477875810999194 23.9301
35.50143473172161 23.8587
35.52481255774625 23.8787
35.54819191167777 23.8834
35.57157279478914 23.748
35.595137889488406 23.6948
35.61852184675279 23.6498
35.641907337029984 23.6203
35.665294361595684 23.5582
35.68886565090076 23.4783
35.7122557598848 23.5222
35.73564740699838 23.4466
35.759040593519934 23.4554
35.78261809810353 23.4254
35.80601437933051 23.2788
35.829412203814705 23.2695
35.85281157283719 23.2428
35.876395313415884 23.2472
35.8997977874528 23.1308
35.92320180988546 23.1703
35.946790244133936 23.1384
35.97019737933222 23.1425
35.993606066789866 23.0806
36.01701630779276 23.0562
36.04061101440684 22.9947
36.06402437852291 22.999000000000002
36.08743930005611 22.9842
36.1108557802951 22.9323
36.13445678011326 22.8377
36.15787639383515 22.846
36.18129757014299 22.7233
36.20472031032821 22.7099
36.22832762423364 22.75
36.25175350829375 22.6923
36.275180960119776 22.6147
36.298609981005924 22.6875
36.32222362992669 22.5938
36.34565580510207 22.5389
36.36908955323448 22.4685
36.39252487562093 22.4289
36.416144880530226 22.4162
36.43958336764275 22.4111
36.463023432914625 22.410999999999998
36.486465077645676 22.3415
36.51009145956204 22.4186
36.53353627947859 22.366999999999997
36.55698268276811 22.2708
36.58043067073321 22.1741
36.60406345072071 22.1072
36.62751462435344 22.1366
36.65096738658405 22.1728
36.67460498210655 22.1354
36.69806093788647 22.0584
36.72151848619297 21.9667
36.744977628333636 21.9991
36.76862165890998 21.8703
36.79208400512205 21.9433
36.81554794910557 21.9337
36.83901349217101 21.8755
36.862663978991606 21.8219
36.88613273667352 21.747
36.90960309738324 21.7689
36.933075062434064 21.7017
36.95673202673572 21.6751
36.98020721697122 21.6646
37.003684015502365 21.6062
37.027162423645365 21.6068
37.050825886711465 21.4983
37.07430753063053 21.4871
37.09779078812467 21.4878
37.121275660513014 21.3498
37.144945643673694 21.3314
37.16843376245278 21.3576
37.19192350009803 21.3113
37.215414857931435 21.2991
37.239091382563885 21.2837
37.262585997426164 21.2187
37.28608223645736 21.1848
37.309763684451696 21.1423
37.33326318851098 21.1357
37.356764320726555 21.0517
37.380267082425526 21.0688
37.40395510942588 21.0647
37.42746114683234 21.0264
37.45096881771841 20.9391
37.474478123414166 20.9843
37.49817275092816 20.9514
37.52168534303452 20.8996
37.54519957395567 20.8227
37.568715445024665 20.7673
37.592416694607714 20.7252
37.61593586281424 20.7881
37.63945667518264 20.8519
37.66297913304891 20.7225
37.68668702630454 20.7141
37.710212792059274 20.6206
37.733740207334854 20.5709
37.757269273470364 20.5977
37.780983832050374 20.5684
37.80451621684926 20.4906
37.82805025654007 20.4134
37.851585952464795 20.4209
37.8753071980695 20.3645
37.89884622345676 20.3291
37.92238690911902 20.2812
37.94611318753442 20.2008
37.969657210779765 20.2962
37.99320289834801 20.2437
38.016750251586465 20.2066
38.04048325513017 20.1821
38.06403395679343 20.0805
38.087586328183946 20.0809
38.11114037065203 20.1139
38.13488012115898 20.0957
38.1584375229181 20.0056
38.181996599821 19.9199
38.205557353221124 19.9665
38.229303872575656 19.8881
38.2528679961576 19.9476
38.27643380031219 19.9392
38.30000128639589 19.8342
38.32375459653193 19.7289
38.34732546371299 19.7366
38.37089801690786 19.7123
38.39447225747609 19.7114
38.418232380377425 19.6417
38.441810012983396 19.5723
38.46538933705673 19.6155
38.488970353960084 19.5376
38.51273731166058 19.6057
38.536321731567014 19.5512
38.55990784840681 19.4625
38.58367995004091 19.4281
38.60726947812959 19.3399
38.63086070726198 19.3745
38.654453638806274 19.4079
38.678232613930824 19.3716
38.70182896773327 19.272000000000002
38.72542702806741 19.2718
38.7490267963045 19.2697
38.77281266709232 19.2123
38.79641586862214 19.177
38.8200207821842 19.1001
38.843627409152944 19.1153
38.86742019782782 19.0626
38.891030269149255 19.033
38.914642058016156 19.0486
38.938255565806124 18.9628
38.96205529464307 18.9844
38.98567225787121 18.9686
39.00929094417078 18.9687
39.03291135492255 18.9364
39.05671804624804 18.7984
39.080341923549106 18.7528
39.103967529460334 18.7189
39.127594865365744 18.6786
39.15140854155791 18.6143
39.17503935514948 18.6693
39.19867190290282 18.6268
39.22249083587951 18.6068
39.24612686969409 18.6588
39.269764641845306 18.5475
39.293404153722804 18.5664
39.317230110864074 18.5077
39.34087311998506 18.4353
39.36451787301696 18.5064
39.388164371352595 18.3713
39.41199737518003 18.2793
39.43564738196752 18.32
39.45929913825317 18.3125
39.48295264543308 18.2837
39.506792718520884 18.2462
39.530449745387216 18.2782
39.55410852735203 18.2193
39.57776906581474 18.1948
39.60161623079 18.1764
39.625280300200025 18.1122
39.64894613032202 17.9964
39.67261372255866 18.045
39.6964680021016 18.0016
39.72013913657293 18.0413
39.74381203738292 17.974
39.76748670593756 17.9498
39.79134812278169 17.9063
39.81502634488497 17.8421
39.83870633896685 17.9036
39.862388106436654 17.8194
39.88625668336918 17.7519
39.90994201572829 17.8118
39.933629125719285 17.7252
39.957503091207826 17.6844
39.9811937746168 17.7394
40.00488623990914 17.644000000000002
40.02858048850006 17.6216
40.05246165409549 17.5992
40.076159487492085 17.5355
40.099859108448875 17.574
40.123560518384345 17.5013
40.1474489070226 17.4666
40.171153913178564 17.3991
40.194860712584955 17.4469
40.2185693066637 17.4111
40.242464941335314 17.3822
40.26617714307655 17.3393
40.289891143772046 17.3568
40.3136069448471 17.322
40.33750984859743 17.3122
40.3612292688043 17.2515
40.3849504936829 17.2084
40.40867352466194 17.2622
40.43258372059144 17.2042
40.45631038219906 17.1494
40.48003885420956 17.1043
40.503769138055105 17.1074
40.52768664931955 17.134
40.55142057531802 17.0532
40.57515631746428 16.952
40.599079334038514 16.9483
40.62281872700477 16.9641
40.64655994043941 16.9212
40.67030297578061 16.8583
40.69423334835778 16.8448
40.71798004609188 16.8704
40.74172857006355 16.8464
40.76547892171441 16.7878
40.7894166736039 16.7097
40.813170699248566 16.705
40.83692655691388 16.6904
40.86068424804498 16.6987
40.884629402612525 16.6558
40.908390779366385 16.6506
40.932153993938 16.5968
40.95591904777605 16.5643
40.979871628443995 16.5482
41.003640379561936 16.5681
41.02741097430883 16.5432
41.05118341413683 16.5286
41.075143444384416 16.4405
41.098919593177826 16.4585
41.1226975914255 16.3714
41.14647744058318 16.3503
41.170444943946755 16.3209
41.19422851378379 16.3243
41.218013938914645 16.3245
41.24198706625173 16.2154
41.26577622087193 16.2524
41.289567235177785 16.229
41.31336011063129 16.1734
41.337340752422875 16.1257
41.361137369129835 16.0609
41.38493585138705 16.0906
41.40873620066004 15.9946
41.43272438060107 16.0533
41.45652848292052 15.9809
41.48033445666918 15.9277
41.50414230331616 15.9213
41.528138045159764 15.8925
41.551949656675205 15.8316
41.575763145513235 15.8489
41.59957851314666 15.8732
41.62358184070442 15.809000000000001
41.64740098505737 15.7945
41.6712220126409 15.7331
41.69504492493139 15.7302
41.71905586207357 15.7257
41.74288256296395 15.6611
41.766711153007456 15.6633
41.79054163368412 15.6473
41.814560204340054 15.6529
41.838394485526365 15.5702
41.86223066180303 15.5176
41.88625497706819 15.5197
41.910094962812 15.4792
41.93393684811168 15.533
41.95778063445365 15.4824
41.981812625263366 15.4166
42.00566023303407 15.4302
42.029509746323676 15.3599
42.05336116662236 15.3548
42.077400857069705 15.3643
42.10125611078846 15.3006
42.12511327600405 15.2574
42.14897235421036 15.2213
42.173019768448455 15.2387
42.19688269209613 15.1877
42.22074753323349 15.1668
42.24461429335818 15.1236
42.268669455600495 15.1534
42.292540073217886 15.1262
42.31641261433284 15.0813
42.34028708044675 15.0238
42.36435001496739 15.088
42.38822835065557 15.0472
42.41210861586426 14.9679
42.4359908120986 14.9644
42.46006154323262 14.9271
42.48394762115317 14.8956
42.507835634632315 14.8763
42.531912233047436 14.902000000000001
42.55580413732265 14.8305
42.579697981698 14.7791
42.60359376768525 14.7621
42.62767820545945 14.7263
42.65157789440821 14.7273
42.67547952952185 14.6505
42.699383112316 14.7048
42.72347541395347 14.6749
42.74738291190531 14.6098
42.771292362102166 14.5873
42.795203766063516 14.6172
42.819303956130405 14.5711
42.843219287476536 14.5486
42.86713657716324 14.497
42.89105582671383 14.4588
42.91516392983864 14.4559
42.939087119032166 14.4363
42.963012272677304 14.4126
42.98693939230129 14.3841
43.01105543317513 14.2868
43.034986504731386 14.3057
43.05891954686589 14.2712
43.08285456110972 14.3147
43.10697856448665 14.2364
43.130917542983475 14.1381
43.15485849820081 14.1841
43.17880143167367 14.1566
43.20293342237094 14.1626
43.226880332449 14.0972
43.25082922540554 14.0963
43.27496722682525 14.0842
43.29892010567796 14.0704
43.32287497204102 14.0595
43.34683182745632 14.0
43.370977859791836 13.9574
43.39493871351105 13.9338
43.41890156092628 13.9223
43.44286640358341 13.9278
43.46702049182749 13.9638
43.49098934522816 13.8716
43.51496019852649 13.809000000000001
43.5389330532723 13.8004
43.56309522248204 13.8113
43.58707210044314 13.7869
43.61105098451946 13.7658
43.63503187626491 13.7224
43.659202151562134 13.6623
43.68318707902681 13.6795
43.70717401884041 13.6526
43.731162972560874 13.5872
43.75534137913236 13.5429
43.779334381108384 13.5251
43.803329401683186 13.5212
43.82732644241872 13.5173
43.8515130055166 13.4888
43.87551410707659 13.4617
43.89951723350145 13.5154
43.923709934595614 13.4183
43.94771713129917 13.4251
43.97172635758096 13.4056
43.99573761501002 13.3781
44.0199385169922 13.3466
44.04395385732619 13.3196
44.067971233533086 13.294
44.09199064718605 13.2653
44.11619977548961 13.2372
44.14022328470671 13.2315
44.16424883610785 13.2476
44.18827643127035 13.2144
44.21249381139513 13.2071
44.236525514814076 13.1353
44.26055926674478 13.1065
44.28459506876863 13.1318
44.3088207262813 13.0877
44.33286064928722 13.0295
44.35690262714919 13.0135
44.38094666145278 13.0026
44.4051806219871 13.0124
44.42922879003185 12.9935
44.45327901929361 12.9615
44.477331311362136 12.8706
44.501573600619416 12.8333
44.525630039221795 12.8054
44.54968854541895 12.8275
44.573937102200176 12.8451
44.5979997645541 12.7981
44.622064499300315 12.7496
44.64613130803592 12.7437
44.67038823869318 12.7847
44.69445921643748 12.686
44.718532272981385 12.6708
44.742607409926194 12.6835
44.76687274034801 12.6185
44.79095205918753 12.5767
44.81503346325094 12.5823
44.839116954143876 12.605
44.86339071028742 12.5636
44.88747839599524 12.5106
44.91156817336837 12.5372
44.93566004401666 12.5103
44.959942251908146 12.4726
44.984038330325966 12.4171
45.00813650686762 12.4033
45.03223678314731 12.3683
45.05652746888232 12.3751
45.08063196592069 12.3587
45.104738567558705 12.3469
45.128847275414856 12.3
45.15314646515866 12.2377
45.17725940679741 12.2453
45.20137445952892 12.1905
45.22568004865265 12.1976
45.24979934496396 12.1889
45.27392075725247 12.1816
45.29804428714431 12.1521
45.322358426247604 12.1683
45.346486212804315 12.1452
45.370616121861914 12.1261
45.39474815505086 12.0775
45.41907087049246 12.02
45.4432071734666 11.9816
45.46734560548283 12.0306
45.49148616817604 12.0128
45.51581748638564 11.9845
45.5399623320197 11.9605
45.56410931325473 11.9104
45.58825843173002 11.9225
45.61259837920865 11.8697
45.636751793816 11.8734
45.66090735060093 11.8362
45.68506505120716 11.8319
45.7094136545275 11.7895
45.73357566449271 11.7012
45.75773982322992 11.7723
45.78190613238733 11.7407
45.806263418194064 11.6936
45.83043404997326 11.7325
45.85460683713677 11.6908
45.87897065658495 11.6852
45.90314777634752 11.6583
45.92732705646868 11.5841
45.9515084986045 11.5796
45.97588104735473 11.5931
46.00006683541565 11.5211
46.02425479047904 11.517999999999999
46.04844491420549 11.4779
46.0728262191024 11.4817
46.09702070211635 11.4952
46.12121735879483 11.4301
46.14541619080294 11.404000000000002
46.169806278764455 11.4191
46.194009483459034 11.3938
46.21821486849841 11.3621
46.24242243555223 11.3429
46.266821333570014 11.2968
46.29103328674601 11.2701
46.31524742696538 11.3075
46.33946375590237 11.2895
46.36387149104216 11.2553
46.38809221957392 11.1902
46.41231514186606 11.1847
46.436540259597464 11.1949
46.460956858999374 11.1388
46.48518638983522 11.1772
46.509418121166966 11.1048
46.533652054678114 11.0975
46.55807754555709 11.0622
46.58231590571962 11.0919
46.60655647313217 11.0772
46.630988654873654 11.0119
46.655233659129024 11.0343
46.67948087571551 11.0002
46.70373030632484 10.977
46.72817142736393 10.9665
46.752425308428684 10.9107
46.77668140861147 10.9001
46.80093972960865 10.8606
46.82538981736788 10.8823
46.849652602470904 10.7944
46.87391761349769 10.7595
46.8981848521493 10.7915
46.9226439341274 10.7641
46.946915650573224 10.7646
46.97118959976749 10.7316
46.99546578341598 10.6566
47.019933887188216 10.7218
47.04421456235744 10.6689
47.06849747711879 10.6487
47.09278263318286 10.6572
47.11725978640143 10.6295
47.14154944775105 10.597999999999999
47.165841355555656 10.5928
47.1901355115306 10.5721
47.214621741924994 10.5327
47.23892041698887 10.5582
47.26322134538975 10.4958
47.28771440635075 10.474
47.31201986422527 10.4832
47.33632758061436 10.4212
47.360637557241866 10.4081
47.38513974410611 10.4731
47.40945426407847 10.3973
47.43377104948137 10.3407
47.45809010204344 10.3575
47.48260144275502 10.3231
47.506925052572285 10.3092
47.53125093475548 10.2671
47.55557909103813 10.245999999999999
47.58009961361992 10.2106
47.60443234110732 10.2326
47.62876734791564 10.2067
47.65310463578333 10.1859
47.6776343683373 10.1812
47.7019762413987 10.1317
47.72632040075572 10.1503
47.75066684815169 10.1516
47.77520581885936 10.0773
47.799556865477655 10.0878
47.823910205386 10.0647
47.84826584033272 10.0684
47.87281407745551 9.98349
47.89717432569297 10.0101
47.92153687423484 10.0038
47.94609208429692 9.98367
47.97045925671401 9.97057
47.99482873471275 9.93427
48.01920052005013 9.93447
48.04376504619224 9.89578
48.068141469543484 9.89816
48.09252020552573 9.86575
48.11690125590099 9.83531
48.1414751266064 9.83105
48.16586082917454 9.81227
48.19024885144316 9.82472
48.2146391951793 9.792910000000001
48.239222439012764 9.76714
48.26361744916137 9.73439
48.28801478610016 9.73926
48.31241445160131 9.73896
48.337007097209366 9.67268
48.36141144338331 9.675130000000001
48.38581812345755 9.661660000000001
48.41022713920929 9.689869999999999
48.434829215320704 9.639510000000001
48.45924292604658 9.62519
48.48365897780325 9.62835
48.50807737237308 9.53786
48.532688907799276 9.55188
48.55711201168574 9.51018
48.581537463754074 9.47594
48.60615611725119 9.52196
48.63058628942721 9.48916
48.65501881516546 9.4984
48.6794536962573 9.43185
48.70408185970339 9.45055
48.72852147531801 9.39886
48.75296345168211 9.40528
48.77740779059232 9.38158
48.80204549302823 9.36572
48.82649458091802 9.344430000000001
48.85094603676547 9.30425
48.87539986237231 9.288889999999999
48.90004713292306 9.28173
48.92450572200832 9.26843
48.94896668628025 9.22253
48.97343002754588 9.22985
48.99808689542115 9.22839
49.02255501470614 9.23128
49.04702551642794 9.168460000000001
49.0714984023988 9.17112
49.096164896893235 9.14643
49.120642575466796 9.13442
49.145122643748394 9.1031
49.16960510355558 9.102310000000001
49.19428125404938 9.062489999999999
49.2187685210852 9.06523
49.243258185121555 9.06842
49.26794160167084 9.008
49.2924360839405 9.01825
49.31693296869764 8.99103
49.34143225776915 8.96707
49.36612538195438 8.955630000000001
49.39062950396021 8.963519999999999
49.41513603578346 8.92418
49.4396449792564 8.92036
49.46434784069503 8.9133
49.488861631846454 8.86518
49.513377840166804 8.84684
49.537896467493745 8.80021
49.56260909589029 8.773710000000001
49.587132585683285 8.81092
49.611658500018365 8.81942
49.636186840738596 8.80115
49.66090926588511 8.76253
49.685442483902584 8.7158
49.70997813385706 8.7019
49.734516217597076 8.65238
49.75924846937352 8.66522
49.7837914452858 8.64827
49.80833686055187 8.66295
49.83288471702571 8.62133
49.85762682540054 8.60997
49.882179588965734 8.56473
49.9067347993235 8.5571
49.93129245833333 8.56559
49.95604445336378 8.53687
49.98060703442832 8.51065
50.005172069746266 8.52619
50.02993150438364 8.5267
50.05450147301533 8.52463
50.07907390151433 8.47425
50.10364879174981 8.44576
50.12841816587289 8.45359
50.1529980044635 8.40179
50.17758031042124 8.4118
50.20216508562089 8.42816
50.22694442953363 8.37278
50.25153416817468 8.35689
50.27612638170508 8.35918
50.300721072005196 8.29209
50.325510416102105 8.34066
50.350110084975064 8.309989999999999
50.37471223628208 8.301639999999999
50.39931687190919 8.26039
50.424116246675766 8.22744
50.44872587605249 8.23485
50.47333799543065 8.24371
50.49795260670191 8.189630000000001
50.52276204271512 8.16876
50.54738166295838 8.16076
50.57200378079314 8.18821
50.596628398116835 8.11473
50.62144792604559 8.10644
50.646077567609396 8.0941
50.670709714377715 8.08414
50.69553683636198 8.07643
50.72017401885922 8.06377
50.7448137122895 8.02232
50.76945591856022 8.01844
50.79429318636823 8.00513
50.818940443716784 8.02737
50.84359021965163 7.99823
50.868242516085964 7.953310000000001
50.893089960641895 7.95175
50.917747323549435 7.9079
50.94240721271973 7.91219
50.96706963007175 7.8988
50.99192728239342 7.88121
51.01659478166073 7.88665
51.04126481489051 7.87432
51.06593738400761 7.85923
51.090805275207074 7.81836
51.11548294172845 7.79926
51.14016314993547 7.78308
51.164845901758845 7.777089999999999
51.18972406304274 7.7504
51.21441192780656 7.728160000000001
51.23910234200271 7.731739999999999
51.2637953075678 7.72174
51.288683770237945 7.65543
51.31338186432707 7.64031
51.33808251561888 7.67157
51.362978729967345 7.62467
51.387684521509755 7.63737
51.41239287610203 7.61463
51.437103795691165 7.613460000000001
51.46201036644977 7.56681
51.486726441956634 7.5380199999999995
51.51144508832545 7.5315199999999995
51.536166307509156 7.53995
51.56108326624387 7.5391
51.58580965706056 7.490480000000001
51.61053862657523 7.48335
51.635270176746864 7.45228
51.66019755512065 7.4842
51.68493429268881 7.4279
51.70967361681515 7.43383
51.73441552946465 7.42725
51.759353359237934 7.42205
51.7841004750961 7.42855
51.80885018539685 7.346369999999999
51.833602492111254 7.3193399999999995
51.8585508051424 7.3399600000000005
51.883308330926425 7.334339999999999
51.90806845906181 7.31728
51.932831191525715 7.2728399999999995
51.95779001977161 7.263319999999999
51.98255798721516 7.23935
52.00732856494335 7.229989999999999
52.03229530577543 7.23475
52.057071130455945 7.2259
52.081849571391054 7.195530000000001
52.106630630568695 7.23655
52.13160794279417 7.17695
52.15639426492067 7.176310000000001
52.18118321127822 7.12723
52.205974783860896 7.13483
52.23096269971011 7.10907
52.255759551287994 7.082389999999999
52.280559035098186 7.08378
52.30536115314103 7.08185
52.33035970494467 7.03844
52.35516711807904 7.06762
52.37997717147198 7.01207
52.40478986713005 7.03954
52.42979908731974 7.011360000000001
52.454617094216 6.962160000000001
52.47943774942214 6.93858
52.50426105495102 6.93681
52.529280976059844 6.9272
52.554109609024096 6.89567
52.57894089837482 6.9117
52.60377484613117 6.8670800000000005
52.62880550079408 6.85654
52.65364479223379 6.878360000000001
52.67848674816189 6.86199
52.70352547971946 6.84595
52.72837279155837 6.82845
52.753222773982785 6.79745
52.778075429022984 6.8181199999999995
52.80312495150885 6.806769999999999
52.827982978797436 6.77272
52.85284368481815 6.728610000000001
52.87770707160767 6.74521
52.90276741793998 6.734439999999999
52.92763619336701 6.69955
52.952507655698504 6.7148
52.977381806977576 6.69942
53.00245301017842 6.66189
53.02733256653592 6.66178
53.052214817996074 6.64723
53.077099766608484 6.60717
53.102181859804446 6.62692
53.127072229988265 6.63121
53.15196530349892 6.555210000000001
53.17686108239249 6.54953
53.20195409881522 6.603739999999999
53.22685531582556 6.58137
53.25175924441303 6.4842699999999995
53.27666588664027 6.565589999999999
53.30176985962693 6.5061
53.3266819565689 6.48719
53.35159677336455 6.44534
53.376514312083096 6.45349
53.40162927507703 6.47092
53.42655228516116 6.4375800000000005
53.45147802340193 6.42531
53.47660125628886 6.41819
53.50153247842639 6.40037
53.52646643496923 6.3857800000000005
53.55140312799818 6.33919
53.576537409691696 6.34682
53.60147960336152 6.31741
53.626424539786164 6.32754
53.65137222105307 6.29113
53.67651758529126 6.30561
53.70147078399681 6.262230000000001
53.72642673383343 6.28429
53.75138543689533 6.21577
53.776541917524526 6.26624
53.801506154876755 6.21504
53.826473151763246 6.1907
53.851442910284916 6.195209999999999
53.87661054126026 6.19855
53.9015858509782 6.14609
53.92656392866066 6.16153
53.95154477641532 6.1557699999999995
53.976723591801296 6.10586
54.00171000771266 6.06764
54.02669920004598 6.1060300000000005
54.051691170915745 6.0876
54.076881204886796 6.07956
54.101878760928514 6.06925
54.12687910187696 6.03949
54.152077577768296 6.08334
54.1770835166946 6.032030000000001
54.20209224691339 6.07644
54.22710377055121 6.010730000000001
54.25231352511594 6.01278
54.27733066384342 5.95254
54.30235060239643 5.93353
54.32737334290836 5.94325
54.35259441062629 5.87087
54.377622783395324 5.891780000000001
54.40265396455061 5.88892
54.42768795623251 5.86969
54.45292037169559 5.85036
54.477960012857906 5.8425
54.50300247099511 5.80727
54.52804774825457 5.79937
54.55329154616743 5.69716
54.57834249018678 5.70515
54.6033962597977 5.7051099999999995
54.6284528571545 5.72192
54.653708072335164 5.7021
54.67877035378786 5.6950199999999995
54.70383546947698 5.63105
54.72890342156389 5.63959
54.7541700889442 5.64876
54.77924374251975 5.62029
54.8043202390049 5.535769999999999
54.82959552413022 5.5292699999999995
54.8546777351945 5.538930000000001
54.87976279569621 5.4739
54.90485070780914 5.51045
54.930137506558005 5.46315
54.95523115074295 5.460369999999999
54.98032765308844 5.4407
55.005427015775496 5.44302
55.03072536339621 5.45449
55.05583047570572 5.39147
55.080938454927676 5.37217
55.10604930325027 5.32995
55.131359235107396 5.30553
55.15647585066083 5.27759
55.181595341907496 5.31404
55.20671771104285 5.26085
55.232039262617704 5.27035
55.25716741665048 5.233619999999999
55.28229845518636 5.17326
55.30743238042802 5.13706
55.33276558731939 5.14462
55.357905315183636 5.12449
55.383047936390035 5.1001199999999995
55.40819345314859 5.05242
55.433538351073295 5.0323199999999995
55.458689688238415 5.03103
55.483843927614096 5.00333
55.509197623043605 4.97098
55.53435769621134 4.9669099999999995
55.55952067826466 4.9377699999999995
55.5846865714265 4.95564
55.61005202069737 4.83465
55.63522376553902 4.8758
55.66039842818645 4.8030800000000005
55.68557601087004 4.82359
55.7109532500271 4.77485
55.73613670233794 4.85349
