TT I
1.2716486653135266 32.6375
1.2939594142134223 33.0718
1.3162702121660406 32.275999999999996
1.3385810600174564 31.671
1.3608919586137629 30.8511
1.383202908801069 29.3052
1.405513911425503 27.0859
1.4278249673332093 27.8857
1.4501343378461518 27.673000000000002
1.4724455028545926 26.9865
1.4947567236847858 27.1238
1.517068001182951 27.3862
1.5393793361953272 26.4689
1.5616907295681737 25.2948
1.5840021821477681 25.1301
1.60631369478041 25.0265
1.6286252683124185 24.4018
1.6509369035901333 23.991999999999997
1.6732468618895553 23.5863
1.695558623192809 22.8784
1.7178704487808514 23.4897
1.7401823395001077 22.467
1.7625012545597203 23.0437
1.7848028405262486 22.4023
1.8071218901122095 21.6401
1.8294236121921872 21.4776
1.8517427996910911 22.323
1.8740620574440425 22.0022
1.8963639900671978 22.3938
1.9186833908139995 22.3518
1.9409854680117449 22.537
1.9633050151394713 22.4309
1.9856246367570705 22.1484
2.0079269371922672 22.1718
2.03024671027244 22.5777
2.0525491637446027 22.2078
2.074869091674931 22.4954
2.097171701569106 22.3996
2.1194917877373847 23.3477
2.141811954326636 23.6891
2.164114805233074 23.7315
2.186435135143035 24.1279
2.208738150935709 24.8115
2.231058647554722 24.7885
2.2533792288321184 24.4222
2.275682498336085 25.0407
2.298003251406138 25.4698
2.3203066942619714 24.6498
2.3426276225136022 24.5587
2.3649486396617507 23.5047
2.387252348930071 23.4542
2.4095735463442893 22.7716
2.4318774374315884 23.4612
2.4541988185014043 23.5234
2.476502894794693 23.6298
2.498824462909887 23.8161
2.521146125856138 23.7779
2.5434504863470337 24.2304
2.5657723414244717 24.0771
2.588076895590662 24.642
2.610398946189713 24.9769
2.6327210958598384 25.8064
2.6550259469304716 25.949
2.6773482972090137 26.8962
2.6996533504259 27.3768
2.7219759047039602 28.1875
2.744298562293959 28.6716
2.7666039251246595 29.7066
2.7889267918020164 30.605999999999998
2.8112323652516555 32.3672
2.833555444408179 33.9699
2.8558786311183852 35.9334
2.8781845268938557 36.7311
2.9005079311721484 39.4788
2.9228140460410397 41.7107
2.9451376712799635 45.0172
2.967444008632326 47.323
2.9897678582247247 51.0885
3.0120918213106695 55.265
3.0343984987899373 58.8634
3.0567226913198637 64.0869
3.079029599759726 69.0811
3.101354025127254 74.8662
3.123678568232338 77.6058
3.145985829517914 79.7029
3.16831061055229 80.7342
3.1906181112775593 79.3554
3.212943133635653 76.9885
3.2352682779763207 71.9489
3.2575761442691227 67.2166
3.2799015350264273 61.2454
3.302209649240067 55.6572
3.3245352898092655 50.4819
3.3468436553365257 46.8285
3.369169549113219 43.455
3.3914955708171384 41.0862
3.413804319727358 38.2395
3.4361305997334863 36.5373
3.4584396084414553 35.3952
3.4807661501462652 34.5213
3.503092824025881 34.063
3.5254022288463154 33.5421
3.5477291695206588 33.7767
3.5700388426251948 34.6766
3.5923660534916446 35.4906
3.6146934007816114 37.0723
3.637003482731501 38.0467
3.6593311053109985 38.56
3.681641464033634 38.509
3.7039693653009733 37.7081
3.726297407241705 37.1948
3.7486081875460804 35.6871
3.7709365132734978 34.3843
3.793247578841633 33.3737
3.8155761917550093 31.9927
3.8378875459837216 31.6799
3.8602164494827234 31.4726
3.882545499606844 31.8583
3.9048572932539183 32.1033
3.9271866390645718 32.0355
3.9494987298666713 32.2124
3.971828374764527 32.4461
3.9941581705403255 32.7869
4.016470713506008 33.8643
4.038800813471445 34.7833
4.061113662089144 36.2055
4.0834440696459176 37.7098
4.105774632334751 39.0947
4.128087945865126 41.6114
4.150418821249301 44.3169
4.172732448931298 48.6307
4.195063640413578 53.9689
4.2173775856475215 60.1354
4.239709096631102 66.2836
4.262040768704612 72.4109
4.284355196706267 77.1327
4.306687193387355 78.4704
4.329001947444346 77.2014
4.35133427213731 72.205
4.373666762177566 66.3096
4.395982011761091 61.4461
4.418314834921175 57.2316
4.44063041906622 55.5091
4.4629635787515625 54.3213
4.4852969080429785 53.2491
4.5076130004776225 51.2625
4.529946671403969 49.1546
4.552263106909177 47.4543
4.574597122877047 46.413000000000004
4.596931312711224 45.7605
4.619248269273446 44.9945
4.6415828092605835 44.2729
4.663900117405352 44.4297
4.686235010953232 44.7086
4.708552674085913 45.1535
4.730887924602802 46.0632
4.753223354952695 46.9357
4.775541557023902 47.2617
4.797877349456786 48.8496
4.820195915032126 50.8488
4.842532072957498 52.5465
4.864868414979744 54.5629
4.88718753227192 57.1253
4.909524244902505 59.7896
4.931843734218147 63.2555
4.954180820867835 67.387
4.976518095879839 72.2634
4.998838149695359 78.7042
5.021175803844231 89.2774
5.043496238205739 101.501
5.065834274903528 113.90700000000001
5.088172504230693 126.169
5.1104935158799565 140.917
5.132832132875765 162.445
5.155153533596801 190.729
5.1774925416746225 231.05900000000003
5.199814334878411 299.158
5.2221537374521505 430.36699999999996
5.244493338631803 636.946
5.266815727034316 906.762
5.289155727832427 1339.24
5.311478517248165 2267.73
5.333818921080011 3521.62
5.356159527788849 4330.75
5.3784829252032536 3494.07
5.400823940070432 2067.01
5.423147747031976 999.43
5.445489173474152 523.624
5.467830807066149 341.24199999999996
5.490155234831516 257.308
5.512497285125229 206.34900000000002
5.534822130975162 176.465
5.557164601388673 154.386
5.579489868738879 136.776
5.601832762690846 126.09100000000001
5.6241758697774475 118.265
5.646501775867269 113.26799999999999
5.668845311622074 109.685
5.691171647754637 107.179
5.713515615597765 104.353
5.735859800852677 101.289
5.758186788542988 98.5885
5.780531411018185 97.1132
5.802858837297399 97.1062
5.825203900414495 98.0105
5.8475491852224 100.195
5.869877275883075 103.573
5.892223006467101 109.199
5.914551544266608 114.765
5.936897724049891 123.508
5.959244129804903 135.102
5.981573344815301 153.68200000000002
6.0039202049061 183.295
6.026249875609095 230.907
6.04859719346037 297.562
6.070927323278297 386.235
6.093275102315365 506.10699999999997
6.115623113320588 655.2330000000001
6.137953938319995 906.993
6.160302415650845 1218.52
6.182633708324452 1273.29
6.2049826554078376 1028.96
6.227331838745022 662.38
6.249663839443684 410.024
6.27201349767565 275.567
6.294345974611799 201.946
6.316696111167083 152.586
6.339046488263839 122.589
6.361379686074702 103.79299999999999
6.383730546639482 91.0256
6.406064229255215 80.7521
6.428415576718203 74.5344
6.450749747566656 69.571
6.47310158535871 64.9107
6.495453669698332 61.4348
6.517788579421056 58.903
6.540141159237969 56.7261
6.562476565766648 55.1437
6.5848296444934045 54.2098
6.607182974060425 53.376000000000005
6.6295191323281015 53.6065
6.651872965955752 54.0566
6.6742096296068985 54.5415
6.6965639707294615 55.255
6.71891856698715 55.7216
6.741255995248479 55.7226
6.763611104154477 54.9618
6.785949046381137 53.4355
6.808304671371482 51.5748
6.8306605557940046 50.1383
6.852999275508618 48.038999999999994
6.875355681171544 46.7898
6.897694923437771 45.7908
6.92005185377892 44.6083
6.9423916220322655 43.5675
6.964749080490181 42.0776
6.987106804399774 41.6962
7.009447368180821 41.4005
7.031805625367033 41.494
7.054146723727803 41.6778
7.076505517631004 41.845
7.098864581288365 42.0578
7.121206488070854 42.4834
7.143566093607822 43.5744
7.165908543567245 44.8116
7.188268694426048 46.4821
7.2106291193438095 48.146
7.232972390625943 51.1682
7.255333366030969 54.6068
7.277677189091925 59.9655
7.300038718428332 65.8342
7.322400526130865 68.6644
7.344745183422596 69.1008
7.367107550224791 65.4454
7.389452767901992 60.5379
7.411815697249891 56.0432
7.434161478756298 51.412
7.456524974096713 48.8198
7.478888753837185 47.6789
7.501235387657368 49.0586
7.523599738562711 53.8837
7.545946944825532 70.8926
7.568311870344528 108.241
7.5906770845765665 152.752
7.613025156078678 152.108
7.635390950099687 107.109
7.657739602662809 68.1299
7.680105979923558 49.8987
7.702472650212829 43.6874
7.724822180948224 41.192
7.747189439655568 39.7192
7.769539560075357 38.8147
7.791907410653562 38.527
7.81425812420825 37.953
7.836626570110925 37.7602
7.858995315087906 37.8442
7.881346924933401 37.5005
7.903716270417482 37.8247
7.926068482028405 37.5907
7.948438431475253 37.7928
7.9708086843180235 37.8407
7.993161805171116 38.4134
8.015532667162402 38.3951
8.037886398416653 39.1037
8.060257873014221 39.5025
8.082629655331942 39.9053
8.104984308787587 40.2514
8.127356708900503 41.2794
8.149711981398308 41.9036
8.172085002766314 42.3304
8.194458336181368 43.4347
8.216814543847752 44.1239
8.23918850371002 44.9896
8.26154533906492 45.7007
8.283919928836452 46.8938
8.306277395339652 47.4132
8.328652618483376 49.016000000000005
8.351028159736202 50.596000000000004
8.373386579575245 52.9274
8.395762759396959 54.9261
8.418121819038275 57.6834
8.440498640894003 62.2097
8.462875785192262 67.0726
8.485235811156207 73.3461
8.507613602688501 82.1294
8.529974277114228 95.7361
8.552352719347912 114.50299999999999
8.574731488360351 142.751
8.59709314210385 176.77599999999998
8.619472567021075 205.623
8.64183487789147 238.773
8.664214962183097 310.70599999999996
8.686577933647762 451.337
8.708958680784317 645.659
8.731339760774953 789.308
8.753703729764451 751.063
8.77608547780821 546.3919999999999
8.798450116065078 354.148
8.820832535634787 228.571
8.843215292401656 159.055
8.865580941199045 122.53299999999999
8.887964374703538 102.51100000000001
8.910330701447199 90.7325
8.932714815164482 82.8785
8.955099270424924 77.0693
8.977466620733543 73.4556
8.999851761421976 70.21600000000001
9.022219798361645 66.975
9.04460562795561 64.9979
9.066991803441677 63.4564
9.089360876979615 62.1404
9.111747746589993 61.1493
9.13411751544971 60.8599
9.156505082664324 61.4044
9.178875550323522 62.4163
9.20126381862328 65.5334
9.223652438908596 72.1515
9.246023961427412 93.3345
9.26841328802173 149.13
9.290785518039224 227.512
9.313175554425882 267.947
9.335565947154315 215.403
9.357939245086508 135.39700000000002
9.380330352834827 88.34
9.40270436697103 69.0387
9.425096193225055 60.9373
9.447488380180165 58.461999999999996
9.469863475295412 56.6085
9.492256385987508 54.9376
9.514632206018318 54.2515
9.537025843935714 53.6642
9.559402392368193 53.5027
9.581796761000229 53.5584
9.604191496441521 53.8339
9.626569144158516 54.1216
9.648964615551032 54.6273
9.671343000390081 55.2082
9.693739211225699 55.8887
9.716135793237463 56.5449
9.738515290448102 56.5612
9.760912617143402 57.3284
9.783292860202891 58.3491
9.805690935076182 59.4585
9.828089385495742 60.2201
9.850470754023561 62.4099
9.872869957865444 64.5495
9.89525208097539 67.0806
9.917652041736662 69.9192
9.940052382417589 73.4451
9.962435644102392 78.3676
9.984836746950979 84.4811
10.007220771957746 93.3742
10.029622640473708 108.648
10.052007432299963 131.832
10.074410069984072 155.312
10.096813093716005 178.36599999999999
10.119199042482517 197.30599999999998
10.141602840636468 223.61900000000003
10.163989564971628 279.63
10.186394141051062 399.223
10.208799107559706 577.889
10.231187001965623 747.329
10.253592751657669 795.4119999999999
10.275981430388155 652.34
10.298387966769793 444.917
10.320794897965431 295.019
10.343184759907361 200.895
10.36559248305461 147.563
10.387983138083852 118.12
10.410391656691655 101.70200000000001
10.432800574501677 91.5113
10.455192425893369 85.5404
10.47760214443012 84.3712
10.499994797678786 85.8346
10.522405320453982 89.5051
10.54479877906917 93.6223
10.567210109595656 95.4006
10.5896218454736 98.2731
10.612016518879773 109.666
10.634429067781074 134.795
10.656824555333241 179.704
10.679237920773568 239.063
10.701651695961992 282.651
10.724048411481384 279.051
10.746463008485165 236.82
10.768860546937125 179.18599999999998
10.791275969274796 122.65
10.81369180576079 86.8627
10.836090585366925 68.4359
10.858507252467449 59.541000000000004
10.88090686379991 54.9073
10.903324365036394 52.1645
10.925724811614439 49.8248
10.948143150509463 48.607
10.970561909719066 47.315
10.992963615930844 46.2904
11.015383218085756 45.8674
11.037785768347074 44.9419
11.06020621697282 44.5236
11.082627090322113 44.0038
11.105030913430326 43.8695
11.12745263854165 43.4911
11.149857314510728 43.0398
11.172279894912576 43.5974
11.194702904450653 43.2933
11.217108866490921 43.0216
11.239532736615194 43.0211
11.26193956033512 42.9064
11.284364294577085 42.7006
11.306789462371718 41.7671
11.329197585398376 41.2213
11.351623622610898 40.9386
11.37403261614354 40.204
11.396459526308487 39.8112
11.418869393879497 39.3683
11.441297180532617 39.1671
11.463725406927658 38.811
11.486136592353875 38.4446
11.508565700543707 38.5717
11.530977768845315 38.4523
11.553407762368774 38.4093
11.575838200059769 38.6385
11.598251599479612 38.6451
11.620682927815501 38.4535
11.64309721895548 38.3869
11.665529441478206 38.1801
11.687962112597958 37.7907
11.710377748130886 37.5665
11.732811318753434 37.5091
11.755227854859067 37.5602
11.777662328529495 37.5002
11.800079768750786 37.6288
11.822515149015453 37.7711
11.844950984084935 38.2487
11.867369787303163 38.5421
11.889806534289491 39.133
11.912226250487029 40.7753
11.934663912939751 43.4018
11.9571020346363 49.3638
11.979523127133968 63.3749
12.001962169624331 82.2788
12.024384183972964 94.0374
12.046824150809913 90.1251
12.069264581333726 72.3786
12.091687985297767 57.0834
12.11412934550045 49.4735
12.136553680195208 47.3072
12.158995973632788 48.1173
12.181438735204349 48.6765
12.20386447284199 49.5468
12.226308172985636 51.0722
12.24873485024193 54.2497
12.271179492516982 59.0181
12.293607112949127 66.4364
12.316052700916226 76.9888
12.338498763250042 89.4124
12.360927805303868 95.1822
12.383374818673879 92.2137
12.405804812803074 81.5761
12.428252780773262 68.8833
12.45070122756722 59.0303
12.473132656675375 52.6123
12.49558206341869 48.3357
12.518014453510101 45.4779
12.540464823770117 43.6814
12.562915677315177 42.5336
12.58534951575545 41.8626
12.607801338171472 41.3802
12.630236146511358 41.2274
12.652688941369085 41.2561
12.675124723177234 41.6836
12.697578494048786 42.0608
12.720032754458185 41.9734
12.742470003354093 41.5243
12.764925245138771 41.3882
12.787363476431278 41.0437
12.809819703166806 40.3284
12.83227642391173 40.2221
12.854716135692716 40.0978
12.877173846755147 40.2516
12.899614549869717 40.2641
12.9220732548287 40.6323
12.94453245827299 40.4621
12.966974655289818 40.8221
12.989434858002571 41.2189
13.011878055298721 41.6149
13.034339260862497 42.1296
13.056800969391883 42.8117
13.079245674017244 44.1054
13.101708390774869 45.4543
13.12415410463411 49.3081
13.146617833206086 55.3835
13.169064559883248 60.5
13.191529303857127 63.36600000000001
13.213994557076367 64.1187
13.236442809902437 64.8207
13.258909083908291 67.521
13.28135835851934 69.7987
13.30382565690295 72.0131
13.326293469022952 74.5043
13.348744283242008 79.8386
13.371213125129904 89.9633
13.39366497011003 107.042
13.416134845360597 133.45600000000002
13.438605238843131 170.28400000000002
13.46105863690397 204.46599999999998
13.483530069144786 217.547
13.505984506951902 199.94
13.528456981549432 163.894
13.550929978879088 129.57299999999998
13.573385983253365 107.647
13.595860028340867 94.8172
13.618317081455832 87.7924
13.64079217790333 83.7263
13.663250283359057 81.0639
13.685726434770173 80.6836
13.708203115221277 85.24700000000001
13.730662806148091 95.4376
13.75314054697177 112.779
13.775601299246777 141.72
13.798080104050406 177.797
13.820559442405358 201.82299999999998
13.843021793671388 197.00599999999997
13.865502201420897 166.35299999999998
13.887965623051947 126.846
13.910447103807167 95.3117
13.932929122629764 75.9369
13.955394156785959 65.1667
13.977877254034569 58.0206
14.000343367582113 53.5658
14.022827546871707 50.9035
14.045294743423524 48.6933
14.06778000837062 47.3524
14.090265817715476 46.8897
14.112734645763819 46.8769
14.13522154619454 47.6898
14.157691466286913 51.343
14.180179461423874 60.3093
14.202668005486178 74.2631
14.22513957064374 85.8136
14.247629214846473 89.4108
14.270101881097517 78.786
14.29259262906496 63.193000000000005
14.315083930490205 52.288000000000004
14.337558255389705 46.5302
14.360050666019726 43.8238
14.382526101071944 42.1675
14.405019624534942 41.3567
14.427513705993134 40.7777
14.449990813291825 40.4465
14.47248601302899 39.9249
14.49496423954951 39.8726
14.517460561197822 39.6988
14.539939910570322 39.2754
14.562437357763558 39.1042
14.58493536931253 39.198
14.607416409993311 39.0984
14.62991555254159 39.2045
14.652397725157423 39.4878
14.674898002342799 39.5111
14.697398848433282 39.6873
14.719882725991326 40.1364
14.74238471217934 40.1032
14.764869730765593 40.4452
14.787372860692983 40.6009
14.809876564079925 41.2782
14.83236330125751 42.4099
14.854868153850365 43.6031
14.877356041159485 45.4981
14.899862046604186 47.9538
14.922351087688757 49.5504
14.944858249632887 50.5097
14.967365991421232 51.1129
14.989856770231246 52.2896
15.012365673994204 54.7901
15.03485761569738 59.1048
15.05736768508665 65.8482
15.07987833888692 76.0568
15.102372032001655 91.8171
15.124883856909658 108.992
15.14737872204565 121.882
15.169891721717274 121.48100000000001
15.192405310371893 110.575
15.214901940621196 93.0817
15.237416709527137 76.0472
15.259914520936249 64.2172
15.282430473753607 56.0967
15.304947020131227 50.6994
15.327446610371178 47.2146
15.349964346154254 44.9673
15.372465126703139 43.6479
15.394984055556009 42.3438
15.417486030076159 41.6039
15.44000615566487 40.9077
15.462526881230803 40.4702
15.485030653812652 40.3418
15.507552581617434 39.9076
15.530057557334603 39.7571
15.55258069104857 39.5418
15.575104429329837 39.7202
15.597611216864632 39.3935
15.620136166564563 39.3236
15.6426441664095 39.4839
15.665170331202765 39.4339
15.687697105158826 39.6199
15.710206930593545 40.1642
15.732734925158933 40.7304
15.755245972089478 41.6919
15.77777519094324 43.1167
15.800287463046663 45.1014
15.822817909869592 46.8433
15.84534897229804 47.6448
15.867863089299354 48.6099
15.890395385222186 49.3684
15.912910736597423 50.2793
15.935444269699861 53.0084
15.957978423016485 57.7438
15.980495633101265 63.9976
16.003031029129367 74.2801
16.02554948280019 88.9855
16.048086125229432 105.691
16.070623392487107 117.333
16.09314371869582 119.51100000000001
16.11568223789321 112.051
16.13820381691126 98.8709
16.160743591742527 84.9244
16.183283996022084 71.9823
16.205807461423195 60.406000000000006
16.228349126881973 51.5782
16.25087385432698 46.3338
16.27341678466365 42.97
16.29594277784926 40.653
16.31848697676433 39.1294
16.341031811604868 37.7671
16.36355971058487 37.1611
16.3861058195587 36.7466
16.40863499352978 35.9764
16.431182380342005 35.635
16.453730407713202 35.3416
16.476261501364792 34.681999999999995
16.498810812136167 34.2211
16.52134319004079 34.0548
16.54389378792203 33.8273
16.566445031001553 33.4882
16.588979342490088 33.4093
16.61153187824822 33.2409
16.634067483263312 32.9951
16.656621315414416 32.8931
16.679175797408888 32.7319
16.701713349928728 32.683
16.72426913389191 32.5749
16.74680798922351 32.6327
16.76936507887444 32.5941
16.791905240734874 32.6611
16.814463639794468 32.7338
16.837022695210294 32.7417
16.859564824093756 32.7031
16.882125194503903 32.9436
16.904668639217885 33.152
16.927230328348003 33.4825
16.949792678493612 34.4845
16.972338104193863 35.9125
16.994901778652235 38.183
17.017448529496576 39.961
17.040013531998152 40.8737
17.06257920018044 39.8654
17.0851279459922 37.7351
17.107694947817667 35.8077
17.130245028099072 34.6123
17.15281336730298 34.21
17.17536478578733 34.1827
17.19793446610687 34.2272
17.220504818648422 34.6005
17.243058251703697 34.8522
17.265629950971032 35.018
17.288184731571736 35.1482
17.310757781306908 35.4717
17.33333150794385 35.5128
17.355888317140174 35.7481
17.37846339986244 36.7631
17.401021565958885 38.0331
17.42359800851343 39.8923
17.44617513265564 42.4598
17.468735341390783 46.006
17.491261035594565 49.0955
17.51396340099364 50.7259
17.536490463869136 49.9902
17.559018209820174 47.1489
17.58154663977963 43.6829
17.604251766089718 40.7458
17.626781572227713 38.6449
17.64931206518155 37.1165
17.671843245885103 36.5658
17.69455114821572 36.1733
17.717083712612634 35.9388
17.739616967569667 36.0291
17.762150914021706 36.2215
17.78486160749854 36.8347
17.807396945166804 38.2002
17.829932977143503 40.0671
17.85246970436452 41.8383
17.875183204129467 42.6836
17.897721330097664 42.5588
17.920260154126645 41.388000000000005
17.942799677153296 40.3995
17.9655159983646 40.0661
17.988056927677544 40.4226
18.010598558807683 41.5623
18.033140892692916 42.4961
18.05586005052525 43.0794
18.07840379824407 43.3829
18.10094825154059 43.6947
18.12366954819864 44.3898
18.146215420998306 45.2159
18.16876200220057 47.3836
18.191309292745153 50.4945
18.214033452627167 55.2223
18.236582170236648 62.1812
18.259131600016456 71.914
18.281681742907335 83.4041
18.304408781233683 93.1526
18.32696035875955 96.2409
18.349512652227624 91.9279
18.372065662579683 82.1712
18.394795594587553 70.726
18.41735004715306 62.2509
18.43990521943684 57.3025
18.46246111238171 54.9493
18.485193953325208 55.0596
18.507751296070428 57.6768
18.530309362314178 62.1094
18.552868153000343 67.1209
18.57560391815056 70.5989
18.59816416623245 70.9009
18.620725141597372 67.7212
18.643286845190268 62.0228
18.666025549835414 56.1783
18.688588718427933 51.0988
18.711152618092243 46.9396
18.73389353884365 43.2011
18.75645890921984 40.5546
18.77902501351406 38.9168
18.801591852673102 38.1708
18.824335739722738 36.9675
18.846904057212626 36.5198
18.8694731124168 35.9954
18.89204290628315 35.756
18.914789774966803 35.4894
18.937361054791623 35.174
18.959933076131318 34.8403
18.982505839934877 34.6493
19.00525570560582 34.5253
19.027829963004184 34.3429
19.05040496572238 34.4808
19.072980714710468 34.3456
19.095733592739563 34.1659
19.11831084296757 34.1225
19.140888842324735 34.3099
19.16346759176222 34.2073
19.18622349753803 34.409
19.208803755869358 34.7015
19.231384767143577 35.0167
19.253966532312948 35.5527
19.276725481241822 35.8124
19.29930876296784 36.199
19.3218928014549 36.5389
19.34465404436217 37.5949
19.36723960516257 39.4821
19.389825925592426 42.0394
19.412413006605938 44.8443
19.43517731967805 46.9407
19.457765930683355 47.978
19.48035530514408 47.0279
19.50294544401556 45.6776
19.525712842708348 45.1186
19.54830451925909 46.0538
19.570896963095727 47.00899999999999
19.593490175174704 47.7551
19.616260674962184 46.891999999999996
19.638855432416964 44.794
19.661450960992624 42.3048
19.68404726164677 39.537
19.706820878021247 37.2623
19.729418731756834 36.0077
19.752017360452857 34.7612
19.77461676506804 34.0352
19.797393513540218 33.5605
19.819994478951667 33.1261
19.84259622316767 32.7899
19.8651987471481 32.86
19.887978643247177 32.4349
19.91058273574792 32.4381
19.933187610901943 32.5307
19.955969879466828 32.7083
19.97857632894404 33.0659
20.00118356396599 33.1936
20.023791585494575 33.0219
20.046577028914875 33.2525
20.069186632506966 33.248000000000005
20.091797025500632 33.0289
20.114408208858933 33.3515
20.137196842715273 33.7323
20.159809615886765 34.234
20.18242318232135 34.9532
20.20503754298326 35.9772
20.227829382875154 37.4265
20.250445341109344 39.3532
20.27306209647285 41.8074
20.29567964993108 44.1828
20.31847471147704 45.3901
20.34109387027612 45.4214
20.363713830075454 44.2833
20.386334591841646 42.2543
20.409132890679302 40.2447
20.431755265564437 38.8755
20.454378445325528 38.4183
20.477002430930366 38.8902
20.499803982716553 40.1056
20.522429589228004 41.718
20.54505600449589 43.0155
20.567683229489194 43.5509
20.590488049900088 42.2763
20.61311690359731 40.4911
20.63574656993626 38.1728
20.658553853717297 35.8105
20.681185154618298 34.3002
20.703817271080066 33.0952
20.72645020407368 32.2596
20.749260783967177 31.7885
20.771895359337133 31.5325
20.794530754161617 31.6554
20.817166969412938 31.8682
20.83998086114876 32.7205
20.86261872660049 33.4754
20.885257415405402 34.1661
20.90789692853701 34.2275
20.930714147864748 33.4575
20.953355319030678 32.2734
20.97599731745334 31.1948
20.99864014410749 30.3146
21.021460706796564 29.9214
21.044105199328826 29.8093
21.06675052302631 29.5728
21.089396678865015 29.6571
21.112220600704806 29.6356
21.134868430275347 29.4854
21.15751709492456 29.3996
21.180166595629693 29.4525
21.202993892429635 29.3926
21.22564507473034 29.4335
21.24829709602816 29.405
21.27112693608965 29.3501
21.293780644891275 29.5978
21.316435195634053 29.5022
21.339090589297417 29.4954
21.361923832041875 29.8858
21.384580921090404 30.1841
21.407238856007325 30.4949
21.429897637773326 31.1046
21.45273429906592 31.7437
21.475394784108598 32.2001
21.498056118951983 32.4404
21.520718304578022 32.4196
21.543558400304388 32.1106
21.566222297108816 31.6596
21.58888704765135 31.1782
21.61155265291521 30.8016
21.63439619898156 30.4984
21.657063523335786 30.124000000000002
21.67973170537063 30.0299
21.7024007460706 29.9383
21.72524775840385 30.1678
21.747918526116475 30.3588
21.770590155457388 30.6036
21.79326264741238 30.86
21.816113141960237 31.1669
21.838787368860547 31.1831
21.861462461341976 31.2764
21.884315579735777 31.3372
21.90699241312273 31.5254
21.92967011506078 31.7305
21.95234868653799 32.2069
21.9752053151131 32.8086
21.997885635446785 33.8057
22.020566828293532 34.8422
22.04324889464272 35.9166
22.066109049404666 37.5458
22.088792872571794 39.86
22.111477572219204 42.0865
22.1341631493376 44.1958
22.157026846313123 45.4785
22.179714188221507 45.5146
22.202402410582668 44.8856
22.22509151438863 43.3798
22.24795876962584 41.7201
22.270649646204486 40.6542
22.293341407213727 39.8044
22.316034053646906 39.1611
22.338904883215342 38.7043
22.36159931041458 38.5774
22.38429462602756 38.0496
22.40699083104897 37.0269
22.429865251039757 35.906
22.452563244831367 34.6334
22.47526213102522 33.5793
22.49813925616515 32.551
22.520839937143307 31.9876
22.543541513520587 31.4759
22.56624398629403 31.0303
22.589124730075895 30.804000000000002
22.611829005656723 30.7015
22.63453418063466 30.4408
22.657240256008077 30.3747
22.680124634582935 30.2965
22.70283252079775 30.2855
22.725541310413075 30.2217
22.74825100442868 30.1906
22.771139033969575 30.4133
22.79385054687155 30.4882
22.81656296718292 30.7001
22.83927629590484 31.2065
22.862167992606945 31.5823
22.88488314827121 32.0217
22.907599215359284 32.3859
22.93031619487366 32.2732
22.953211574954405 32.0897
22.975930389478226 31.9492
22.998650119445763 31.6825
23.02137076586092 31.6074
23.044269845560063 31.7403
23.06699233506288 32.1472
23.089715744034912 32.6242
23.112617610931565 33.42
23.135342869061212 34.5553
23.158069049684816 36.1025
23.1807961538087 37.9147
23.20370174880544 39.7204
23.226430710184808 40.6503
23.249160598093425 40.4841
23.271891413539002 39.2985
23.294800752937697 37.551
23.31753343374794 35.7941
23.340267045128353 34.1944
23.36300158808808 33.2772
23.38591468821339 32.6991
23.408651104658304 32.248000000000005
23.431388455719986 32.1431
23.454126742409 32.3314
23.4770436196085 32.7561
23.499783787914662 33.5287
23.522524894889884 33.7774
23.54526694154616 34.0969
23.56818761219047 34.0957
23.59093154860734 33.7319
23.613676427751283 33.321
23.636422250635754 32.8393
23.659346731118656 32.5652
23.68209445191868 32.8214
23.704843119509587 33.3251
23.72759273490623 33.8614
23.750521041644767 34.9853
23.77327256312355 36.4311
23.796025035462787 38.2003
23.818956224555475 40.1168
23.841710609113413 41.4763
23.86446594758979 41.5542
23.887222241002014 40.5566
23.910157285144578 38.3832
23.932915498962537 36.3314
23.955674670778713 34.1946
23.978434801611975 32.7489
24.001373717286125 31.5921
24.024135776723917 30.7598
24.046898798245582 30.1085
24.06966278287146 29.8371
24.092605586582614 29.5054
24.115371508023642 29.2054
24.1381383956401 29.1496
24.16090625045381 29.1142
24.183852958731244 29.051
24.206622758582608 28.8539
24.229393528706886 28.3307
24.252165270127392 28.2598
24.27511589952438 28.0683
24.297889594216997 27.693
24.32066426328598 27.5247
24.34343990775613 27.4338
24.36639447485003 27.316
24.38917208083877 27.199
24.41195066531332 27.2131
24.43490819850244 27.2459
24.457688750692377 27.086
24.48047028445616 26.9377
24.503252800821233 26.8974
24.526214300784112 26.8301
24.548998793132213 26.8966
24.57178427117417 26.7941
24.59457073593893 26.7998
24.617536219319863 26.8512
24.64032466834748 26.9235
24.663114107195035 26.8655
24.685904536893013 27.0066
24.708874020360852 27.3011
24.731666442613744 27.7026
24.754459858818787 27.9638
24.777254270007962 28.1658
24.80022777025625 28.0569
24.82302418230472 28.0112
24.845821592443674 27.7596
24.86862000170663 27.3516
24.891597535453727 26.9651
24.914397953892728 26.9988
24.93719937456671 26.7954
24.96000179851076 26.7669
24.98298338249997 26.619
25.00578782394922 26.6272
25.028593271784167 26.5541
25.05157790644186 26.5339
25.07438537804115 26.4223
25.097193859145293 26.4544
25.120003350792075 26.4623
25.142992065061257 26.5643
25.165803588823465 26.604
25.18861612625217 26.7505
25.211429678386736 26.7464
25.234422489079968 26.8964
25.257238081693636 27.1057
25.280054692141732 27.3398
25.3028723214652 27.5077
25.325869245420463 27.8504
25.348688923599397 28.1439
25.371509623787006 28.6981
25.394331347025812 29.1092
25.41733240110666 29.2346
25.440156181590016 29.5066
25.46298098826268 29.6369
25.48580682216873 29.5631
25.50881202326435 29.5209
25.53163992281684 29.4933
25.55446885274561 29.8268
25.577298814096377 30.0525
25.600308179121807 30.6309
25.623140214533745 31.0029
25.64597328451537 30.9587
25.66898578564376 30.3341
25.691820936010206 29.6836
25.714657124097695 28.8508
25.737494350954734 28.1815
25.760511045684957 27.3918
25.783350361364224 26.9841
25.806190718969255 26.8049
25.82903211955018 26.8277
25.852053024868923 26.5289
25.874896522722523 26.6708
25.897741066713106 26.6749
25.920586657892454 26.7849
25.943611790812668 26.7907
25.966459487728237 26.7859
25.989308234998564 26.533
26.01215803367705 26.4999
26.03518741123814 26.3654
26.05803932412957 26.1041
26.080892291600094 25.8953
26.10374631470478 25.695999999999998
26.12677995397268 25.7267
26.14963609978026 25.8204
26.172493304397875 25.885
26.19535156888223 25.9496
26.218389486949604 25.9089
26.241249882640123 26.0923
26.26411134137826 26.3726
26.28715248187403 26.7349
26.31001607820869 26.9441
26.3328807407756 27.2907
26.35574647063438 27.8497
26.37879191991473 27.9727
26.401659795896734 27.8961
26.424528742360263 27.9557
26.447398760366614 27.7025
26.470448535598294 27.2254
26.49332070826805 26.9565
26.516193955675355 26.8566
26.53906827888316 26.525
26.562122397260108 26.3886
26.584998883685063 26.2465
26.607876449110325 26.112
26.63075509460056 25.9799
26.65381357334404 25.9961
26.67669439061878 26.0338
26.699576291163382 26.1614
26.722459276044212 26.2385
26.745522132402975 26.2451
26.768407297649354 26.4299
26.791293550442003 26.5526
26.814180891848974 26.8165
26.837248143099337 27.2261
26.860137673466657 27.7386
26.88302829566349 28.2638
26.90592001075963 28.7757
26.92899167420566 29.2332
26.951885586870763 29.4077
26.974780595655517 29.592
26.99785558178161 29.3798
27.020752794605112 29.1567
27.043651106772522 28.9089
27.06655051935668 28.8066
27.089629948036183 28.5995
27.112531573292053 28.2855
27.135434302194138 27.9814
27.158338135817015 27.4404
27.181422024430987 27.0234
27.204328079372566 26.5274
27.22723524226965 26.1612
27.250143514198573 25.8171
27.273231880156334 25.5567
27.296142382065014 25.2677
27.319053996245536 25.156999999999996
27.341966723775965 25.2246
27.365059584515222 25.1146
27.38797455070062 25.0095
27.410890633481237 24.9738
27.433807833936918 24.8561
27.456905206923906 24.7958
27.47982465472398 24.7683
27.502745223449743 24.7043
27.525666914182825 24.7484
27.548768816912457 24.9036
27.571692763693633 24.862
27.59461783573812 24.8851
27.617723149491244 24.8392
27.640650484125285 24.8314
27.66357894728264 24.8614
27.686508540048052 24.9299
27.709618414237887 24.9508
27.732550278321757 24.9194
27.755483275279115 25.033
27.778417406196485 25.0629
27.801531858397514 25.3163
27.824468269376716 25.2866
27.847405817586786 25.4334
27.870344504116094 25.4787
27.893463551932008 25.4158
27.916404527281053 25.2205
27.93934664422563 25.1617
27.962289903855886 24.8508
27.98541356491974 24.8365
28.00835912214229 24.7755
28.03130582533231 24.8215
28.054253675581805 24.9862
28.077381967556104 25.1749
28.100332124185126 25.296
28.123283431160893 25.3208
28.146235889577238 25.581999999999997
28.169368830154156 25.6214
28.192323603752033 25.7805
28.215279532083304 25.6569
28.238415973016764 25.695999999999998
28.261374223145094 25.8344
28.284333631303806 26.1781
28.307294198589954 26.6379
28.330435319167677 26.7795
28.353398217078915 27.2693
28.376362277420153 27.3123
28.39932750129032 27.2706
28.422473319286713 27.0814
28.44544088262495 26.795
28.468409612800283 26.471
28.491379510913497 26.3386
28.51453004413313 26.0771
28.53750229057244 25.999000000000002
28.56047570826344 25.820999999999998
28.583450298308804 25.6278
28.606605564586562 25.2397
28.629582511831156 25.0654
28.65256063474956 24.771
28.675539934446338 24.5776
28.698699951647605 24.3563
28.72168161743193 23.906
28.74466446331978 23.8755
28.767648490417624 23.6621
28.790813276438353 23.5728
28.813799678527303 23.3468
28.836787265157085 23.2203
28.859955641890075 23.2351
28.882945610203045 23.1458
28.905936766392035 22.983
28.928929111566863 23.075
28.952102288520145 22.9233
28.975097024308607 22.8666
28.998092952423807 22.7809
29.021090073977508 22.8475
29.04426806913204 22.7817
29.067267590245258 22.7176
29.090268308143695 22.8472
29.11327022394099 22.9257
29.13645305530891 22.9006
29.159457379627167 23.0041
29.18246290519685 23.1331
29.20546963313352 23.2562
29.22865731875826 23.2687
29.25166646419296 23.2805
29.27467681535305 23.0041
29.29768837335608 22.955
29.320880931312562 22.8433
29.34389491580634 22.545
29.366910110507334 22.3481
29.38992651653503 22.3758
29.41312396492981 22.2767
29.436142806456754 22.198
29.45916286268059 22.08
29.48236399319994 22.0326
29.50538649169417 22.0672
29.528410208259935 22.0962
29.55143514402014 22.0317
29.574641196749695 22.0938
29.597668583816574 22.203000000000003
29.6206971934585 22.1934
29.64372702680042 22.3137
29.666938019934474 22.3463
29.689970313635285 22.5177
29.713003834422636 22.5948
29.73603858342347 22.498
29.759254535188578 22.4554
29.78229175361658 22.3579
29.80533020365064 22.3105
29.82836988641968 22.118000000000002
29.85159081507472 21.9255
29.874632976355343 21.7407
29.89767637376955 21.6008
29.920721008448314 21.5438
29.9439469322847 21.513
29.96699405457564 21.4418
29.9900424175358 21.3448
30.013092022298157 21.3301
30.03632295963995 21.2838
30.059375061131373 21.3292
30.08242840783577 21.4131
30.105483000888153 21.3651
30.128718970092244 21.3892
30.151776069006917 21.3297
30.17483441768648 21.4631
30.198074175317235 21.5094
30.221135036724256 21.5451
30.24419715131772 21.429000000000002
30.267260520236203 21.2947
30.290505341942243 21.2757
30.313571232750228 21.2245
30.336638381310948 21.2364
30.35970678876503 21.1625
30.38295669299435 21.0887
30.40602763151657 21.1735
30.429099832366074 21.2125
30.452173296685572 21.171999999999997
30.47542830191959 21.2497
30.498504306502497 21.3411
30.521581577995562 21.479
30.544660117543582 21.5119
30.56792024229725 21.4638
30.59100133132069 21.3991
30.614083691845494 21.2507
30.637167325018545 21.2202
30.660432587840603 21.1094
30.683518779717886 21.0127
30.70660624769615 21.0158
30.729694992924372 21.014
30.75296541239743 21.0506
30.77605672557558 20.9989
30.799149319462742 20.9974
30.8224236211637 21.0684
30.845518789950724 21.1266
30.868615242910597 21.1696
30.891712981195973 21.1307
30.91499247215866 21.2736
30.938092794619365 21.3747
30.96119440587579 21.491999999999997
30.984297307082752 21.7082
31.00758200598383 21.8681
31.030687500658694 21.984
31.053794288760695 22.0923
31.076902371446767 22.0339
31.100192296997445 22.0751
31.12330298246119 21.9453
31.14641496599209 21.8628
31.169528248749216 21.8246
31.19282341969534 21.6742
31.215939314557186 21.6743
31.239056512134788 21.5292
31.262175013589378 21.2783
31.28547544871168 21.1966
31.30859657161541 20.9196
31.331719001892175 20.8666
31.35484274070538 20.8183
31.378148458819545 20.7247
31.401274828443725 20.6333
31.424402510106933 20.5613
31.447712205419993 20.5617
31.470842524931633 20.5101
31.493974159989783 20.4713
31.51710711176168 20.4123
31.54042212308802 20.3668
31.563557722100917 20.4637
31.586694641341655 20.4991
31.609832881979628 20.5419
31.63315322823208 20.634
31.656294125521327 20.675
31.679436347728515 20.5593
31.70257989602529 20.6191
31.725905596152327 20.68
31.74905181052835 20.746
31.772199354521323 20.8841
31.79534822930507 20.9114
31.818679302290967 20.9904
31.84183085259981 20.9785
31.864983737233473 20.8914
31.88813795736804 20.9137
31.911474422233013 20.75
31.934631327356435 20.6095
31.9577895715215 20.4083
31.980949155906522 20.339000000000002
32.004291031706956 20.2717
32.027453310562606 20.2596
32.05061693318573 20.0695
32.07396288236386 20.1663
32.09712920658542 20.1695
32.12029687812702 20.1976
32.14346589817093 20.2337
32.166817291729984 20.2213
32.18998902288583 20.1921
32.21316210610336 20.3181
32.23633654256711 20.3704
32.259693399663725 20.3924
32.282870556771144 20.4914
32.30604907069099 20.5791
32.329228942610065 20.5137
32.35259128243769 20.471
32.375773884550505 20.3165
32.398957848235646 20.1424
32.422143174682176 20.0681
32.445511016471215 19.9884
32.468699082679954 19.9297
32.49188851523011 19.7353
32.51507931531304 19.6647
32.538452678331 19.7196
32.56164622776311 19.5289
32.58484114831493 19.4027
32.60803744118015 19.3779
32.631416344731896 19.3973
32.654615396551876 19.2727
32.67781582427913 19.2997
32.701198898634416 19.1475
32.72440209253756 19.0797
32.747606665947124 19.0011
32.77081262006088 18.92
32.79420126883317 18.9593
32.81740999876112 18.9382
32.840620112999424 18.9117
32.86383161274818 18.8063
32.88722585534586 18.7965
32.91044014056596 18.8252
32.933655814909734 18.8282
32.95687287957963 18.8709
32.98027273544904 18.8667
33.00349259526636 18.8398
33.026713849030116 18.8912
33.04993649794511 18.8514
33.073341986570746 18.762999999999998
33.09656744032826 18.7585
33.11979429286444 18.8001
33.14302254538647 18.7663
33.166433686291185 18.6387
33.18966475336992 18.649
33.212897224069096 18.5199
33.23613109959831 18.5016
33.259547912343415 18.4534
33.2827846121627 18.4461
33.306022720453775 18.4422
33.32926223842861 18.4292
33.352684742614166 18.484
33.37592709463173 18.4757
33.399170859982064 18.5228
33.422597648419426 18.6041
33.44584425514446 18.564
33.46909227885668 18.6168
33.4923417207723 18.643
33.51577423505344 18.6968
33.539026528130385 18.668
33.56228024307245 18.7193
33.585535381098246 18.6572
33.60897364093058 18.6968
33.63223163992385 18.7335
33.6554910656699 18.6148
33.678751919389796 18.585
33.702195944520106 18.5585
33.72545966903325 18.4132
33.74872482519663 18.3247
33.771991414233746 18.2712
33.79544122444841 18.0988
33.81871069412428 17.9286
33.84198160035767 17.9034
33.86525394437455 17.8971
33.88870955949969 17.8792
33.911984794020626 17.8664
33.93526147001624 17.8199
33.958539588715006 17.7626
33.98200102861669 17.7165
34.0052820477047 17.734
34.02856451319451 17.72
34.05203033759056 17.6417
34.07531571090147 17.6324
34.09860253431845 17.6484
34.121890809074316 17.5645
34.145362493118924 17.6215
34.16865368561615 17.5997
34.191946333164054 17.5576
34.21524043699793 17.5849
34.23871800066799 17.5513
34.26201503218366 17.5317
34.28531352370466 17.6079
34.30861347646881 17.496
34.33209693978188 17.4374
34.3553998301885 17.3957
34.378704185565205 17.2922
34.402010007152356 17.2078
34.42549939016683 17.2215
34.44880815937748 17.1569
34.472118398533134 17.1413
34.49543010887669 17.1298
34.51892543169198 17.0072
34.54224009966052 17.0742
34.56555624255917 17.0769
34.58887386163339 17.075
34.61237514439016 17.0663
34.6356957311114 17.0631
34.65901779775809 17.0247
34.68252356662995 17.0957
34.705848608458616 17.0493
34.72917513396849 16.9745
34.75250314440949 16.9581
34.77601490857862 16.9136
34.799345904259795 16.798
34.82267838863559 16.7821
34.846012362958525 16.7407
34.869530142679984 16.7317
34.89286711232212 16.7129
34.91620557568269 16.6577
34.93954553401677 16.617
34.9630693495876 16.5373
34.986412313340814 16.5606
35.00975677584668 16.5286
35.033102738362956 16.4499
35.05663261012228 16.4134
35.0799815881786 16.4547
35.10333207003229 16.4251
35.12668405694369 16.4132
35.150220005273056 16.4085
35.17357501786656 16.3886
35.19693153931268 16.340999999999998
35.220289570874385 16.3343
35.24383161619786 16.384
35.267192683604904 16.4093
35.290555264930376 16.3016
35.314101899412165 16.2868
35.33746752422433 16.3672
35.36083466676374 16.3317
35.38420332829803 16.2539
35.407756095629054 16.2234
35.43112781085063 16.2636
35.45450104888391 16.2241
35.477875810999194 16.2676
35.50143473172161 16.2744
35.52481255774625 16.2375
35.54819191167777 16.1963
35.57157279478914 16.1863
35.595137889488406 16.1762
35.61852184675279 16.1706
35.641907337029984 16.2227
35.665294361595684 16.2464
35.68886565090076 16.1897
35.7122557598848 16.1766
35.73564740699838 16.3224
35.759040593519934 16.3696
35.78261809810353 16.3058
35.80601437933051 16.3173
35.829412203814705 16.3182
35.85281157283719 16.3068
35.876395313415884 16.2932
35.8997977874528 16.2948
35.92320180988546 16.2737
35.946790244133936 16.1449
35.97019737933222 16.1657
35.993606066789866 16.1898
36.01701630779276 16.128
36.04061101440684 15.9598
36.06402437852291 15.9212
36.08743930005611 15.912
36.1108557802951 15.8436
36.13445678011326 15.806
36.15787639383515 15.6844
36.18129757014299 15.6458
36.20472031032821 15.6223
36.22832762423364 15.6647
36.25175350829375 15.6202
36.275180960119776 15.5517
36.298609981005924 15.5595
36.32222362992669 15.599
36.34565580510207 15.5283
36.36908955323448 15.4951
36.39252487562093 15.4444
36.416144880530226 15.4344
36.43958336764275 15.4067
36.463023432914625 15.4381
36.486465077645676 15.4888
36.51009145956204 15.5053
36.53353627947859 15.4903
36.55698268276811 15.4904
36.58043067073321 15.436
36.60406345072071 15.3631
36.62751462435344 15.422
36.65096738658405 15.3648
36.67460498210655 15.2986
36.69806093788647 15.2237
36.72151848619297 15.1912
36.744977628333636 15.1968
36.76862165890998 15.182
36.79208400512205 15.1448
36.81554794910557 15.1794
36.83901349217101 15.0661
36.862663978991606 15.1054
36.88613273667352 15.0838
36.90960309738324 15.1355
36.933075062434064 15.0769
36.95673202673572 15.1333
36.98020721697122 15.0955
37.003684015502365 15.0336
37.027162423645365 15.0027
37.050825886711465 14.9914
37.07430753063053 14.9132
37.09779078812467 14.8891
37.121275660513014 14.9354
37.144945643673694 14.8777
37.16843376245278 14.8063
37.19192350009803 14.7687
37.215414857931435 14.7098
37.239091382563885 14.7267
37.262585997426164 14.6827
37.28608223645736 14.6141
37.309763684451696 14.6317
37.33326318851098 14.6139
37.356764320726555 14.6099
37.380267082425526 14.5982
37.40395510942588 14.5538
37.42746114683234 14.4971
37.45096881771841 14.4479
37.474478123414166 14.4309
37.49817275092816 14.3806
37.52168534303452 14.4514
37.54519957395567 14.3298
37.568715445024665 14.342
37.592416694607714 14.2902
37.61593586281424 14.3474
37.63945667518264 14.3922
37.66297913304891 14.3332
37.68668702630454 14.2517
37.710212792059274 14.2105
37.733740207334854 14.1887
37.757269273470364 14.1958
37.780983832050374 14.1983
37.80451621684926 14.1596
37.82805025654007 14.1175
37.851585952464795 14.0877
37.8753071980695 14.0216
37.89884622345676 13.9955
37.92238690911902 14.0435
37.94611318753442 14.0658
37.969657210779765 13.9816
37.99320289834801 13.993
38.016750251586465 13.9971
38.04048325513017 13.9696
38.06403395679343 13.955
38.087586328183946 13.9518
38.11114037065203 13.9474
38.13488012115898 13.9343
38.1584375229181 13.9073
38.181996599821 13.8335
38.205557353221124 13.8804
38.229303872575656 13.8225
38.2528679961576 13.7243
38.27643380031219 13.7349
38.30000128639589 13.6461
38.32375459653193 13.6277
38.34732546371299 13.689
38.37089801690786 13.5883
38.39447225747609 13.5404
38.418232380377425 13.524000000000001
38.441810012983396 13.554
38.46538933705673 13.48
38.488970353960084 13.5156
38.51273731166058 13.4847
38.536321731567014 13.4138
38.55990784840681 13.4056
38.58367995004091 13.4783
38.60726947812959 13.4607
38.63086070726198 13.4229
38.654453638806274 13.4586
38.678232613930824 13.4188
38.70182896773327 13.3698
38.72542702806741 13.3148
38.7490267963045 13.2949
38.77281266709232 13.3339
38.79641586862214 13.2779
38.8200207821842 13.2551
38.843627409152944 13.2645
38.86742019782782 13.2121
38.891030269149255 13.1107
38.914642058016156 13.1585
38.938255565806124 13.1203
38.96205529464307 13.1366
38.98567225787121 13.1138
39.00929094417078 13.1632
39.03291135492255 13.1357
39.05671804624804 13.1098
39.080341923549106 13.0687
39.103967529460334 13.0457
39.127594865365744 13.0273
39.15140854155791 13.0333
39.17503935514948 13.0285
39.19867190290282 12.9873
39.22249083587951 13.0161
39.24612686969409 12.8905
39.269764641845306 12.8507
39.293404153722804 12.882
39.317230110864074 12.7971
39.34087311998506 12.7791
39.36451787301696 12.7898
39.388164371352595 12.7819
39.41199737518003 12.6876
39.43564738196752 12.7221
39.45929913825317 12.6779
39.48295264543308 12.6683
39.506792718520884 12.6446
39.530449745387216 12.6662
39.55410852735203 12.5981
39.57776906581474 12.5801
39.60161623079 12.5822
39.625280300200025 12.5817
39.64894613032202 12.5677
39.67261372255866 12.5109
39.6964680021016 12.502
39.72013913657293 12.5003
39.74381203738292 12.4687
39.76748670593756 12.3853
39.79134812278169 12.4438
39.81502634488497 12.4582
39.83870633896685 12.4297
39.862388106436654 12.3632
39.88625668336918 12.339
39.90994201572829 12.3051
39.933629125719285 12.3212
39.957503091207826 12.3405
39.9811937746168 12.4342
40.00488623990914 12.3054
40.02858048850006 12.2543
40.05246165409549 12.2366
40.076159487492085 12.2455
40.099859108448875 12.2446
40.123560518384345 12.2344
40.1474489070226 12.1971
40.171153913178564 12.1754
40.194860712584955 12.2107
40.2185693066637 12.1574
40.242464941335314 12.1222
40.26617714307655 12.1276
40.289891143772046 12.1798
40.3136069448471 12.1134
40.33750984859743 12.069
40.3612292688043 12.081
40.3849504936829 11.9981
40.40867352466194 11.9981
40.43258372059144 11.9625
40.45631038219906 11.9939
40.48003885420956 11.917
40.503769138055105 11.9869
40.52768664931955 11.9122
40.55142057531802 11.9151
40.57515631746428 11.9042
40.599079334038514 11.8092
40.62281872700477 11.8287
40.64655994043941 11.8153
40.67030297578061 11.795
40.69423334835778 11.7997
40.71798004609188 11.7523
40.74172857006355 11.7508
40.76547892171441 11.735999999999999
40.7894166736039 11.6765
40.813170699248566 11.7225
40.83692655691388 11.6973
40.86068424804498 11.6962
40.884629402612525 11.6404
40.908390779366385 11.6696
40.932153993938 11.6471
40.95591904777605 11.6012
40.979871628443995 11.5971
41.003640379561936 11.6138
41.02741097430883 11.5925
41.05118341413683 11.5704
41.075143444384416 11.5585
41.098919593177826 11.5585
41.1226975914255 11.5572
41.14647744058318 11.4979
41.170444943946755 11.5283
41.19422851378379 11.4872
41.218013938914645 11.4362
41.24198706625173 11.434000000000001
41.26577622087193 11.4098
41.289567235177785 11.4037
41.31336011063129 11.3668
41.337340752422875 11.3235
41.361137369129835 11.3418
41.38493585138705 11.3168
41.40873620066004 11.2616
41.43272438060107 11.2547
41.45652848292052 11.1752
41.48033445666918 11.1933
41.50414230331616 11.204
41.528138045159764 11.1766
41.551949656675205 11.1751
41.575763145513235 11.0969
41.59957851314666 11.1194
41.62358184070442 11.0737
41.64740098505737 11.072000000000001
41.6712220126409 11.0662
41.69504492493139 11.013
41.71905586207357 10.9911
41.74288256296395 10.9577
41.766711153007456 10.9804
41.79054163368412 10.9217
41.814560204340054 10.9641
41.838394485526365 10.9856
41.86223066180303 10.9345
41.88625497706819 10.8729
41.910094962812 10.8979
41.93393684811168 10.8834
41.95778063445365 10.8259
41.981812625263366 10.8115
42.00566023303407 10.8387
42.029509746323676 10.8438
42.05336116662236 10.7728
42.077400857069705 10.8083
42.10125611078846 10.7887
42.12511327600405 10.8081
42.14897235421036 10.7545
42.173019768448455 10.7599
42.19688269209613 10.7319
42.22074753323349 10.7132
42.24461429335818 10.6781
42.268669455600495 10.6712
42.292540073217886 10.6313
42.31641261433284 10.6397
42.34028708044675 10.5975
42.36435001496739 10.6059
42.38822835065557 10.5662
42.41210861586426 10.5129
42.4359908120986 10.4639
42.46006154323262 10.4778
42.48394762115317 10.4199
42.507835634632315 10.4788
42.531912233047436 10.4281
42.55580413732265 10.4576
42.579697981698 10.4481
42.60359376768525 10.4072
42.62767820545945 10.3646
42.65157789440821 10.3625
42.67547952952185 10.3643
42.699383112316 10.3041
42.72347541395347 10.3129
42.74738291190531 10.2861
42.771292362102166 10.2448
42.795203766063516 10.2512
42.819303956130405 10.2083
42.843219287476536 10.2063
42.86713657716324 10.2188
42.89105582671383 10.1685
42.91516392983864 10.1298
42.939087119032166 10.1297
42.963012272677304 10.1107
42.98693939230129 10.0928
43.01105543317513 10.0695
43.034986504731386 10.0536
43.05891954686589 10.0447
43.08285456110972 10.0098
43.10697856448665 10.0347
43.130917542983475 9.99094
43.15485849820081 10.024
43.17880143167367 9.971860000000001
43.20293342237094 9.98222
43.226880332449 9.97594
43.25082922540554 9.95837
43.27496722682525 9.92083
43.29892010567796 9.88978
43.32287497204102 9.839189999999999
43.34683182745632 9.808689999999999
43.370977859791836 9.82283
43.39493871351105 9.82629
43.41890156092628 9.8346
43.44286640358341 9.792689999999999
43.46702049182749 9.78469
43.49098934522816 9.74025
43.51496019852649 9.731810000000001
43.5389330532723 9.7383
43.56309522248204 9.67958
43.58707210044314 9.63108
43.61105098451946 9.66381
43.63503187626491 9.62883
43.659202151562134 9.640080000000001
43.68318707902681 9.62924
43.70717401884041 9.64074
43.731162972560874 9.591339999999999
43.75534137913236 9.57292
43.779334381108384 9.57297
43.803329401683186 9.53406
43.82732644241872 9.50971
43.8515130055166 9.524389999999999
43.87551410707659 9.4597
43.89951723350145 9.50259
43.923709934595614 9.519039999999999
43.94771713129917 9.45739
43.97172635758096 9.46299
43.99573761501002 9.41284
44.0199385169922 9.41295
44.04395385732619 9.44238
44.067971233533086 9.37341
44.09199064718605 9.3558
44.11619977548961 9.35409
44.14022328470671 9.311819999999999
44.16424883610785 9.37102
44.18827643127035 9.36045
44.21249381139513 9.31548
44.236525514814076 9.29176
44.26055926674478 9.26912
44.28459506876863 9.25638
44.3088207262813 9.2239
44.33286064928722 9.25774
44.35690262714919 9.21491
44.38094666145278 9.21522
44.4051806219871 9.20009
44.42922879003185 9.18828
44.45327901929361 9.11523
44.477331311362136 9.15272
44.501573600619416 9.07445
44.525630039221795 9.09267
44.54968854541895 9.108369999999999
44.573937102200176 9.071760000000001
44.5979997645541 9.09717
44.622064499300315 9.05596
44.64613130803592 9.05152
44.67038823869318 9.017719999999999
44.69445921643748 9.01269
44.718532272981385 8.95284
44.742607409926194 8.961789999999999
44.76687274034801 8.965069999999999
44.79095205918753 8.93896
44.81503346325094 8.935789999999999
44.839116954143876 8.88748
44.86339071028742 8.92405
44.88747839599524 8.90985
44.91156817336837 8.86963
44.93566004401666 8.87396
44.959942251908146 8.857660000000001
44.984038330325966 8.85195
45.00813650686762 8.78247
45.03223678314731 8.7795
45.05652746888232 8.779760000000001
45.08063196592069 8.71493
45.104738567558705 8.7061
45.128847275414856 8.76966
45.15314646515866 8.788889999999999
45.17725940679741 8.68111
45.20137445952892 8.71771
45.22568004865265 8.69117
45.24979934496396 8.67451
45.27392075725247 8.64836
45.29804428714431 8.66536
45.322358426247604 8.62539
45.346486212804315 8.57726
45.370616121861914 8.55245
45.39474815505086 8.593919999999999
45.41907087049246 8.56029
45.4432071734666 8.580680000000001
45.46734560548283 8.541939999999999
45.49148616817604 8.52823
45.51581748638564 8.50526
45.5399623320197 8.505339999999999
45.56410931325473 8.4961
45.58825843173002 8.49146
45.61259837920865 8.44099
45.636751793816 8.44938
45.66090735060093 8.43778
45.68506505120716 8.41929
45.7094136545275 8.37772
45.73357566449271 8.386339999999999
45.75773982322992 8.38724
45.78190613238733 8.379669999999999
45.806263418194064 8.30954
45.83043404997326 8.33009
45.85460683713677 8.297139999999999
45.87897065658495 8.33055
45.90314777634752 8.264380000000001
45.92732705646868 8.29087
45.9515084986045 8.2547
45.97588104735473 8.23598
46.00006683541565 8.216239999999999
46.02425479047904 8.21209
46.04844491420549 8.2071
46.0728262191024 8.18015
46.09702070211635 8.1441
46.12121735879483 8.14807
46.14541619080294 8.14819
46.169806278764455 8.12636
46.194009483459034 8.119769999999999
46.21821486849841 8.10316
46.24242243555223 8.06634
46.266821333570014 8.06751
46.29103328674601 8.06524
46.31524742696538 8.0503
46.33946375590237 8.010489999999999
46.36387149104216 8.033539999999999
46.38809221957392 7.9630399999999995
46.41231514186606 7.9824600000000006
46.436540259597464 7.97575
46.460956858999374 7.985930000000001
46.48518638983522 7.967980000000001
46.509418121166966 7.9401
46.533652054678114 7.94601
46.55807754555709 7.9115
46.58231590571962 7.91091
46.60655647313217 7.87067
46.630988654873654 7.84155
46.655233659129024 7.84888
46.67948087571551 7.85102
46.70373030632484 7.82768
46.72817142736393 7.80497
46.752425308428684 7.8198300000000005
46.77668140861147 7.79696
46.80093972960865 7.745430000000001
46.82538981736788 7.753489999999999
46.849652602470904 7.7205699999999995
46.87391761349769 7.71167
46.8981848521493 7.71968
46.9226439341274 7.64887
46.946915650573224 7.65493
46.97118959976749 7.682689999999999
46.99546578341598 7.6452800000000005
47.019933887188216 7.6427
47.04421456235744 7.6332699999999996
47.06849747711879 7.61332
47.09278263318286 7.61361
47.11725978640143 7.56884
47.14154944775105 7.517860000000001
47.165841355555656 7.539510000000001
47.1901355115306 7.523560000000001
47.214621741924994 7.53475
47.23892041698887 7.53701
47.26322134538975 7.5007600000000005
47.28771440635075 7.461589999999999
47.31201986422527 7.45333
47.33632758061436 7.4347
47.360637557241866 7.45396
47.38513974410611 7.407039999999999
47.40945426407847 7.38108
47.43377104948137 7.39498
47.45809010204344 7.39125
47.48260144275502 7.3853
47.506925052572285 7.32872
47.53125093475548 7.34232
47.55557909103813 7.34245
47.58009961361992 7.3321
47.60443234110732 7.28833
47.62876734791564 7.316160000000001
47.65310463578333 7.30329
47.6776343683373 7.2885800000000005
47.7019762413987 7.246989999999999
47.72632040075572 7.275589999999999
47.75066684815169 7.25131
47.77520581885936 7.23308
47.799556865477655 7.183339999999999
47.823910205386 7.199489999999999
47.84826584033272 7.18642
47.87281407745551 7.16858
47.89717432569297 7.160760000000001
47.92153687423484 7.166760000000001
47.94609208429692 7.1594
47.97045925671401 7.1544300000000005
47.99482873471275 7.08443
48.01920052005013 7.11575
48.04376504619224 7.079619999999999
48.068141469543484 7.09885
48.09252020552573 7.052389999999999
48.11690125590099 7.045039999999999
48.1414751266064 7.068789999999999
48.16586082917454 7.03377
48.19024885144316 6.994839999999999
48.2146391951793 6.99023
48.239222439012764 6.98022
48.26361744916137 7.00931
48.28801478610016 6.9840100000000005
48.31241445160131 6.95763
48.337007097209366 6.945
48.36141144338331 6.9541
48.38581812345755 6.916739999999999
48.41022713920929 6.931030000000001
48.434829215320704 6.88508
48.45924292604658 6.8678300000000005
48.48365897780325 6.86293
48.50807737237308 6.85652
48.532688907799276 6.884180000000001
48.55711201168574 6.844989999999999
48.581537463754074 6.81003
48.60615611725119 6.801839999999999
48.63058628942721 6.808160000000001
48.65501881516546 6.7857
48.6794536962573 6.7457199999999995
48.70408185970339 6.7704
48.72852147531801 6.74949
48.75296345168211 6.722689999999999
48.77740779059232 6.710889999999999
48.80204549302823 6.715510000000001
48.82649458091802 6.7028
48.85094603676547 6.73101
48.87539986237231 6.68662
48.90004713292306 6.61465
48.92450572200832 6.633489999999999
48.94896668628025 6.66448
48.97343002754588 6.66011
48.99808689542115 6.63611
49.02255501470614 6.633489999999999
49.04702551642794 6.6195699999999995
49.0714984023988 6.573110000000001
49.096164896893235 6.57786
49.120642575466796 6.54243
49.145122643748394 6.52877
49.16960510355558 6.53144
49.19428125404938 6.51502
49.2187685210852 6.534269999999999
49.243258185121555 6.5209
49.26794160167084 6.47056
49.2924360839405 6.42588
49.31693296869764 6.4518699999999995
49.34143225776915 6.42601
49.36612538195438 6.4096400000000004
49.39062950396021 6.43232
49.41513603578346 6.4112
49.4396449792564 6.37945
49.46434784069503 6.38932
49.488861631846454 6.387230000000001
49.513377840166804 6.37709
49.537896467493745 6.3484300000000005
49.56260909589029 6.33746
49.587132585683285 6.35644
49.611658500018365 6.30274
49.636186840738596 6.33133
49.66090926588511 6.263319999999999
49.685442483902584 6.27869
49.70997813385706 6.26805
49.734516217597076 6.2224699999999995
49.75924846937352 6.2371
49.7837914452858 6.2265
49.80833686055187 6.23196
49.83288471702571 6.22187
49.85762682540054 6.2060900000000006
49.882179588965734 6.14729
49.9067347993235 6.171819999999999
49.93129245833333 6.18699
49.95604445336378 6.17164
49.98060703442832 6.13746
50.005172069746266 6.15233
50.02993150438364 6.16737
50.05450147301533 6.12792
50.07907390151433 6.12059
50.10364879174981 6.09185
50.12841816587289 6.10611
50.1529980044635 6.09363
50.17758031042124 6.0717099999999995
50.20216508562089 6.07112
50.22694442953363 6.0489999999999995
50.25153416817468 6.0435099999999995
50.27612638170508 6.0360000000000005
50.300721072005196 5.98829
50.325510416102105 5.99
50.350110084975064 6.010759999999999
50.37471223628208 5.99711
50.39931687190919 5.97015
50.424116246675766 5.9699599999999995
50.44872587605249 5.95349
50.47333799543065 5.9579699999999995
50.49795260670191 5.91144
50.52276204271512 5.89561
50.54738166295838 5.9252
50.57200378079314 5.9112800000000005
50.596628398116835 5.87084
50.62144792604559 5.88446
50.646077567609396 5.84059
50.670709714377715 5.879630000000001
50.69553683636198 5.83235
50.72017401885922 5.83403
50.7448137122895 5.81299
50.76945591856022 5.76623
50.79429318636823 5.7990900000000005
50.818940443716784 5.8139400000000006
50.84359021965163 5.77733
50.868242516085964 5.7704
50.893089960641895 5.73147
50.917747323549435 5.75565
50.94240721271973 5.7646
50.96706963007175 5.71645
50.99192728239342 5.74477
51.01659478166073 5.70784
51.04126481489051 5.68075
51.06593738400761 5.67375
51.090805275207074 5.68899
51.11548294172845 5.643759999999999
51.14016314993547 5.65131
51.164845901758845 5.653
51.18972406304274 5.6199699999999995
51.21441192780656 5.60582
51.23910234200271 5.61669
51.2637953075678 5.60076
51.288683770237945 5.5948199999999995
51.31338186432707 5.587969999999999
51.33808251561888 5.5801099999999995
51.362978729967345 5.55616
51.387684521509755 5.543480000000001
51.41239287610203 5.58315
51.437103795691165 5.52567
51.46201036644977 5.52607
51.486726441956634 5.49758
51.51144508832545 5.49533
51.536166307509156 5.5086699999999995
51.56108326624387 5.45907
51.58580965706056 5.455
51.61053862657523 5.404669999999999
51.635270176746864 5.38202
51.66019755512065 5.424119999999999
51.68493429268881 5.42264
51.70967361681515 5.40886
51.73441552946465 5.39361
51.759353359237934 5.39466
51.7841004750961 5.38861
51.80885018539685 5.36941
51.833602492111254 5.355980000000001
51.8585508051424 5.34471
51.883308330926425 5.33071
51.90806845906181 5.351
51.932831191525715 5.34052
51.95779001977161 5.29306
51.98255798721516 5.28185
52.00732856494335 5.27366
52.03229530577543 5.27877
52.057071130455945 5.24883
52.081849571391054 5.23272
52.106630630568695 5.25962
52.13160794279417 5.20651
52.15639426492067 5.22839
52.18118321127822 5.19491
52.205974783860896 5.20264
52.23096269971011 5.17884
52.255759551287994 5.175
52.280559035098186 5.16933
52.30536115314103 5.16895
52.33035970494467 5.12426
52.35516711807904 5.12361
52.37997717147198 5.1347
52.40478986713005 5.105980000000001
52.42979908731974 5.07177
52.454617094216 5.07587
52.47943774942214 5.07982
52.50426105495102 5.03217
52.529280976059844 5.07835
52.554109609024096 5.07188
52.57894089837482 5.0372900000000005
52.60377484613117 5.0300400000000005
52.62880550079408 5.040780000000001
52.65364479223379 5.00708
52.67848674816189 4.973669999999999
52.70352547971946 4.975140000000001
52.72837279155837 4.97846
52.753222773982785 4.975630000000001
52.778075429022984 4.95646
52.80312495150885 4.96431
52.827982978797436 4.95184
52.85284368481815 4.9089599999999995
52.87770707160767 4.90888
52.90276741793998 4.9234
52.92763619336701 4.898280000000001
52.952507655698504 4.8867199999999995
52.977381806977576 4.89064
53.00245301017842 4.86264
53.02733256653592 4.86252
53.052214817996074 4.86489
53.077099766608484 4.88215
53.102181859804446 4.84816
53.127072229988265 4.839090000000001
53.15196530349892 4.820209999999999
53.17686108239249 4.81252
53.20195409881522 4.78633
53.22685531582556 4.779319999999999
53.25175924441303 4.74406
53.27666588664027 4.77548
53.30176985962693 4.76929
53.3266819565689 4.76575
53.35159677336455 4.76508
53.376514312083096 4.7740800000000005
53.40162927507703 4.75526
53.42655228516116 4.72196
53.45147802340193 4.688680000000001
53.47660125628886 4.66854
53.50153247842639 4.70103
53.52646643496923 4.70782
53.55140312799818 4.67208
53.576537409691696 4.64651
53.60147960336152 4.64966
53.626424539786164 4.63778
53.65137222105307 4.579969999999999
53.67651758529126 4.62195
53.70147078399681 4.5574699999999995
53.72642673383343 4.57316
53.75138543689533 4.5943
53.776541917524526 4.562130000000001
53.801506154876755 4.57995
53.826473151763246 4.56102
53.851442910284916 4.54859
53.87661054126026 4.56034
53.9015858509782 4.525580000000001
53.92656392866066 4.4954
53.95154477641532 4.51215
53.976723591801296 4.4756
54.00171000771266 4.503830000000001
54.02669920004598 4.4759199999999995
54.051691170915745 4.4211599999999995
54.076881204886796 4.42765
54.101878760928514 4.48706
54.12687910187696 4.40386
54.152077577768296 4.37692
54.1770835166946 4.352519999999999
54.20209224691339 4.35944
54.22710377055121 4.36097
54.25231352511594 4.37305
54.27733066384342 4.35553
54.30235060239643 4.35281
54.32737334290836 4.335319999999999
54.35259441062629 4.28263
54.377622783395324 4.25702
54.40265396455061 4.268759999999999
54.42768795623251 4.26195
54.45292037169559 4.23311
54.477960012857906 4.24851
54.50300247099511 4.19271
54.52804774825457 4.14342
54.55329154616743 4.077369999999999
54.57834249018678 4.15761
54.6033962597977 4.12301
54.6284528571545 4.13483
54.653708072335164 4.083880000000001
54.67877035378786 4.10332
54.70383546947698 4.0796
54.72890342156389 4.0717300000000005
54.7541700889442 4.026619999999999
54.77924374251975 3.99736
54.8043202390049 4.04049
54.82959552413022 3.9885699999999997
54.8546777351945 4.017919999999999
54.87976279569621 3.9435599999999997
54.90485070780914 3.9976300000000005
54.930137506558005 3.9101
54.95523115074295 3.96895
54.98032765308844 3.9193800000000003
55.005427015775496 3.9054
55.03072536339621 3.92099
55.05583047570572 3.87322
55.080938454927676 3.8656900000000003
55.10604930325027 3.84449
55.131359235107396 3.8511900000000003
55.15647585066083 3.79112
55.181595341907496 3.7880000000000003
55.20671771104285 3.77315
55.232039262617704 3.73771
55.25716741665048 3.67516
55.28229845518636 3.7145
55.30743238042802 3.64955
55.33276558731939 3.64145
55.357905315183636 3.6425699999999996
55.383047936390035 3.6394300000000004
55.40819345314859 3.59815
55.433538351073295 3.6344800000000004
55.458689688238415 3.6172
55.483843927614096 3.50811
55.509197623043605 3.50979
55.53435769621134 3.55789
55.55952067826466 3.53286
55.5846865714265 3.56774
55.61005202069737 3.52803
55.63522376553902 3.5457400000000003
55.66039842818645 3.50388
55.68557601087004 3.4954099999999997
55.7109532500271 3.4328800000000004
55.73613670233794 3.46823
