TT I
1.2716486653135266 32.4773
1.2939594142134223 33.6241
1.3162702121660406 32.0132
1.3385810600174564 30.8658
1.3608919586137629 31.5071
1.383202908801069 30.2179
1.405513911425503 28.913
1.4278249673332093 29.0719
1.4501343378461518 27.8185
1.4724455028545926 27.1052
1.4947567236847858 26.9417
1.517068001182951 27.0296
1.5393793361953272 25.9951
1.5616907295681737 25.7438
1.5840021821477681 24.7859
1.60631369478041 24.9661
1.6286252683124185 24.8892
1.6509369035901333 24.7441
1.6732468618895553 24.2338
1.695558623192809 22.7207
1.7178704487808514 22.4579
1.7401823395001077 22.781999999999996
1.7625012545597203 22.6306
1.7848028405262486 22.9966
1.8071218901122095 23.0043
1.8294236121921872 22.0729
1.8517427996910911 22.408
1.8740620574440425 23.1225
1.8963639900671978 22.1618
1.9186833908139995 22.7292
1.9409854680117449 22.7402
1.9633050151394713 22.6929
1.9856246367570705 22.6067
2.0079269371922672 22.996
2.03024671027244 22.7482
2.0525491637446027 23.3923
2.074869091674931 23.2491
2.097171701569106 22.9088
2.1194917877373847 23.4008
2.141811954326636 23.8799
2.164114805233074 24.3557
2.186435135143035 24.9852
2.208738150935709 24.9961
2.231058647554722 25.0476
2.2533792288321184 25.3692
2.275682498336085 26.3256
2.298003251406138 25.6175
2.3203066942619714 24.9764
2.3426276225136022 24.4385
2.3649486396617507 23.5004
2.387252348930071 23.4458
2.4095735463442893 23.3237
2.4318774374315884 23.796999999999997
2.4541988185014043 23.6731
2.476502894794693 24.3102
2.498824462909887 23.5203
2.521146125856138 23.8881
2.5434504863470337 23.5867
2.5657723414244717 24.7091
2.588076895590662 25.0436
2.610398946189713 24.8243
2.6327210958598384 25.419
2.6550259469304716 26.1337
2.6773482972090137 26.9416
2.6996533504259 27.3246
2.7219759047039602 29.1459
2.744298562293959 29.2025
2.7666039251246595 29.4098
2.7889267918020164 31.6037
2.8112323652516555 32.0859
2.833555444408179 33.7985
2.8558786311183852 35.8489
2.8781845268938557 37.2496
2.9005079311721484 39.1017
2.9228140460410397 41.5743
2.9451376712799635 44.8201
2.967444008632326 47.2621
2.9897678582247247 50.9154
3.0120918213106695 55.4504
3.0343984987899373 59.6331
3.0567226913198637 64.1549
3.079029599759726 69.4189
3.101354025127254 75.0182
3.123678568232338 77.2708
3.145985829517914 79.9226
3.16831061055229 80.8351
3.1906181112775593 79.668
3.212943133635653 77.783
3.2352682779763207 72.9719
3.2575761442691227 67.49600000000001
3.2799015350264273 62.324
3.302209649240067 57.0381
3.3245352898092655 51.7281
3.3468436553365257 47.6915
3.369169549113219 44.3115
3.3914955708171384 41.5453
3.413804319727358 38.3872
3.4361305997334863 36.9305
3.4584396084414553 36.2099
3.4807661501462652 35.6005
3.503092824025881 35.4694
3.5254022288463154 35.0281
3.5477291695206588 35.0494
3.5700388426251948 36.097
3.5923660534916446 37.271
3.6146934007816114 38.6435
3.637003482731501 39.7511
3.6593311053109985 40.7375
3.681641464033634 40.8154
3.7039693653009733 40.1343
3.726297407241705 39.0532
3.7486081875460804 37.522
3.7709365132734978 36.3062
3.793247578841633 34.9666
3.8155761917550093 34.1617
3.8378875459837216 33.905
3.8602164494827234 33.3692
3.882545499606844 32.8728
3.9048572932539183 33.3605
3.9271866390645718 33.312
3.9494987298666713 33.9577
3.971828374764527 34.3382
3.9941581705403255 34.3382
4.016470713506008 35.3806
4.038800813471445 36.8538
4.061113662089144 37.819
4.0834440696459176 40.1559
4.105774632334751 41.6062
4.128087945865126 44.7196
4.150418821249301 48.4299
4.172732448931298 52.9749
4.195063640413578 58.3894
4.2173775856475215 65.0021
4.239709096631102 72.4662
4.262040768704612 79.8316
4.284355196706267 85.5539
4.306687193387355 86.9203
4.329001947444346 85.6945
4.35133427213731 80.5979
4.373666762177566 74.4545
4.395982011761091 68.0638
4.418314834921175 63.2432
4.44063041906622 60.882
4.4629635787515625 58.3071
4.4852969080429785 56.2438
4.5076130004776225 54.7347
4.529946671403969 52.1994
4.552263106909177 49.6021
4.574597122877047 48.0205
4.596931312711224 46.5641
4.619248269273446 45.8856
4.6415828092605835 45.4631
4.663900117405352 45.1092
4.686235010953232 45.1076
4.708552674085913 45.3654
4.730887924602802 46.1211
4.753223354952695 47.3956
4.775541557023902 48.1837
4.797877349456786 49.089
4.820195915032126 51.4428
4.842532072957498 53.0167
4.864868414979744 54.8078
4.88718753227192 57.3182
4.909524244902505 59.9253
4.931843734218147 63.3477
4.954180820867835 67.3656
4.976518095879839 72.9539
4.998838149695359 78.8866
5.021175803844231 89.26799999999999
5.043496238205739 101.87200000000001
5.065834274903528 114.139
5.088172504230693 127.141
5.1104935158799565 141.84
5.132832132875765 162.768
5.155153533596801 190.917
5.1774925416746225 230.076
5.199814334878411 296.573
5.2221537374521505 421.50699999999995
5.244493338631803 619.2
5.266815727034316 880.327
5.289155727832427 1298.45
5.311478517248165 2194.47
5.333818921080011 3440.9
5.356159527788849 4296.72
5.3784829252032536 3515.61
5.400823940070432 2105.63
5.423147747031976 1022.48
5.445489173474152 532.625
5.467830807066149 344.722
5.490155234831516 258.829
5.512497285125229 206.785
5.534822130975162 175.898
5.557164601388673 154.424
5.579489868738879 137.22
5.601832762690846 125.87100000000001
5.6241758697774475 117.81700000000001
5.646501775867269 113.04299999999999
5.668845311622074 109.792
5.691171647754637 106.93
5.713515615597765 104.398
5.735859800852677 100.898
5.758186788542988 98.5053
5.780531411018185 96.7785
5.802858837297399 96.446
5.825203900414495 97.4612
5.8475491852224 99.5057
5.869877275883075 102.978
5.892223006467101 107.59299999999999
5.914551544266608 113.75399999999999
5.936897724049891 122.07
5.959244129804903 133.881
5.981573344815301 152.376
6.0039202049061 180.674
6.026249875609095 226.63299999999998
6.04859719346037 291.574
6.070927323278297 376.779
6.093275102315365 496.777
6.115623113320588 642.342
6.137953938319995 888.783
6.160302415650845 1206.97
6.182633708324452 1283.32
6.2049826554078376 1053.73
6.227331838745022 682.3969999999999
6.249663839443684 422.036
6.27201349767565 282.291
6.294345974611799 206.628
6.316696111167083 155.89
6.339046488263839 124.59899999999999
6.361379686074702 105.27
6.383730546639482 92.4258
6.406064229255215 82.0445
6.428415576718203 75.8791
6.450749747566656 70.3728
6.47310158535871 65.7522
6.495453669698332 62.4048
6.517788579421056 59.7362
6.540141159237969 57.8447
6.562476565766648 56.2907
6.5848296444934045 55.5056
6.607182974060425 54.9704
6.6295191323281015 55.4202
6.651872965955752 55.4861
6.6742096296068985 56.0648
6.6965639707294615 57.4041
6.71891856698715 57.9452
6.741255995248479 57.7015
6.763611104154477 56.8268
6.785949046381137 55.8277
6.808304671371482 53.7121
6.8306605557940046 52.0643
6.852999275508618 50.3396
6.875355681171544 48.3763
6.897694923437771 47.0391
6.92005185377892 45.5606
6.9423916220322655 44.8672
6.964749080490181 43.5803
6.987106804399774 42.9604
7.009447368180821 42.7162
7.031805625367033 42.614
7.054146723727803 42.7773
7.076505517631004 42.7994
7.098864581288365 43.0663
7.121206488070854 43.6376
7.143566093607822 44.9888
7.165908543567245 46.409
7.188268694426048 47.8887
7.2106291193438095 50.3307
7.232972390625943 53.8453
7.255333366030969 57.843999999999994
7.277677189091925 63.4495
7.300038718428332 69.9264
7.322400526130865 73.4191
7.344745183422596 74.2507
7.367107550224791 70.8728
7.389452767901992 65.5806
7.411815697249891 60.1326
7.434161478756298 54.9106
7.456524974096713 51.5525
7.478888753837185 50.3578
7.501235387657368 50.126999999999995
7.523599738562711 53.743
7.545946944825532 68.8314
7.568311870344528 102.75299999999999
7.5906770845765665 145.157
7.613025156078678 148.375
7.635390950099687 106.64
7.657739602662809 68.5952
7.680105979923558 50.3954
7.702472650212829 44.1234
7.724822180948224 41.0875
7.747189439655568 39.8103
7.769539560075357 38.9343
7.791907410653562 38.1527
7.81425812420825 37.9366
7.836626570110925 37.4615
7.858995315087906 37.8672
7.881346924933401 37.3238
7.903716270417482 37.5352
7.926068482028405 37.804
7.948438431475253 37.9959
7.9708086843180235 38.0842
7.993161805171116 38.6425
8.015532667162402 38.4979
8.037886398416653 39.1165
8.060257873014221 39.5145
8.082629655331942 39.9805
8.104984308787587 40.5092
8.127356708900503 41.0209
8.149711981398308 42.2176
8.172085002766314 42.788000000000004
8.194458336181368 43.693999999999996
8.216814543847752 44.5128
8.23918850371002 45.3049
8.26154533906492 45.7381
8.283919928836452 46.9796
8.306277395339652 47.6107
8.328652618483376 49.1029
8.351028159736202 51.165
8.373386579575245 53.2102
8.395762759396959 55.17100000000001
8.418121819038275 58.3388
8.440498640894003 62.4245
8.462875785192262 67.4469
8.485235811156207 73.5461
8.507613602688501 81.5905
8.529974277114228 95.3246
8.552352719347912 112.633
8.574731488360351 139.846
8.59709314210385 173.82299999999998
8.619472567021075 203.174
8.64183487789147 234.78400000000002
8.664214962183097 303.116
8.686577933647762 437.778
8.708958680784317 631.036
8.731339760774953 785.097
8.753703729764451 765.99
8.77608547780821 568.673
8.798450116065078 370.583
8.820832535634787 238.325
8.843215292401656 163.433
8.865580941199045 124.954
8.887964374703538 104.28
8.910330701447199 91.7755
8.932714815164482 83.3668
8.955099270424924 77.4732
8.977466620733543 73.8144
8.999851761421976 70.495
9.022219798361645 67.5382
9.04460562795561 65.4202
9.066991803441677 63.3276
9.089360876979615 62.0771
9.111747746589993 61.1462
9.13411751544971 60.457
9.156505082664324 60.5147
9.178875550323522 61.7224
9.20126381862328 63.9379
9.223652438908596 70.5398
9.246023961427412 89.4122
9.26841328802173 139.951
9.290785518039224 213.93900000000002
9.313175554425882 256.369
9.335565947154315 211.321
9.357939245086508 135.404
9.380330352834827 88.2303
9.40270436697103 68.2987
9.425096193225055 60.6612
9.447488380180165 57.3641
9.469863475295412 55.4843
9.492256385987508 54.6901
9.514632206018318 53.93600000000001
9.537025843935714 53.5166
9.559402392368193 53.0444
9.581796761000229 53.6563
9.604191496441521 53.817
9.626569144158516 53.9932
9.648964615551032 54.4064
9.671343000390081 55.1767
9.693739211225699 55.8576
9.716135793237463 56.1371
9.738515290448102 56.6656
9.760912617143402 57.6528
9.783292860202891 58.4624
9.805690935076182 59.6117
9.828089385495742 60.2871
9.850470754023561 62.3788
9.872869957865444 64.3635
9.89525208097539 67.2491
9.917652041736662 70.3889
9.940052382417589 73.6153
9.962435644102392 78.791
9.984836746950979 84.5781
10.007220771957746 92.6774
10.029622640473708 107.652
10.052007432299963 129.095
10.074410069984072 151.851
10.096813093716005 175.33900000000003
10.119199042482517 193.71099999999998
10.141602840636468 219.845
10.163989564971628 272.805
10.186394141051062 386.39099999999996
10.208799107559706 561.48
10.231187001965623 737.4169999999999
10.253592751657669 805.694
10.275981430388155 677.061
10.298387966769793 467.944
10.320794897965431 310.812
10.343184759907361 209.956
10.36559248305461 152.58700000000002
10.387983138083852 121.315
10.410391656691655 103.723
10.432800574501677 92.5171
10.455192425893369 85.7946
10.47760214443012 84.1619
10.499994797678786 85.1322
10.522405320453982 88.7202
10.54479877906917 92.9122
10.567210109595656 94.3153
10.5896218454736 97.2108
10.612016518879773 107.531
10.634429067781074 131.531
10.656824555333241 174.11
10.679237920773568 233.702
10.701651695961992 280.888
10.724048411481384 281.022
10.746463008485165 240.09799999999998
10.768860546937125 182.66
10.791275969274796 125.807
10.81369180576079 88.6885
10.836090585366925 69.3403
10.858507252467449 59.8586
10.88090686379991 54.9465
10.903324365036394 51.9379
10.925724811614439 49.44
10.948143150509463 48.3865
10.970561909719066 47.2304
10.992963615930844 46.4183
11.015383218085756 45.6214
11.037785768347074 44.9479
11.06020621697282 44.9235
11.082627090322113 44.1693
11.105030913430326 44.1048
11.12745263854165 43.6919
11.149857314510728 43.3044
11.172279894912576 43.647
11.194702904450653 43.2858
11.217108866490921 43.3224
11.239532736615194 43.5178
11.26193956033512 43.09
11.284364294577085 42.9472
11.306789462371718 42.43600000000001
11.329197585398376 42.0509
11.351623622610898 41.3194
11.37403261614354 40.6167
11.396459526308487 40.0546
11.418869393879497 39.6249
11.441297180532617 39.5156
11.463725406927658 38.9579
11.486136592353875 38.9444
11.508565700543707 38.5744
11.530977768845315 38.8094
11.553407762368774 38.6108
11.575838200059769 38.7632
11.598251599479612 38.9553
11.620682927815501 38.7892
11.64309721895548 38.7177
11.665529441478206 38.5806
11.687962112597958 37.9943
11.710377748130886 37.8219
11.732811318753434 37.5628
11.755227854859067 37.4245
11.777662328529495 37.4189
11.800079768750786 37.5274
11.822515149015453 37.4726
11.844950984084935 37.8671
11.867369787303163 38.1994
11.889806534289491 39.0203
11.912226250487029 40.403
11.934663912939751 42.8195
11.9571020346363 48.4414
11.979523127133968 60.6846
12.001962169624331 78.5885
12.024384183972964 90.9134
12.046824150809913 88.385
12.069264581333726 72.5831
12.091687985297767 57.3797
12.11412934550045 49.5294
12.136553680195208 47.2302
12.158995973632788 47.61600000000001
12.181438735204349 48.2634
12.20386447284199 49.1338
12.226308172985636 50.9681
12.24873485024193 53.6455
12.271179492516982 58.5455
12.293607112949127 65.717
12.316052700916226 76.3333
12.338498763250042 88.5566
12.360927805303868 95.5728
12.383374818673879 94.1489
12.405804812803074 83.8969
12.428252780773262 70.6117
12.45070122756722 60.2385
12.473132656675375 53.486000000000004
12.49558206341869 49.1547
12.518014453510101 46.0296
12.540464823770117 44.1065
12.562915677315177 42.9163
12.58534951575545 42.2819
12.607801338171472 41.4307
12.630236146511358 41.5842
12.652688941369085 41.669
12.675124723177234 42.0832
12.697578494048786 42.3932
12.720032754458185 42.1604
12.742470003354093 42.1427
12.764925245138771 42.1115
12.787363476431278 41.3271
12.809819703166806 40.9682
12.83227642391173 40.596
12.854716135692716 40.2273
12.877173846755147 40.5268
12.899614549869717 40.0851
12.9220732548287 40.2933
12.94453245827299 40.4823
12.966974655289818 40.6947
12.989434858002571 41.0381
13.011878055298721 41.403
13.034339260862497 41.8304
13.056800969391883 42.6313
13.079245674017244 43.8132
13.101708390774869 45.3057
13.12415410463411 48.8389
13.146617833206086 54.6088
13.169064559883248 59.5454
13.191529303857127 62.4272
13.213994557076367 63.6072
13.236442809902437 64.0012
13.258909083908291 66.4495
13.28135835851934 69.0253
13.30382565690295 71.2059
13.326293469022952 74.0009
13.348744283242008 78.9665
13.371213125129904 88.3806
13.39366497011003 104.734
13.416134845360597 130.25
13.438605238843131 166.80700000000002
13.46105863690397 203.145
13.483530069144786 220.14700000000002
13.505984506951902 205.479
13.528456981549432 170.945
13.550929978879088 135.086
13.573385983253365 110.713
13.595860028340867 96.139
13.618317081455832 88.6559
13.64079217790333 83.8857
13.663250283359057 81.2133
13.685726434770173 80.2411
13.708203115221277 84.3943
13.730662806148091 93.84100000000001
13.75314054697177 110.13600000000001
13.775601299246777 138.382
13.798080104050406 175.055
13.820559442405358 202.707
13.843021793671388 202.136
13.865502201420897 173.489
13.887965623051947 133.06799999999998
13.910447103807167 99.7284
13.932929122629764 78.0148
13.955394156785959 66.3294
13.977877254034569 58.3566
14.000343367582113 53.6658
14.022827546871707 50.6078
14.045294743423524 48.5968
14.06778000837062 47.0698
14.090265817715476 46.6281
14.112734645763819 46.4744
14.13522154619454 46.9267
14.157691466286913 50.2563
14.180179461423874 58.4038
14.202668005486178 71.0166
14.22513957064374 82.539
14.247629214846473 86.8135
14.270101881097517 78.0006
14.29259262906496 63.2927
14.315083930490205 52.4348
14.337558255389705 46.4116
14.360050666019726 43.5675
14.382526101071944 42.1875
14.405019624534942 41.2822
14.427513705993134 40.4656
14.449990813291825 40.411
14.47248601302899 39.9102
14.49496423954951 39.6173
14.517460561197822 39.4131
14.539939910570322 39.2321
14.562437357763558 39.0503
14.58493536931253 38.9895
14.607416409993311 39.1109
14.62991555254159 39.2829
14.652397725157423 39.4934
14.674898002342799 39.4767
14.697398848433282 39.4947
14.719882725991326 39.9808
14.74238471217934 40.0775
14.764869730765593 40.4355
14.787372860692983 40.5074
14.809876564079925 41.1902
14.83236330125751 42.1153
14.854868153850365 43.1567
14.877356041159485 45.3181
14.899862046604186 47.3553
14.922351087688757 49.1945
14.944858249632887 50.3458
14.967365991421232 51.114
14.989856770231246 52.1882
15.012365673994204 54.1427
15.03485761569738 58.0585
15.05736768508665 64.4875
15.07987833888692 74.5547
15.102372032001655 89.8679
15.124883856909658 107.473
15.14737872204565 121.917
15.169891721717274 123.54
15.192405310371893 113.836
15.214901940621196 96.6567
15.237416709527137 78.9148
15.259914520936249 65.9717
15.282430473753607 57.1037
15.304947020131227 51.5298
15.327446610371178 47.8593
15.349964346154254 45.167
15.372465126703139 43.6681
15.394984055556009 42.6765
15.417486030076159 41.7487
15.44000615566487 40.8695
15.462526881230803 40.5264
15.485030653812652 40.2472
15.507552581617434 39.7809
15.530057557334603 39.545
15.55258069104857 39.4053
15.575104429329837 39.5189
15.597611216864632 39.3364
15.620136166564563 39.3577
15.6426441664095 39.1663
15.665170331202765 39.2139
15.687697105158826 39.4898
15.710206930593545 40.1338
15.732734925158933 40.3457
15.755245972089478 41.5097
15.77777519094324 42.9457
15.800287463046663 44.4566
15.822817909869592 46.2617
15.84534897229804 47.2875
15.867863089299354 48.4097
15.890395385222186 48.9779
15.912910736597423 49.9718
15.935444269699861 52.4538
15.957978423016485 56.934
15.980495633101265 63.093
16.003031029129367 72.8489
16.02554948280019 87.3406
16.048086125229432 104.464
16.070623392487107 117.635
16.09314371869582 121.279
16.11568223789321 114.936
16.13820381691126 101.721
16.160743591742527 87.3403
16.183283996022084 73.6872
16.205807461423195 61.8939
16.228349126881973 52.6333
16.25087385432698 47.0393
16.27341678466365 43.1024
16.29594277784926 40.9651
16.31848697676433 39.1728
16.341031811604868 37.8575
16.36355971058487 37.3123
16.3861058195587 36.6498
16.40863499352978 36.16
16.431182380342005 35.7289
16.453730407713202 35.262
16.476261501364792 34.8196
16.498810812136167 34.5713
16.52134319004079 34.3758
16.54389378792203 34.049
16.566445031001553 33.5934
16.588979342490088 33.2794
16.61153187824822 33.0369
16.634067483263312 33.0096
16.656621315414416 32.9195
16.679175797408888 32.5251
16.701713349928728 32.5047
16.72426913389191 32.725
16.74680798922351 32.5623
16.76936507887444 32.5334
16.791905240734874 32.6855
16.814463639794468 32.4874
16.837022695210294 32.6512
16.859564824093756 32.8436
16.882125194503903 32.8694
16.904668639217885 33.0634
16.927230328348003 33.2813
16.949792678493612 34.1865
16.972338104193863 35.6616
16.994901778652235 37.6651
17.017448529496576 39.3489
17.040013531998152 40.4146
17.06257920018044 39.6005
17.0851279459922 37.6027
17.107694947817667 35.9311
17.130245028099072 34.7708
17.15281336730298 34.1415
17.17536478578733 34.1018
17.19793446610687 34.2554
17.220504818648422 34.4971
17.243058251703697 34.5813
17.265629950971032 34.6671
17.288184731571736 34.8855
17.310757781306908 35.2347
17.33333150794385 35.2929
17.355888317140174 35.6642
17.37846339986244 36.5298
17.401021565958885 37.7606
17.42359800851343 39.7009
17.44617513265564 42.1263
17.468735341390783 45.4689
17.491261035594565 48.9114
17.51396340099364 50.9596
17.536490463869136 50.6006
17.559018209820174 47.9375
17.58154663977963 44.4188
17.604251766089718 41.2427
17.626781572227713 39.1101
17.64931206518155 37.3643
17.671843245885103 36.6111
17.69455114821572 35.8302
17.717083712612634 35.8853
17.739616967569667 35.8608
17.762150914021706 36.1133
17.78486160749854 36.6807
17.807396945166804 37.8535
17.829932977143503 39.527
17.85246970436452 41.3541
17.875183204129467 42.3988
17.897721330097664 42.3663
17.920260154126645 41.446999999999996
17.942799677153296 40.2554
17.9655159983646 39.7736
17.988056927677544 40.3121
18.010598558807683 41.333
18.033140892692916 42.253
18.05586005052525 42.7705
18.07840379824407 43.1556
18.10094825154059 43.4421
18.12366954819864 44.0207
18.146215420998306 45.0658
18.16876200220057 46.8982
18.191309292745153 49.9173
18.214033452627167 54.6425
18.236582170236648 61.159
18.259131600016456 70.7144
18.281681742907335 82.1337
18.304408781233683 92.973
18.32696035875955 97.3689
18.349512652227624 94.4792
18.372065662579683 85.1338
18.394795594587553 73.4877
18.41735004715306 63.9888
18.43990521943684 58.3655
18.46246111238171 55.5695
18.485193953325208 55.3546
18.507751296070428 57.5403
18.530309362314178 61.993
18.552868153000343 67.0456
18.57560391815056 70.8904
18.59816416623245 72.1038
18.620725141597372 69.3653
18.643286845190268 63.6097
18.666025549835414 57.4361
18.688588718427933 51.9463
18.711152618092243 47.5302
18.73389353884365 43.7383
18.75645890921984 40.8976
18.77902501351406 39.1533
18.801591852673102 37.9653
18.824335739722738 36.9918
18.846904057212626 36.5623
18.8694731124168 35.8497
18.89204290628315 35.6672
18.914789774966803 35.423
18.937361054791623 35.1156
18.959933076131318 34.7514
18.982505839934877 34.586999999999996
19.00525570560582 34.6365
19.027829963004184 34.4066
19.05040496572238 34.2779
19.072980714710468 34.1176
19.095733592739563 34.2388
19.11831084296757 34.1588
19.140888842324735 34.1754
19.16346759176222 34.2058
19.18622349753803 34.1609
19.208803755869358 34.6014
19.231384767143577 34.8252
19.253966532312948 35.2004
19.276725481241822 35.6374
19.29930876296784 35.8533
19.3218928014549 36.3542
19.34465404436217 37.3786
19.36723960516257 38.9461
19.389825925592426 41.3702
19.412413006605938 44.0171
19.43517731967805 46.4093
19.457765930683355 47.4503
19.48035530514408 46.9211
19.50294544401556 45.6395
19.525712842708348 45.0671
19.54830451925909 45.9157
19.570896963095727 47.1233
19.593490175174704 47.8804
19.616260674962184 47.5994
19.638855432416964 45.4886
19.661450960992624 42.864
19.68404726164677 40.2235
19.706820878021247 37.6802
19.729418731756834 36.3293
19.752017360452857 34.9616
19.77461676506804 34.3079
19.797393513540218 33.6763
19.819994478951667 33.0073
19.84259622316767 33.0571
19.8651987471481 32.7303
19.887978643247177 32.5096
19.91058273574792 32.391999999999996
19.933187610901943 32.5927
19.955969879466828 32.6615
19.97857632894404 32.8462
20.00118356396599 32.8051
20.023791585494575 32.9463
20.046577028914875 33.0475
20.069186632506966 32.9912
20.091797025500632 33.1465
20.114408208858933 33.1816
20.137196842715273 33.5226
20.159809615886765 34.0807
20.18242318232135 34.6502
20.20503754298326 35.7112
20.227829382875154 37.0798
20.250445341109344 39.0254
20.27306209647285 41.3783
20.29567964993108 43.7161
20.31847471147704 45.4726
20.34109387027612 45.9397
20.363713830075454 44.8574
20.386334591841646 42.9284
20.409132890679302 40.8223
20.431755265564437 39.2721
20.454378445325528 38.6931
20.477002430930366 38.9605
20.499803982716553 39.8829
20.522429589228004 41.6252
20.54505600449589 43.1265
20.567683229489194 43.7127
20.590488049900088 42.9553
20.61311690359731 41.1543
20.63574656993626 38.7745
20.658553853717297 36.3357
20.681185154618298 34.7025
20.703817271080066 33.4148
20.72645020407368 32.2602
20.749260783967177 32.0011
20.771895359337133 31.5908
20.794530754161617 31.5604
20.817166969412938 31.8574
20.83998086114876 32.4065
20.86261872660049 33.0539
20.885257415405402 33.7884
20.90789692853701 33.8655
20.930714147864748 33.4878
20.953355319030678 32.2571
20.97599731745334 31.2083
20.99864014410749 30.2812
21.021460706796564 29.9536
21.044105199328826 29.6971
21.06675052302631 29.4409
21.089396678865015 29.3833
21.112220600704806 29.4042
21.134868430275347 29.439
21.15751709492456 29.3515
21.180166595629693 29.3476
21.202993892429635 29.3352
21.22564507473034 29.285999999999998
21.24829709602816 29.3285
21.27112693608965 29.2891
21.293780644891275 29.4096
21.316435195634053 29.2766
21.339090589297417 29.4455
21.361923832041875 29.6753
21.384580921090404 29.9242
21.407238856007325 30.2085
21.429897637773326 30.935
21.45273429906592 31.6161
21.475394784108598 32.2604
21.498056118951983 32.507
21.520718304578022 32.4683
21.543558400304388 32.2431
21.566222297108816 31.8109
21.58888704765135 31.3643
21.61155265291521 30.9266
21.63439619898156 30.5543
21.657063523335786 30.1233
21.67973170537063 29.9938
21.7024007460706 30.0026
21.72524775840385 30.1531
21.747918526116475 30.2353
21.770590155457388 30.5132
21.79326264741238 30.7165
21.816113141960237 30.9469
21.838787368860547 31.0579
21.861462461341976 31.2731
21.884315579735777 31.3386
21.90699241312273 31.5415
21.92967011506078 31.7972
21.95234868653799 32.07
21.9752053151131 32.69
21.997885635446785 33.4901
22.020566828293532 34.5284
22.04324889464272 35.7457
22.066109049404666 37.2589
22.088792872571794 39.5111
22.111477572219204 42.0003
22.1341631493376 44.216
22.157026846313123 45.8698
22.179714188221507 46.1928
22.202402410582668 45.5809
22.22509151438863 43.9232
22.24795876962584 42.2643
22.270649646204486 41.1865
22.293341407213727 40.2462
22.316034053646906 39.4419
22.338904883215342 38.9033
22.36159931041458 38.8979
22.38429462602756 38.4568
22.40699083104897 37.5013
22.429865251039757 36.5919
22.452563244831367 35.3145
22.47526213102522 33.9178
22.49813925616515 32.9745
22.520839937143307 32.2894
22.543541513520587 31.659000000000002
22.56624398629403 31.1206
22.589124730075895 30.8557
22.611829005656723 30.8134
22.63453418063466 30.4435
22.657240256008077 30.3425
22.680124634582935 30.2607
22.70283252079775 30.188000000000002
22.725541310413075 30.2497
22.74825100442868 30.1052
22.771139033969575 30.3483
22.79385054687155 30.5093
22.81656296718292 30.6926
22.83927629590484 31.0825
22.862167992606945 31.5949
22.88488314827121 31.9484
22.907599215359284 32.1848
22.93031619487366 32.2219
22.953211574954405 32.0467
22.975930389478226 31.969
22.998650119445763 31.6689
23.02137076586092 31.5346
23.044269845560063 31.65
23.06699233506288 32.1307
23.089715744034912 32.6751
23.112617610931565 33.1883
23.135342869061212 34.421
23.158069049684816 35.8526
23.1807961538087 37.6436
23.20370174880544 39.6978
23.226430710184808 40.9296
23.249160598093425 41.0888
23.271891413539002 39.893
23.294800752937697 38.2594
23.31753343374794 36.3711
23.340267045128353 34.7247
23.36300158808808 33.5345
23.38591468821339 32.8143
23.408651104658304 32.4256
23.431388455719986 32.1635
23.454126742409 32.3759
23.4770436196085 32.6822
23.499783787914662 33.1978
23.522524894889884 33.6214
23.54526694154616 33.8545
23.56818761219047 34.022
23.59093154860734 33.6292
23.613676427751283 33.2832
23.636422250635754 32.7137
23.659346731118656 32.5385
23.68209445191868 32.716
23.704843119509587 33.2058
23.72759273490623 33.8882
23.750521041644767 34.8483
23.77327256312355 36.3027
23.796025035462787 38.1677
23.818956224555475 40.0832
23.841710609113413 41.6522
23.86446594758979 42.0775
23.887222241002014 41.2175
23.910157285144578 39.2366
23.932915498962537 37.2253
23.955674670778713 34.9281
23.978434801611975 33.1574
24.001373717286125 31.7879
24.024135776723917 30.8422
24.046898798245582 30.2842
24.06966278287146 29.8527
24.092605586582614 29.5733
24.115371508023642 29.3024
24.1381383956401 29.0813
24.16090625045381 29.1103
24.183852958731244 28.9257
24.206622758582608 28.6461
24.229393528706886 28.4169
24.252165270127392 28.2436
24.27511589952438 27.9769
24.297889594216997 27.6618
24.32066426328598 27.5242
24.34343990775613 27.464000000000002
24.36639447485003 27.1677
24.38917208083877 27.2429
24.41195066531332 27.0547
24.43490819850244 27.0996
24.457688750692377 26.9617
24.48047028445616 26.9542
24.503252800821233 26.92
24.526214300784112 26.9562
24.548998793132213 26.7391
24.57178427117417 26.6248
24.59457073593893 26.7905
24.617536219319863 26.8641
24.64032466834748 26.9521
24.663114107195035 27.0242
24.685904536893013 26.8718
24.708874020360852 27.2807
24.731666442613744 27.6032
24.754459858818787 27.8835
24.777254270007962 28.0751
24.80022777025625 28.0661
24.82302418230472 27.919
24.845821592443674 27.7158
24.86862000170663 27.3848
24.891597535453727 27.0897
24.914397953892728 27.0997
24.93719937456671 26.8104
24.96000179851076 26.6642
24.98298338249997 26.6429
25.00578782394922 26.5841
25.028593271784167 26.4902
25.05157790644186 26.599
25.07438537804115 26.4454
25.097193859145293 26.4763
25.120003350792075 26.4997
25.142992065061257 26.504
25.165803588823465 26.4802
25.18861612625217 26.5408
25.211429678386736 26.7453
25.234422489079968 26.8486
25.257238081693636 27.0958
25.280054692141732 27.1746
25.3028723214652 27.464000000000002
25.325869245420463 27.8509
25.348688923599397 28.2397
25.371509623787006 28.5716
25.394331347025812 28.9496
25.41733240110666 29.2918
25.440156181590016 29.4925
25.46298098826268 29.8113
25.48580682216873 29.7651
25.50881202326435 29.7056
25.53163992281684 29.666
25.55446885274561 29.8728
25.577298814096377 30.2765
25.600308179121807 30.7312
25.623140214533745 31.2948
25.64597328451537 31.3238
25.66898578564376 30.7431
25.691820936010206 30.0425
25.714657124097695 29.2338
25.737494350954734 28.3504
25.760511045684957 27.7232
25.783350361364224 27.1849
25.806190718969255 26.8192
25.82903211955018 26.6435
25.852053024868923 26.6498
25.874896522722523 26.6358
25.897741066713106 26.6044
25.920586657892454 26.7865
25.943611790812668 26.874000000000002
25.966459487728237 26.728
25.989308234998564 26.6498
26.01215803367705 26.4899
26.03518741123814 26.3619
26.05803932412957 26.1184
26.080892291600094 25.8526
26.10374631470478 25.7927
26.12677995397268 25.785999999999998
26.14963609978026 25.8398
26.172493304397875 25.802
26.19535156888223 25.9311
26.218389486949604 25.881
26.241249882640123 26.069000000000003
26.26411134137826 26.2473
26.28715248187403 26.6105
26.31001607820869 26.9436
26.3328807407756 27.3683
26.35574647063438 27.8119
26.37879191991473 28.123
26.401659795896734 28.2268
26.424528742360263 28.0942
26.447398760366614 27.959
26.470448535598294 27.4507
26.49332070826805 27.068
26.516193955675355 26.7968
26.53906827888316 26.5591
26.562122397260108 26.4118
26.584998883685063 26.2292
26.607876449110325 26.2331
26.63075509460056 26.0867
26.65381357334404 26.0795
26.67669439061878 26.1307
26.699576291163382 26.0821
26.722459276044212 26.1295
26.745522132402975 26.2491
26.768407297649354 26.4773
26.791293550442003 26.5686
26.814180891848974 26.9274
26.837248143099337 27.0434
26.860137673466657 27.658
26.88302829566349 28.2254
26.90592001075963 28.8861
26.92899167420566 29.485
26.951885586870763 29.599
26.974780595655517 29.6043
26.99785558178161 29.6362
27.020752794605112 29.4943
27.043651106772522 29.1446
27.06655051935668 29.0134
27.089629948036183 28.8446
27.112531573292053 28.4504
27.135434302194138 28.1506
27.158338135817015 27.624000000000002
27.181422024430987 27.1122
27.204328079372566 26.6123
27.22723524226965 26.1333
27.250143514198573 25.9793
27.273231880156334 25.6661
27.296142382065014 25.4075
27.319053996245536 25.1545
27.341966723775965 25.1163
27.365059584515222 25.0939
27.38797455070062 24.9765
27.410890633481237 24.8137
27.433807833936918 24.7261
27.456905206923906 24.8584
27.47982465472398 24.7212
27.502745223449743 24.723000000000003
27.525666914182825 24.8426
27.548768816912457 24.7738
27.571692763693633 24.8077
27.59461783573812 24.8861
27.617723149491244 24.7655
27.640650484125285 24.8122
27.66357894728264 24.8911
27.686508540048052 24.9197
27.709618414237887 24.9004
27.732550278321757 24.8715
27.755483275279115 25.1392
27.778417406196485 25.2067
27.801531858397514 25.2673
27.824468269376716 25.4911
27.847405817586786 25.5543
27.870344504116094 25.4835
27.893463551932008 25.4337
27.916404527281053 25.3658
27.93934664422563 25.1381
27.962289903855886 24.9198
27.98541356491974 24.8436
28.00835912214229 24.7585
28.03130582533231 24.9401
28.054253675581805 25.044
28.077381967556104 25.1035
28.100332124185126 25.2869
28.123283431160893 25.4179
28.146235889577238 25.5627
28.169368830154156 25.7295
28.192323603752033 25.7719
28.215279532083304 25.634
28.238415973016764 25.6948
28.261374223145094 25.7456
28.284333631303806 26.1006
28.307294198589954 26.5829
28.330435319167677 27.0013
28.353398217078915 27.3268
28.376362277420153 27.4532
28.39932750129032 27.4353
28.422473319286713 27.2706
28.44544088262495 27.1769
28.468409612800283 26.7956
28.491379510913497 26.4411
28.51453004413313 26.205
28.53750229057244 26.1596
28.56047570826344 25.9226
28.583450298308804 25.8586
28.606605564586562 25.4579
28.629582511831156 25.2757
28.65256063474956 24.9243
28.675539934446338 24.6967
28.698699951647605 24.5212
28.72168161743193 24.1744
28.74466446331978 23.8796
28.767648490417624 23.6896
28.790813276438353 23.5134
28.813799678527303 23.3901
28.836787265157085 23.3388
28.859955641890075 23.2948
28.882945610203045 23.122
28.905936766392035 23.0578
28.928929111566863 23.0631
28.952102288520145 23.0089
28.975097024308607 22.9806
28.998092952423807 22.8416
29.021090073977508 22.9003
29.04426806913204 22.8806
29.067267590245258 22.8323
29.090268308143695 22.791
29.11327022394099 22.8978
29.13645305530891 22.9545
29.159457379627167 23.0566
29.18246290519685 23.1115
29.20546963313352 23.2854
29.22865731875826 23.2906
29.25166646419296 23.225
29.27467681535305 23.1612
29.29768837335608 23.0653
29.320880931312562 22.7287
29.34389491580634 22.6073
29.366910110507334 22.476
29.38992651653503 22.4396
29.41312396492981 22.4016
29.436142806456754 22.2018
29.45916286268059 22.1199
29.48236399319994 22.1028
29.50538649169417 22.0658
29.528410208259935 22.0757
29.55143514402014 22.1202
29.574641196749695 22.0982
29.597668583816574 22.1064
29.6206971934585 22.1475
29.64372702680042 22.3791
29.666938019934474 22.3507
29.689970313635285 22.4779
29.713003834422636 22.5827
29.73603858342347 22.6041
29.759254535188578 22.5588
29.78229175361658 22.4276
29.80533020365064 22.3857
29.82836988641968 22.2027
29.85159081507472 21.9028
29.874632976355343 21.7587
29.89767637376955 21.625
29.920721008448314 21.4626
29.9439469322847 21.4655
29.96699405457564 21.4311
29.9900424175358 21.4139
30.013092022298157 21.3195
30.03632295963995 21.3427
30.059375061131373 21.3613
30.08242840783577 21.3953
30.105483000888153 21.3567
30.128718970092244 21.3645
30.151776069006917 21.4276
30.17483441768648 21.4576
30.198074175317235 21.5232
30.221135036724256 21.4702
30.24419715131772 21.4224
30.267260520236203 21.2964
30.290505341942243 21.3173
30.313571232750228 21.2367
30.336638381310948 21.1582
30.35970678876503 21.2099
30.38295669299435 21.11
30.40602763151657 21.2012
30.429099832366074 21.2232
30.452173296685572 21.2163
30.47542830191959 21.2572
30.498504306502497 21.2851
30.521581577995562 21.3236
30.544660117543582 21.5081
30.56792024229725 21.4498
30.59100133132069 21.3712
30.614083691845494 21.355
30.637167325018545 21.2872
30.660432587840603 21.1907
30.683518779717886 21.0689
30.70660624769615 21.1105
30.729694992924372 21.1481
30.75296541239743 21.0279
30.77605672557558 21.1413
30.799149319462742 21.0636
30.8224236211637 21.0323
30.845518789950724 21.05
30.868615242910597 21.194000000000003
30.891712981195973 21.2188
30.91499247215866 21.3507
30.938092794619365 21.5032
30.96119440587579 21.5945
30.984297307082752 21.6931
31.00758200598383 21.9657
31.030687500658694 22.1015
31.053794288760695 22.177
31.076902371446767 22.1628
31.100192296997445 22.1449
31.12330298246119 22.1013
31.14641496599209 21.9623
31.169528248749216 21.918000000000003
31.19282341969534 21.8333
31.215939314557186 21.8074
31.239056512134788 21.6016
31.262175013589378 21.4567
31.28547544871168 21.2201
31.30859657161541 21.0766
31.331719001892175 20.9723
31.35484274070538 20.8709
31.378148458819545 20.8031
31.401274828443725 20.7144
31.424402510106933 20.6103
31.447712205419993 20.5636
31.470842524931633 20.5204
31.493974159989783 20.49
31.51710711176168 20.526999999999997
31.54042212308802 20.4305
31.563557722100917 20.4669
31.586694641341655 20.4414
31.609832881979628 20.4849
31.63315322823208 20.5682
31.656294125521327 20.5639
31.679436347728515 20.5924
31.70257989602529 20.6657
31.725905596152327 20.7422
31.74905181052835 20.7814
31.772199354521323 20.8752
31.79534822930507 20.9646
31.818679302290967 21.0632
31.84183085259981 21.1087
31.864983737233473 20.9847
31.88813795736804 21.0179
31.911474422233013 20.8958
31.934631327356435 20.7033
31.9577895715215 20.5896
31.980949155906522 20.375999999999998
32.004291031706956 20.297
32.027453310562606 20.2394
32.05061693318573 20.1669
32.07396288236386 20.2481
32.09712920658542 20.2174
32.12029687812702 20.2166
32.14346589817093 20.278
32.166817291729984 20.444000000000003
32.18998902288583 20.3534
32.21316210610336 20.3443
32.23633654256711 20.3759
32.259693399663725 20.5094
32.282870556771144 20.5581
32.30604907069099 20.631
32.329228942610065 20.5916
32.35259128243769 20.4829
32.375773884550505 20.4386
32.398957848235646 20.3266
32.422143174682176 20.2485
32.445511016471215 20.0502
32.468699082679954 19.9041
32.49188851523011 19.8813
32.51507931531304 19.7766
32.538452678331 19.6696
32.56164622776311 19.645
32.58484114831493 19.5297
32.60803744118015 19.436
32.631416344731896 19.4161
32.654615396551876 19.3739
32.67781582427913 19.3394
32.701198898634416 19.2052
32.72440209253756 19.059
32.747606665947124 19.0365
32.77081262006088 18.8742
32.79420126883317 18.9519
32.81740999876112 18.9686
32.840620112999424 18.8432
32.86383161274818 18.7688
32.88722585534586 18.8526
32.91044014056596 18.9189
32.933655814909734 18.8382
32.95687287957963 18.8278
32.98027273544904 18.7811
33.00349259526636 18.849
33.026713849030116 18.8488
33.04993649794511 18.8457
33.073341986570746 18.8644
33.09656744032826 18.852999999999998
33.11979429286444 18.8705
33.14302254538647 18.7656
33.166433686291185 18.7185
33.18966475336992 18.6584
33.212897224069096 18.5967
33.23613109959831 18.4714
33.259547912343415 18.4446
33.2827846121627 18.6048
33.306022720453775 18.4608
33.32926223842861 18.3685
33.352684742614166 18.4678
33.37592709463173 18.5028
33.399170859982064 18.6074
33.422597648419426 18.5266
33.44584425514446 18.544
33.46909227885668 18.666
33.4923417207723 18.6397
33.51577423505344 18.7819
33.539026528130385 18.8123
33.56228024307245 18.7733
33.585535381098246 18.7296
33.60897364093058 18.754
33.63223163992385 18.7239
33.6554910656699 18.719
33.678751919389796 18.6977
33.702195944520106 18.6018
33.72545966903325 18.5727
33.74872482519663 18.4478
33.771991414233746 18.3778
33.79544122444841 18.2171
33.81871069412428 18.0429
33.84198160035767 17.9735
33.86525394437455 17.9406
33.88870955949969 17.9286
33.911984794020626 17.8448
33.93526147001624 17.8036
33.958539588715006 17.8276
33.98200102861669 17.7121
34.0052820477047 17.7428
34.02856451319451 17.7308
34.05203033759056 17.6481
34.07531571090147 17.7208
34.09860253431845 17.6786
34.121890809074316 17.6148
34.145362493118924 17.5792
34.16865368561615 17.5731
34.191946333164054 17.663
34.21524043699793 17.6716
34.23871800066799 17.589000000000002
34.26201503218366 17.4996
34.28531352370466 17.5427
34.30861347646881 17.4988
34.33209693978188 17.5153
34.3553998301885 17.4513
34.378704185565205 17.3032
34.402010007152356 17.2677
34.42549939016683 17.2763
34.44880815937748 17.1483
34.472118398533134 17.1188
34.49543010887669 17.1576
34.51892543169198 17.0031
34.54224009966052 17.0674
34.56555624255917 17.0877
34.58887386163339 17.0512
34.61237514439016 16.9816
34.6356957311114 17.0166
34.65901779775809 17.0126
34.68252356662995 17.0996
34.705848608458616 17.0758
34.72917513396849 17.0132
34.75250314440949 16.9676
34.77601490857862 16.9497
34.799345904259795 16.885
34.82267838863559 16.8949
34.846012362958525 16.8059
34.869530142679984 16.7602
34.89286711232212 16.7211
34.91620557568269 16.694000000000003
34.93954553401677 16.6045
34.9630693495876 16.499000000000002
34.986412313340814 16.5505
35.00975677584668 16.574
35.033102738362956 16.4991
35.05663261012228 16.4664
35.0799815881786 16.4265
35.10333207003229 16.3632
35.12668405694369 16.4478
35.150220005273056 16.4333
35.17357501786656 16.3106
35.19693153931268 16.3155
35.220289570874385 16.3649
35.24383161619786 16.3527
35.267192683604904 16.3532
35.290555264930376 16.358
35.314101899412165 16.2952
35.33746752422433 16.357
35.36083466676374 16.3533
35.38420332829803 16.2879
35.407756095629054 16.2989
35.43112781085063 16.2204
35.45450104888391 16.187
35.477875810999194 16.208
35.50143473172161 16.1828
35.52481255774625 16.2237
35.54819191167777 16.1471
35.57157279478914 16.1928
35.595137889488406 16.185
35.61852184675279 16.2134
35.641907337029984 16.1752
35.665294361595684 16.2027
35.68886565090076 16.3074
35.7122557598848 16.3173
35.73564740699838 16.3291
35.759040593519934 16.3569
35.78261809810353 16.4707
35.80601437933051 16.4234
35.829412203814705 16.4037
35.85281157283719 16.4005
35.876395313415884 16.4736
35.8997977874528 16.4055
35.92320180988546 16.2978
35.946790244133936 16.2892
35.97019737933222 16.2149
35.993606066789866 16.1954
36.01701630779276 16.0531
36.04061101440684 16.0148
36.06402437852291 15.9528
36.08743930005611 15.9471
36.1108557802951 15.8484
36.13445678011326 15.8827
36.15787639383515 15.7989
36.18129757014299 15.7071
36.20472031032821 15.6902
36.22832762423364 15.7023
36.25175350829375 15.6747
36.275180960119776 15.5831
36.298609981005924 15.648
36.32222362992669 15.634
36.34565580510207 15.5328
36.36908955323448 15.5237
36.39252487562093 15.4245
36.416144880530226 15.4519
36.43958336764275 15.5158
36.463023432914625 15.4739
36.486465077645676 15.4004
36.51009145956204 15.4734
36.53353627947859 15.5104
36.55698268276811 15.4876
36.58043067073321 15.4701
36.60406345072071 15.4047
36.62751462435344 15.4312
36.65096738658405 15.3546
36.67460498210655 15.3693
36.69806093788647 15.2724
36.72151848619297 15.1894
36.744977628333636 15.2026
36.76862165890998 15.2171
36.79208400512205 15.2217
36.81554794910557 15.1928
36.83901349217101 15.1559
36.862663978991606 15.1664
36.88613273667352 15.1321
36.90960309738324 15.1626
36.933075062434064 15.1911
36.95673202673572 15.1747
36.98020721697122 15.0835
37.003684015502365 15.0963
37.027162423645365 15.0379
37.050825886711465 15.0202
37.07430753063053 15.0289
37.09779078812467 14.9935
37.121275660513014 14.9609
37.144945643673694 14.8795
37.16843376245278 14.8482
37.19192350009803 14.8239
37.215414857931435 14.732999999999999
37.239091382563885 14.7203
37.262585997426164 14.7028
37.28608223645736 14.6759
37.309763684451696 14.6847
37.33326318851098 14.5993
37.356764320726555 14.6195
37.380267082425526 14.6006
37.40395510942588 14.6214
37.42746114683234 14.5313
37.45096881771841 14.5002
37.474478123414166 14.5177
37.49817275092816 14.4477
37.52168534303452 14.4462
37.54519957395567 14.443
37.568715445024665 14.4297
37.592416694607714 14.3588
37.61593586281424 14.3685
37.63945667518264 14.394
37.66297913304891 14.2892
37.68668702630454 14.2414
37.710212792059274 14.2889
37.733740207334854 14.2564
37.757269273470364 14.2383
37.780983832050374 14.1301
37.80451621684926 14.1478
37.82805025654007 14.164000000000001
37.851585952464795 14.1066
37.8753071980695 14.0623
37.89884622345676 14.0286
37.92238690911902 14.0575
37.94611318753442 14.0866
37.969657210779765 14.085
37.99320289834801 14.0422
38.016750251586465 13.9554
38.04048325513017 13.9632
38.06403395679343 13.9579
38.087586328183946 13.960999999999999
38.11114037065203 13.9664
38.13488012115898 13.9766
38.1584375229181 13.8327
38.181996599821 13.86
38.205557353221124 13.8359
38.229303872575656 13.8199
38.2528679961576 13.7894
38.27643380031219 13.7591
38.30000128639589 13.7708
38.32375459653193 13.7642
38.34732546371299 13.648
38.37089801690786 13.5885
38.39447225747609 13.5559
38.418232380377425 13.5207
38.441810012983396 13.5497
38.46538933705673 13.5263
38.488970353960084 13.4997
38.51273731166058 13.511
38.536321731567014 13.4916
38.55990784840681 13.4993
38.58367995004091 13.485
38.60726947812959 13.4298
38.63086070726198 13.4467
38.654453638806274 13.4751
38.678232613930824 13.4165
38.70182896773327 13.3885
38.72542702806741 13.3478
38.7490267963045 13.3565
38.77281266709232 13.3668
38.79641586862214 13.3752
38.8200207821842 13.2836
38.843627409152944 13.3137
38.86742019782782 13.2661
38.891030269149255 13.2274
38.914642058016156 13.1944
38.938255565806124 13.1556
38.96205529464307 13.1511
38.98567225787121 13.1398
39.00929094417078 13.1894
39.03291135492255 13.1772
39.05671804624804 13.161
39.080341923549106 13.1371
39.103967529460334 13.1175
39.127594865365744 13.0595
39.15140854155791 13.0643
39.17503935514948 13.0106
39.19867190290282 13.0111
39.22249083587951 12.9591
39.24612686969409 12.957
39.269764641845306 12.9074
39.293404153722804 12.875
39.317230110864074 12.793
39.34087311998506 12.7784
39.36451787301696 12.8293
39.388164371352595 12.7412
39.41199737518003 12.706
39.43564738196752 12.704
39.45929913825317 12.6756
39.48295264543308 12.6837
39.506792718520884 12.6517
39.530449745387216 12.6548
39.55410852735203 12.6385
39.57776906581474 12.6162
39.60161623079 12.5711
39.625280300200025 12.5745
39.64894613032202 12.4969
39.67261372255866 12.5149
39.6964680021016 12.5428
39.72013913657293 12.4904
39.74381203738292 12.5013
39.76748670593756 12.4805
39.79134812278169 12.4504
39.81502634488497 12.4607
39.83870633896685 12.4031
39.862388106436654 12.3783
39.88625668336918 12.3908
39.90994201572829 12.4365
39.933629125719285 12.3685
39.957503091207826 12.347000000000001
39.9811937746168 12.341
40.00488623990914 12.2989
40.02858048850006 12.2931
40.05246165409549 12.3138
40.076159487492085 12.231
40.099859108448875 12.2352
40.123560518384345 12.2589
40.1474489070226 12.2261
40.171153913178564 12.2491
40.194860712584955 12.2069
40.2185693066637 12.2324
40.242464941335314 12.248
40.26617714307655 12.2127
40.289891143772046 12.2027
40.3136069448471 12.1105
40.33750984859743 12.1588
40.3612292688043 12.0794
40.3849504936829 12.0354
40.40867352466194 12.0697
40.43258372059144 12.0211
40.45631038219906 11.9891
40.48003885420956 11.9746
40.503769138055105 11.9523
40.52768664931955 11.9913
40.55142057531802 11.9253
40.57515631746428 11.8883
40.599079334038514 11.9074
40.62281872700477 11.8672
40.64655994043941 11.8351
40.67030297578061 11.7825
40.69423334835778 11.8745
40.71798004609188 11.8282
40.74172857006355 11.8004
40.76547892171441 11.7788
40.7894166736039 11.7606
40.813170699248566 11.7593
40.83692655691388 11.7359
40.86068424804498 11.707
40.884629402612525 11.6953
40.908390779366385 11.695
40.932153993938 11.642000000000001
40.95591904777605 11.6076
40.979871628443995 11.6073
41.003640379561936 11.6129
41.02741097430883 11.6584
41.05118341413683 11.5893
41.075143444384416 11.5921
41.098919593177826 11.5937
41.1226975914255 11.5483
41.14647744058318 11.5342
41.170444943946755 11.6064
41.19422851378379 11.57
41.218013938914645 11.4778
41.24198706625173 11.4478
41.26577622087193 11.479000000000001
41.289567235177785 11.3982
41.31336011063129 11.4101
41.337340752422875 11.3634
41.361137369129835 11.3807
41.38493585138705 11.3688
41.40873620066004 11.3074
41.43272438060107 11.3124
41.45652848292052 11.2601
41.48033445666918 11.2456
41.50414230331616 11.193
41.528138045159764 11.1845
41.551949656675205 11.1556
41.575763145513235 11.157
41.59957851314666 11.1461
41.62358184070442 11.1654
41.64740098505737 11.1002
41.6712220126409 11.0587
41.69504492493139 11.0389
41.71905586207357 11.0758
41.74288256296395 11.0365
41.766711153007456 11.0189
41.79054163368412 11.0076
41.814560204340054 10.9933
41.838394485526365 11.0105
41.86223066180303 10.9861
41.88625497706819 10.9564
41.910094962812 10.9421
41.93393684811168 10.8645
41.95778063445365 10.8959
41.981812625263366 10.907
42.00566023303407 10.8375
42.029509746323676 10.8407
42.05336116662236 10.8553
42.077400857069705 10.8701
42.10125611078846 10.8468
42.12511327600405 10.8221
42.14897235421036 10.7361
42.173019768448455 10.7901
42.19688269209613 10.7551
42.22074753323349 10.767999999999999
42.24461429335818 10.7041
42.268669455600495 10.7141
42.292540073217886 10.687999999999999
42.31641261433284 10.7016
42.34028708044675 10.6521
42.36435001496739 10.642999999999999
42.38822835065557 10.5649
42.41210861586426 10.5479
42.4359908120986 10.5916
42.46006154323262 10.5112
42.48394762115317 10.4867
42.507835634632315 10.5086
42.531912233047436 10.5038
42.55580413732265 10.4817
42.579697981698 10.4547
42.60359376768525 10.4028
42.62767820545945 10.3982
42.65157789440821 10.4242
42.67547952952185 10.3593
42.699383112316 10.3494
42.72347541395347 10.3162
42.74738291190531 10.2998
42.771292362102166 10.2765
42.795203766063516 10.2453
42.819303956130405 10.3152
42.843219287476536 10.2406
42.86713657716324 10.2647
42.89105582671383 10.1868
42.91516392983864 10.2262
42.939087119032166 10.1583
42.963012272677304 10.1423
42.98693939230129 10.1404
43.01105543317513 10.1262
43.034986504731386 10.0988
43.05891954686589 10.0915
43.08285456110972 10.0444
43.10697856448665 10.0424
43.130917542983475 10.0382
43.15485849820081 10.0531
43.17880143167367 10.0181
43.20293342237094 9.99577
43.226880332449 9.975530000000001
43.25082922540554 9.95249
43.27496722682525 9.91248
43.29892010567796 9.907689999999999
43.32287497204102 9.901769999999999
43.34683182745632 9.912560000000001
43.370977859791836 9.828330000000001
43.39493871351105 9.8473
43.41890156092628 9.85557
43.44286640358341 9.84135
43.46702049182749 9.7928
43.49098934522816 9.79071
43.51496019852649 9.79251
43.5389330532723 9.78003
43.56309522248204 9.74142
43.58707210044314 9.749139999999999
43.61105098451946 9.68903
43.63503187626491 9.69594
43.659202151562134 9.6581
43.68318707902681 9.644689999999999
43.70717401884041 9.63278
43.731162972560874 9.61687
43.75534137913236 9.56979
43.779334381108384 9.59003
43.803329401683186 9.5522
43.82732644241872 9.54642
43.8515130055166 9.52702
43.87551410707659 9.52167
43.89951723350145 9.503260000000001
43.923709934595614 9.477219999999999
43.94771713129917 9.49717
43.97172635758096 9.50234
43.99573761501002 9.45733
44.0199385169922 9.44715
44.04395385732619 9.42558
44.067971233533086 9.42713
44.09199064718605 9.4103
44.11619977548961 9.41438
44.14022328470671 9.34708
44.16424883610785 9.33676
44.18827643127035 9.3327
44.21249381139513 9.37355
44.236525514814076 9.3313
44.26055926674478 9.29442
44.28459506876863 9.32415
44.3088207262813 9.30831
44.33286064928722 9.30612
44.35690262714919 9.253960000000001
44.38094666145278 9.184660000000001
44.4051806219871 9.197339999999999
44.42922879003185 9.19101
44.45327901929361 9.14527
44.477331311362136 9.17457
44.501573600619416 9.108360000000001
44.525630039221795 9.08761
44.54968854541895 9.12202
44.573937102200176 9.12775
44.5979997645541 9.098189999999999
44.622064499300315 9.09646
44.64613130803592 9.03534
44.67038823869318 9.05458
44.69445921643748 9.07055
44.718532272981385 9.012319999999999
44.742607409926194 9.05509
44.76687274034801 8.98757
44.79095205918753 8.90978
44.81503346325094 8.918569999999999
44.839116954143876 8.95632
44.86339071028742 8.91873
44.88747839599524 8.91496
44.91156817336837 8.84494
44.93566004401666 8.87819
44.959942251908146 8.86215
44.984038330325966 8.817219999999999
45.00813650686762 8.79298
45.03223678314731 8.84422
45.05652746888232 8.811819999999999
45.08063196592069 8.819410000000001
45.104738567558705 8.77844
45.128847275414856 8.787460000000001
45.15314646515866 8.76494
45.17725940679741 8.71454
45.20137445952892 8.720260000000001
45.22568004865265 8.71154
45.24979934496396 8.68857
45.27392075725247 8.69236
45.29804428714431 8.62705
45.322358426247604 8.62572
45.346486212804315 8.63522
45.370616121861914 8.6116
45.39474815505086 8.5791
45.41907087049246 8.54617
45.4432071734666 8.52467
45.46734560548283 8.57352
45.49148616817604 8.56875
45.51581748638564 8.56293
45.5399623320197 8.54317
45.56410931325473 8.50705
45.58825843173002 8.52167
45.61259837920865 8.48339
45.636751793816 8.47011
45.66090735060093 8.44127
45.68506505120716 8.43711
45.7094136545275 8.43548
45.73357566449271 8.39263
45.75773982322992 8.38562
45.78190613238733 8.38349
45.806263418194064 8.30748
45.83043404997326 8.38619
45.85460683713677 8.31943
45.87897065658495 8.3304
45.90314777634752 8.29444
45.92732705646868 8.26473
45.9515084986045 8.268460000000001
45.97588104735473 8.273480000000001
46.00006683541565 8.260639999999999
46.02425479047904 8.24628
46.04844491420549 8.21969
46.0728262191024 8.20987
46.09702070211635 8.189010000000001
46.12121735879483 8.1772
46.14541619080294 8.15134
46.169806278764455 8.15937
46.194009483459034 8.15329
46.21821486849841 8.09856
46.24242243555223 8.12243
46.266821333570014 8.115689999999999
46.29103328674601 8.08643
46.31524742696538 8.07244
46.33946375590237 8.03782
46.36387149104216 8.01355
46.38809221957392 7.991810000000001
46.41231514186606 8.03536
46.436540259597464 7.97427
46.460956858999374 7.9691600000000005
46.48518638983522 7.98176
46.509418121166966 7.9788
46.533652054678114 7.94988
46.55807754555709 7.91527
46.58231590571962 7.9543
46.60655647313217 7.908869999999999
46.630988654873654 7.88825
46.655233659129024 7.85348
46.67948087571551 7.85198
46.70373030632484 7.798489999999999
46.72817142736393 7.8326199999999995
46.752425308428684 7.82101
46.77668140861147 7.806
46.80093972960865 7.749460000000001
46.82538981736788 7.74805
46.849652602470904 7.75053
46.87391761349769 7.72733
46.8981848521493 7.73147
46.9226439341274 7.72566
46.946915650573224 7.720110000000001
46.97118959976749 7.73234
46.99546578341598 7.6546199999999995
47.019933887188216 7.690239999999999
47.04421456235744 7.65275
47.06849747711879 7.645169999999999
47.09278263318286 7.6261
47.11725978640143 7.6053
47.14154944775105 7.57712
47.165841355555656 7.5717300000000005
47.1901355115306 7.55748
47.214621741924994 7.55894
47.23892041698887 7.50983
47.26322134538975 7.4804
47.28771440635075 7.48655
47.31201986422527 7.49379
47.33632758061436 7.48814
47.360637557241866 7.45825
47.38513974410611 7.46002
47.40945426407847 7.40338
47.43377104948137 7.43012
47.45809010204344 7.40831
47.48260144275502 7.37171
47.506925052572285 7.39403
47.53125093475548 7.373480000000001
47.55557909103813 7.3387899999999995
47.58009961361992 7.32643
47.60443234110732 7.32309
47.62876734791564 7.29099
47.65310463578333 7.243239999999999
47.6776343683373 7.293069999999999
47.7019762413987 7.2565
47.72632040075572 7.25045
47.75066684815169 7.2746699999999995
47.77520581885936 7.26121
47.799556865477655 7.24614
47.823910205386 7.246980000000001
47.84826584033272 7.20945
47.87281407745551 7.17017
47.89717432569297 7.201039999999999
47.92153687423484 7.16822
47.94609208429692 7.16448
47.97045925671401 7.14031
47.99482873471275 7.115489999999999
48.01920052005013 7.130330000000001
48.04376504619224 7.09571
48.068141469543484 7.10977
48.09252020552573 7.099189999999999
48.11690125590099 7.044630000000001
48.1414751266064 7.0651600000000006
48.16586082917454 7.02774
48.19024885144316 7.00288
48.2146391951793 6.99317
48.239222439012764 6.992539999999999
48.26361744916137 7.01283
48.28801478610016 6.98845
48.31241445160131 6.9542600000000006
48.337007097209366 6.947489999999999
48.36141144338331 6.94482
48.38581812345755 6.9233199999999995
48.41022713920929 6.92585
48.434829215320704 6.912660000000001
48.45924292604658 6.89694
48.48365897780325 6.87735
48.50807737237308 6.85553
48.532688907799276 6.865010000000001
48.55711201168574 6.83637
48.581537463754074 6.803610000000001
48.60615611725119 6.8376
48.63058628942721 6.785239999999999
48.65501881516546 6.78718
48.6794536962573 6.7864
48.70408185970339 6.80112
48.72852147531801 6.756060000000001
48.75296345168211 6.775919999999999
48.77740779059232 6.7308699999999995
48.80204549302823 6.73387
48.82649458091802 6.75018
48.85094603676547 6.69165
48.87539986237231 6.713189999999999
48.90004713292306 6.69136
48.92450572200832 6.70713
48.94896668628025 6.6641
48.97343002754588 6.63788
48.99808689542115 6.6334800000000005
49.02255501470614 6.652260000000001
49.04702551642794 6.599639999999999
49.0714984023988 6.596210000000001
49.096164896893235 6.5968
49.120642575466796 6.565919999999999
49.145122643748394 6.56997
49.16960510355558 6.5296
49.19428125404938 6.5449
49.2187685210852 6.5624199999999995
49.243258185121555 6.51501
49.26794160167084 6.51565
49.2924360839405 6.4927
49.31693296869764 6.4505300000000005
49.34143225776915 6.42505
49.36612538195438 6.432169999999999
49.39062950396021 6.46468
49.41513603578346 6.4242099999999995
49.4396449792564 6.3971800000000005
49.46434784069503 6.40295
49.488861631846454 6.37846
49.513377840166804 6.3855699999999995
49.537896467493745 6.40343
49.56260909589029 6.34879
49.587132585683285 6.37948
49.611658500018365 6.33115
49.636186840738596 6.35958
49.66090926588511 6.33969
49.685442483902584 6.30656
49.70997813385706 6.29649
49.734516217597076 6.26807
49.75924846937352 6.25662
49.7837914452858 6.22924
49.80833686055187 6.231319999999999
49.83288471702571 6.23754
49.85762682540054 6.23264
49.882179588965734 6.22311
49.9067347993235 6.2249300000000005
49.93129245833333 6.17644
49.95604445336378 6.1950400000000005
49.98060703442832 6.16825
50.005172069746266 6.152830000000001
50.02993150438364 6.1704
50.05450147301533 6.14243
50.07907390151433 6.13629
50.10364879174981 6.10225
50.12841816587289 6.10321
50.1529980044635 6.0991800000000005
50.17758031042124 6.11367
50.20216508562089 6.071359999999999
50.22694442953363 6.05014
50.25153416817468 6.048369999999999
50.27612638170508 6.0492
50.300721072005196 6.00307
50.325510416102105 5.997999999999999
50.350110084975064 5.99715
50.37471223628208 6.01909
50.39931687190919 5.99291
50.424116246675766 5.97887
50.44872587605249 5.98621
50.47333799543065 5.988119999999999
50.49795260670191 5.9622
50.52276204271512 5.95081
50.54738166295838 5.93846
50.57200378079314 5.91993
50.596628398116835 5.89351
50.62144792604559 5.89717
50.646077567609396 5.90489
50.670709714377715 5.88851
50.69553683636198 5.85728
50.72017401885922 5.82434
50.7448137122895 5.82319
50.76945591856022 5.837680000000001
50.79429318636823 5.83816
50.818940443716784 5.79552
50.84359021965163 5.79364
50.868242516085964 5.79831
50.893089960641895 5.783930000000001
50.917747323549435 5.75694
50.94240721271973 5.76628
50.96706963007175 5.723319999999999
50.99192728239342 5.7691300000000005
51.01659478166073 5.75177
51.04126481489051 5.70204
51.06593738400761 5.70669
51.090805275207074 5.70435
51.11548294172845 5.69944
51.14016314993547 5.6660699999999995
51.164845901758845 5.65445
51.18972406304274 5.65205
51.21441192780656 5.63225
51.23910234200271 5.62528
51.2637953075678 5.61517
51.288683770237945 5.629569999999999
51.31338186432707 5.6025599999999995
51.33808251561888 5.5564800000000005
51.362978729967345 5.59399
51.387684521509755 5.5735
51.41239287610203 5.56315
51.437103795691165 5.54818
51.46201036644977 5.52896
51.486726441956634 5.4999
51.51144508832545 5.52074
51.536166307509156 5.48678
51.56108326624387 5.50638
51.58580965706056 5.50241
51.61053862657523 5.43735
51.635270176746864 5.44172
51.66019755512065 5.448119999999999
51.68493429268881 5.4272800000000005
51.70967361681515 5.42465
51.73441552946465 5.3932
51.759353359237934 5.38946
51.7841004750961 5.38151
51.80885018539685 5.38817
51.833602492111254 5.38353
51.8585508051424 5.3353
51.883308330926425 5.29215
51.90806845906181 5.31888
51.932831191525715 5.326919999999999
51.95779001977161 5.29789
51.98255798721516 5.29111
52.00732856494335 5.2957
52.03229530577543 5.26254
52.057071130455945 5.29265
52.081849571391054 5.237080000000001
52.106630630568695 5.28247
52.13160794279417 5.2413300000000005
52.15639426492067 5.22746
52.18118321127822 5.2181
52.205974783860896 5.23707
52.23096269971011 5.23166
52.255759551287994 5.18956
52.280559035098186 5.17951
52.30536115314103 5.1959
52.33035970494467 5.1874400000000005
52.35516711807904 5.15232
52.37997717147198 5.133319999999999
52.40478986713005 5.1403
52.42979908731974 5.13473
52.454617094216 5.10917
52.47943774942214 5.119759999999999
52.50426105495102 5.05941
52.529280976059844 5.066730000000001
52.554109609024096 5.0606800000000005
52.57894089837482 5.0595099999999995
52.60377484613117 5.02074
52.62880550079408 5.02974
52.65364479223379 5.00704
52.67848674816189 5.01387
52.70352547971946 4.97759
52.72837279155837 5.00229
52.753222773982785 4.98155
52.778075429022984 4.96889
52.80312495150885 4.9836
52.827982978797436 4.97433
52.85284368481815 4.94672
52.87770707160767 4.93999
52.90276741793998 4.95913
52.92763619336701 4.95357
52.952507655698504 4.955430000000001
52.977381806977576 4.92202
53.00245301017842 4.8833
53.02733256653592 4.88394
53.052214817996074 4.86525
53.077099766608484 4.8578
53.102181859804446 4.82943
53.127072229988265 4.84048
53.15196530349892 4.83585
53.17686108239249 4.82371
53.20195409881522 4.85685
53.22685531582556 4.81734
53.25175924441303 4.78249
53.27666588664027 4.7809
53.30176985962693 4.77893
53.3266819565689 4.76342
53.35159677336455 4.76336
53.376514312083096 4.74478
53.40162927507703 4.7487900000000005
53.42655228516116 4.71844
53.45147802340193 4.69868
53.47660125628886 4.68642
53.50153247842639 4.71062
53.52646643496923 4.65965
53.55140312799818 4.65525
53.576537409691696 4.6580900000000005
53.60147960336152 4.66067
53.626424539786164 4.62678
53.65137222105307 4.61279
53.67651758529126 4.64135
53.70147078399681 4.57867
53.72642673383343 4.59866
53.75138543689533 4.60165
53.776541917524526 4.62824
53.801506154876755 4.58202
53.826473151763246 4.58194
53.851442910284916 4.5037
53.87661054126026 4.5648
53.9015858509782 4.53885
53.92656392866066 4.54296
53.95154477641532 4.509119999999999
53.976723591801296 4.4994
54.00171000771266 4.45069
54.02669920004598 4.4514
54.051691170915745 4.41373
54.076881204886796 4.46034
54.101878760928514 4.48415
54.12687910187696 4.43064
54.152077577768296 4.44121
54.1770835166946 4.394909999999999
54.20209224691339 4.36689
54.22710377055121 4.33957
54.25231352511594 4.3288400000000005
54.27733066384342 4.31602
54.30235060239643 4.34065
54.32737334290836 4.33491
54.35259441062629 4.28586
54.377622783395324 4.3112699999999995
54.40265396455061 4.30516
54.42768795623251 4.25641
54.45292037169559 4.21831
54.477960012857906 4.23674
54.50300247099511 4.23879
54.52804774825457 4.230180000000001
54.55329154616743 4.19224
54.57834249018678 4.16865
54.6033962597977 4.1269800000000005
54.6284528571545 4.13077
54.653708072335164 4.10652
54.67877035378786 4.10949
54.70383546947698 4.08763
54.72890342156389 4.07064
54.7541700889442 4.05438
54.77924374251975 4.08432
54.8043202390049 4.02784
54.82959552413022 3.95799
54.8546777351945 4.00061
54.87976279569621 4.00445
54.90485070780914 4.04099
54.930137506558005 3.96167
54.95523115074295 3.93879
54.98032765308844 3.9205
55.005427015775496 3.9115599999999997
55.03072536339621 3.91281
55.05583047570572 3.8825800000000004
55.080938454927676 3.87949
55.10604930325027 3.82332
55.131359235107396 3.84292
55.15647585066083 3.7614900000000002
55.181595341907496 3.79578
55.20671771104285 3.78599
55.232039262617704 3.7394199999999995
55.25716741665048 3.74968
55.28229845518636 3.7374
55.30743238042802 3.65821
55.33276558731939 3.6728400000000003
55.357905315183636 3.63786
55.383047936390035 3.61744
55.40819345314859 3.63515
55.433538351073295 3.6313800000000005
55.458689688238415 3.6558800000000002
55.483843927614096 3.5530699999999995
55.509197623043605 3.56679
55.53435769621134 3.5391800000000004
55.55952067826466 3.52901
55.5846865714265 3.5164400000000002
55.61005202069737 3.4904800000000002
55.63522376553902 3.5000699999999996
55.66039842818645 3.45738
55.68557601087004 3.48061
55.7109532500271 3.4426099999999997
55.73613670233794 3.4762199999999996
