TT I
1.2716486653135266 6.7866100000000005
1.2939594142134223 6.54427
1.3162702121660406 6.53828
1.3385810600174564 6.366230000000001
1.3608919586137629 6.74367
1.383202908801069 6.5237
1.405513911425503 6.64628
1.4278249673332093 5.86787
1.4501343378461518 6.39007
1.4724455028545926 5.7085300000000005
1.4947567236847858 5.49889
1.517068001182951 5.859780000000001
1.5393793361953272 5.41448
1.5616907295681737 6.105090000000001
1.5840021821477681 5.64016
1.60631369478041 4.87584
1.6286252683124185 5.27726
1.6509369035901333 5.18834
1.6732468618895553 5.177230000000001
1.695558623192809 5.26783
1.7178704487808514 5.29601
1.7401823395001077 5.09725
1.7625012545597203 4.70545
1.7848028405262486 5.10856
1.8071218901122095 5.28723
1.8294236121921872 4.40391
1.8517427996910911 4.90102
1.8740620574440425 4.5174
1.8963639900671978 4.5865599999999995
1.9186833908139995 4.63963
1.9409854680117449 4.4938
1.9633050151394713 5.56123
1.9856246367570705 4.20172
2.0079269371922672 4.30744
2.03024671027244 4.05428
2.0525491637446027 4.64077
2.074869091674931 4.3093900000000005
2.097171701569106 4.5300199999999995
2.1194917877373847 4.885269999999999
2.141811954326636 5.24958
2.164114805233074 4.53362
2.186435135143035 5.52382
2.208738150935709 11.3881
2.231058647554722 21.5345
2.2533792288321184 16.4219
2.275682498336085 8.335139999999999
2.298003251406138 6.47374
2.3203066942619714 5.24533
2.3426276225136022 5.64321
2.3649486396617507 5.81135
2.387252348930071 5.32597
2.4095735463442893 5.7695
2.4318774374315884 6.0305
2.4541988185014043 6.67134
2.476502894794693 6.672280000000001
2.498824462909887 6.66415
2.521146125856138 7.166360000000001
2.5434504863470337 7.416239999999999
2.5657723414244717 7.529889999999999
2.588076895590662 8.43481
2.610398946189713 8.48509
2.6327210958598384 7.657360000000001
2.6550259469304716 8.01137
2.6773482972090137 7.988980000000001
2.6996533504259 7.862089999999999
2.7219759047039602 8.32029
2.744298562293959 8.48429
2.7666039251246595 8.088289999999999
2.7889267918020164 8.09005
2.8112323652516555 7.63652
2.833555444408179 8.56053
2.8558786311183852 8.37942
2.8781845268938557 8.744489999999999
2.9005079311721484 8.8931
2.9228140460410397 8.80675
2.9451376712799635 9.2201
2.967444008632326 9.46888
2.9897678582247247 10.0953
3.0120918213106695 10.2712
3.0343984987899373 10.5759
3.0567226913198637 11.2198
3.079029599759726 11.7146
3.101354025127254 12.4148
3.123678568232338 12.5823
3.145985829517914 13.2506
3.16831061055229 13.392999999999999
3.1906181112775593 13.9366
3.212943133635653 14.4608
3.2352682779763207 14.9405
3.2575761442691227 15.4515
3.2799015350264273 16.2365
3.302209649240067 16.3128
3.3245352898092655 16.3583
3.3468436553365257 17.0399
3.369169549113219 17.852
3.3914955708171384 18.4076
3.413804319727358 18.9264
3.4361305997334863 18.6
3.4584396084414553 19.7166
3.4807661501462652 20.2009
3.503092824025881 20.4429
3.5254022288463154 20.7759
3.5477291695206588 21.9002
3.5700388426251948 22.2953
3.5923660534916446 22.949
3.6146934007816114 34.7645
3.637003482731501 71.9383
3.6593311053109985 79.617
3.681641464033634 47.4507
3.7039693653009733 28.730999999999998
3.726297407241705 25.434
3.7486081875460804 25.3224
3.7709365132734978 26.0262
3.793247578841633 26.1417
3.8155761917550093 26.4835
3.8378875459837216 27.0791
3.8602164494827234 27.733
3.882545499606844 28.3265
3.9048572932539183 28.5769
3.9271866390645718 28.8536
3.9494987298666713 29.4097
3.971828374764527 30.1447
3.9941581705403255 30.2987
4.016470713506008 31.2592
4.038800813471445 32.0674
4.061113662089144 32.3492
4.0834440696459176 33.3015
4.105774632334751 33.7148
4.128087945865126 34.7326
4.150418821249301 35.4622
4.172732448931298 36.2692
4.195063640413578 38.031
4.2173775856475215 41.1409
4.239709096631102 64.9693
4.262040768704612 187.713
4.284355196706267 243.91
4.306687193387355 159.835
4.329001947444346 70.1293
4.35133427213731 46.5722
4.373666762177566 44.0006
4.395982011761091 44.0943
4.418314834921175 45.3382
4.44063041906622 51.4982
4.4629635787515625 59.1939
4.4852969080429785 59.0185
4.5076130004776225 52.6516
4.529946671403969 50.6465
4.552263106909177 51.0058
4.574597122877047 51.7907
4.596931312711224 52.5157
4.619248269273446 52.9811
4.6415828092605835 54.2453
4.663900117405352 55.5042
4.686235010953232 56.9464
4.708552674085913 58.0967
4.730887924602802 59.4949
4.753223354952695 61.6768
4.775541557023902 63.077
4.797877349456786 64.3575
4.820195915032126 66.2197
4.842532072957498 67.5502
4.864868414979744 69.5007
4.88718753227192 71.7171
4.909524244902505 73.6124
4.931843734218147 75.4323
4.954180820867835 78.2038
4.976518095879839 80.8155
4.998838149695359 83.5699
5.021175803844231 87.1708
5.043496238205739 90.2438
5.065834274903528 95.2469
5.088172504230693 99.9158
5.1104935158799565 106.00399999999999
5.132832132875765 126.105
5.155153533596801 162.344
5.1774925416746225 198.83900000000003
5.199814334878411 384.915
5.2221537374521505 1074.33
5.244493338631803 2973.54
5.266815727034316 7779.56
5.289155727832427 12652.4
5.311478517248165 8611.84
5.333818921080011 2664.22
5.356159527788849 510.608
5.3784829252032536 182.209
5.400823940070432 142.965
5.423147747031976 127.50200000000001
5.445489173474152 118.271
5.467830807066149 113.244
5.490155234831516 110.42
5.512497285125229 106.17399999999999
5.534822130975162 104.196
5.557164601388673 101.89299999999999
5.579489868738879 99.0115
5.601832762690846 98.3663
5.6241758697774475 97.1161
5.646501775867269 96.4842
5.668845311622074 95.0647
5.691171647754637 94.4816
5.713515615597765 92.8988
5.735859800852677 92.3102
5.758186788542988 91.5288
5.780531411018185 92.1729
5.802858837297399 91.6203
5.825203900414495 91.9787
5.8475491852224 92.6305
5.869877275883075 92.6949
5.892223006467101 93.8648
5.914551544266608 95.1974
5.936897724049891 98.0295
5.959244129804903 104.447
5.981573344815301 127.35799999999999
6.0039202049061 227.40099999999998
6.026249875609095 487.35
6.04859719346037 1003.2
6.070927323278297 2260.54
6.093275102315365 4564.21
6.115623113320588 5223.63
6.137953938319995 3228.95
6.160302415650845 955.2330000000001
6.182633708324452 222.343
6.2049826554078376 111.167
6.227331838745022 91.4164
6.249663839443684 84.5876
6.27201349767565 81.7215
6.294345974611799 85.9614
6.316696111167083 93.8009
6.339046488263839 89.0507
6.361379686074702 77.4911
6.383730546639482 71.5268
6.406064229255215 68.6378
6.428415576718203 68.3891
6.450749747566656 67.2823
6.47310158535871 65.8123
6.495453669698332 65.4831
6.517788579421056 64.8106
6.540141159237969 63.7453
6.562476565766648 62.9224
6.5848296444934045 62.3174
6.607182974060425 62.2507
6.6295191323281015 62.1599
6.651872965955752 64.6492
6.6742096296068985 83.7455
6.6965639707294615 117.245
6.71891856698715 117.59100000000001
6.741255995248479 84.8119
6.763611104154477 65.0515
6.785949046381137 59.803000000000004
6.808304671371482 58.1565
6.8306605557940046 58.1156
6.852999275508618 57.681999999999995
6.875355681171544 56.9634
6.897694923437771 56.6066
6.92005185377892 56.1539
6.9423916220322655 56.2705
6.964749080490181 55.746
6.987106804399774 55.5263
7.009447368180821 55.599
7.031805625367033 55.3437
7.054146723727803 55.2569
7.076505517631004 55.1248
7.098864581288365 55.2726
7.121206488070854 54.8929
7.143566093607822 54.8904
7.165908543567245 55.461999999999996
7.188268694426048 55.0762
7.2106291193438095 55.1682
7.232972390625943 56.0647
7.255333366030969 65.8425
7.277677189091925 105.318
7.300038718428332 139.465
7.322400526130865 119.76799999999999
7.344745183422596 80.1825
7.367107550224791 59.9406
7.389452767901992 55.6773
7.411815697249891 54.6892
7.434161478756298 54.2372
7.456524974096713 53.8786
7.478888753837185 53.7153
7.501235387657368 54.5152
7.523599738562711 54.4086
7.545946944825532 54.7444
7.568311870344528 55.1967
7.5906770845765665 55.4022
7.613025156078678 56.3153
7.635390950099687 57.0731
7.657739602662809 56.6202
7.680105979923558 55.9372
7.702472650212829 55.927
7.724822180948224 55.9016
7.747189439655568 55.6615
7.769539560075357 55.9026
7.791907410653562 56.4815
7.81425812420825 56.6966
7.836626570110925 56.6121
7.858995315087906 57.6197
7.881346924933401 57.6878
7.903716270417482 58.5889
7.926068482028405 58.9694
7.948438431475253 59.2419
7.9708086843180235 59.6969
7.993161805171116 60.1362
8.015532667162402 60.5817
8.037886398416653 61.6709
8.060257873014221 62.1356
8.082629655331942 62.637
8.104984308787587 63.806999999999995
8.127356708900503 66.4407
8.149711981398308 71.0113
8.172085002766314 72.8253
8.194458336181368 70.7183
8.216814543847752 69.1076
8.23918850371002 69.3736
8.26154533906492 70.3834
8.283919928836452 72.0037
8.306277395339652 72.7141
8.328652618483376 74.1435
8.351028159736202 76.1742
8.373386579575245 78.6644
8.395762759396959 80.2293
8.418121819038275 84.9773
8.440498640894003 95.854
8.462875785192262 108.634
8.485235811156207 126.05
8.507613602688501 176.08
8.529974277114228 268.178
8.552352719347912 405.69800000000004
8.574731488360351 673.602
8.59709314210385 1221.18
8.619472567021075 1922.37
8.64183487789147 2220.99
8.664214962183097 1771.34
8.686577933647762 922.508
8.708958680784317 354.356
8.731339760774953 154.079
8.753703729764451 108.461
8.77608547780821 98.0546
8.798450116065078 94.7265
8.820832535634787 92.08
8.843215292401656 90.6249
8.865580941199045 89.7396
8.887964374703538 88.338
8.910330701447199 88.9252
8.932714815164482 90.5393
8.955099270424924 89.6655
8.977466620733543 87.0896
8.999851761421976 84.5899
9.022219798361645 83.7344
9.04460562795561 83.7957
9.066991803441677 82.7007
9.089360876979615 82.5938
9.111747746589993 82.6873
9.13411751544971 82.2034
9.156505082664324 81.8445
9.178875550323522 81.9861
9.20126381862328 81.8697
9.223652438908596 82.3405
9.246023961427412 82.1612
9.26841328802173 81.6551
9.290785518039224 82.0857
9.313175554425882 82.7035
9.335565947154315 82.756
9.357939245086508 82.8517
9.380330352834827 83.0339
9.40270436697103 83.5783
9.425096193225055 83.2297
9.447488380180165 83.781
9.469863475295412 84.1473
9.492256385987508 84.5408
9.514632206018318 85.37100000000001
9.537025843935714 85.4974
9.559402392368193 86.1058
9.581796761000229 87.3596
9.604191496441521 88.475
9.626569144158516 91.3533
9.648964615551032 94.3219
9.671343000390081 95.6973
9.693739211225699 94.6768
9.716135793237463 93.3196
9.738515290448102 93.2222
9.760912617143402 94.0614
9.783292860202891 95.4398
9.805690935076182 96.3591
9.828089385495742 97.4703
9.850470754023561 99.5293
9.872869957865444 105.897
9.89525208097539 117.758
9.917652041736662 128.495
9.940052382417589 132.111
9.962435644102392 146.336
9.984836746950979 188.136
10.007220771957746 255.31900000000002
10.029622640473708 360.62699999999995
10.052007432299963 539.222
10.074410069984072 838.0169999999999
10.096813093716005 1295.42
10.119199042482517 1789.77
10.141602840636468 2002.84
10.163989564971628 1580.83
10.186394141051062 865.6669999999999
10.208799107559706 373.272
10.231187001965623 177.63299999999998
10.253592751657669 123.29
10.275981430388155 112.178
10.298387966769793 110.59899999999999
10.320794897965431 112.59899999999999
10.343184759907361 111.37100000000001
10.36559248305461 106.93799999999999
10.387983138083852 104.389
10.410391656691655 108.913
10.432800574501677 121.26299999999999
10.455192425893369 138.674
10.47760214443012 163.984
10.499994797678786 209.378
10.522405320453982 288.35400000000004
10.54479877906917 407.99699999999996
10.567210109595656 514.109
10.5896218454736 566.203
10.612016518879773 495.17199999999997
10.634429067781074 333.94699999999995
10.656824555333241 187.142
10.679237920773568 117.988
10.701651695961992 94.4276
10.724048411481384 88.5067
10.746463008485165 86.2946
10.768860546937125 84.7564
10.791275969274796 82.8892
10.81369180576079 81.8946
10.836090585366925 80.8862
10.858507252467449 79.7069
10.88090686379991 78.8072
10.903324365036394 78.0993
10.925724811614439 77.52
10.948143150509463 78.3844
10.970561909719066 77.3749
10.992963615930844 76.2226
11.015383218085756 74.5121
11.037785768347074 73.0809
11.06020621697282 72.5985
11.082627090322113 72.0054
11.105030913430326 71.4604
11.12745263854165 71.8029
11.149857314510728 74.1156
11.172279894912576 78.3584
11.194702904450653 78.8133
11.217108866490921 75.551
11.239532736615194 72.1067
11.26193956033512 70.6306
11.284364294577085 69.4888
11.306789462371718 68.0986
11.329197585398376 67.2281
11.351623622610898 66.8558
11.37403261614354 65.83800000000001
11.396459526308487 65.734
11.418869393879497 65.1354
11.441297180532617 64.9809
11.463725406927658 64.8383
11.486136592353875 64.4075
11.508565700543707 64.839
11.530977768845315 66.1657
11.553407762368774 66.5685
11.575838200059769 66.1288
11.598251599479612 64.8514
11.620682927815501 63.7551
11.64309721895548 63.4319
11.665529441478206 63.0059
11.687962112597958 62.5805
11.710377748130886 62.8222
11.732811318753434 62.6182
11.755227854859067 62.6535
11.777662328529495 62.4859
11.800079768750786 62.3641
11.822515149015453 62.2756
11.844950984084935 62.4934
11.867369787303163 62.3927
11.889806534289491 62.5479
11.912226250487029 62.7178
11.934663912939751 62.7547
11.9571020346363 62.9511
11.979523127133968 62.9403
12.001962169624331 63.8173
12.024384183972964 65.2182
12.046824150809913 68.3875
12.069264581333726 73.7772
12.091687985297767 79.3967
12.11412934550045 88.3306
12.136553680195208 103.854
12.158995973632788 126.56200000000001
12.181438735204349 155.371
12.20386447284199 185.136
12.226308172985636 207.03799999999998
12.24873485024193 200.774
12.271179492516982 159.033
12.293607112949127 120.93299999999999
12.316052700916226 89.7519
12.338498763250042 74.9687
12.360927805303868 68.6915
12.383374818673879 65.7103
12.405804812803074 64.2755
12.428252780773262 64.042
12.45070122756722 64.0199
12.473132656675375 63.8696
12.49558206341869 64.1635
12.518014453510101 64.0772
12.540464823770117 64.038
12.562915677315177 64.3289
12.58534951575545 65.1557
12.607801338171472 66.5941
12.630236146511358 70.4543
12.652688941369085 74.4372
12.675124723177234 74.7717
12.697578494048786 72.2773
12.720032754458185 68.9497
12.742470003354093 67.8594
12.764925245138771 67.5475
12.787363476431278 67.9505
12.809819703166806 68.3201
12.83227642391173 68.9075
12.854716135692716 69.3142
12.877173846755147 70.4054
12.899614549869717 70.8459
12.9220732548287 71.8195
12.94453245827299 72.2543
12.966974655289818 73.2485
12.989434858002571 74.0138
13.011878055298721 74.9491
13.034339260862497 75.8723
13.056800969391883 77.0802
13.079245674017244 79.4787
13.101708390774869 82.209
13.12415410463411 90.2564
13.146617833206086 102.425
13.169064559883248 113.935
13.191529303857127 128.437
13.213994557076367 152.173
13.236442809902437 190.071
13.258909083908291 245.705
13.28135835851934 313.809
13.30382565690295 378.13
13.326293469022952 430.583
13.348744283242008 419.781
13.371213125129904 347.871
13.39366497011003 249.697
13.416134845360597 165.487
13.438605238843131 119.971
13.46105863690397 105.244
13.483530069144786 107.06
13.505984506951902 112.90899999999999
13.528456981549432 122.344
13.550929978879088 137.597
13.573385983253365 161.846
13.595860028340867 200.88099999999997
13.618317081455832 253.75599999999997
13.64079217790333 311.035
13.663250283359057 353.845
13.685726434770173 370.702
13.708203115221277 325.64799999999997
13.730662806148091 248.34400000000002
13.75314054697177 170.925
13.775601299246777 120.223
13.798080104050406 93.6159
13.820559442405358 83.8416
13.843021793671388 81.3666
13.865502201420897 79.4936
13.887965623051947 79.2862
13.910447103807167 78.0888
13.932929122629764 76.6488
13.955394156785959 76.4594
13.977877254034569 75.2904
14.000343367582113 74.7162
14.022827546871707 73.9266
14.045294743423524 73.39
14.06778000837062 72.7622
14.090265817715476 72.759
14.112734645763819 72.3831
14.13522154619454 72.0892
14.157691466286913 72.0881
14.180179461423874 71.7697
14.202668005486178 71.0583
14.22513957064374 70.2601
14.247629214846473 70.1031
14.270101881097517 70.0959
14.29259262906496 69.9939
14.315083930490205 70.5924
14.337558255389705 71.0218
14.360050666019726 70.6845
14.382526101071944 69.7196
14.405019624534942 69.2123
14.427513705993134 68.8325
14.449990813291825 68.8031
14.47248601302899 68.6091
14.49496423954951 68.8124
14.517460561197822 68.756
14.539939910570322 68.3485
14.562437357763558 68.6843
14.58493536931253 69.84899999999999
14.607416409993311 70.277
14.62991555254159 70.9863
14.652397725157423 70.7374
14.674898002342799 70.643
14.697398848433282 70.4466
14.719882725991326 71.298
14.74238471217934 72.5414
14.764869730765593 76.2691
14.787372860692983 79.7647
14.809876564079925 84.1997
14.83236330125751 89.9695
14.854868153850365 98.7171
14.877356041159485 112.256
14.899862046604186 131.58100000000002
14.922351087688757 157.661
14.944858249632887 187.24900000000002
14.967365991421232 210.325
14.989856770231246 226.239
15.012365673994204 214.94099999999997
15.03485761569738 181.574
15.05736768508665 141.125
15.07987833888692 108.51799999999999
15.102372032001655 86.689
15.124883856909658 75.6556
15.14737872204565 71.6929
15.169891721717274 70.3611
15.192405310371893 70.0844
15.214901940621196 70.1024
15.237416709527137 69.97399999999999
15.259914520936249 70.0522
15.282430473753607 69.2948
15.304947020131227 68.2848
15.327446610371178 67.7228
15.349964346154254 66.9596
15.372465126703139 66.7357
15.394984055556009 66.3597
15.417486030076159 66.2097
15.44000615566487 66.1516
15.462526881230803 65.7892
15.485030653812652 65.7491
15.507552581617434 65.8298
15.530057557334603 65.8969
15.55258069104857 66.0787
15.575104429329837 66.0582
15.597611216864632 65.8291
15.620136166564563 66.1452
15.6426441664095 67.07600000000001
15.665170331202765 69.8337
15.687697105158826 73.3133
15.710206930593545 76.2302
15.732734925158933 80.3209
15.755245972089478 86.7743
15.77777519094324 96.368
15.800287463046663 109.55
15.822817909869592 129.032
15.84534897229804 150.222
15.867863089299354 175.00900000000001
15.890395385222186 190.951
15.912910736597423 194.804
15.935444269699861 178.24400000000003
15.957978423016485 151.50799999999998
15.980495633101265 117.21
16.003031029129367 93.0912
16.02554948280019 74.71
16.048086125229432 66.6865
16.070623392487107 64.4207
16.09314371869582 63.5086
16.11568223789321 62.8054
16.13820381691126 61.8196
16.160743591742527 60.9255
16.183283996022084 60.1331
16.205807461423195 59.1598
16.228349126881973 58.6075
16.25087385432698 58.6146
16.27341678466365 57.9824
16.29594277784926 57.8246
16.31848697676433 58.044
16.341031811604868 57.8734
16.36355971058487 58.1716
16.3861058195587 58.1514
16.40863499352978 57.1786
16.431182380342005 56.5996
16.453730407713202 55.8862
16.476261501364792 55.744
16.498810812136167 55.351000000000006
16.52134319004079 55.4768
16.54389378792203 55.0322
16.566445031001553 54.8749
16.588979342490088 54.9078
16.61153187824822 54.8077
16.634067483263312 54.6188
16.656621315414416 54.7062
16.679175797408888 54.3191
16.701713349928728 54.1633
16.72426913389191 54.6382
16.74680798922351 54.7362
16.76936507887444 54.6628
16.791905240734874 54.7891
16.814463639794468 54.516000000000005
16.837022695210294 54.7027
16.859564824093756 55.0881
16.882125194503903 55.623999999999995
16.904668639217885 56.1503
16.927230328348003 56.1325
16.949792678493612 56.2814
16.972338104193863 55.8199
16.994901778652235 55.4371
17.017448529496576 55.3999
17.040013531998152 55.7339
17.06257920018044 56.2937
17.0851279459922 56.9836
17.107694947817667 57.8421
17.130245028099072 58.7125
17.15281336730298 60.0409
17.17536478578733 61.7404
17.19793446610687 64.1999
17.220504818648422 67.09899999999999
17.243058251703697 70.2442
17.265629950971032 74.7819
17.288184731571736 79.3634
17.310757781306908 83.2772
17.33333150794385 83.8038
17.355888317140174 81.7199
17.37846339986244 75.9225
17.401021565958885 69.8423
17.42359800851343 64.884
17.44617513265564 61.4667
17.468735341390783 59.5976
17.491261035594565 58.9221
17.51396340099364 58.8632
17.536490463869136 59.0698
17.559018209820174 59.1446
17.58154663977963 59.1566
17.604251766089718 58.943000000000005
17.626781572227713 59.466
17.64931206518155 59.6013
17.671843245885103 59.9516
17.69455114821572 60.408
17.717083712612634 60.7893
17.739616967569667 60.8642
17.762150914021706 60.9296
17.78486160749854 61.1926
17.807396945166804 61.8316
17.829932977143503 62.8796
17.85246970436452 64.6416
17.875183204129467 66.6971
17.897721330097664 68.9452
17.920260154126645 70.9662
17.942799677153296 74.1572
17.9655159983646 78.1794
17.988056927677544 83.4077
18.010598558807683 91.2267
18.033140892692916 101.49
18.05586005052525 112.34
18.07840379824407 124.557
18.10094825154059 134.47299999999998
18.12366954819864 142.72799999999998
18.146215420998306 140.55
18.16876200220057 130.44899999999998
18.191309292745153 115.465
18.214033452627167 100.695
18.236582170236648 90.4426
18.259131600016456 85.7489
18.281681742907335 86.7019
18.304408781233683 91.1358
18.32696035875955 96.355
18.349512652227624 100.573
18.372065662579683 105.14
18.394795594587553 105.44
18.41735004715306 101.66799999999999
18.43990521943684 94.6062
18.46246111238171 84.6847
18.485193953325208 75.351
18.507751296070428 68.7184
18.530309362314178 65.1317
18.552868153000343 62.9966
18.57560391815056 61.855
18.59816416623245 61.522
18.620725141597372 60.9675
18.643286845190268 60.6912
18.666025549835414 60.2975
18.688588718427933 59.5575
18.711152618092243 59.5103
18.73389353884365 59.1931
18.75645890921984 58.6769
18.77902501351406 58.5026
18.801591852673102 58.393
18.824335739722738 57.8714
18.846904057212626 57.98
18.8694731124168 57.5267
18.89204290628315 57.6227
18.914789774966803 57.3008
18.937361054791623 56.9152
18.959933076131318 56.9618
18.982505839934877 57.0021
19.00525570560582 56.8593
19.027829963004184 56.7853
19.05040496572238 56.8759
19.072980714710468 56.6774
19.095733592739563 56.9542
19.11831084296757 57.388000000000005
19.140888842324735 57.6208
19.16346759176222 58.0555
19.18622349753803 58.7107
19.208803755869358 59.4822
19.231384767143577 60.7167
19.253966532312948 62.2543
19.276725481241822 64.3538
19.29930876296784 67.1232
19.3218928014549 70.5868
19.34465404436217 73.5036
19.36723960516257 75.9374
19.389825925592426 76.6506
19.412413006605938 75.4335
19.43517731967805 71.4791
19.457765930683355 66.9609
19.48035530514408 62.1559
19.50294544401556 58.4907
19.525712842708348 56.1289
19.54830451925909 55.0206
19.570896963095727 53.8714
19.593490175174704 53.7383
19.616260674962184 53.641999999999996
19.638855432416964 53.2803
19.661450960992624 53.5519
19.68404726164677 53.5018
19.706820878021247 53.1668
19.729418731756834 53.5378
19.752017360452857 53.1584
19.77461676506804 53.3871
19.797393513540218 53.6591
19.819994478951667 53.9004
19.84259622316767 54.2021
19.8651987471481 54.6256
19.887978643247177 54.836000000000006
19.91058273574792 55.3247
19.933187610901943 56.0369
19.955969879466828 57.3549
19.97857632894404 58.9817
20.00118356396599 60.6322
20.023791585494575 62.8717
20.046577028914875 65.5274
20.069186632506966 67.6829
20.091797025500632 69.3725
20.114408208858933 69.6989
20.137196842715273 69.1839
20.159809615886765 67.6197
20.18242318232135 64.8968
20.20503754298326 62.8251
20.227829382875154 61.8588
20.250445341109344 61.9333
20.27306209647285 62.7845
20.29567964993108 64.0791
20.31847471147704 65.051
20.34109387027612 65.462
20.363713830075454 64.9462
20.386334591841646 63.1867
20.409132890679302 60.5186
20.431755265564437 57.45399999999999
20.454378445325528 54.7594
20.477002430930366 52.8382
20.499803982716553 51.7964
20.522429589228004 51.2489
20.54505600449589 50.8458
20.567683229489194 50.7357
20.590488049900088 50.4612
20.61311690359731 50.1109
20.63574656993626 49.8772
20.658553853717297 49.4589
20.681185154618298 49.4629
20.703817271080066 49.3614
20.72645020407368 49.0445
20.749260783967177 48.9285
20.771895359337133 48.8716
20.794530754161617 48.6845
20.817166969412938 48.7562
20.83998086114876 48.6552
20.86261872660049 48.422
20.885257415405402 48.57
20.90789692853701 48.5163
20.930714147864748 48.3145
20.953355319030678 48.3889
20.97599731745334 48.5337
20.99864014410749 48.4714
21.021460706796564 48.3963
21.044105199328826 48.7591
21.06675052302631 48.8982
21.089396678865015 49.1243
21.112220600704806 49.31100000000001
21.134868430275347 49.7298
21.15751709492456 50.0334
21.180166595629693 50.3397
21.202993892429635 50.8348
21.22564507473034 51.0965
21.24829709602816 51.3373
21.27112693608965 51.0524
21.293780644891275 51.104
21.316435195634053 50.4739
21.339090589297417 49.8341
21.361923832041875 49.3438
21.384580921090404 48.7277
21.407238856007325 48.3185
21.429897637773326 48.2374
21.45273429906592 48.2292
21.475394784108598 48.1871
21.498056118951983 48.2383
21.520718304578022 48.4616
21.543558400304388 48.4685
21.566222297108816 48.5808
21.58888704765135 48.8599
21.61155265291521 49.2153
21.63439619898156 49.8285
21.657063523335786 49.8179
21.67973170537063 50.284
21.7024007460706 50.9231
21.72524775840385 51.6386
21.747918526116475 52.6335
21.770590155457388 53.8875
21.79326264741238 55.5812
21.816113141960237 57.3248
21.838787368860547 59.3509
21.861462461341976 61.3846
21.884315579735777 63.173
21.90699241312273 64.2355
21.92967011506078 64.8602
21.95234868653799 64.3185
21.9752053151131 62.8127
21.997885635446785 60.6931
22.020566828293532 59.0267
22.04324889464272 57.3432
22.066109049404666 56.4204
22.088792872571794 55.9275
22.111477572219204 56.0717
22.1341631493376 55.9903
22.157026846313123 55.6926
22.179714188221507 54.8732
22.202402410582668 53.9121
22.22509151438863 52.4594
22.24795876962584 51.0727
22.270649646204486 50.1126
22.293341407213727 49.5922
22.316034053646906 49.0807
22.338904883215342 49.0157
22.36159931041458 48.8973
22.38429462602756 48.8024
22.40699083104897 48.6224
22.429865251039757 48.7949
22.452563244831367 48.7042
22.47526213102522 48.7065
22.49813925616515 48.6682
22.520839937143307 48.4716
22.543541513520587 48.473
22.56624398629403 48.477
22.589124730075895 48.5461
22.611829005656723 48.6468
22.63453418063466 48.548
22.657240256008077 48.8466
22.680124634582935 49.0041
22.70283252079775 49.2864
22.725541310413075 49.4454
22.74825100442868 49.5371
22.771139033969575 50.1629
22.79385054687155 50.2912
22.81656296718292 51.0447
22.83927629590484 51.9519
22.862167992606945 53.1851
22.88488314827121 54.184
22.907599215359284 55.1797
22.93031619487366 56.2175
22.953211574954405 57.2202
22.975930389478226 58.0544
22.998650119445763 58.0019
23.02137076586092 57.0459
23.044269845560063 55.6287
23.06699233506288 54.0839
23.089715744034912 52.3636
23.112617610931565 50.6227
23.135342869061212 49.6609
23.158069049684816 49.0422
23.1807961538087 48.6952
23.20370174880544 48.7077
23.226430710184808 48.5659
23.249160598093425 48.8073
23.271891413539002 48.785
23.294800752937697 48.6783
23.31753343374794 49.0258
23.340267045128353 49.1953
23.36300158808808 49.338
23.38591468821339 49.6168
23.408651104658304 50.2337
23.431388455719986 50.8096
23.454126742409 51.7398
23.4770436196085 52.7462
23.499783787914662 54.1634
23.522524894889884 55.1513
23.54526694154616 56.2415
23.56818761219047 57.146
23.59093154860734 57.8565
23.613676427751283 57.9369
23.636422250635754 56.8281
23.659346731118656 55.1244
23.68209445191868 53.081
23.704843119509587 50.8916
23.72759273490623 49.0791
23.750521041644767 47.8171
23.77327256312355 47.0497
23.796025035462787 46.3729
23.818956224555475 46.0552
23.841710609113413 45.8773
23.86446594758979 45.6388
23.887222241002014 45.485
23.910157285144578 45.0209
23.932915498962537 45.1034
23.955674670778713 45.0056
23.978434801611975 44.7423
24.001373717286125 44.6978
24.024135776723917 44.5
24.046898798245582 44.3089
24.06966278287146 44.4134
24.092605586582614 44.1729
24.115371508023642 43.9017
24.1381383956401 43.895
24.16090625045381 43.836000000000006
24.183852958731244 43.7699
24.206622758582608 43.7264
24.229393528706886 43.4997
24.252165270127392 43.5373
24.27511589952438 43.5359
24.297889594216997 43.2807
24.32066426328598 43.0621
24.34343990775613 43.0941
24.36639447485003 43.0404
24.38917208083877 42.9405
24.41195066531332 42.9822
24.43490819850244 43.0159
24.457688750692377 42.8011
24.48047028445616 42.6506
24.503252800821233 42.9304
24.526214300784112 43.0765
24.548998793132213 43.0575
24.57178427117417 42.8399
24.59457073593893 42.9487
24.617536219319863 42.7418
24.64032466834748 42.7242
24.663114107195035 42.6795
24.685904536893013 42.4493
24.708874020360852 42.3406
24.731666442613744 42.2501
24.754459858818787 42.1598
24.777254270007962 42.248000000000005
24.80022777025625 42.2082
24.82302418230472 42.1088
24.845821592443674 42.2039
24.86862000170663 42.2277
24.891597535453727 42.0939
24.914397953892728 42.2263
24.93719937456671 42.1026
24.96000179851076 42.3013
24.98298338249997 42.3907
25.00578782394922 42.6928
25.028593271784167 42.8372
25.05157790644186 43.1023
25.07438537804115 43.2524
25.097193859145293 43.4656
25.120003350792075 43.7536
25.142992065061257 44.2055
25.165803588823465 44.4004
25.18861612625217 44.5168
25.211429678386736 44.6415
25.234422489079968 44.6897
25.257238081693636 44.7229
25.280054692141732 44.8217
25.3028723214652 44.6862
25.325869245420463 44.8187
25.348688923599397 44.9189
25.371509623787006 44.8482
25.394331347025812 44.489
25.41733240110666 44.0219
25.440156181590016 43.1959
25.46298098826268 42.8047
25.48580682216873 42.0621
25.50881202326435 41.5284
25.53163992281684 41.2987
25.55446885274561 41.052
25.577298814096377 40.7514
25.600308179121807 40.7835
25.623140214533745 40.7427
25.64597328451537 40.6621
25.66898578564376 40.2665
25.691820936010206 40.4233
25.714657124097695 40.3595
25.737494350954734 40.4973
25.760511045684957 40.293
25.783350361364224 40.3757
25.806190718969255 40.3072
25.82903211955018 40.5771
25.852053024868923 40.4792
25.874896522722523 40.5348
25.897741066713106 40.4109
25.920586657892454 40.5067
25.943611790812668 40.7782
25.966459487728237 40.9593
25.989308234998564 41.0454
26.01215803367705 41.3246
26.03518741123814 41.3532
26.05803932412957 41.6057
26.080892291600094 41.5302
26.10374631470478 41.582
26.12677995397268 41.7016
26.14963609978026 41.494
26.172493304397875 41.2667
26.19535156888223 40.9668
26.218389486949604 40.6409
26.241249882640123 40.3802
26.26411134137826 40.1795
26.28715248187403 40.2169
26.31001607820869 40.0285
26.3328807407756 39.8053
26.35574647063438 39.9615
26.37879191991473 39.9392
26.401659795896734 40.0857
26.424528742360263 40.2212
26.447398760366614 40.3159
26.470448535598294 40.527
26.49332070826805 40.5681
26.516193955675355 40.9756
26.53906827888316 41.2125
26.562122397260108 41.4341
26.584998883685063 41.7024
26.607876449110325 42.0231
26.63075509460056 42.0831
26.65381357334404 42.0452
26.67669439061878 42.1123
26.699576291163382 41.9896
26.722459276044212 41.706
26.745522132402975 41.4085
26.768407297649354 41.3313
26.791293550442003 40.9264
26.814180891848974 40.7216
26.837248143099337 40.4629
26.860137673466657 40.4438
26.88302829566349 39.967
26.90592001075963 39.8667
26.92899167420566 39.8066
26.951885586870763 39.3982
26.974780595655517 39.1732
26.99785558178161 39.0733
27.020752794605112 38.8974
27.043651106772522 38.6982
27.06655051935668 38.7496
27.089629948036183 38.6039
27.112531573292053 38.5209
27.135434302194138 38.7047
27.158338135817015 38.6015
27.181422024430987 38.516999999999996
27.204328079372566 38.4336
27.22723524226965 38.4234
27.250143514198573 38.4746
27.273231880156334 38.3728
27.296142382065014 38.1728
27.319053996245536 38.3141
27.341966723775965 38.4383
27.365059584515222 38.3498
27.38797455070062 38.4348
27.410890633481237 38.3172
27.433807833936918 38.3087
27.456905206923906 38.3404
27.47982465472398 38.4355
27.502745223449743 38.467
27.525666914182825 38.5318
27.548768816912457 38.4961
27.571692763693633 38.4495
27.59461783573812 38.3332
27.617723149491244 38.0541
27.640650484125285 38.0947
27.66357894728264 38.0079
27.686508540048052 37.9992
27.709618414237887 37.7596
27.732550278321757 37.5484
27.755483275279115 37.7257
27.778417406196485 37.881
27.801531858397514 37.7405
27.824468269376716 37.8075
27.847405817586786 37.7042
27.870344504116094 37.9395
27.893463551932008 38.1797
27.916404527281053 38.2542
27.93934664422563 38.272
27.962289903855886 38.4489
27.98541356491974 38.5922
28.00835912214229 38.6194
28.03130582533231 39.0074
28.054253675581805 39.0891
28.077381967556104 39.1339
28.100332124185126 39.0036
28.123283431160893 38.9362
28.146235889577238 38.6322
28.169368830154156 38.4103
28.192323603752033 38.2563
28.215279532083304 38.0533
28.238415973016764 37.8451
28.261374223145094 37.8216
28.284333631303806 37.5761
28.307294198589954 37.3633
28.330435319167677 36.9825
28.353398217078915 36.7678
28.376362277420153 36.3834
28.39932750129032 36.3882
28.422473319286713 36.1843
28.44544088262495 36.2392
28.468409612800283 36.0606
28.491379510913497 35.9472
28.51453004413313 35.7732
28.53750229057244 35.7805
28.56047570826344 35.6963
28.583450298308804 35.7701
28.606605564586562 35.5371
28.629582511831156 35.6703
28.65256063474956 35.4875
28.675539934446338 35.6633
28.698699951647605 35.5812
28.72168161743193 35.4171
28.74466446331978 35.2841
28.767648490417624 35.41
28.790813276438353 35.2371
28.813799678527303 35.2401
28.836787265157085 35.4198
28.859955641890075 35.3459
28.882945610203045 35.3904
28.905936766392035 35.313
28.928929111566863 35.2852
28.952102288520145 35.164
28.975097024308607 35.0376
28.998092952423807 34.9262
29.021090073977508 34.7335
29.04426806913204 34.6316
29.067267590245258 34.5695
29.090268308143695 34.5093
29.11327022394099 34.4507
29.13645305530891 34.3764
29.159457379627167 34.3214
29.18246290519685 34.2883
29.20546963313352 34.2616
29.22865731875826 34.3654
29.25166646419296 34.4283
29.27467681535305 34.1562
29.29768837335608 34.0913
29.320880931312562 34.1905
29.34389491580634 34.2464
29.366910110507334 34.1858
29.38992651653503 34.152
29.41312396492981 34.1529
29.436142806456754 34.0438
29.45916286268059 33.8802
29.48236399319994 33.8104
29.50538649169417 33.5989
29.528410208259935 33.6602
29.55143514402014 33.4636
29.574641196749695 33.2355
29.597668583816574 33.2426
29.6206971934585 33.0872
29.64372702680042 33.071999999999996
29.666938019934474 32.967
29.689970313635285 32.8765
29.713003834422636 32.8557
29.73603858342347 32.8966
29.759254535188578 32.8016
29.78229175361658 32.6704
29.80533020365064 32.7734
29.82836988641968 32.7909
29.85159081507472 32.7114
29.874632976355343 32.6142
29.89767637376955 32.7932
29.920721008448314 32.6061
29.9439469322847 32.4551
29.96699405457564 32.4144
29.9900424175358 32.4495
30.013092022298157 32.4856
30.03632295963995 32.485
30.059375061131373 32.4324
30.08242840783577 32.3591
30.105483000888153 32.4702
30.128718970092244 32.4288
30.151776069006917 32.3504
30.17483441768648 32.3609
30.198074175317235 32.3278
30.221135036724256 32.3457
30.24419715131772 32.2645
30.267260520236203 32.2604
30.290505341942243 32.2344
30.313571232750228 32.3322
30.336638381310948 32.2772
30.35970678876503 32.2255
30.38295669299435 32.1801
30.40602763151657 32.2082
30.429099832366074 32.0966
30.452173296685572 31.9363
30.47542830191959 31.9912
30.498504306502497 31.9541
30.521581577995562 32.1374
30.544660117543582 32.2766
30.56792024229725 32.0821
30.59100133132069 32.1037
30.614083691845494 32.13
30.637167325018545 32.1729
30.660432587840603 32.0937
30.683518779717886 32.1285
30.70660624769615 32.195
30.729694992924372 32.138000000000005
30.75296541239743 32.0573
30.77605672557558 32.0183
30.799149319462742 32.0525
30.8224236211637 31.9061
30.845518789950724 31.7881
30.868615242910597 31.7568
30.891712981195973 31.6439
30.91499247215866 31.5078
30.938092794619365 31.5277
30.96119440587579 31.3715
30.984297307082752 31.2909
31.00758200598383 31.2462
31.030687500658694 31.1955
31.053794288760695 31.0736
31.076902371446767 30.9418
31.100192296997445 31.053
31.12330298246119 30.9847
31.14641496599209 30.8611
31.169528248749216 30.8969
31.19282341969534 30.9529
31.215939314557186 30.8849
31.239056512134788 30.9124
31.262175013589378 30.7357
31.28547544871168 30.7766
31.30859657161541 30.7314
31.331719001892175 30.8468
31.35484274070538 30.8329
31.378148458819545 30.799
31.401274828443725 30.7972
31.424402510106933 30.8436
31.447712205419993 30.8899
31.470842524931633 30.7312
31.493974159989783 30.7336
31.51710711176168 30.7623
31.54042212308802 30.7679
31.563557722100917 30.6839
31.586694641341655 30.5797
31.609832881979628 30.3983
31.63315322823208 30.2795
31.656294125521327 30.1915
31.679436347728515 30.1972
31.70257989602529 30.1756
31.725905596152327 30.1778
31.74905181052835 30.0186
31.772199354521323 30.1273
31.79534822930507 30.1885
31.818679302290967 30.0837
31.84183085259981 30.2242
31.864983737233473 30.1574
31.88813795736804 30.1705
31.911474422233013 30.0574
31.934631327356435 30.0769
31.9577895715215 30.0703
31.980949155906522 29.9923
32.004291031706956 29.988000000000003
32.027453310562606 29.8179
32.05061693318573 29.7201
32.07396288236386 29.7274
32.09712920658542 29.6531
32.12029687812702 29.5729
32.14346589817093 29.4934
32.166817291729984 29.476
32.18998902288583 29.4545
32.21316210610336 29.2811
32.23633654256711 29.1427
32.259693399663725 29.0681
32.282870556771144 29.125
32.30604907069099 29.1598
32.329228942610065 29.0856
32.35259128243769 28.9713
32.375773884550505 28.9672
32.398957848235646 28.9167
32.422143174682176 28.8553
32.445511016471215 28.7463
32.468699082679954 28.6662
32.49188851523011 28.6203
32.51507931531304 28.5296
32.538452678331 28.5759
32.56164622776311 28.4893
32.58484114831493 28.4106
32.60803744118015 28.3659
32.631416344731896 28.4975
32.654615396551876 28.3856
32.67781582427913 28.2725
32.701198898634416 28.301
32.72440209253756 28.1777
32.747606665947124 28.2453
32.77081262006088 28.0936
32.79420126883317 28.0718
32.81740999876112 28.0607
32.840620112999424 27.9709
32.86383161274818 27.9891
32.88722585534586 28.0012
32.91044014056596 28.0103
32.933655814909734 27.9162
32.95687287957963 27.9708
32.98027273544904 27.8417
33.00349259526636 27.813000000000002
33.026713849030116 27.8052
33.04993649794511 27.759
33.073341986570746 27.8192
33.09656744032826 27.8249
33.11979429286444 27.7774
33.14302254538647 27.7312
33.166433686291185 27.6529
33.18966475336992 27.6287
33.212897224069096 27.5598
33.23613109959831 27.5857
33.259547912343415 27.5118
33.2827846121627 27.4938
33.306022720453775 27.386
33.32926223842861 27.3027
33.352684742614166 27.4478
33.37592709463173 27.4523
33.399170859982064 27.2845
33.422597648419426 27.1508
33.44584425514446 27.1011
33.46909227885668 27.0266
33.4923417207723 26.9435
33.51577423505344 26.9676
33.539026528130385 26.8382
33.56228024307245 26.843000000000004
33.585535381098246 26.7044
33.60897364093058 26.6772
33.63223163992385 26.7342
33.6554910656699 26.6698
33.678751919389796 26.6536
33.702195944520106 26.521
33.72545966903325 26.5343
33.74872482519663 26.4207
33.771991414233746 26.4839
33.79544122444841 26.4365
33.81871069412428 26.3639
33.84198160035767 26.3195
33.86525394437455 26.3024
33.88870955949969 26.2565
33.911984794020626 26.2005
33.93526147001624 26.1836
33.958539588715006 26.1604
33.98200102861669 26.1184
34.0052820477047 26.0236
34.02856451319451 26.07
34.05203033759056 25.9665
34.07531571090147 25.9509
34.09860253431845 25.9126
34.121890809074316 25.8833
34.145362493118924 25.8805
34.16865368561615 25.7499
34.191946333164054 25.7315
34.21524043699793 25.7735
34.23871800066799 25.7162
34.26201503218366 25.6211
34.28531352370466 25.61
34.30861347646881 25.5156
34.33209693978188 25.4556
34.3553998301885 25.4799
34.378704185565205 25.4382
34.402010007152356 25.3577
34.42549939016683 25.2934
34.44880815937748 25.1952
34.472118398533134 25.1309
34.49543010887669 25.1826
34.51892543169198 25.1318
34.54224009966052 25.131999999999998
34.56555624255917 25.2081
34.58887386163339 25.049
34.61237514439016 24.9366
34.6356957311114 24.9927
34.65901779775809 24.8657
34.68252356662995 24.8644
34.705848608458616 24.8526
34.72917513396849 24.8186
34.75250314440949 24.7583
34.77601490857862 24.605999999999998
34.799345904259795 24.701
34.82267838863559 24.6315
34.846012362958525 24.6212
34.869530142679984 24.5912
34.89286711232212 24.5491
34.91620557568269 24.513
34.93954553401677 24.4609
34.9630693495876 24.414
34.986412313340814 24.43
35.00975677584668 24.3745
35.033102738362956 24.3522
35.05663261012228 24.1999
35.0799815881786 24.2256
35.10333207003229 24.2428
35.12668405694369 24.303
35.150220005273056 24.2352
35.17357501786656 24.2448
35.19693153931268 24.1888
35.220289570874385 24.0759
35.24383161619786 24.1669
35.267192683604904 24.2243
35.290555264930376 23.9998
35.314101899412165 24.0592
35.33746752422433 24.0423
35.36083466676374 23.9267
35.38420332829803 23.9732
35.407756095629054 23.9799
35.43112781085063 23.9272
35.45450104888391 23.8469
35.477875810999194 23.8855
35.50143473172161 23.8287
35.52481255774625 23.8094
35.54819191167777 23.8157
35.57157279478914 23.7178
35.595137889488406 23.6809
35.61852184675279 23.6752
35.641907337029984 23.5303
35.665294361595684 23.5535
35.68886565090076 23.5134
35.7122557598848 23.4329
35.73564740699838 23.4937
35.759040593519934 23.4748
35.78261809810353 23.4493
35.80601437933051 23.2695
35.829412203814705 23.1953
35.85281157283719 23.1611
35.876395313415884 23.2584
35.8997977874528 23.2011
35.92320180988546 23.1348
35.946790244133936 23.0461
35.97019737933222 23.1385
35.993606066789866 23.0708
36.01701630779276 23.0473
36.04061101440684 23.0201
36.06402437852291 22.9342
36.08743930005611 22.8987
36.1108557802951 22.8534
36.13445678011326 22.7746
36.15787639383515 22.8225
36.18129757014299 22.7366
36.20472031032821 22.7412
36.22832762423364 22.6158
36.25175350829375 22.5981
36.275180960119776 22.6255
36.298609981005924 22.6888
36.32222362992669 22.6255
36.34565580510207 22.5062
36.36908955323448 22.4914
36.39252487562093 22.3096
36.416144880530226 22.3856
36.43958336764275 22.4201
36.463023432914625 22.4719
36.486465077645676 22.3147
36.51009145956204 22.3846
36.53353627947859 22.3479
36.55698268276811 22.2867
36.58043067073321 22.2743
36.60406345072071 22.1188
36.62751462435344 22.1232
36.65096738658405 22.1805
36.67460498210655 22.0636
36.69806093788647 22.0157
36.72151848619297 21.9373
36.744977628333636 22.0459
36.76862165890998 21.9197
36.79208400512205 21.9511
36.81554794910557 21.9286
36.83901349217101 21.8256
36.862663978991606 21.8469
36.88613273667352 21.7408
36.90960309738324 21.7641
36.933075062434064 21.6669
36.95673202673572 21.6332
36.98020721697122 21.6134
37.003684015502365 21.5431
37.027162423645365 21.5375
37.050825886711465 21.5395
37.07430753063053 21.4727
37.09779078812467 21.3833
37.121275660513014 21.4314
37.144945643673694 21.4016
37.16843376245278 21.3026
37.19192350009803 21.3596
37.215414857931435 21.3003
37.239091382563885 21.2571
37.262585997426164 21.3077
37.28608223645736 21.276
37.309763684451696 21.2425
37.33326318851098 21.1403
37.356764320726555 21.1014
37.380267082425526 21.1578
37.40395510942588 21.1232
37.42746114683234 20.9737
37.45096881771841 20.9727
37.474478123414166 20.9552
37.49817275092816 20.9001
37.52168534303452 20.9226
37.54519957395567 20.7668
37.568715445024665 20.838
37.592416694607714 20.724
37.61593586281424 20.8359
37.63945667518264 20.7515
37.66297913304891 20.6402
37.68668702630454 20.6753
37.710212792059274 20.5754
37.733740207334854 20.5193
37.757269273470364 20.5049
37.780983832050374 20.4254
37.80451621684926 20.4547
37.82805025654007 20.4084
37.851585952464795 20.4158
37.8753071980695 20.4069
37.89884622345676 20.3352
37.92238690911902 20.293
37.94611318753442 20.2826
37.969657210779765 20.2319
37.99320289834801 20.2424
38.016750251586465 20.1955
38.04048325513017 20.1077
38.06403395679343 20.0633
38.087586328183946 20.0517
38.11114037065203 20.0624
38.13488012115898 20.0675
38.1584375229181 19.9975
38.181996599821 19.8664
38.205557353221124 19.8773
38.229303872575656 19.9357
38.2528679961576 19.8815
38.27643380031219 19.8329
38.30000128639589 19.7647
38.32375459653193 19.8034
38.34732546371299 19.8126
38.37089801690786 19.6679
38.39447225747609 19.6331
38.418232380377425 19.5953
38.441810012983396 19.6395
38.46538933705673 19.5816
38.488970353960084 19.5372
38.51273731166058 19.5052
38.536321731567014 19.5246
38.55990784840681 19.4375
38.58367995004091 19.4394
38.60726947812959 19.3733
38.63086070726198 19.3376
38.654453638806274 19.3509
38.678232613930824 19.2707
38.70182896773327 19.2343
38.72542702806741 19.2484
38.7490267963045 19.2026
38.77281266709232 19.1637
38.79641586862214 19.0884
38.8200207821842 19.1032
38.843627409152944 19.1322
38.86742019782782 18.9991
38.891030269149255 18.9692
38.914642058016156 19.0199
38.938255565806124 18.9774
38.96205529464307 18.922
38.98567225787121 18.8913
39.00929094417078 18.9198
39.03291135492255 18.9034
39.05671804624804 18.805
39.080341923549106 18.7862
39.103967529460334 18.8443
39.127594865365744 18.7767
39.15140854155791 18.6877
39.17503935514948 18.6273
39.19867190290282 18.5946
39.22249083587951 18.5928
39.24612686969409 18.6063
39.269764641845306 18.5781
39.293404153722804 18.5058
39.317230110864074 18.4396
39.34087311998506 18.4704
39.36451787301696 18.42
39.388164371352595 18.3167
39.41199737518003 18.3471
39.43564738196752 18.3292
39.45929913825317 18.2599
39.48295264543308 18.262
39.506792718520884 18.1836
39.530449745387216 18.2041
39.55410852735203 18.1527
39.57776906581474 18.2063
39.60161623079 18.1714
39.625280300200025 18.1478
39.64894613032202 18.118
39.67261372255866 18.0693
39.6964680021016 18.0172
39.72013913657293 18.015
39.74381203738292 17.9951
39.76748670593756 17.9506
39.79134812278169 17.9246
39.81502634488497 17.9047
39.83870633896685 17.8369
39.862388106436654 17.7628
39.88625668336918 17.7894
39.90994201572829 17.7716
39.933629125719285 17.7036
39.957503091207826 17.723
39.9811937746168 17.6842
40.00488623990914 17.6655
40.02858048850006 17.5875
40.05246165409549 17.5729
40.076159487492085 17.5723
40.099859108448875 17.5491
40.123560518384345 17.4677
40.1474489070226 17.4984
40.171153913178564 17.3946
40.194860712584955 17.3569
40.2185693066637 17.42
40.242464941335314 17.3733
40.26617714307655 17.3763
40.289891143772046 17.384
40.3136069448471 17.2984
40.33750984859743 17.2693
40.3612292688043 17.2606
40.3849504936829 17.1696
40.40867352466194 17.1795
40.43258372059144 17.1595
40.45631038219906 17.1672
40.48003885420956 17.0441
40.503769138055105 17.0635
40.52768664931955 17.0347
40.55142057531802 17.0737
40.57515631746428 17.0317
40.599079334038514 16.9981
40.62281872700477 16.9071
40.64655994043941 16.891
40.67030297578061 16.8596
40.69423334835778 16.8197
40.71798004609188 16.7721
40.74172857006355 16.8334
40.76547892171441 16.7881
40.7894166736039 16.7302
40.813170699248566 16.7017
40.83692655691388 16.699
40.86068424804498 16.7099
40.884629402612525 16.6151
40.908390779366385 16.6081
40.932153993938 16.565
40.95591904777605 16.5518
40.979871628443995 16.4848
41.003640379561936 16.5152
41.02741097430883 16.4647
41.05118341413683 16.468
41.075143444384416 16.4499
41.098919593177826 16.462
41.1226975914255 16.4069
41.14647744058318 16.3515
41.170444943946755 16.2871
41.19422851378379 16.2804
41.218013938914645 16.2442
41.24198706625173 16.1676
41.26577622087193 16.1869
41.289567235177785 16.2048
41.31336011063129 16.1701
41.337340752422875 16.1406
41.361137369129835 16.1252
41.38493585138705 16.055
41.40873620066004 16.0102
41.43272438060107 16.0541
41.45652848292052 16.0208
41.48033445666918 15.9222
41.50414230331616 15.9061
41.528138045159764 15.8973
41.551949656675205 15.8549
41.575763145513235 15.857999999999999
41.59957851314666 15.824000000000002
41.62358184070442 15.7762
41.64740098505737 15.7749
41.6712220126409 15.7575
41.69504492493139 15.6838
41.71905586207357 15.630999999999998
41.74288256296395 15.6369
41.766711153007456 15.634
41.79054163368412 15.602
41.814560204340054 15.5458
41.838394485526365 15.5511
41.86223066180303 15.5211
41.88625497706819 15.515999999999998
41.910094962812 15.5185
41.93393684811168 15.4451
41.95778063445365 15.3949
41.981812625263366 15.4401
42.00566023303407 15.3487
42.029509746323676 15.3435
42.05336116662236 15.3424
42.077400857069705 15.3608
42.10125611078846 15.3123
42.12511327600405 15.2473
42.14897235421036 15.2183
42.173019768448455 15.2303
42.19688269209613 15.1763
42.22074753323349 15.1701
42.24461429335818 15.1639
42.268669455600495 15.0845
42.292540073217886 15.055
42.31641261433284 15.0722
42.34028708044675 15.034
42.36435001496739 14.9877
42.38822835065557 14.9996
42.41210861586426 14.9484
42.4359908120986 14.9219
42.46006154323262 14.9349
42.48394762115317 14.8827
42.507835634632315 14.8992
42.531912233047436 14.8213
42.55580413732265 14.7614
42.579697981698 14.7293
42.60359376768525 14.7525
42.62767820545945 14.7612
42.65157789440821 14.7274
42.67547952952185 14.7394
42.699383112316 14.7106
42.72347541395347 14.6602
42.74738291190531 14.6168
42.771292362102166 14.6604
42.795203766063516 14.555
42.819303956130405 14.5204
42.843219287476536 14.4787
42.86713657716324 14.4944
42.89105582671383 14.4378
42.91516392983864 14.4415
42.939087119032166 14.4083
42.963012272677304 14.4324
42.98693939230129 14.4117
43.01105543317513 14.3419
43.034986504731386 14.2925
43.05891954686589 14.3126
43.08285456110972 14.3226
43.10697856448665 14.2255
43.130917542983475 14.1059
43.15485849820081 14.1812
43.17880143167367 14.1555
43.20293342237094 14.1029
43.226880332449 14.0868
43.25082922540554 14.0925
43.27496722682525 14.0457
43.29892010567796 14.0499
43.32287497204102 14.0336
43.34683182745632 13.9845
43.370977859791836 13.9156
43.39493871351105 13.9944
43.41890156092628 13.9226
43.44286640358341 13.8841
43.46702049182749 13.8443
43.49098934522816 13.8143
43.51496019852649 13.808
43.5389330532723 13.8313
43.56309522248204 13.7672
43.58707210044314 13.7832
43.61105098451946 13.7796
43.63503187626491 13.7001
43.659202151562134 13.6709
43.68318707902681 13.6508
43.70717401884041 13.6514
43.731162972560874 13.5879
43.75534137913236 13.5549
43.779334381108384 13.5754
43.803329401683186 13.6312
43.82732644241872 13.5091
43.8515130055166 13.4929
43.87551410707659 13.4157
43.89951723350145 13.4653
43.923709934595614 13.4629
43.94771713129917 13.4488
43.97172635758096 13.3941
43.99573761501002 13.3831
44.0199385169922 13.3492
44.04395385732619 13.3272
44.067971233533086 13.3177
44.09199064718605 13.2275
44.11619977548961 13.2317
44.14022328470671 13.1855
44.16424883610785 13.1506
44.18827643127035 13.1734
44.21249381139513 13.1507
44.236525514814076 13.1667
44.26055926674478 13.1061
44.28459506876863 13.1208
44.3088207262813 13.0535
44.33286064928722 13.0446
44.35690262714919 13.0411
44.38094666145278 12.9467
44.4051806219871 12.9597
44.42922879003185 12.9665
44.45327901929361 12.8878
44.477331311362136 12.9196
44.501573600619416 12.8624
44.525630039221795 12.8686
44.54968854541895 12.8416
44.573937102200176 12.7818
44.5979997645541 12.7903
44.622064499300315 12.7906
44.64613130803592 12.7404
44.67038823869318 12.725999999999999
44.69445921643748 12.677999999999999
44.718532272981385 12.6736
44.742607409926194 12.6755
44.76687274034801 12.6074
44.79095205918753 12.577
44.81503346325094 12.6052
44.839116954143876 12.5779
44.86339071028742 12.5695
44.88747839599524 12.5616
44.91156817336837 12.5191
44.93566004401666 12.5265
44.959942251908146 12.4608
44.984038330325966 12.4265
45.00813650686762 12.415999999999999
45.03223678314731 12.4151
45.05652746888232 12.3516
45.08063196592069 12.3429
45.104738567558705 12.3085
45.128847275414856 12.2826
45.15314646515866 12.2663
45.17725940679741 12.2552
45.20137445952892 12.2297
45.22568004865265 12.2196
45.24979934496396 12.1691
45.27392075725247 12.1445
45.29804428714431 12.1308
45.322358426247604 12.1303
45.346486212804315 12.0687
45.370616121861914 12.1195
45.39474815505086 12.0864
45.41907087049246 12.0312
45.4432071734666 11.9964
45.46734560548283 12.0383
45.49148616817604 12.0255
45.51581748638564 11.9925
45.5399623320197 11.9594
45.56410931325473 11.9444
45.58825843173002 11.9667
45.61259837920865 11.8947
45.636751793816 11.8738
45.66090735060093 11.85
45.68506505120716 11.7964
45.7094136545275 11.8058
45.73357566449271 11.7551
45.75773982322992 11.7608
45.78190613238733 11.7697
45.806263418194064 11.7164
45.83043404997326 11.6899
45.85460683713677 11.6708
45.87897065658495 11.6638
45.90314777634752 11.6247
45.92732705646868 11.6027
45.9515084986045 11.6011
45.97588104735473 11.5698
46.00006683541565 11.5656
46.02425479047904 11.5569
46.04844491420549 11.5101
46.0728262191024 11.4672
46.09702070211635 11.4722
46.12121735879483 11.4691
46.14541619080294 11.4061
46.169806278764455 11.372
46.194009483459034 11.4112
46.21821486849841 11.3628
46.24242243555223 11.3165
46.266821333570014 11.2579
46.29103328674601 11.247
46.31524742696538 11.2761
46.33946375590237 11.2441
46.36387149104216 11.2085
46.38809221957392 11.2082
46.41231514186606 11.2436
46.436540259597464 11.1885
46.460956858999374 11.1371
46.48518638983522 11.1488
46.509418121166966 11.1424
46.533652054678114 11.1301
46.55807754555709 11.0821
46.58231590571962 11.0669
46.60655647313217 11.0598
46.630988654873654 10.9866
46.655233659129024 10.97
46.67948087571551 10.9487
46.70373030632484 10.9271
46.72817142736393 10.9659
46.752425308428684 10.9348
46.77668140861147 10.9106
46.80093972960865 10.8425
46.82538981736788 10.8501
46.849652602470904 10.8262
46.87391761349769 10.7944
46.8981848521493 10.7785
46.9226439341274 10.737
46.946915650573224 10.7603
46.97118959976749 10.7258
46.99546578341598 10.7233
47.019933887188216 10.6867
47.04421456235744 10.6504
47.06849747711879 10.6375
47.09278263318286 10.6439
47.11725978640143 10.5858
47.14154944775105 10.5866
47.165841355555656 10.5525
47.1901355115306 10.5384
47.214621741924994 10.5742
47.23892041698887 10.5371
47.26322134538975 10.4657
47.28771440635075 10.4707
47.31201986422527 10.4746
47.33632758061436 10.4683
47.360637557241866 10.4227
47.38513974410611 10.3863
47.40945426407847 10.3742
47.43377104948137 10.3239
47.45809010204344 10.3208
47.48260144275502 10.3264
47.506925052572285 10.2798
47.53125093475548 10.2212
47.55557909103813 10.2238
47.58009961361992 10.2268
47.60443234110732 10.2396
47.62876734791564 10.1979
47.65310463578333 10.138
47.6776343683373 10.1629
47.7019762413987 10.1233
47.72632040075572 10.1048
47.75066684815169 10.1098
47.77520581885936 10.0832
47.799556865477655 10.0662
47.823910205386 10.0705
47.84826584033272 10.0538
47.87281407745551 10.0178
47.89717432569297 10.0483
47.92153687423484 9.99193
47.94609208429692 9.97493
47.97045925671401 9.90847
47.99482873471275 9.90875
48.01920052005013 9.90793
48.04376504619224 9.87124
48.068141469543484 9.87753
48.09252020552573 9.86256
48.11690125590099 9.869
48.1414751266064 9.81122
48.16586082917454 9.815010000000001
48.19024885144316 9.81012
48.2146391951793 9.74341
48.239222439012764 9.76315
48.26361744916137 9.74408
48.28801478610016 9.740910000000001
48.31241445160131 9.711889999999999
48.337007097209366 9.65368
48.36141144338331 9.6652
48.38581812345755 9.65718
48.41022713920929 9.64427
48.434829215320704 9.5905
48.45924292604658 9.585460000000001
48.48365897780325 9.62392
48.50807737237308 9.58883
48.532688907799276 9.55218
48.55711201168574 9.54914
48.581537463754074 9.522689999999999
48.60615611725119 9.50887
48.63058628942721 9.464139999999999
48.65501881516546 9.44742
48.6794536962573 9.42008
48.70408185970339 9.438369999999999
48.72852147531801 9.426810000000001
48.75296345168211 9.3825
48.77740779059232 9.35083
48.80204549302823 9.366589999999999
48.82649458091802 9.33308
48.85094603676547 9.31286
48.87539986237231 9.2905
48.90004713292306 9.26816
48.92450572200832 9.25711
48.94896668628025 9.23682
48.97343002754588 9.21768
48.99808689542115 9.17572
49.02255501470614 9.18308
49.04702551642794 9.2011
49.0714984023988 9.14858
49.096164896893235 9.13147
49.120642575466796 9.10774
49.145122643748394 9.0888
49.16960510355558 9.06894
49.19428125404938 9.082410000000001
49.2187685210852 9.0504
49.243258185121555 9.047369999999999
49.26794160167084 8.99832
49.2924360839405 9.01213
49.31693296869764 9.00105
49.34143225776915 8.97125
49.36612538195438 8.92738
49.39062950396021 8.92877
49.41513603578346 8.90785
49.4396449792564 8.88688
49.46434784069503 8.8731
49.488861631846454 8.834589999999999
49.513377840166804 8.83165
49.537896467493745 8.81104
49.56260909589029 8.7701
49.587132585683285 8.775039999999999
49.611658500018365 8.78994
49.636186840738596 8.80015
49.66090926588511 8.73708
49.685442483902584 8.6953
49.70997813385706 8.67675
49.734516217597076 8.68348
49.75924846937352 8.696539999999999
49.7837914452858 8.6465
49.80833686055187 8.64798
49.83288471702571 8.61396
49.85762682540054 8.62663
49.882179588965734 8.5706
49.9067347993235 8.559
49.93129245833333 8.55722
49.95604445336378 8.560989999999999
49.98060703442832 8.55602
50.005172069746266 8.50522
50.02993150438364 8.49841
50.05450147301533 8.48822
50.07907390151433 8.49504
50.10364879174981 8.43618
50.12841816587289 8.46288
50.1529980044635 8.45725
50.17758031042124 8.37618
50.20216508562089 8.378160000000001
50.22694442953363 8.35224
50.25153416817468 8.31811
50.27612638170508 8.34479
50.300721072005196 8.337810000000001
50.325510416102105 8.28622
50.350110084975064 8.24296
50.37471223628208 8.283430000000001
50.39931687190919 8.24555
50.424116246675766 8.25429
50.44872587605249 8.232330000000001
50.47333799543065 8.190710000000001
50.49795260670191 8.20377
50.52276204271512 8.18772
50.54738166295838 8.13823
50.57200378079314 8.15733
50.596628398116835 8.13035
50.62144792604559 8.0997
50.646077567609396 8.10168
50.670709714377715 8.08509
50.69553683636198 8.06494
50.72017401885922 8.04682
50.7448137122895 8.042710000000001
50.76945591856022 8.025089999999999
50.79429318636823 8.00961
50.818940443716784 8.00566
50.84359021965163 7.992360000000001
50.868242516085964 7.95976
50.893089960641895 7.9404699999999995
50.917747323549435 7.94163
50.94240721271973 7.937869999999999
50.96706963007175 7.884580000000001
50.99192728239342 7.8899
51.01659478166073 7.86988
51.04126481489051 7.84322
51.06593738400761 7.81169
51.090805275207074 7.8253699999999995
51.11548294172845 7.809639999999999
51.14016314993547 7.781339999999999
51.164845901758845 7.76404
51.18972406304274 7.74507
51.21441192780656 7.72163
51.23910234200271 7.733
51.2637953075678 7.70745
51.288683770237945 7.680219999999999
51.31338186432707 7.644139999999999
51.33808251561888 7.644660000000001
51.362978729967345 7.6056
51.387684521509755 7.630319999999999
51.41239287610203 7.60485
51.437103795691165 7.57873
51.46201036644977 7.580419999999999
51.486726441956634 7.566339999999999
51.51144508832545 7.5235199999999995
51.536166307509156 7.49878
51.56108326624387 7.5004800000000005
51.58580965706056 7.49604
51.61053862657523 7.4829
51.635270176746864 7.427039999999999
51.66019755512065 7.45932
51.68493429268881 7.40528
51.70967361681515 7.44233
51.73441552946465 7.40068
51.759353359237934 7.400239999999999
51.7841004750961 7.35572
51.80885018539685 7.3605100000000006
51.833602492111254 7.32781
51.8585508051424 7.3025899999999995
51.883308330926425 7.29172
51.90806845906181 7.320939999999999
51.932831191525715 7.303730000000001
51.95779001977161 7.25678
51.98255798721516 7.20633
52.00732856494335 7.2243699999999995
52.03229530577543 7.25477
52.057071130455945 7.20573
52.081849571391054 7.1513100000000005
52.106630630568695 7.172630000000001
52.13160794279417 7.13957
52.15639426492067 7.14687
52.18118321127822 7.15862
52.205974783860896 7.109489999999999
52.23096269971011 7.0875699999999995
52.255759551287994 7.104589999999999
52.280559035098186 7.09323
52.30536115314103 7.07212
52.33035970494467 7.05014
52.35516711807904 7.03172
52.37997717147198 6.9884699999999995
52.40478986713005 7.0082699999999996
52.42979908731974 6.99262
52.454617094216 6.939
52.47943774942214 6.931839999999999
52.50426105495102 6.93358
52.529280976059844 6.937360000000001
52.554109609024096 6.887630000000001
52.57894089837482 6.903
52.60377484613117 6.89735
52.62880550079408 6.88081
52.65364479223379 6.87524
52.67848674816189 6.82614
52.70352547971946 6.8234
52.72837279155837 6.80588
52.753222773982785 6.81303
52.778075429022984 6.82105
52.80312495150885 6.8208
52.827982978797436 6.77415
52.85284368481815 6.72156
52.87770707160767 6.713019999999999
52.90276741793998 6.722360000000001
52.92763619336701 6.68734
52.952507655698504 6.6577
52.977381806977576 6.65527
53.00245301017842 6.659889999999999
53.02733256653592 6.6787
53.052214817996074 6.64266
53.077099766608484 6.6437100000000004
53.102181859804446 6.58438
53.127072229988265 6.6059
53.15196530349892 6.60877
53.17686108239249 6.60527
53.20195409881522 6.5772699999999995
53.22685531582556 6.562410000000001
53.25175924441303 6.490419999999999
53.27666588664027 6.4913
53.30176985962693 6.49334
53.3266819565689 6.49377
53.35159677336455 6.42514
53.376514312083096 6.46885
53.40162927507703 6.466819999999999
53.42655228516116 6.42875
53.45147802340193 6.43456
53.47660125628886 6.39391
53.50153247842639 6.3758099999999995
53.52646643496923 6.36468
53.55140312799818 6.38034
53.576537409691696 6.36825
53.60147960336152 6.34914
53.626424539786164 6.28394
53.65137222105307 6.28032
53.67651758529126 6.305969999999999
53.70147078399681 6.28296
53.72642673383343 6.25777
53.75138543689533 6.243519999999999
53.776541917524526 6.21019
53.801506154876755 6.20881
53.826473151763246 6.1737400000000004
53.851442910284916 6.190230000000001
53.87661054126026 6.188219999999999
53.9015858509782 6.15385
53.92656392866066 6.15995
53.95154477641532 6.16765
53.976723591801296 6.11452
54.00171000771266 6.09437
54.02669920004598 6.0764
54.051691170915745 6.05731
54.076881204886796 6.03622
54.101878760928514 6.01673
54.12687910187696 6.054530000000001
54.152077577768296 6.03596
54.1770835166946 6.03261
54.20209224691339 5.99774
54.22710377055121 5.935219999999999
54.25231352511594 6.00666
54.27733066384342 5.94806
54.30235060239643 5.974880000000001
54.32737334290836 5.95631
54.35259441062629 5.9150599999999995
54.377622783395324 5.89853
54.40265396455061 5.86412
54.42768795623251 5.84061
54.45292037169559 5.80128
54.477960012857906 5.832330000000001
54.50300247099511 5.8027
54.52804774825457 5.77024
54.55329154616743 5.69904
54.57834249018678 5.75397
54.6033962597977 5.742999999999999
54.6284528571545 5.70165
54.653708072335164 5.72342
54.67877035378786 5.72548
54.70383546947698 5.65604
54.72890342156389 5.6399
54.7541700889442 5.64417
54.77924374251975 5.58897
54.8043202390049 5.55778
54.82959552413022 5.56303
54.8546777351945 5.55903
54.87976279569621 5.46967
54.90485070780914 5.53336
54.930137506558005 5.48949
54.95523115074295 5.4787099999999995
54.98032765308844 5.421
55.005427015775496 5.40666
55.03072536339621 5.405390000000001
55.05583047570572 5.35577
55.080938454927676 5.3939699999999995
55.10604930325027 5.3301
55.131359235107396 5.3143400000000005
55.15647585066083 5.31468
55.181595341907496 5.30641
55.20671771104285 5.252000000000001
55.232039262617704 5.21871
55.25716741665048 5.24416
55.28229845518636 5.240530000000001
55.30743238042802 5.14783
55.33276558731939 5.1453
55.357905315183636 5.16438
55.383047936390035 5.0906
55.40819345314859 5.05219
55.433538351073295 5.09197
55.458689688238415 5.0818900000000005
55.483843927614096 4.96349
55.509197623043605 5.00862
55.53435769621134 4.94285
55.55952067826466 4.91305
55.5846865714265 4.89608
55.61005202069737 4.91881
55.63522376553902 4.91732
55.66039842818645 4.78465
55.68557601087004 4.80814
55.7109532500271 4.78759
55.73613670233794 4.84244
