TT I
1.2716486653135266 7.93059
1.2939594142134223 6.988460000000001
1.3162702121660406 7.04714
1.3385810600174564 6.88995
1.3608919586137629 6.38095
1.383202908801069 6.5044900000000005
1.405513911425503 6.2849
1.4278249673332093 6.55905
1.4501343378461518 6.88305
1.4724455028545926 6.29376
1.4947567236847858 5.43767
1.517068001182951 6.05823
1.5393793361953272 6.10792
1.5616907295681737 5.9427
1.5840021821477681 5.80964
1.60631369478041 6.04481
1.6286252683124185 5.39646
1.6509369035901333 5.35562
1.6732468618895553 5.24233
1.695558623192809 4.58804
1.7178704487808514 4.44532
1.7401823395001077 4.85963
1.7625012545597203 4.667619999999999
1.7848028405262486 5.0491
1.8071218901122095 4.76858
1.8294236121921872 4.46704
1.8517427996910911 4.82627
1.8740620574440425 5.02159
1.8963639900671978 4.950830000000001
1.9186833908139995 5.40994
1.9409854680117449 4.9942400000000005
1.9633050151394713 4.960430000000001
1.9856246367570705 4.72199
2.0079269371922672 4.397819999999999
2.03024671027244 4.438269999999999
2.0525491637446027 4.77415
2.074869091674931 4.583880000000001
2.097171701569106 4.06266
2.1194917877373847 4.68811
2.141811954326636 5.22671
2.164114805233074 4.37809
2.186435135143035 6.0008099999999995
2.208738150935709 14.6616
2.231058647554722 30.1687
2.2533792288321184 23.4822
2.275682498336085 10.3451
2.298003251406138 6.057930000000001
2.3203066942619714 5.278
2.3426276225136022 5.4922
2.3649486396617507 5.1759
2.387252348930071 5.32294
2.4095735463442893 5.67871
2.4318774374315884 5.534
2.4541988185014043 5.51636
2.476502894794693 6.23864
2.498824462909887 6.19829
2.521146125856138 6.57463
2.5434504863470337 6.772880000000001
2.5657723414244717 6.97577
2.588076895590662 7.076280000000001
2.610398946189713 7.7317
2.6327210958598384 7.1952300000000005
2.6550259469304716 7.44625
2.6773482972090137 7.51421
2.6996533504259 7.22677
2.7219759047039602 7.73055
2.744298562293959 7.31175
2.7666039251246595 6.872560000000001
2.7889267918020164 7.31102
2.8112323652516555 7.33927
2.833555444408179 8.13841
2.8558786311183852 8.16658
2.8781845268938557 8.47361
2.9005079311721484 9.09042
2.9228140460410397 8.34342
2.9451376712799635 8.62945
2.967444008632326 9.030489999999999
2.9897678582247247 9.45956
3.0120918213106695 10.4687
3.0343984987899373 10.8185
3.0567226913198637 11.0344
3.079029599759726 11.3619
3.101354025127254 11.8004
3.123678568232338 12.5885
3.145985829517914 12.9071
3.16831061055229 13.128
3.1906181112775593 13.8554
3.212943133635653 14.5617
3.2352682779763207 15.4085
3.2575761442691227 15.1163
3.2799015350264273 15.932
3.302209649240067 16.345
3.3245352898092655 16.4382
3.3468436553365257 17.2253
3.369169549113219 17.8522
3.3914955708171384 18.7837
3.413804319727358 18.9412
3.4361305997334863 19.1641
3.4584396084414553 20.0032
3.4807661501462652 20.6603
3.503092824025881 21.0053
3.5254022288463154 21.3431
3.5477291695206588 22.159000000000002
3.5700388426251948 22.9677
3.5923660534916446 24.2527
3.6146934007816114 40.317
3.637003482731501 95.7887
3.6593311053109985 106.02600000000001
3.681641464033634 59.7902
3.7039693653009733 31.8222
3.726297407241705 26.6166
3.7486081875460804 25.9607
3.7709365132734978 26.256
3.793247578841633 26.5633
3.8155761917550093 27.185
3.8378875459837216 27.1098
3.8602164494827234 27.7779
3.882545499606844 28.6344
3.9048572932539183 29.3204
3.9271866390645718 29.4863
3.9494987298666713 30.043000000000003
3.971828374764527 30.503
3.9941581705403255 31.1519
4.016470713506008 31.9572
4.038800813471445 32.3261
4.061113662089144 32.9112
4.0834440696459176 33.7592
4.105774632334751 34.537
4.128087945865126 35.3109
4.150418821249301 36.2943
4.172732448931298 37.233000000000004
4.195063640413578 39.4573
4.2173775856475215 44.0905
4.239709096631102 78.5518
4.262040768704612 256.687
4.284355196706267 345.227
4.306687193387355 220.55599999999998
4.329001947444346 85.1887
4.35133427213731 49.2905
4.373666762177566 44.8781
4.395982011761091 45.1563
4.418314834921175 46.5496
4.44063041906622 54.6185
4.4629635787515625 66.6308
4.4852969080429785 67.1351
4.5076130004776225 54.8704
4.529946671403969 51.1148
4.552263106909177 51.1021
4.574597122877047 51.7644
4.596931312711224 52.6944
4.619248269273446 53.8726
4.6415828092605835 55.0158
4.663900117405352 55.9634
4.686235010953232 57.5568
4.708552674085913 58.4918
4.730887924602802 60.1693
4.753223354952695 61.6105
4.775541557023902 63.0803
4.797877349456786 64.044
4.820195915032126 66.1653
4.842532072957498 68.1027
4.864868414979744 69.9151
4.88718753227192 71.9707
4.909524244902505 74.013
4.931843734218147 76.1085
4.954180820867835 78.2431
4.976518095879839 81.2989
4.998838149695359 84.594
5.021175803844231 87.8065
5.043496238205739 91.5088
5.065834274903528 96.2846
5.088172504230693 101.369
5.1104935158799565 107.96799999999999
5.132832132875765 132.10299999999998
5.155153533596801 180.363
5.1774925416746225 218.44
5.199814334878411 392.152
5.2221537374521505 1116.21
5.244493338631803 2994.34
5.266815727034316 7393.46
5.289155727832427 12147.4
5.311478517248165 9124.36
5.333818921080011 3293.84
5.356159527788849 675.189
5.3784829252032536 205.252
5.400823940070432 153.444
5.423147747031976 133.71200000000002
5.445489173474152 122.88799999999999
5.467830807066149 116.516
5.490155234831516 111.76100000000001
5.512497285125229 108.101
5.534822130975162 105.699
5.557164601388673 103.689
5.579489868738879 100.66
5.601832762690846 100.178
5.6241758697774475 99.1864
5.646501775867269 98.225
5.668845311622074 96.3724
5.691171647754637 95.3914
5.713515615597765 94.3694
5.735859800852677 93.5868
5.758186788542988 92.609
5.780531411018185 92.9676
5.802858837297399 92.3617
5.825203900414495 92.4585
5.8475491852224 93.1361
5.869877275883075 93.2718
5.892223006467101 94.4831
5.914551544266608 96.0935
5.936897724049891 99.3715
5.959244129804903 104.87299999999999
5.981573344815301 124.323
6.0039202049061 220.023
6.026249875609095 482.73699999999997
6.04859719346037 1015.35
6.070927323278297 2205.43
6.093275102315365 4110.05
6.115623113320588 5175.7
6.137953938319995 3448.96
6.160302415650845 1213.41
6.182633708324452 294.628
6.2049826554078376 124.102
6.227331838745022 96.8798
6.249663839443684 87.881
6.27201349767565 84.9812
6.294345974611799 91.7173
6.316696111167083 104.275
6.339046488263839 98.0153
6.361379686074702 81.8519
6.383730546639482 73.2117
6.406064229255215 69.885
6.428415576718203 69.5307
6.450749747566656 68.4758
6.47310158535871 66.6781
6.495453669698332 66.3126
6.517788579421056 66.0559
6.540141159237969 65.4195
6.562476565766648 64.0887
6.5848296444934045 63.857
6.607182974060425 63.2079
6.6295191323281015 63.4529
6.651872965955752 67.7294
6.6742096296068985 96.4707
6.6965639707294615 147.80700000000002
6.71891856698715 146.851
6.741255995248479 98.5819
6.763611104154477 69.676
6.785949046381137 61.4884
6.808304671371482 59.4424
6.8306605557940046 59.2042
6.852999275508618 58.5037
6.875355681171544 58.0746
6.897694923437771 57.3549
6.92005185377892 57.1141
6.9423916220322655 56.9417
6.964749080490181 56.6533
6.987106804399774 56.746
7.009447368180821 56.9393
7.031805625367033 56.2322
7.054146723727803 56.1384
7.076505517631004 56.0735
7.098864581288365 55.8519
7.121206488070854 55.6865
7.143566093607822 55.4503
7.165908543567245 56.1403
7.188268694426048 55.9359
7.2106291193438095 56.2843
7.232972390625943 57.6371
7.255333366030969 72.0952
7.277677189091925 131.42700000000002
7.300038718428332 183.09400000000002
7.322400526130865 153.52
7.344745183422596 93.134
7.367107550224791 63.5496
7.389452767901992 57.2943
7.411815697249891 56.0681
7.434161478756298 55.2391
7.456524974096713 55.1401
7.478888753837185 55.2575
7.501235387657368 55.4914
7.523599738562711 55.4812
7.545946944825532 55.3676
7.568311870344528 56.0482
7.5906770845765665 56.3269
7.613025156078678 57.6949
7.635390950099687 59.0267
7.657739602662809 58.0144
7.680105979923558 57.0874
7.702472650212829 57.086000000000006
7.724822180948224 56.7695
7.747189439655568 56.7547
7.769539560075357 56.6664
7.791907410653562 57.3284
7.81425812420825 57.3409
7.836626570110925 57.6941
7.858995315087906 58.3558
7.881346924933401 58.465
7.903716270417482 58.9928
7.926068482028405 59.2087
7.948438431475253 59.7998
7.9708086843180235 60.38399999999999
7.993161805171116 61.5059
8.015532667162402 61.4408
8.037886398416653 62.4486
8.060257873014221 63.2152
8.082629655331942 63.7261
8.104984308787587 65.1224
8.127356708900503 68.1895
8.149711981398308 74.5097
8.172085002766314 76.8326
8.194458336181368 73.2155
8.216814543847752 70.3535
8.23918850371002 70.1689
8.26154533906492 70.9538
8.283919928836452 72.6319
8.306277395339652 73.8568
8.328652618483376 74.8171
8.351028159736202 77.122
8.373386579575245 79.1484
8.395762759396959 81.34899999999999
8.418121819038275 86.7229
8.440498640894003 100.899
8.462875785192262 116.44
8.485235811156207 128.54399999999998
8.507613602688501 169.38
8.529974277114228 261.528
8.552352719347912 402.659
8.574731488360351 672.107
8.59709314210385 1153.8
8.619472567021075 1778.36
8.64183487789147 2137.45
8.664214962183097 1872.66
8.686577933647762 1065.73
8.708958680784317 413.04900000000004
8.731339760774953 181.454
8.753703729764451 117.419
8.77608547780821 102.234
8.798450116065078 97.5535
8.820832535634787 94.4484
8.843215292401656 92.4497
8.865580941199045 90.8594
8.887964374703538 89.65799999999999
8.910330701447199 90.7536
8.932714815164482 93.8429
8.955099270424924 92.7874
8.977466620733543 89.4585
8.999851761421976 86.6169
9.022219798361645 84.9206
9.04460562795561 84.7255
9.066991803441677 84.2194
9.089360876979615 83.6803
9.111747746589993 83.4196
9.13411751544971 82.8656
9.156505082664324 82.5561
9.178875550323522 82.9282
9.20126381862328 83.3692
9.223652438908596 83.9511
9.246023961427412 83.5073
9.26841328802173 82.7345
9.290785518039224 82.9465
9.313175554425882 83.4927
9.335565947154315 83.2885
9.357939245086508 83.6383
9.380330352834827 83.8105
9.40270436697103 83.7321
9.425096193225055 84.054
9.447488380180165 84.7196
9.469863475295412 85.2097
9.492256385987508 85.7545
9.514632206018318 85.9016
9.537025843935714 86.4555
9.559402392368193 87.2062
9.581796761000229 88.1426
9.604191496441521 89.5909
9.626569144158516 93.1843
9.648964615551032 98.0289
9.671343000390081 100.009
9.693739211225699 97.7367
9.716135793237463 94.9758
9.738515290448102 93.9445
9.760912617143402 94.9029
9.783292860202891 95.7701
9.805690935076182 97.48200000000001
9.828089385495742 98.5648
9.850470754023561 101.009
9.872869957865444 109.35799999999999
9.89525208097539 125.825
9.917652041736662 139.345
9.940052382417589 138.485
9.962435644102392 143.908
9.984836746950979 180.946
10.007220771957746 248.39700000000002
10.029622640473708 356.616
10.052007432299963 531.85
10.074410069984072 808.826
10.096813093716005 1214.09
10.119199042482517 1650.33
10.141602840636468 1905.03
10.163989564971628 1625.64
10.186394141051062 984.855
10.208799107559706 446.74800000000005
10.231187001965623 214.08599999999998
10.253592751657669 135.14700000000002
10.275981430388155 116.618
10.298387966769793 115.8
10.320794897965431 118.068
10.343184759907361 117.331
10.36559248305461 110.715
10.387983138083852 106.311
10.410391656691655 108.649
10.432800574501677 120.09700000000001
10.455192425893369 137.067
10.47760214443012 163.16
10.499994797678786 206.19299999999998
10.522405320453982 283.101
10.54479877906917 392.426
10.567210109595656 494.161
10.5896218454736 553.0269999999999
10.612016518879773 507.00699999999995
10.634429067781074 377.00800000000004
10.656824555333241 225.15
10.679237920773568 136.374
10.701651695961992 100.288
10.724048411481384 90.7411
10.746463008485165 88.1394
10.768860546937125 86.3898
10.791275969274796 84.3748
10.81369180576079 83.2809
10.836090585366925 82.1658
10.858507252467449 81.0015
10.88090686379991 80.0007
10.903324365036394 79.3793
10.925724811614439 79.4144
10.948143150509463 80.972
10.970561909719066 80.0593
10.992963615930844 77.9201
11.015383218085756 75.9046
11.037785768347074 74.0459
11.06020621697282 73.9121
11.082627090322113 73.1256
11.105030913430326 72.5199
11.12745263854165 73.5856
11.149857314510728 77.4301
11.172279894912576 83.8205
11.194702904450653 84.7739
11.217108866490921 80.5042
11.239532736615194 75.6144
11.26193956033512 72.8167
11.284364294577085 71.3251
11.306789462371718 69.0897
11.329197585398376 68.233
11.351623622610898 67.8606
11.37403261614354 67.0274
11.396459526308487 66.8083
11.418869393879497 66.4448
11.441297180532617 66.2114
11.463725406927658 65.7841
11.486136592353875 65.4797
11.508565700543707 66.2741
11.530977768845315 68.2851
11.553407762368774 69.2273
11.575838200059769 68.2763
11.598251599479612 66.3228
11.620682927815501 64.9507
11.64309721895548 64.3417
11.665529441478206 63.7542
11.687962112597958 63.5148
11.710377748130886 63.7363
11.732811318753434 63.6149
11.755227854859067 63.7522
11.777662328529495 63.8402
11.800079768750786 63.2504
11.822515149015453 63.3288
11.844950984084935 63.6502
11.867369787303163 63.3275
11.889806534289491 63.2404
11.912226250487029 63.4239
11.934663912939751 63.4839
11.9571020346363 63.4759
11.979523127133968 63.5191
12.001962169624331 64.6229
12.024384183972964 65.4927
12.046824150809913 68.5364
12.069264581333726 74.119
12.091687985297767 80.8058
12.11412934550045 89.8075
12.136553680195208 104.725
12.158995973632788 126.512
12.181438735204349 153.017
12.20386447284199 179.793
12.226308172985636 201.054
12.24873485024193 201.03599999999997
12.271179492516982 171.91299999999998
12.293607112949127 135.06799999999998
12.316052700916226 102.249
12.338498763250042 82.7728
12.360927805303868 72.1354
12.383374818673879 67.8959
12.405804812803074 65.6661
12.428252780773262 65.2321
12.45070122756722 65.1948
12.473132656675375 65.0165
12.49558206341869 65.0843
12.518014453510101 65.3051
12.540464823770117 65.2223
12.562915677315177 65.6279
12.58534951575545 66.3515
12.607801338171472 68.654
12.630236146511358 74.3441
12.652688941369085 79.5416
12.675124723177234 79.8942
12.697578494048786 75.7829
12.720032754458185 70.8706
12.742470003354093 68.883
12.764925245138771 68.598
12.787363476431278 68.8267
12.809819703166806 69.2732
12.83227642391173 69.90100000000001
12.854716135692716 70.3704
12.877173846755147 71.7602
12.899614549869717 71.616
12.9220732548287 72.7047
12.94453245827299 72.8578
12.966974655289818 74.0357
12.989434858002571 74.7977
13.011878055298721 75.5949
13.034339260862497 76.3379
13.056800969391883 77.9013
13.079245674017244 79.6023
13.101708390774869 82.0877
13.12415410463411 89.1528
13.146617833206086 101.62
13.169064559883248 114.338
13.191529303857127 129.071
13.213994557076367 151.94
13.236442809902437 185.942
13.258909083908291 236.614
13.28135835851934 296.41
13.30382565690295 360.403
13.326293469022952 415.338
13.348744283242008 425.92199999999997
13.371213125129904 371.51300000000003
13.39366497011003 280.272
13.416134845360597 189.229
13.438605238843131 131.862
13.46105863690397 109.705
13.483530069144786 108.01299999999999
13.505984506951902 113.319
13.528456981549432 123.421
13.550929978879088 137.886
13.573385983253365 160.678
13.595860028340867 196.36900000000003
13.618317081455832 243.278
13.64079217790333 292.31
13.663250283359057 333.63599999999997
13.685726434770173 361.88599999999997
13.708203115221277 340.295
13.730662806148091 275.72700000000003
13.75314054697177 202.638
13.775601299246777 141.30200000000002
13.798080104050406 103.506
13.820559442405358 87.671
13.843021793671388 83.4054
13.865502201420897 81.2548
13.887965623051947 80.48899999999999
13.910447103807167 79.67699999999999
13.932929122629764 78.2688
13.955394156785959 77.726
13.977877254034569 76.8132
14.000343367582113 75.9382
14.022827546871707 75.3716
14.045294743423524 74.5361
14.06778000837062 74.0199
14.090265817715476 73.6262
14.112734645763819 73.2655
14.13522154619454 73.3514
14.157691466286913 73.3193
14.180179461423874 73.3282
14.202668005486178 72.4823
14.22513957064374 71.7146
14.247629214846473 71.2671
14.270101881097517 71.1767
14.29259262906496 71.5834
14.315083930490205 72.3325
14.337558255389705 72.6169
14.360050666019726 72.2674
14.382526101071944 71.2694
14.405019624534942 70.1246
14.427513705993134 69.6335
14.449990813291825 69.7816
14.47248601302899 69.6406
14.49496423954951 69.6951
14.517460561197822 69.7251
14.539939910570322 69.2921
14.562437357763558 69.9343
14.58493536931253 70.999
14.607416409993311 71.9956
14.62991555254159 72.8691
14.652397725157423 72.5974
14.674898002342799 72.1985
14.697398848433282 71.0276
14.719882725991326 72.1208
14.74238471217934 72.8613
14.764869730765593 76.2064
14.787372860692983 79.9275
14.809876564079925 84.6138
14.83236330125751 90.6476
14.854868153850365 99.0742
14.877356041159485 111.65700000000001
14.899862046604186 129.431
14.922351087688757 152.30700000000002
14.944858249632887 177.78400000000002
14.967365991421232 199.96900000000002
14.989856770231246 216.528
15.012365673994204 215.292
15.03485761569738 191.665
15.05736768508665 154.35
15.07987833888692 120.72200000000001
15.102372032001655 95.5483
15.124883856909658 79.6748
15.14737872204565 73.7453
15.169891721717274 71.8128
15.192405310371893 71.6557
15.214901940621196 71.9738
15.237416709527137 72.1559
15.259914520936249 72.2858
15.282430473753607 71.0991
15.304947020131227 69.9736
15.327446610371178 68.7727
15.349964346154254 67.7243
15.372465126703139 67.5573
15.394984055556009 67.3189
15.417486030076159 67.4475
15.44000615566487 66.9584
15.462526881230803 66.7477
15.485030653812652 67.005
15.507552581617434 67.1648
15.530057557334603 67.3896
15.55258069104857 67.1772
15.575104429329837 67.0691
15.597611216864632 66.5704
15.620136166564563 66.7538
15.6426441664095 67.5687
15.665170331202765 69.8464
15.687697105158826 73.21600000000001
15.710206930593545 76.9155
15.732734925158933 80.9618
15.755245972089478 87.0907
15.77777519094324 96.0366
15.800287463046663 108.005
15.822817909869592 125.87799999999999
15.84534897229804 144.50799999999998
15.867863089299354 167.055
15.890395385222186 181.19400000000002
15.912910736597423 190.532
15.935444269699861 181.639
15.957978423016485 160.02100000000002
15.980495633101265 129.774
16.003031029129367 103.116
16.02554948280019 80.8194
16.048086125229432 70.6526
16.070623392487107 66.8323
16.09314371869582 65.7011
16.11568223789321 64.6001
16.13820381691126 63.5666
16.160743591742527 62.5011
16.183283996022084 61.5841
16.205807461423195 60.5179
16.228349126881973 59.7976
16.25087385432698 59.5374
16.27341678466365 58.9102
16.29594277784926 59.1469
16.31848697676433 59.5817
16.341031811604868 60.0735
16.36355971058487 60.1981
16.3861058195587 60.0023
16.40863499352978 58.4503
16.431182380342005 57.6509
16.453730407713202 57.2353
16.476261501364792 56.5897
16.498810812136167 56.0562
16.52134319004079 56.2982
16.54389378792203 56.3646
16.566445031001553 56.0965
16.588979342490088 55.8686
16.61153187824822 55.6171
16.634067483263312 55.7204
16.656621315414416 55.4742
16.679175797408888 55.2464
16.701713349928728 55.3393
16.72426913389191 55.4818
16.74680798922351 55.7479
16.76936507887444 55.6817
16.791905240734874 55.7229
16.814463639794468 55.5986
16.837022695210294 55.5454
16.859564824093756 56.0103
16.882125194503903 56.7729
16.904668639217885 57.5974
16.927230328348003 57.802
16.949792678493612 57.8402
16.972338104193863 57.0445
16.994901778652235 56.4119
17.017448529496576 56.1955
17.040013531998152 56.544
17.06257920018044 56.9799
17.0851279459922 57.8707
17.107694947817667 58.8523
17.130245028099072 59.5231
17.15281336730298 60.7896
17.17536478578733 62.3604
17.19793446610687 64.5682
17.220504818648422 67.1051
17.243058251703697 70.1116
17.265629950971032 74.5455
17.288184731571736 78.6369
17.310757781306908 81.8764
17.33333150794385 83.2523
17.355888317140174 82.4305
17.37846339986244 78.7905
17.401021565958885 72.6739
17.42359800851343 67.6604
17.44617513265564 63.5234
17.468735341390783 61.2663
17.491261035594565 59.8916
17.51396340099364 59.6771
17.536490463869136 59.815
17.559018209820174 59.8543
17.58154663977963 60.102
17.604251766089718 60.0143
17.626781572227713 60.3416
17.64931206518155 60.7896
17.671843245885103 61.2118
17.69455114821572 61.4125
17.717083712612634 61.6183
17.739616967569667 61.7802
17.762150914021706 61.9258
17.78486160749854 62.1632
17.807396945166804 62.7347
17.829932977143503 63.3552
17.85246970436452 64.8437
17.875183204129467 66.9124
17.897721330097664 68.935
17.920260154126645 71.663
17.942799677153296 74.6897
17.9655159983646 78.4564
17.988056927677544 83.43299999999999
18.010598558807683 90.5518
18.033140892692916 99.6017
18.05586005052525 109.139
18.07840379824407 119.807
18.10094825154059 129.933
18.12366954819864 137.247
18.146215420998306 138.74200000000002
18.16876200220057 133.558
18.191309292745153 121.648
18.214033452627167 107.335
18.236582170236648 94.9362
18.259131600016456 88.7821
18.281681742907335 87.6674
18.304408781233683 91.1211
18.32696035875955 95.6372
18.349512652227624 100.015
18.372065662579683 104.302
18.394795594587553 105.845
18.41735004715306 104.26799999999999
18.43990521943684 99.1809
18.46246111238171 90.2693
18.485193953325208 80.7174
18.507751296070428 72.8393
18.530309362314178 67.6731
18.552868153000343 64.6058
18.57560391815056 63.1139
18.59816416623245 62.5639
18.620725141597372 61.9829
18.643286845190268 61.6041
18.666025549835414 61.0888
18.688588718427933 60.3732
18.711152618092243 60.2318
18.73389353884365 59.9703
18.75645890921984 59.651
18.77902501351406 59.4587
18.801591852673102 59.3079
18.824335739722738 58.9105
18.846904057212626 58.8875
18.8694731124168 58.5939
18.89204290628315 58.4823
18.914789774966803 58.2149
18.937361054791623 57.9482
18.959933076131318 57.6883
18.982505839934877 57.6371
19.00525570560582 57.8738
19.027829963004184 57.6512
19.05040496572238 57.7993
19.072980714710468 57.6696
19.095733592739563 57.7385
19.11831084296757 58.3686
19.140888842324735 58.7809
19.16346759176222 58.8849
19.18622349753803 59.4976
19.208803755869358 60.4011
19.231384767143577 61.4046
19.253966532312948 62.7525
19.276725481241822 64.6528
19.29930876296784 66.9221
19.3218928014549 69.6929
19.34465404436217 72.8403
19.36723960516257 75.354
19.389825925592426 76.4562
19.412413006605938 76.1151
19.43517731967805 73.6139
19.457765930683355 69.4176
19.48035530514408 64.9817
19.50294544401556 60.8226
19.525712842708348 57.9233
19.54830451925909 56.2435
19.570896963095727 55.0354
19.593490175174704 54.6192
19.616260674962184 54.6481
19.638855432416964 54.1751
19.661450960992624 54.3248
19.68404726164677 54.4305
19.706820878021247 54.1393
19.729418731756834 54.18899999999999
19.752017360452857 53.8468
19.77461676506804 54.0857
19.797393513540218 54.361000000000004
19.819994478951667 54.4971
19.84259622316767 54.9834
19.8651987471481 55.6053
19.887978643247177 55.7995
19.91058273574792 56.3417
19.933187610901943 57.1265
19.955969879466828 58.0751
19.97857632894404 59.3556
20.00118356396599 60.832
20.023791585494575 62.7424
20.046577028914875 65.3944
20.069186632506966 67.3015
20.091797025500632 69.0884
20.114408208858933 70.1176
20.137196842715273 70.3568
20.159809615886765 69.268
20.18242318232135 66.9115
20.20503754298326 64.8396
20.227829382875154 63.5905
20.250445341109344 62.8874
20.27306209647285 63.4678
20.29567964993108 64.0124
20.31847471147704 64.9333
20.34109387027612 66.009
20.363713830075454 66.0894
20.386334591841646 65.1229
20.409132890679302 62.7698
20.431755265564437 59.5899
20.454378445325528 56.8577
20.477002430930366 54.655
20.499803982716553 53.5343
20.522429589228004 52.3812
20.54505600449589 52.051
20.567683229489194 51.6637
20.590488049900088 51.3023
20.61311690359731 51.0543
20.63574656993626 50.7536
20.658553853717297 50.2994
20.681185154618298 50.3726
20.703817271080066 50.1789
20.72645020407368 49.6832
20.749260783967177 49.6453
20.771895359337133 49.6931
20.794530754161617 49.6708
20.817166969412938 49.7016
20.83998086114876 49.3911
20.86261872660049 49.3933
20.885257415405402 49.3558
20.90789692853701 49.208
20.930714147864748 49.294
20.953355319030678 49.2103
20.97599731745334 49.4603
20.99864014410749 49.2088
21.021460706796564 49.1242
21.044105199328826 49.5378
21.06675052302631 49.7833
21.089396678865015 49.833
21.112220600704806 49.9654
21.134868430275347 50.4615
21.15751709492456 50.7269
21.180166595629693 50.8877
21.202993892429635 51.3823
21.22564507473034 51.6487
21.24829709602816 51.9898
21.27112693608965 52.0114
21.293780644891275 52.1462
21.316435195634053 51.6762
21.339090589297417 51.0358
21.361923832041875 50.628
21.384580921090404 49.7117
21.407238856007325 49.3011
21.429897637773326 49.2302
21.45273429906592 48.9468
21.475394784108598 48.8947
21.498056118951983 48.8441
21.520718304578022 49.1
21.543558400304388 49.1005
21.566222297108816 49.5102
21.58888704765135 49.4729
21.61155265291521 49.8655
21.63439619898156 50.3177
21.657063523335786 50.5383
21.67973170537063 51.1015
21.7024007460706 51.4738
21.72524775840385 52.0983
21.747918526116475 53.2741
21.770590155457388 54.4132
21.79326264741238 55.8358
21.816113141960237 57.6941
21.838787368860547 59.3564
21.861462461341976 60.9734
21.884315579735777 62.6418
21.90699241312273 64.0173
21.92967011506078 64.8534
21.95234868653799 64.7855
21.9752053151131 64.2411
21.997885635446785 62.8082
22.020566828293532 60.908
22.04324889464272 59.0453
22.066109049404666 57.464
22.088792872571794 56.7668
22.111477572219204 56.4604
22.1341631493376 56.424
22.157026846313123 56.5398
22.179714188221507 55.9031
22.202402410582668 55.0889
22.22509151438863 53.8239
22.24795876962584 52.3534
22.270649646204486 51.5355
22.293341407213727 50.5838
22.316034053646906 50.1956
22.338904883215342 49.7709
22.36159931041458 49.7675
22.38429462602756 49.7946
22.40699083104897 49.7089
22.429865251039757 49.5408
22.452563244831367 49.5006
22.47526213102522 49.5118
22.49813925616515 49.3604
22.520839937143307 49.2223
22.543541513520587 49.2178
22.56624398629403 49.04600000000001
22.589124730075895 49.0876
22.611829005656723 49.3106
22.63453418063466 49.1011
22.657240256008077 49.5407
22.680124634582935 49.7333
22.70283252079775 49.9531
22.725541310413075 50.1116
22.74825100442868 50.2116
22.771139033969575 50.9413
22.79385054687155 51.1257
22.81656296718292 51.6847
22.83927629590484 52.3672
22.862167992606945 53.4289
22.88488314827121 54.5694
22.907599215359284 55.343999999999994
22.93031619487366 56.3613
22.953211574954405 57.2476
22.975930389478226 58.035
22.998650119445763 58.3606
23.02137076586092 58.021
23.044269845560063 56.8736
23.06699233506288 55.4747
23.089715744034912 53.8079
23.112617610931565 52.0413
23.135342869061212 50.9265
23.158069049684816 50.1624
23.1807961538087 49.6306
23.20370174880544 49.4938
23.226430710184808 49.3919
23.249160598093425 49.5099
23.271891413539002 49.4633
23.294800752937697 49.3375
23.31753343374794 49.7623
23.340267045128353 49.8189
23.36300158808808 50.1717
23.38591468821339 50.3885
23.408651104658304 50.8458
23.431388455719986 51.5212
23.454126742409 52.1359
23.4770436196085 53.0941
23.499783787914662 54.3265
23.522524894889884 55.1764
23.54526694154616 56.0669
23.56818761219047 56.8367
23.59093154860734 57.3624
23.613676427751283 58.0582
23.636422250635754 57.6884
23.659346731118656 56.4263
23.68209445191868 54.897
23.704843119509587 52.6204
23.72759273490623 50.8989
23.750521041644767 49.2199
23.77327256312355 48.1042
23.796025035462787 47.2449
23.818956224555475 46.7169
23.841710609113413 46.6345
23.86446594758979 46.398
23.887222241002014 46.0519
23.910157285144578 45.7921
23.932915498962537 45.9533
23.955674670778713 45.6737
23.978434801611975 45.476000000000006
24.001373717286125 45.358999999999995
24.024135776723917 45.3536
24.046898798245582 45.2034
24.06966278287146 45.0351
24.092605586582614 44.8424
24.115371508023642 44.7275
24.1381383956401 44.5061
24.16090625045381 44.6587
24.183852958731244 44.7118
24.206622758582608 44.4339
24.229393528706886 44.1266
24.252165270127392 44.2681
24.27511589952438 44.1467
24.297889594216997 43.9943
24.32066426328598 43.9103
24.34343990775613 43.9096
24.36639447485003 43.7682
24.38917208083877 43.7793
24.41195066531332 43.6888
24.43490819850244 43.6796
24.457688750692377 43.5244
24.48047028445616 43.5623
24.503252800821233 43.7047
24.526214300784112 43.5924
24.548998793132213 43.5009
24.57178427117417 43.4494
24.59457073593893 43.3312
24.617536219319863 43.4007
24.64032466834748 43.3897
24.663114107195035 43.4216
24.685904536893013 43.1552
24.708874020360852 43.2879
24.731666442613744 42.9394
24.754459858818787 42.8516
24.777254270007962 42.893
24.80022777025625 42.8919
24.82302418230472 42.7678
24.845821592443674 42.7661
24.86862000170663 42.6086
24.891597535453727 42.5287
24.914397953892728 42.8726
24.93719937456671 42.7295
24.96000179851076 42.7932
24.98298338249997 43.0468
25.00578782394922 43.1759
25.028593271784167 43.4055
25.05157790644186 43.6203
25.07438537804115 43.6395
25.097193859145293 44.0235
25.120003350792075 44.2048
25.142992065061257 44.5025
25.165803588823465 44.8438
25.18861612625217 45.0206
25.211429678386736 45.1994
25.234422489079968 45.3091
25.257238081693636 45.2072
25.280054692141732 45.4272
25.3028723214652 45.2962
25.325869245420463 45.2822
25.348688923599397 45.4213
25.371509623787006 45.3765
25.394331347025812 45.2028
25.41733240110666 44.9118
25.440156181590016 44.1857
25.46298098826268 43.7133
25.48580682216873 43.2322
25.50881202326435 42.6389
25.53163992281684 42.1043
25.55446885274561 41.8799
25.577298814096377 41.543
25.600308179121807 41.3712
25.623140214533745 41.5311
25.64597328451537 41.3201
25.66898578564376 41.0984
25.691820936010206 41.1745
25.714657124097695 41.2047
25.737494350954734 41.0895
25.760511045684957 40.9596
25.783350361364224 41.0572
25.806190718969255 41.0134
25.82903211955018 41.1944
25.852053024868923 41.1564
25.874896522722523 41.081
25.897741066713106 41.0989
25.920586657892454 41.1789
25.943611790812668 41.2802
25.966459487728237 41.4249
25.989308234998564 41.5491
26.01215803367705 41.7968
26.03518741123814 41.9644
26.05803932412957 41.9611
26.080892291600094 41.9766
26.10374631470478 42.0519
26.12677995397268 42.2526
26.14963609978026 42.1576
26.172493304397875 41.8883
26.19535156888223 41.757
26.218389486949604 41.3993
26.241249882640123 41.1465
26.26411134137826 40.8604
26.28715248187403 40.8431
26.31001607820869 40.7956
26.3328807407756 40.455999999999996
26.35574647063438 40.6726
26.37879191991473 40.5984
26.401659795896734 40.7338
26.424528742360263 40.6794
26.447398760366614 40.8825
26.470448535598294 40.9033
26.49332070826805 41.2324
26.516193955675355 41.6595
26.53906827888316 41.8193
26.562122397260108 41.9514
26.584998883685063 42.0436
26.607876449110325 42.272
26.63075509460056 42.5269
26.65381357334404 42.7229
26.67669439061878 42.5775
26.699576291163382 42.6537
26.722459276044212 42.606
26.745522132402975 42.2345
26.768407297649354 42.0554
26.791293550442003 41.604
26.814180891848974 41.3856
26.837248143099337 41.1437
26.860137673466657 41.0306
26.88302829566349 40.7225
26.90592001075963 40.6364
26.92899167420566 40.4699
26.951885586870763 40.1388
26.974780595655517 39.823
26.99785558178161 39.7735
27.020752794605112 39.4997
27.043651106772522 39.381
27.06655051935668 39.3135
27.089629948036183 39.1484
27.112531573292053 39.1646
27.135434302194138 39.2768
27.158338135817015 39.0784
27.181422024430987 39.0982
27.204328079372566 39.0169
27.22723524226965 39.0288
27.250143514198573 39.0434
27.273231880156334 39.0516
27.296142382065014 38.8552
27.319053996245536 38.8159
27.341966723775965 38.9704
27.365059584515222 38.9861
27.38797455070062 39.0237
27.410890633481237 38.8091
27.433807833936918 38.7659
27.456905206923906 38.8894
27.47982465472398 38.8967
27.502745223449743 38.999
27.525666914182825 39.1003
27.548768816912457 39.0139
27.571692763693633 38.8534
27.59461783573812 38.8854
27.617723149491244 38.7283
27.640650484125285 38.6599
27.66357894728264 38.7851
27.686508540048052 38.6192
27.709618414237887 38.5087
27.732550278321757 38.3191
27.755483275279115 38.3483
27.778417406196485 38.371
27.801531858397514 38.4475
27.824468269376716 38.3765
27.847405817586786 38.3476
27.870344504116094 38.5575
27.893463551932008 38.5513
27.916404527281053 38.6846
27.93934664422563 38.8232
27.962289903855886 38.835
27.98541356491974 39.0422
28.00835912214229 39.1485
28.03130582533231 39.3302
28.054253675581805 39.535
28.077381967556104 39.4008
28.100332124185126 39.5277
28.123283431160893 39.3876
28.146235889577238 39.3538
28.169368830154156 39.1328
28.192323603752033 38.9777
28.215279532083304 38.7178
28.238415973016764 38.4295
28.261374223145094 38.3256
28.284333631303806 38.1959
28.307294198589954 37.9619
28.330435319167677 37.6947
28.353398217078915 37.4246
28.376362277420153 37.1635
28.39932750129032 37.0653
28.422473319286713 36.9664
28.44544088262495 36.9582
28.468409612800283 36.7092
28.491379510913497 36.5607
28.51453004413313 36.5163
28.53750229057244 36.3614
28.56047570826344 36.4062
28.583450298308804 36.352
28.606605564586562 36.1979
28.629582511831156 36.3008
28.65256063474956 36.0893
28.675539934446338 36.03
28.698699951647605 36.093
28.72168161743193 35.9391
28.74466446331978 35.9244
28.767648490417624 35.933
28.790813276438353 35.8602
28.813799678527303 35.8613
28.836787265157085 35.958
28.859955641890075 35.894
28.882945610203045 35.9064
28.905936766392035 35.7736
28.928929111566863 35.9286
28.952102288520145 35.8714
28.975097024308607 35.6375
28.998092952423807 35.4598
29.021090073977508 35.4648
29.04426806913204 35.260999999999996
29.067267590245258 35.11
29.090268308143695 35.0524
29.11327022394099 34.9968
29.13645305530891 34.9158
29.159457379627167 34.8358
29.18246290519685 34.7567
29.20546963313352 34.8579
29.22865731875826 34.7213
29.25166646419296 34.7888
29.27467681535305 34.6448
29.29768837335608 34.7834
29.320880931312562 34.7733
29.34389491580634 34.7286
29.366910110507334 34.6424
29.38992651653503 34.6736
29.41312396492981 34.6451
29.436142806456754 34.5448
29.45916286268059 34.4389
29.48236399319994 34.3872
29.50538649169417 34.2675
29.528410208259935 34.2585
29.55143514402014 34.0013
29.574641196749695 33.8635
29.597668583816574 33.6633
29.6206971934585 33.5311
29.64372702680042 33.6244
29.666938019934474 33.6612
29.689970313635285 33.4687
29.713003834422636 33.3732
29.73603858342347 33.4144
29.759254535188578 33.324
29.78229175361658 33.1585
29.80533020365064 33.3395
29.82836988641968 33.3763
29.85159081507472 33.2638
29.874632976355343 33.1249
29.89767637376955 33.1515
29.920721008448314 33.0177
29.9439469322847 33.0534
29.96699405457564 32.8628
29.9900424175358 32.908
30.013092022298157 32.8622
30.03632295963995 32.812
30.059375061131373 32.8426
30.08242840783577 32.9072
30.105483000888153 32.8415
30.128718970092244 32.8604
30.151776069006917 32.7791
30.17483441768648 32.8098
30.198074175317235 32.7427
30.221135036724256 32.8377
30.24419715131772 32.6996
30.267260520236203 32.6616
30.290505341942243 32.7928
30.313571232750228 32.9057
30.336638381310948 32.7673
30.35970678876503 32.7153
30.38295669299435 32.6014
30.40602763151657 32.5955
30.429099832366074 32.5597
30.452173296685572 32.4385
30.47542830191959 32.5077
30.498504306502497 32.4791
30.521581577995562 32.5723
30.544660117543582 32.5428
30.56792024229725 32.6208
30.59100133132069 32.4845
30.614083691845494 32.5203
30.637167325018545 32.617
30.660432587840603 32.525999999999996
30.683518779717886 32.5602
30.70660624769615 32.5934
30.729694992924372 32.6338
30.75296541239743 32.5725
30.77605672557558 32.5453
30.799149319462742 32.4679
30.8224236211637 32.4381
30.845518789950724 32.3739
30.868615242910597 32.3116
30.891712981195973 32.1432
30.91499247215866 31.9656
30.938092794619365 32.0249
30.96119440587579 31.9492
30.984297307082752 31.8961
31.00758200598383 31.6876
31.030687500658694 31.5484
31.053794288760695 31.5775
31.076902371446767 31.4969
31.100192296997445 31.5526
31.12330298246119 31.5235
31.14641496599209 31.4481
31.169528248749216 31.4434
31.19282341969534 31.3311
31.215939314557186 31.4209
31.239056512134788 31.4292
31.262175013589378 31.3422
31.28547544871168 31.1621
31.30859657161541 31.1781
31.331719001892175 31.2477
31.35484274070538 31.3232
31.378148458819545 31.3028
31.401274828443725 31.2951
31.424402510106933 31.3295
31.447712205419993 31.3198
31.470842524931633 31.2277
31.493974159989783 31.1347
31.51710711176168 31.1443
31.54042212308802 31.1689
31.563557722100917 31.2249
31.586694641341655 30.9689
31.609832881979628 30.8337
31.63315322823208 30.8175
31.656294125521327 30.8342
31.679436347728515 30.7481
31.70257989602529 30.6216
31.725905596152327 30.5536
31.74905181052835 30.5626
31.772199354521323 30.6372
31.79534822930507 30.5278
31.818679302290967 30.4749
31.84183085259981 30.5002
31.864983737233473 30.4802
31.88813795736804 30.4812
31.911474422233013 30.3831
31.934631327356435 30.421
31.9577895715215 30.4173
31.980949155906522 30.3629
32.004291031706956 30.3878
32.027453310562606 30.3561
32.05061693318573 30.1816
32.07396288236386 30.2388
32.09712920658542 30.2173
32.12029687812702 30.0081
32.14346589817093 29.9351
32.166817291729984 29.789
32.18998902288583 29.8316
32.21316210610336 29.781999999999996
32.23633654256711 29.6359
32.259693399663725 29.6692
32.282870556771144 29.5298
32.30604907069099 29.6146
32.329228942610065 29.5581
32.35259128243769 29.2775
32.375773884550505 29.303
32.398957848235646 29.3829
32.422143174682176 29.2195
32.445511016471215 29.0848
32.468699082679954 29.079
32.49188851523011 29.0888
32.51507931531304 29.0526
32.538452678331 28.9888
32.56164622776311 28.9405
32.58484114831493 28.9511
32.60803744118015 28.8494
32.631416344731896 28.8508
32.654615396551876 28.8362
32.67781582427913 28.7089
32.701198898634416 28.6081
32.72440209253756 28.6007
32.747606665947124 28.5837
32.77081262006088 28.4861
32.79420126883317 28.5704
32.81740999876112 28.5845
32.840620112999424 28.4118
32.86383161274818 28.3822
32.88722585534586 28.4276
32.91044014056596 28.4526
32.933655814909734 28.3665
32.95687287957963 28.3567
32.98027273544904 28.2026
33.00349259526636 28.2378
33.026713849030116 28.2597
33.04993649794511 28.2164
33.073341986570746 28.1088
33.09656744032826 28.0875
33.11979429286444 28.1962
33.14302254538647 28.0842
33.166433686291185 28.0289
33.18966475336992 27.9938
33.212897224069096 27.8323
33.23613109959831 27.9827
33.259547912343415 27.9986
33.2827846121627 27.9592
33.306022720453775 27.8873
33.32926223842861 27.7057
33.352684742614166 27.8177
33.37592709463173 27.7445
33.399170859982064 27.6646
33.422597648419426 27.5125
33.44584425514446 27.4356
33.46909227885668 27.429000000000002
33.4923417207723 27.3617
33.51577423505344 27.4279
33.539026528130385 27.2925
33.56228024307245 27.3089
33.585535381098246 27.0754
33.60897364093058 26.9969
33.63223163992385 27.0995
33.6554910656699 27.0875
33.678751919389796 27.0721
33.702195944520106 26.9599
33.72545966903325 26.9552
33.74872482519663 26.8886
33.771991414233746 26.8219
33.79544122444841 26.7523
33.81871069412428 26.7427
33.84198160035767 26.6963
33.86525394437455 26.7308
33.88870955949969 26.6
33.911984794020626 26.6073
33.93526147001624 26.5973
33.958539588715006 26.5651
33.98200102861669 26.4415
34.0052820477047 26.3847
34.02856451319451 26.3876
34.05203033759056 26.3321
34.07531571090147 26.3231
34.09860253431845 26.298000000000002
34.121890809074316 26.3105
34.145362493118924 26.2157
34.16865368561615 26.1292
34.191946333164054 26.1242
34.21524043699793 26.073
34.23871800066799 26.0386
34.26201503218366 25.9868
34.28531352370466 25.9915
34.30861347646881 25.9681
34.33209693978188 25.8478
34.3553998301885 25.8348
34.378704185565205 25.7642
34.402010007152356 25.6443
34.42549939016683 25.7661
34.44880815937748 25.6139
34.472118398533134 25.6131
34.49543010887669 25.5534
34.51892543169198 25.4895
34.54224009966052 25.5254
34.56555624255917 25.4917
34.58887386163339 25.3541
34.61237514439016 25.2889
34.6356957311114 25.2834
34.65901779775809 25.2707
34.68252356662995 25.2756
34.705848608458616 25.2523
34.72917513396849 25.1688
34.75250314440949 25.1163
34.77601490857862 25.0468
34.799345904259795 24.9631
34.82267838863559 25.0342
34.846012362958525 25.0079
34.869530142679984 24.9399
34.89286711232212 24.897
34.91620557568269 24.8886
34.93954553401677 24.7862
34.9630693495876 24.8305
34.986412313340814 24.8787
35.00975677584668 24.7267
35.033102738362956 24.7041
35.05663261012228 24.6072
35.0799815881786 24.6394
35.10333207003229 24.5559
35.12668405694369 24.6365
35.150220005273056 24.5267
35.17357501786656 24.5723
35.19693153931268 24.4597
35.220289570874385 24.4174
35.24383161619786 24.5294
35.267192683604904 24.4818
35.290555264930376 24.351
35.314101899412165 24.3676
35.33746752422433 24.3977
35.36083466676374 24.3333
35.38420332829803 24.2609
35.407756095629054 24.3558
35.43112781085063 24.3005
35.45450104888391 24.2054
35.477875810999194 24.2325
35.50143473172161 24.1236
35.52481255774625 24.1731
35.54819191167777 24.1597
35.57157279478914 24.0358
35.595137889488406 24.0209
35.61852184675279 24.0628
35.641907337029984 23.9168
35.665294361595684 23.9305
35.68886565090076 23.8256
35.7122557598848 23.7491
35.73564740699838 23.8004
35.759040593519934 23.8098
35.78261809810353 23.7402
35.80601437933051 23.5416
35.829412203814705 23.5631
35.85281157283719 23.5441
35.876395313415884 23.6098
35.8997977874528 23.5178
35.92320180988546 23.4992
35.946790244133936 23.3536
35.97019737933222 23.4203
35.993606066789866 23.3853
36.01701630779276 23.3668
36.04061101440684 23.2358
36.06402437852291 23.2787
36.08743930005611 23.2884
36.1108557802951 23.1732
36.13445678011326 23.1859
36.15787639383515 23.164
36.18129757014299 23.1319
36.20472031032821 23.066999999999997
36.22832762423364 22.914
36.25175350829375 23.0663
36.275180960119776 22.9881
36.298609981005924 22.9455
36.32222362992669 22.9445
36.34565580510207 22.9285
36.36908955323448 22.854
36.39252487562093 22.7971
36.416144880530226 22.7211
36.43958336764275 22.7036
36.463023432914625 22.7244
36.486465077645676 22.6218
36.51009145956204 22.730999999999998
36.53353627947859 22.6313
36.55698268276811 22.5966
36.58043067073321 22.5148
36.60406345072071 22.4424
36.62751462435344 22.4196
36.65096738658405 22.4054
36.67460498210655 22.4386
36.69806093788647 22.4186
36.72151848619297 22.3668
36.744977628333636 22.2782
36.76862165890998 22.2147
36.79208400512205 22.2446
36.81554794910557 22.1722
36.83901349217101 22.1769
36.862663978991606 22.1438
36.88613273667352 22.0777
36.90960309738324 22.0671
36.933075062434064 21.998
36.95673202673572 21.9995
36.98020721697122 21.954
37.003684015502365 21.8458
37.027162423645365 21.8281
37.050825886711465 21.807
37.07430753063053 21.7848
37.09779078812467 21.7857
37.121275660513014 21.7335
37.144945643673694 21.7584
37.16843376245278 21.7114
37.19192350009803 21.6799
37.215414857931435 21.5857
37.239091382563885 21.5081
37.262585997426164 21.5167
37.28608223645736 21.5316
37.309763684451696 21.4634
37.33326318851098 21.4735
37.356764320726555 21.3972
37.380267082425526 21.4331
37.40395510942588 21.3998
37.42746114683234 21.2749
37.45096881771841 21.1968
37.474478123414166 21.233
37.49817275092816 21.2032
37.52168534303452 21.2045
37.54519957395567 21.0913
37.568715445024665 21.0737
37.592416694607714 20.9391
37.61593586281424 21.0431
37.63945667518264 21.1297
37.66297913304891 20.8985
37.68668702630454 20.9535
37.710212792059274 20.8924
37.733740207334854 20.9044
37.757269273470364 20.8078
37.780983832050374 20.7344
37.80451621684926 20.7891
37.82805025654007 20.7575
37.851585952464795 20.685
37.8753071980695 20.664
37.89884622345676 20.624000000000002
37.92238690911902 20.566999999999997
37.94611318753442 20.535999999999998
37.969657210779765 20.4921
37.99320289834801 20.4543
38.016750251586465 20.4223
38.04048325513017 20.4492
38.06403395679343 20.4235
38.087586328183946 20.3864
38.11114037065203 20.3149
38.13488012115898 20.4066
38.1584375229181 20.2205
38.181996599821 20.2
38.205557353221124 20.2174
38.229303872575656 20.1664
38.2528679961576 20.1688
38.27643380031219 20.1616
38.30000128639589 20.0202
38.32375459653193 20.0587
38.34732546371299 20.0824
38.37089801690786 19.9773
38.39447225747609 19.8843
38.418232380377425 19.8422
38.441810012983396 19.8758
38.46538933705673 19.812
38.488970353960084 19.8045
38.51273731166058 19.8115
38.536321731567014 19.7296
38.55990784840681 19.7556
38.58367995004091 19.7085
38.60726947812959 19.6756
38.63086070726198 19.6541
38.654453638806274 19.6091
38.678232613930824 19.5512
38.70182896773327 19.5315
38.72542702806741 19.4586
38.7490267963045 19.4641
38.77281266709232 19.445
38.79641586862214 19.3829
38.8200207821842 19.3661
38.843627409152944 19.4457
38.86742019782782 19.3184
38.891030269149255 19.2278
38.914642058016156 19.2699
38.938255565806124 19.2569
38.96205529464307 19.1627
38.98567225787121 19.222
39.00929094417078 19.1807
39.03291135492255 19.1617
39.05671804624804 19.1302
39.080341923549106 19.0834
39.103967529460334 19.028
39.127594865365744 18.9527
39.15140854155791 18.9055
39.17503935514948 18.9026
39.19867190290282 18.8737
39.22249083587951 18.8639
39.24612686969409 18.8449
39.269764641845306 18.8288
39.293404153722804 18.7639
39.317230110864074 18.7622
39.34087311998506 18.7383
39.36451787301696 18.7042
39.388164371352595 18.5823
39.41199737518003 18.6635
39.43564738196752 18.6097
39.45929913825317 18.6078
39.48295264543308 18.5896
39.506792718520884 18.4915
39.530449745387216 18.459
39.55410852735203 18.4779
39.57776906581474 18.4134
39.60161623079 18.3406
39.625280300200025 18.3757
39.64894613032202 18.3282
39.67261372255866 18.2961
39.6964680021016 18.3008
39.72013913657293 18.2768
39.74381203738292 18.246
39.76748670593756 18.2332
39.79134812278169 18.187
39.81502634488497 18.188
39.83870633896685 18.0511
39.862388106436654 18.0264
39.88625668336918 18.0195
39.90994201572829 18.1222
39.933629125719285 17.983
39.957503091207826 17.9225
39.9811937746168 17.9497
40.00488623990914 17.9069
40.02858048850006 17.8442
40.05246165409549 17.8602
40.076159487492085 17.8465
40.099859108448875 17.861
40.123560518384345 17.7474
40.1474489070226 17.7648
40.171153913178564 17.6693
40.194860712584955 17.6543
40.2185693066637 17.6797
40.242464941335314 17.6219
40.26617714307655 17.6316
40.289891143772046 17.5621
40.3136069448471 17.5534
40.33750984859743 17.497
40.3612292688043 17.5217
40.3849504936829 17.4299
40.40867352466194 17.4242
40.43258372059144 17.4512
40.45631038219906 17.4025
40.48003885420956 17.303
40.503769138055105 17.3362
40.52768664931955 17.3297
40.55142057531802 17.2825
40.57515631746428 17.2353
40.599079334038514 17.2334
40.62281872700477 17.2207
40.64655994043941 17.1492
40.67030297578061 17.1401
40.69423334835778 17.1696
40.71798004609188 17.1318
40.74172857006355 17.0772
40.76547892171441 17.0586
40.7894166736039 17.0503
40.813170699248566 16.9626
40.83692655691388 16.9172
40.86068424804498 16.98
40.884629402612525 16.9554
40.908390779366385 16.877
40.932153993938 16.8462
40.95591904777605 16.8012
40.979871628443995 16.7966
41.003640379561936 16.8116
41.02741097430883 16.7582
41.05118341413683 16.6941
41.075143444384416 16.6201
41.098919593177826 16.7179
41.1226975914255 16.6128
41.14647744058318 16.6094
41.170444943946755 16.5581
41.19422851378379 16.5291
41.218013938914645 16.4851
41.24198706625173 16.3924
41.26577622087193 16.4418
41.289567235177785 16.3958
41.31336011063129 16.4008
41.337340752422875 16.4026
41.361137369129835 16.355
41.38493585138705 16.2466
41.40873620066004 16.2885
41.43272438060107 16.2795
41.45652848292052 16.2154
41.48033445666918 16.2304
41.50414230331616 16.1745
41.528138045159764 16.1554
41.551949656675205 16.0607
41.575763145513235 16.0482
41.59957851314666 16.0491
41.62358184070442 16.0488
41.64740098505737 16.0214
41.6712220126409 16.0367
41.69504492493139 15.9326
41.71905586207357 15.933
41.74288256296395 15.8816
41.766711153007456 15.8911
41.79054163368412 15.8763
41.814560204340054 15.8682
41.838394485526365 15.8613
41.86223066180303 15.7803
41.88625497706819 15.7238
41.910094962812 15.7121
41.93393684811168 15.6958
41.95778063445365 15.667
41.981812625263366 15.6374
42.00566023303407 15.6029
42.029509746323676 15.5668
42.05336116662236 15.5411
42.077400857069705 15.5945
42.10125611078846 15.5869
42.12511327600405 15.4982
42.14897235421036 15.4694
42.173019768448455 15.429
42.19688269209613 15.3386
42.22074753323349 15.3578
42.24461429335818 15.3238
42.268669455600495 15.3046
42.292540073217886 15.3011
42.31641261433284 15.2587
42.34028708044675 15.2592
42.36435001496739 15.2522
42.38822835065557 15.2599
42.41210861586426 15.1772
42.4359908120986 15.1656
42.46006154323262 15.1057
42.48394762115317 15.1041
42.507835634632315 15.0658
42.531912233047436 15.0525
42.55580413732265 14.9906
42.579697981698 15.0155
42.60359376768525 14.9828
42.62767820545945 14.9498
42.65157789440821 14.9329
42.67547952952185 14.9041
42.699383112316 14.9019
42.72347541395347 14.8512
42.74738291190531 14.8092
42.771292362102166 14.7881
42.795203766063516 14.7838
42.819303956130405 14.7477
42.843219287476536 14.7121
42.86713657716324 14.7495
42.89105582671383 14.7072
42.91516392983864 14.6885
42.939087119032166 14.6398
42.963012272677304 14.5758
42.98693939230129 14.6013
43.01105543317513 14.5427
43.034986504731386 14.4996
43.05891954686589 14.4703
43.08285456110972 14.4789
43.10697856448665 14.4614
43.130917542983475 14.4533
43.15485849820081 14.4184
43.17880143167367 14.3765
43.20293342237094 14.3718
43.226880332449 14.3147
43.25082922540554 14.3731
43.27496722682525 14.2844
43.29892010567796 14.2359
43.32287497204102 14.1481
43.34683182745632 14.1518
43.370977859791836 14.1476
43.39493871351105 14.1325
43.41890156092628 14.1313
43.44286640358341 14.0836
43.46702049182749 14.0412
43.49098934522816 14.0902
43.51496019852649 14.0491
43.5389330532723 13.9881
43.56309522248204 13.9892
43.58707210044314 13.9573
43.61105098451946 13.8871
43.63503187626491 13.897
43.659202151562134 13.8892
43.68318707902681 13.9037
43.70717401884041 13.8703
43.731162972560874 13.7938
43.75534137913236 13.7868
43.779334381108384 13.7467
43.803329401683186 13.744000000000002
43.82732644241872 13.6967
43.8515130055166 13.7498
43.87551410707659 13.6866
43.89951723350145 13.6748
43.923709934595614 13.6449
43.94771713129917 13.5971
43.97172635758096 13.5865
43.99573761501002 13.5897
44.0199385169922 13.5777
44.04395385732619 13.5672
44.067971233533086 13.515
44.09199064718605 13.5273
44.11619977548961 13.4385
44.14022328470671 13.3768
44.16424883610785 13.4071
44.18827643127035 13.4014
44.21249381139513 13.374
44.236525514814076 13.3393
44.26055926674478 13.2985
44.28459506876863 13.3394
44.3088207262813 13.2652
44.33286064928722 13.2371
44.35690262714919 13.2116
44.38094666145278 13.1476
44.4051806219871 13.1899
44.42922879003185 13.1568
44.45327901929361 13.1231
44.477331311362136 13.1279
44.501573600619416 13.0465
44.525630039221795 13.0098
44.54968854541895 13.0443
44.573937102200176 13.0211
44.5979997645541 13.0041
44.622064499300315 12.9779
44.64613130803592 12.9644
44.67038823869318 12.9308
44.69445921643748 12.8536
44.718532272981385 12.8234
44.742607409926194 12.8063
44.76687274034801 12.7986
44.79095205918753 12.7807
44.81503346325094 12.805
44.839116954143876 12.7947
44.86339071028742 12.7222
44.88747839599524 12.7176
44.91156817336837 12.692
44.93566004401666 12.6676
44.959942251908146 12.6276
44.984038330325966 12.6254
45.00813650686762 12.5921
45.03223678314731 12.5924
45.05652746888232 12.5682
45.08063196592069 12.5257
45.104738567558705 12.4994
45.128847275414856 12.4716
45.15314646515866 12.4518
45.17725940679741 12.445
45.20137445952892 12.423
45.22568004865265 12.4071
45.24979934496396 12.3615
45.27392075725247 12.3248
45.29804428714431 12.3994
45.322358426247604 12.3619
45.346486212804315 12.2602
45.370616121861914 12.2799
45.39474815505086 12.2401
45.41907087049246 12.2084
45.4432071734666 12.1768
45.46734560548283 12.1671
45.49148616817604 12.1816
45.51581748638564 12.15
45.5399623320197 12.1134
45.56410931325473 12.0811
45.58825843173002 12.0932
45.61259837920865 12.0261
45.636751793816 12.0362
45.66090735060093 12.0315
45.68506505120716 11.9821
45.7094136545275 11.9363
45.73357566449271 11.9227
45.75773982322992 11.9173
45.78190613238733 11.872
45.806263418194064 11.8281
45.83043404997326 11.869000000000002
45.85460683713677 11.8514
45.87897065658495 11.8254
45.90314777634752 11.7556
45.92732705646868 11.747
45.9515084986045 11.774000000000001
45.97588104735473 11.7517
46.00006683541565 11.6871
46.02425479047904 11.7429
46.04844491420549 11.6689
46.0728262191024 11.6472
46.09702070211635 11.6284
46.12121735879483 11.6143
46.14541619080294 11.6119
46.169806278764455 11.5886
46.194009483459034 11.5714
46.21821486849841 11.5505
46.24242243555223 11.4495
46.266821333570014 11.5088
46.29103328674601 11.4533
46.31524742696538 11.4904
46.33946375590237 11.3931
46.36387149104216 11.3869
46.38809221957392 11.3226
46.41231514186606 11.3761
46.436540259597464 11.3725
46.460956858999374 11.3182
46.48518638983522 11.2986
46.509418121166966 11.2415
46.533652054678114 11.2233
46.55807754555709 11.2194
46.58231590571962 11.2212
46.60655647313217 11.1818
46.630988654873654 11.1538
46.655233659129024 11.158
46.67948087571551 11.1396
46.70373030632484 11.0615
46.72817142736393 11.0994
46.752425308428684 11.0417
46.77668140861147 11.0103
46.80093972960865 11.0133
46.82538981736788 10.9655
46.849652602470904 10.9712
46.87391761349769 10.9644
46.8981848521493 10.9602
46.9226439341274 10.937000000000001
46.946915650573224 10.9294
46.97118959976749 10.8893
46.99546578341598 10.8641
47.019933887188216 10.8749
47.04421456235744 10.8479
47.06849747711879 10.8367
47.09278263318286 10.7707
47.11725978640143 10.790999999999999
47.14154944775105 10.7365
47.165841355555656 10.7098
47.1901355115306 10.6965
47.214621741924994 10.6914
47.23892041698887 10.6684
47.26322134538975 10.6372
47.28771440635075 10.6187
47.31201986422527 10.6222
47.33632758061436 10.5764
47.360637557241866 10.5769
47.38513974410611 10.5646
47.40945426407847 10.4903
47.43377104948137 10.4827
47.45809010204344 10.4747
47.48260144275502 10.4669
47.506925052572285 10.4211
47.53125093475548 10.3798
47.55557909103813 10.4079
47.58009961361992 10.3825
47.60443234110732 10.3771
47.62876734791564 10.3466
47.65310463578333 10.2919
47.6776343683373 10.2953
47.7019762413987 10.2672
47.72632040075572 10.2597
47.75066684815169 10.2399
47.77520581885936 10.2129
47.799556865477655 10.2195
47.823910205386 10.1744
47.84826584033272 10.1698
47.87281407745551 10.1443
47.89717432569297 10.1667
47.92153687423484 10.1562
47.94609208429692 10.1026
47.97045925671401 10.058
47.99482873471275 10.0221
48.01920052005013 10.0371
48.04376504619224 10.0771
48.068141469543484 10.0561
48.09252020552573 10.0312
48.11690125590099 10.0023
48.1414751266064 9.99436
48.16586082917454 9.961839999999999
48.19024885144316 9.90242
48.2146391951793 9.9313
48.239222439012764 9.893139999999999
48.26361744916137 9.860660000000001
48.28801478610016 9.86377
48.31241445160131 9.86375
48.337007097209366 9.81403
48.36141144338331 9.80763
48.38581812345755 9.80268
48.41022713920929 9.768360000000001
48.434829215320704 9.7327
48.45924292604658 9.77926
48.48365897780325 9.754439999999999
48.50807737237308 9.71786
48.532688907799276 9.70684
48.55711201168574 9.67142
48.581537463754074 9.67609
48.60615611725119 9.67508
48.63058628942721 9.62836
48.65501881516546 9.59428
48.6794536962573 9.60389
48.70408185970339 9.56643
48.72852147531801 9.51424
48.75296345168211 9.47885
48.77740779059232 9.49595
48.80204549302823 9.52
48.82649458091802 9.51528
48.85094603676547 9.4267
48.87539986237231 9.4103
48.90004713292306 9.41348
48.92450572200832 9.40899
48.94896668628025 9.34811
48.97343002754588 9.3605
48.99808689542115 9.349739999999999
49.02255501470614 9.33617
49.04702551642794 9.28852
49.0714984023988 9.33123
49.096164896893235 9.28105
49.120642575466796 9.245460000000001
49.145122643748394 9.23987
49.16960510355558 9.243780000000001
49.19428125404938 9.21547
49.2187685210852 9.18067
49.243258185121555 9.194469999999999
49.26794160167084 9.16077
49.2924360839405 9.1234
49.31693296869764 9.11801
49.34143225776915 9.12279
49.36612538195438 9.0403
49.39062950396021 9.06225
49.41513603578346 9.0621
49.4396449792564 9.03991
49.46434784069503 9.00795
49.488861631846454 8.96694
49.513377840166804 8.99722
49.537896467493745 8.92844
49.56260909589029 8.95472
49.587132585683285 8.92182
49.611658500018365 8.909889999999999
49.636186840738596 8.90033
49.66090926588511 8.85042
49.685442483902584 8.83395
49.70997813385706 8.80693
49.734516217597076 8.78559
49.75924846937352 8.799669999999999
49.7837914452858 8.775960000000001
49.80833686055187 8.80076
49.83288471702571 8.757430000000001
49.85762682540054 8.73975
49.882179588965734 8.70566
49.9067347993235 8.6955
49.93129245833333 8.68013
49.95604445336378 8.6675
49.98060703442832 8.656089999999999
50.005172069746266 8.63538
50.02993150438364 8.62762
50.05450147301533 8.58774
50.07907390151433 8.56772
50.10364879174981 8.57114
50.12841816587289 8.54855
50.1529980044635 8.53023
50.17758031042124 8.513819999999999
50.20216508562089 8.50755
50.22694442953363 8.46912
50.25153416817468 8.45636
50.27612638170508 8.445780000000001
50.300721072005196 8.43805
50.325510416102105 8.428510000000001
50.350110084975064 8.391960000000001
50.37471223628208 8.40704
50.39931687190919 8.389330000000001
50.424116246675766 8.33826
50.44872587605249 8.328289999999999
50.47333799543065 8.335510000000001
50.49795260670191 8.31307
50.52276204271512 8.288910000000001
50.54738166295838 8.29337
50.57200378079314 8.29231
50.596628398116835 8.23653
50.62144792604559 8.24672
50.646077567609396 8.246360000000001
50.670709714377715 8.2083
50.69553683636198 8.21895
50.72017401885922 8.18994
50.7448137122895 8.15241
50.76945591856022 8.14045
50.79429318636823 8.111239999999999
50.818940443716784 8.12827
50.84359021965163 8.11604
50.868242516085964 8.09863
50.893089960641895 8.02121
50.917747323549435 8.0482
50.94240721271973 8.041730000000001
50.96706963007175 8.005510000000001
50.99192728239342 7.99309
51.01659478166073 7.98625
51.04126481489051 7.988169999999999
51.06593738400761 7.9785
51.090805275207074 7.94877
51.11548294172845 7.87657
51.14016314993547 7.891780000000001
51.164845901758845 7.92248
51.18972406304274 7.8799399999999995
51.21441192780656 7.83945
51.23910234200271 7.86712
51.2637953075678 7.797610000000001
51.288683770237945 7.77707
51.31338186432707 7.80434
51.33808251561888 7.779669999999999
51.362978729967345 7.75398
51.387684521509755 7.72173
51.41239287610203 7.739669999999999
51.437103795691165 7.7030199999999995
51.46201036644977 7.693010000000001
51.486726441956634 7.6547600000000005
51.51144508832545 7.67845
51.536166307509156 7.617430000000001
51.56108326624387 7.56985
51.58580965706056 7.6237699999999995
51.61053862657523 7.62114
51.635270176746864 7.565760000000001
51.66019755512065 7.56332
51.68493429268881 7.5403199999999995
51.70967361681515 7.543589999999999
51.73441552946465 7.526739999999999
51.759353359237934 7.518739999999999
51.7841004750961 7.49585
51.80885018539685 7.499910000000001
51.833602492111254 7.448110000000001
51.8585508051424 7.47346
51.883308330926425 7.433
51.90806845906181 7.426939999999999
51.932831191525715 7.37695
51.95779001977161 7.36572
51.98255798721516 7.3634699999999995
52.00732856494335 7.30945
52.03229530577543 7.2838
52.057071130455945 7.314089999999999
52.081849571391054 7.34001
52.106630630568695 7.31735
52.13160794279417 7.269019999999999
52.15639426492067 7.287839999999999
52.18118321127822 7.260439999999999
52.205974783860896 7.2526600000000006
52.23096269971011 7.2130600000000005
52.255759551287994 7.19705
52.280559035098186 7.15152
52.30536115314103 7.167489999999999
52.33035970494467 7.16728
52.35516711807904 7.179810000000001
52.37997717147198 7.151
52.40478986713005 7.12407
52.42979908731974 7.08961
52.454617094216 7.10668
52.47943774942214 7.04633
52.50426105495102 7.03636
52.529280976059844 7.03407
52.554109609024096 7.01911
52.57894089837482 7.012639999999999
52.60377484613117 6.96812
52.62880550079408 6.99021
52.65364479223379 6.93918
52.67848674816189 6.89808
52.70352547971946 6.91613
52.72837279155837 6.9279399999999995
52.753222773982785 6.9005600000000005
52.778075429022984 6.90297
52.80312495150885 6.935289999999999
52.827982978797436 6.86848
52.85284368481815 6.821339999999999
52.87770707160767 6.80749
52.90276741793998 6.8041
52.92763619336701 6.81348
52.952507655698504 6.81735
52.977381806977576 6.7744800000000005
53.00245301017842 6.76125
53.02733256653592 6.7533199999999995
53.052214817996074 6.72187
53.077099766608484 6.69671
53.102181859804446 6.697769999999999
53.127072229988265 6.68847
53.15196530349892 6.698919999999999
53.17686108239249 6.66097
53.20195409881522 6.649360000000001
53.22685531582556 6.6302
53.25175924441303 6.6151100000000005
53.27666588664027 6.608739999999999
53.30176985962693 6.555510000000001
53.3266819565689 6.564539999999999
53.35159677336455 6.58165
53.376514312083096 6.572660000000001
53.40162927507703 6.54715
53.42655228516116 6.5206
53.45147802340193 6.51296
53.47660125628886 6.5000800000000005
53.50153247842639 6.48834
53.52646643496923 6.45183
53.55140312799818 6.45442
53.576537409691696 6.43814
53.60147960336152 6.3945300000000005
53.626424539786164 6.41601
53.65137222105307 6.41495
53.67651758529126 6.35295
53.70147078399681 6.30585
53.72642673383343 6.356730000000001
53.75138543689533 6.36062
53.776541917524526 6.317819999999999
53.801506154876755 6.3102599999999995
53.826473151763246 6.261830000000001
53.851442910284916 6.2583
53.87661054126026 6.24824
53.9015858509782 6.25087
53.92656392866066 6.20786
53.95154477641532 6.1714
53.976723591801296 6.20991
54.00171000771266 6.2245
54.02669920004598 6.21402
54.051691170915745 6.22856
54.076881204886796 6.14237
54.101878760928514 6.155130000000001
54.12687910187696 6.147069999999999
54.152077577768296 6.1256900000000005
54.1770835166946 6.1098300000000005
54.20209224691339 6.08627
54.22710377055121 6.04655
54.25231352511594 6.071940000000001
54.27733066384342 6.07177
54.30235060239643 6.0445400000000005
54.32737334290836 6.00705
54.35259441062629 5.94148
54.377622783395324 5.92528
54.40265396455061 5.934830000000001
54.42768795623251 5.9600599999999995
54.45292037169559 5.9156699999999995
54.477960012857906 5.925669999999999
54.50300247099511 5.89341
54.52804774825457 5.89826
54.55329154616743 5.84524
54.57834249018678 5.7829999999999995
54.6033962597977 5.759440000000001
54.6284528571545 5.7722
54.653708072335164 5.6962
54.67877035378786 5.71556
54.70383546947698 5.68499
54.72890342156389 5.71287
54.7541700889442 5.6897
54.77924374251975 5.65102
54.8043202390049 5.709
54.82959552413022 5.60695
54.8546777351945 5.5971400000000004
54.87976279569621 5.6048
54.90485070780914 5.55166
54.930137506558005 5.53883
54.95523115074295 5.549869999999999
54.98032765308844 5.51513
55.005427015775496 5.5137599999999996
55.03072536339621 5.46715
55.05583047570572 5.46882
55.080938454927676 5.43964
55.10604930325027 5.430619999999999
55.131359235107396 5.45245
55.15647585066083 5.4073400000000005
55.181595341907496 5.36674
55.20671771104285 5.27653
55.232039262617704 5.2885599999999995
55.25716741665048 5.30914
55.28229845518636 5.27325
55.30743238042802 5.26504
55.33276558731939 5.22093
55.357905315183636 5.16475
55.383047936390035 5.17039
55.40819345314859 5.14317
55.433538351073295 5.1106300000000005
55.458689688238415 5.07064
55.483843927614096 5.05492
55.509197623043605 5.049180000000001
55.53435769621134 5.041980000000001
55.55952067826466 5.0244800000000005
55.5846865714265 5.01727
55.61005202069737 4.94846
55.63522376553902 5.0031
55.66039842818645 4.90365
55.68557601087004 4.906680000000001
55.7109532500271 4.89191
55.73613670233794 4.8865
