TT I
1.2716486653135266 7.2808399999999995
1.2939594142134223 6.974660000000001
1.3162702121660406 6.53021
1.3385810600174564 6.18438
1.3608919586137629 7.576110000000001
1.383202908801069 6.60082
1.405513911425503 6.23373
1.4278249673332093 6.3468800000000005
1.4501343378461518 6.06727
1.4724455028545926 6.23746
1.4947567236847858 5.21697
1.517068001182951 6.06311
1.5393793361953272 5.6584
1.5616907295681737 5.73118
1.5840021821477681 5.189019999999999
1.60631369478041 4.4263699999999995
1.6286252683124185 5.02827
1.6509369035901333 4.506069999999999
1.6732468618895553 5.2224900000000005
1.695558623192809 4.49084
1.7178704487808514 4.99806
1.7401823395001077 4.9662
1.7625012545597203 4.8836
1.7848028405262486 4.6377
1.8071218901122095 5.14944
1.8294236121921872 4.535909999999999
1.8517427996910911 5.02055
1.8740620574440425 4.81643
1.8963639900671978 4.4744
1.9186833908139995 4.85879
1.9409854680117449 5.08588
1.9633050151394713 4.8051
1.9856246367570705 4.8238
2.0079269371922672 4.86307
2.03024671027244 4.68884
2.0525491637446027 4.901269999999999
2.074869091674931 4.54356
2.097171701569106 5.2303
2.1194917877373847 5.03514
2.141811954326636 5.26831
2.164114805233074 5.01141
2.186435135143035 6.3176
2.208738150935709 15.6293
2.231058647554722 34.8695
2.2533792288321184 27.2532
2.275682498336085 11.8064
2.298003251406138 6.40667
2.3203066942619714 5.4667
2.3426276225136022 5.63592
2.3649486396617507 5.70547
2.387252348930071 6.2891900000000005
2.4095735463442893 5.896809999999999
2.4318774374315884 5.76794
2.4541988185014043 6.291919999999999
2.476502894794693 7.39393
2.498824462909887 7.40137
2.521146125856138 7.12892
2.5434504863470337 6.98273
2.5657723414244717 7.8902
2.588076895590662 7.83333
2.610398946189713 8.183060000000001
2.6327210958598384 8.50646
2.6550259469304716 8.042760000000001
2.6773482972090137 8.30542
2.6996533504259 7.74205
2.7219759047039602 8.807039999999999
2.744298562293959 8.078289999999999
2.7666039251246595 8.73904
2.7889267918020164 8.63575
2.8112323652516555 8.20144
2.833555444408179 8.81431
2.8558786311183852 8.25107
2.8781845268938557 8.70846
2.9005079311721484 9.25624
2.9228140460410397 9.19972
2.9451376712799635 9.20534
2.967444008632326 9.52161
2.9897678582247247 9.94977
3.0120918213106695 10.2362
3.0343984987899373 11.1135
3.0567226913198637 11.4357
3.079029599759726 11.9034
3.101354025127254 12.2673
3.123678568232338 13.3263
3.145985829517914 13.2066
3.16831061055229 13.7441
3.1906181112775593 14.2561
3.212943133635653 14.8776
3.2352682779763207 15.3236
3.2575761442691227 15.966
3.2799015350264273 15.5628
3.302209649240067 16.5364
3.3245352898092655 17.2009
3.3468436553365257 17.4732
3.369169549113219 17.6413
3.3914955708171384 18.5381
3.413804319727358 19.2766
3.4361305997334863 19.3039
3.4584396084414553 19.7042
3.4807661501462652 20.1252
3.503092824025881 20.8946
3.5254022288463154 21.3741
3.5477291695206588 22.0932
3.5700388426251948 23.1117
3.5923660534916446 24.5044
3.6146934007816114 42.5028
3.637003482731501 108.81299999999999
3.6593311053109985 122.53299999999999
3.681641464033634 67.7203
3.7039693653009733 32.9025
3.726297407241705 26.8858
3.7486081875460804 26.1291
3.7709365132734978 26.886999999999997
3.793247578841633 26.7486
3.8155761917550093 27.0724
3.8378875459837216 27.1627
3.8602164494827234 27.5455
3.882545499606844 28.4015
3.9048572932539183 28.8607
3.9271866390645718 29.1591
3.9494987298666713 29.8656
3.971828374764527 30.5611
3.9941581705403255 30.8469
4.016470713506008 31.7138
4.038800813471445 32.7383
4.061113662089144 32.8071
4.0834440696459176 33.5481
4.105774632334751 33.8498
4.128087945865126 34.9463
4.150418821249301 35.9214
4.172732448931298 37.166
4.195063640413578 39.4501
4.2173775856475215 44.1036
4.239709096631102 83.4129
4.262040768704612 292.85
4.284355196706267 408.407
4.306687193387355 260.126
4.329001947444346 93.7712
4.35133427213731 50.1834
4.373666762177566 45.1197
4.395982011761091 44.8331
4.418314834921175 46.5383
4.44063041906622 56.3689
4.4629635787515625 71.0322
4.4852969080429785 69.5584
4.5076130004776225 55.9877
4.529946671403969 50.8157
4.552263106909177 49.9397
4.574597122877047 50.7141
4.596931312711224 51.7498
4.619248269273446 52.8789
4.6415828092605835 54.368
4.663900117405352 55.0915
4.686235010953232 56.6561
4.708552674085913 57.5167
4.730887924602802 59.0685
4.753223354952695 60.5871
4.775541557023902 61.3561
4.797877349456786 62.8059
4.820195915032126 65.6728
4.842532072957498 66.6712
4.864868414979744 68.7407
4.88718753227192 70.95
4.909524244902505 72.3904
4.931843734218147 74.4694
4.954180820867835 76.8224
4.976518095879839 78.9132
4.998838149695359 81.9444
5.021175803844231 85.5038
5.043496238205739 88.29700000000001
5.065834274903528 92.4288
5.088172504230693 97.1441
5.1104935158799565 103.439
5.132832132875765 127.20200000000001
5.155153533596801 178.546
5.1774925416746225 210.778
5.199814334878411 304.415
5.2221537374521505 836.6039999999999
5.244493338631803 2468.34
5.266815727034316 7283.05
5.289155727832427 12889.2
5.311478517248165 9242.92
5.333818921080011 2989.53
5.356159527788849 572.622
5.3784829252032536 187.644
5.400823940070432 144.197
5.423147747031976 128.463
5.445489173474152 118.48200000000001
5.467830807066149 112.709
5.490155234831516 108.338
5.512497285125229 105.08200000000001
5.534822130975162 103.065
5.557164601388673 101.117
5.579489868738879 98.1643
5.601832762690846 98.1634
5.6241758697774475 97.1438
5.646501775867269 96.1526
5.668845311622074 94.5116
5.691171647754637 93.1884
5.713515615597765 91.7417
5.735859800852677 91.4164
5.758186788542988 90.4601
5.780531411018185 90.5562
5.802858837297399 90.1347
5.825203900414495 89.6499
5.8475491852224 89.6559
5.869877275883075 90.4916
5.892223006467101 90.9933
5.914551544266608 91.9799
5.936897724049891 93.9863
5.959244129804903 98.2672
5.981573344815301 111.757
6.0039202049061 180.687
6.026249875609095 384.881
6.04859719346037 846.2760000000001
6.070927323278297 2001.0
6.093275102315365 4351.99
6.115623113320588 5214.74
6.137953938319995 3230.97
6.160302415650845 1016.22
6.182633708324452 240.649
6.2049826554078376 113.58200000000001
6.227331838745022 92.48
6.249663839443684 84.8486
6.27201349767565 83.2824
6.294345974611799 91.9888
6.316696111167083 107.863
6.339046488263839 101.021
6.361379686074702 82.34100000000001
6.383730546639482 72.1483
6.406064229255215 68.6938
6.428415576718203 68.1203
6.450749747566656 67.2872
6.47310158535871 66.1526
6.495453669698332 65.2165
6.517788579421056 64.7471
6.540141159237969 63.6324
6.562476565766648 63.3744
6.5848296444934045 62.7433
6.607182974060425 62.5752
6.6295191323281015 63.4535
6.651872965955752 67.6269
6.6742096296068985 100.574
6.6965639707294615 162.02100000000002
6.71891856698715 163.317
6.741255995248479 105.664
6.763611104154477 71.069
6.785949046381137 61.1732
6.808304671371482 58.9183
6.8306605557940046 58.0602
6.852999275508618 57.5649
6.875355681171544 57.27
6.897694923437771 56.989
6.92005185377892 56.793
6.9423916220322655 56.4267
6.964749080490181 55.8501
6.987106804399774 55.7186
7.009447368180821 55.8676
7.031805625367033 55.6562
7.054146723727803 55.7125
7.076505517631004 55.6341
7.098864581288365 55.3795
7.121206488070854 55.1774
7.143566093607822 54.9525
7.165908543567245 55.6986
7.188268694426048 55.778
7.2106291193438095 55.8815
7.232972390625943 57.5532
7.255333366030969 73.9957
7.277677189091925 144.707
7.300038718428332 208.695
7.322400526130865 173.609
7.344745183422596 100.089
7.367107550224791 64.6942
7.389452767901992 57.2931
7.411815697249891 55.9152
7.434161478756298 54.8591
7.456524974096713 55.0023
7.478888753837185 54.5227
7.501235387657368 55.0633
7.523599738562711 54.7239
7.545946944825532 54.768
7.568311870344528 55.3679
7.5906770845765665 55.8095
7.613025156078678 57.2749
7.635390950099687 58.8472
7.657739602662809 57.897
7.680105979923558 56.4983
7.702472650212829 55.7907
7.724822180948224 55.8657
7.747189439655568 55.8709
7.769539560075357 56.0554
7.791907410653562 56.4296
7.81425812420825 56.5203
7.836626570110925 56.7504
7.858995315087906 57.2464
7.881346924933401 57.5503
7.903716270417482 58.1274
7.926068482028405 58.5771
7.948438431475253 58.9964
7.9708086843180235 59.5006
7.993161805171116 60.2658
8.015532667162402 60.5449
8.037886398416653 61.8415
8.060257873014221 61.8723
8.082629655331942 62.6508
8.104984308787587 63.7857
8.127356708900503 67.9946
8.149711981398308 75.2042
8.172085002766314 77.9061
8.194458336181368 73.4603
8.216814543847752 69.143
8.23918850371002 69.2992
8.26154533906492 69.9911
8.283919928836452 71.194
8.306277395339652 72.0506
8.328652618483376 73.31
8.351028159736202 75.3545
8.373386579575245 77.3551
8.395762759396959 79.3195
8.418121819038275 84.93700000000001
8.440498640894003 100.396
8.462875785192262 117.18700000000001
8.485235811156207 124.51899999999999
8.507613602688501 151.285
8.529974277114228 222.78799999999998
8.552352719347912 348.185
8.574731488360351 589.612
8.59709314210385 1099.15
8.619472567021075 1797.3
8.64183487789147 2165.54
8.664214962183097 1856.24
8.686577933647762 1021.43
8.708958680784317 382.99300000000005
8.731339760774953 167.549
8.753703729764451 112.094
8.77608547780821 99.2596
8.798450116065078 95.1713
8.820832535634787 92.5279
8.843215292401656 90.4022
8.865580941199045 88.6449
8.887964374703538 88.227
8.910330701447199 89.4725
8.932714815164482 92.9726
8.955099270424924 92.6584
8.977466620733543 88.7131
8.999851761421976 85.111
9.022219798361645 83.0668
9.04460562795561 82.729
9.066991803441677 82.2964
9.089360876979615 82.1126
9.111747746589993 81.9191
9.13411751544971 81.2176
9.156505082664324 81.3359
9.178875550323522 81.8204
9.20126381862328 82.2594
9.223652438908596 82.4155
9.246023961427412 82.1724
9.26841328802173 81.4893
9.290785518039224 81.3417
9.313175554425882 82.0744
9.335565947154315 81.745
9.357939245086508 81.9553
9.380330352834827 82.5387
9.40270436697103 82.7391
9.425096193225055 82.3755
9.447488380180165 83.6234
9.469863475295412 83.0886
9.492256385987508 83.6255
9.514632206018318 84.5732
9.537025843935714 84.884
9.559402392368193 85.2242
9.581796761000229 86.1876
9.604191496441521 87.8991
9.626569144158516 91.9159
9.648964615551032 97.7521
9.671343000390081 99.5731
9.693739211225699 96.8415
9.716135793237463 93.6188
9.738515290448102 92.7785
9.760912617143402 93.184
9.783292860202891 94.1941
9.805690935076182 95.325
9.828089385495742 96.3994
9.850470754023561 98.8612
9.872869957865444 108.154
9.89525208097539 127.305
9.917652041736662 142.42700000000002
9.940052382417589 139.467
9.962435644102392 136.317
9.984836746950979 160.064
10.007220771957746 213.563
10.029622640473708 304.009
10.052007432299963 472.78
10.074410069984072 754.451
10.096813093716005 1215.89
10.119199042482517 1742.37
10.141602840636468 2009.93
10.163989564971628 1621.59
10.186394141051062 910.3580000000001
10.208799107559706 402.439
10.231187001965623 190.685
10.253592751657669 126.238
10.275981430388155 113.193
10.298387966769793 113.803
10.320794897965431 117.727
10.343184759907361 116.57600000000001
10.36559248305461 109.822
10.387983138083852 104.273
10.410391656691655 104.62700000000001
10.432800574501677 112.904
10.455192425893369 128.247
10.47760214443012 150.44899999999998
10.499994797678786 192.48
10.522405320453982 268.893
10.54479877906917 387.939
10.567210109595656 512.294
10.5896218454736 587.464
10.612016518879773 514.939
10.634429067781074 363.05199999999996
10.656824555333241 210.54
10.679237920773568 127.434
10.701651695961992 96.6227
10.724048411481384 88.9313
10.746463008485165 85.9663
10.768860546937125 84.4156
10.791275969274796 82.9288
10.81369180576079 81.6553
10.836090585366925 80.8552
10.858507252467449 79.3244
10.88090686379991 78.3384
10.903324365036394 77.9402
10.925724811614439 78.6073
10.948143150509463 80.196
10.970561909719066 79.558
10.992963615930844 77.3413
11.015383218085756 74.6516
11.037785768347074 72.9446
11.06020621697282 72.1998
11.082627090322113 72.2504
11.105030913430326 71.5999
11.12745263854165 72.6858
11.149857314510728 77.6627
11.172279894912576 85.1381
11.194702904450653 86.381
11.217108866490921 81.2485
11.239532736615194 75.5803
11.26193956033512 72.5878
11.284364294577085 70.5454
11.306789462371718 68.5082
11.329197585398376 67.1818
11.351623622610898 66.9548
11.37403261614354 65.8981
11.396459526308487 65.9234
11.418869393879497 65.4099
11.441297180532617 65.206
11.463725406927658 64.65100000000001
11.486136592353875 64.4601
11.508565700543707 65.5061
11.530977768845315 68.1652
11.553407762368774 69.3734
11.575838200059769 68.3325
11.598251599479612 65.7123
11.620682927815501 64.0771
11.64309721895548 63.5774
11.665529441478206 63.1412
11.687962112597958 62.6603
11.710377748130886 62.7156
11.732811318753434 62.6411
11.755227854859067 62.6073
11.777662328529495 62.4532
11.800079768750786 62.4888
11.822515149015453 62.3372
11.844950984084935 62.2724
11.867369787303163 62.0087
11.889806534289491 62.4136
11.912226250487029 62.5687
11.934663912939751 62.5141
11.9571020346363 62.485
11.979523127133968 62.3359
12.001962169624331 63.0454
12.024384183972964 63.6654
12.046824150809913 65.9252
12.069264581333726 70.6848
12.091687985297767 76.2528
12.11412934550045 84.7378
12.136553680195208 98.795
12.158995973632788 121.896
12.181438735204349 147.392
12.20386447284199 184.34400000000002
12.226308172985636 209.975
12.24873485024193 205.449
12.271179492516982 171.42700000000002
12.293607112949127 130.643
12.316052700916226 100.602
12.338498763250042 81.7675
12.360927805303868 71.3919
12.383374818673879 67.083
12.405804812803074 64.649
12.428252780773262 64.2989
12.45070122756722 64.1417
12.473132656675375 63.9211
12.49558206341869 64.2004
12.518014453510101 64.0628
12.540464823770117 64.2441
12.562915677315177 64.551
12.58534951575545 65.4327
12.607801338171472 68.3194
12.630236146511358 74.7901
12.652688941369085 81.1325
12.675124723177234 81.3508
12.697578494048786 76.1623
12.720032754458185 70.4925
12.742470003354093 67.7896
12.764925245138771 67.7305
12.787363476431278 67.7429
12.809819703166806 67.9599
12.83227642391173 68.4008
12.854716135692716 69.1032
12.877173846755147 70.3275
12.899614549869717 70.6845
12.9220732548287 71.1536
12.94453245827299 71.4244
12.966974655289818 72.4412
12.989434858002571 73.1916
13.011878055298721 73.8925
13.034339260862497 74.947
13.056800969391883 76.1158
13.079245674017244 77.8022
13.101708390774869 79.5649
13.12415410463411 85.307
13.146617833206086 95.508
13.169064559883248 106.285
13.191529303857127 119.21700000000001
13.213994557076367 139.398
13.236442809902437 174.423
13.258909083908291 226.396
13.28135835851934 293.392
13.30382565690295 368.336
13.326293469022952 424.298
13.348744283242008 431.592
13.371213125129904 367.67199999999997
13.39366497011003 271.3
13.416134845360597 180.41400000000002
13.438605238843131 126.229
13.46105863690397 104.69
13.483530069144786 102.72
13.505984506951902 106.49
13.528456981549432 114.652
13.550929978879088 127.85600000000001
13.573385983253365 149.667
13.595860028340867 186.58599999999998
13.618317081455832 237.90200000000002
13.64079217790333 298.575
13.663250283359057 346.587
13.685726434770173 375.079
13.708203115221277 345.56
13.730662806148091 265.499
13.75314054697177 189.02599999999998
13.775601299246777 130.339
13.798080104050406 97.8686
13.820559442405358 85.0847
13.843021793671388 81.0168
13.865502201420897 79.559
13.887965623051947 79.0749
13.910447103807167 77.8595
13.932929122629764 76.6494
13.955394156785959 76.3088
13.977877254034569 75.2407
14.000343367582113 74.6475
14.022827546871707 73.8877
14.045294743423524 73.0999
14.06778000837062 72.5397
14.090265817715476 72.4372
14.112734645763819 71.9828
14.13522154619454 72.0022
14.157691466286913 72.2757
14.180179461423874 72.1478
14.202668005486178 71.1824
14.22513957064374 70.315
14.247629214846473 69.6603
14.270101881097517 69.6434
14.29259262906496 70.3968
14.315083930490205 71.335
14.337558255389705 71.5125
14.360050666019726 71.3191
14.382526101071944 69.9405
14.405019624534942 68.9579
14.427513705993134 68.3759
14.449990813291825 68.3373
14.47248601302899 68.0514
14.49496423954951 68.1294
14.517460561197822 68.3084
14.539939910570322 68.0354
14.562437357763558 68.5815
14.58493536931253 69.7323
14.607416409993311 71.1033
14.62991555254159 72.0698
14.652397725157423 71.8058
14.674898002342799 70.6659
14.697398848433282 69.7145
14.719882725991326 70.1467
14.74238471217934 70.7701
14.764869730765593 73.4063
14.787372860692983 76.3387
14.809876564079925 80.1054
14.83236330125751 85.3563
14.854868153850365 93.35700000000001
14.877356041159485 105.76799999999999
14.899862046604186 123.02
14.922351087688757 147.292
14.944858249632887 176.062
14.967365991421232 204.05599999999998
14.989856770231246 222.732
15.012365673994204 221.46099999999998
15.03485761569738 191.275
15.05736768508665 150.41899999999998
15.07987833888692 117.163
15.102372032001655 91.4728
15.124883856909658 77.1451
15.14737872204565 72.0486
15.169891721717274 70.39
15.192405310371893 70.1414
15.214901940621196 70.7443
15.237416709527137 71.2448
15.259914520936249 71.5325
15.282430473753607 70.2919
15.304947020131227 68.8998
15.327446610371178 68.0314
15.349964346154254 66.9862
15.372465126703139 66.4876
15.394984055556009 66.1663
15.417486030076159 65.8735
15.44000615566487 65.4148
15.462526881230803 65.4459
15.485030653812652 65.9884
15.507552581617434 66.087
15.530057557334603 66.0802
15.55258069104857 65.8017
15.575104429329837 65.6894
15.597611216864632 65.2522
15.620136166564563 65.1948
15.6426441664095 65.7511
15.665170331202765 67.3604
15.687697105158826 70.1755
15.710206930593545 73.1773
15.732734925158933 76.9257
15.755245972089478 82.6484
15.77777519094324 91.0997
15.800287463046663 103.175
15.822817909869592 121.60700000000001
15.84534897229804 143.144
15.867863089299354 165.967
15.890395385222186 185.23
15.912910736597423 193.45
15.935444269699861 183.907
15.957978423016485 157.215
15.980495633101265 125.63600000000001
16.003031029129367 98.2115
16.02554948280019 77.9928
16.048086125229432 68.5863
16.070623392487107 65.6621
16.09314371869582 64.8936
16.11568223789321 64.0917
16.13820381691126 62.9623
16.160743591742527 61.5393
16.183283996022084 60.3315
16.205807461423195 59.1356
16.228349126881973 58.717
16.25087385432698 58.6848
16.27341678466365 58.0198
16.29594277784926 58.1954
16.31848697676433 58.608000000000004
16.341031811604868 59.053000000000004
16.36355971058487 59.6536
16.3861058195587 59.4939
16.40863499352978 57.9842
16.431182380342005 56.6396
16.453730407713202 56.0054
16.476261501364792 55.7009
16.498810812136167 55.221000000000004
16.52134319004079 55.2329
16.54389378792203 55.14
16.566445031001553 54.8647
16.588979342490088 54.8034
16.61153187824822 54.6284
16.634067483263312 54.3877
16.656621315414416 54.3548
16.679175797408888 54.1314
16.701713349928728 54.3352
16.72426913389191 54.412
16.74680798922351 54.5763
16.76936507887444 54.7705
16.791905240734874 54.8408
16.814463639794468 54.6631
16.837022695210294 54.6337
16.859564824093756 54.9683
16.882125194503903 56.0213
16.904668639217885 56.9296
16.927230328348003 57.0969
16.949792678493612 57.0263
16.972338104193863 56.2377
16.994901778652235 55.5433
17.017448529496576 55.323
17.040013531998152 55.1438
17.06257920018044 55.4895
17.0851279459922 56.2333
17.107694947817667 57.2655
17.130245028099072 57.8516
17.15281336730298 59.2389
17.17536478578733 60.8484
17.19793446610687 62.7958
17.220504818648422 65.4868
17.243058251703697 68.567
17.265629950971032 73.3989
17.288184731571736 78.8147
17.310757781306908 82.624
17.33333150794385 84.0229
17.355888317140174 82.5698
17.37846339986244 77.3327
17.401021565958885 70.8988
17.42359800851343 65.44
17.44617513265564 61.5537
17.468735341390783 59.5772
17.491261035594565 58.6741
17.51396340099364 58.5217
17.536490463869136 58.6265
17.559018209820174 58.7175
17.58154663977963 58.8691
17.604251766089718 58.7689
17.626781572227713 58.9935
17.64931206518155 59.3916
17.671843245885103 59.9106
17.69455114821572 60.1994
17.717083712612634 60.418
17.739616967569667 60.6295
17.762150914021706 60.9254
17.78486160749854 60.6801
17.807396945166804 61.2439
17.829932977143503 61.5547
17.85246970436452 63.0069
17.875183204129467 64.7697
17.897721330097664 66.7294
17.920260154126645 69.0386
17.942799677153296 71.9509
17.9655159983646 75.0999
17.988056927677544 79.944
18.010598558807683 87.1635
18.033140892692916 96.72
18.05586005052525 107.561
18.07840379824407 119.024
18.10094825154059 129.66
18.12366954819864 138.58100000000002
18.146215420998306 139.095
18.16876200220057 131.061
18.191309292745153 117.04
18.214033452627167 103.271
18.236582170236648 91.2309
18.259131600016456 85.304
18.281681742907335 84.6739
18.304408781233683 88.8584
18.32696035875955 94.0139
18.349512652227624 98.8911
18.372065662579683 104.079
18.394795594587553 105.80799999999999
18.41735004715306 102.616
18.43990521943684 96.3594
18.46246111238171 87.5189
18.485193953325208 77.839
18.507751296070428 70.1099
18.530309362314178 65.9658
18.552868153000343 63.3159
18.57560391815056 61.8039
18.59816416623245 61.2887
18.620725141597372 60.8843
18.643286845190268 60.4911
18.666025549835414 59.9567
18.688588718427933 59.4523
18.711152618092243 59.3623
18.73389353884365 58.9558
18.75645890921984 58.6431
18.77902501351406 58.2507
18.801591852673102 58.1573
18.824335739722738 57.6781
18.846904057212626 57.5486
18.8694731124168 57.3222
18.89204290628315 57.1788
18.914789774966803 57.1734
18.937361054791623 56.8623
18.959933076131318 56.6843
18.982505839934877 56.5783
19.00525570560582 56.9191
19.027829963004184 56.4379
19.05040496572238 56.7672
19.072980714710468 56.4352
19.095733592739563 56.474
19.11831084296757 56.9096
19.140888842324735 57.5512
19.16346759176222 57.7406
19.18622349753803 58.2256
19.208803755869358 58.8178
19.231384767143577 60.0002
19.253966532312948 61.3521
19.276725481241822 63.0645
19.29930876296784 65.5236
19.3218928014549 68.4453
19.34465404436217 72.2913
19.36723960516257 75.2675
19.389825925592426 76.8815
19.412413006605938 75.5245
19.43517731967805 72.5151
19.457765930683355 68.0006
19.48035530514408 63.119
19.50294544401556 59.3503
19.525712842708348 56.5946
19.54830451925909 55.0563
19.570896963095727 53.924
19.593490175174704 53.4447
19.616260674962184 53.3401
19.638855432416964 53.1179
19.661450960992624 53.4456
19.68404726164677 53.2178
19.706820878021247 52.9439
19.729418731756834 53.1802
19.752017360452857 53.0009
19.77461676506804 53.2783
19.797393513540218 53.0448
19.819994478951667 53.2303
19.84259622316767 53.9387
19.8651987471481 54.2354
19.887978643247177 54.4469
19.91058273574792 54.9934
19.933187610901943 55.5429
19.955969879466828 56.5627
19.97857632894404 57.7198
20.00118356396599 59.3239
20.023791585494575 61.4362
20.046577028914875 64.3154
20.069186632506966 66.4284
20.091797025500632 68.4121
20.114408208858933 69.1607
20.137196842715273 68.9288
20.159809615886765 67.5324
20.18242318232135 64.9351
20.20503754298326 62.7555
20.227829382875154 61.6535
20.250445341109344 61.4898
20.27306209647285 62.0886
20.29567964993108 63.4567
20.31847471147704 64.8051
20.34109387027612 65.6295
20.363713830075454 65.2793
20.386334591841646 64.1417
20.409132890679302 61.1523
20.431755265564437 58.3063
20.454378445325528 55.4755
20.477002430930366 53.5572
20.499803982716553 52.2879
20.522429589228004 51.611999999999995
20.54505600449589 51.1667
20.567683229489194 50.8093
20.590488049900088 50.2819
20.61311690359731 50.0087
20.63574656993626 49.8419
20.658553853717297 49.3992
20.681185154618298 49.4271
20.703817271080066 49.3006
20.72645020407368 49.0023
20.749260783967177 48.7836
20.771895359337133 48.5497
20.794530754161617 48.6573
20.817166969412938 48.5674
20.83998086114876 48.4973
20.86261872660049 48.4527
20.885257415405402 48.5737
20.90789692853701 48.4171
20.930714147864748 48.1344
20.953355319030678 48.227
20.97599731745334 48.441
20.99864014410749 48.2257
21.021460706796564 48.2482
21.044105199328826 48.3034
21.06675052302631 48.5655
21.089396678865015 48.7751
21.112220600704806 49.033
21.134868430275347 49.4839
21.15751709492456 49.8962
21.180166595629693 49.9651
21.202993892429635 50.4293
21.22564507473034 50.8033
21.24829709602816 51.056999999999995
21.27112693608965 51.1517
21.293780644891275 51.2034
21.316435195634053 50.2578
21.339090589297417 49.558
21.361923832041875 49.0983
21.384580921090404 48.6229
21.407238856007325 48.2234
21.429897637773326 48.2834
21.45273429906592 48.0748
21.475394784108598 48.1314
21.498056118951983 47.8765
21.520718304578022 48.1367
21.543558400304388 48.1915
21.566222297108816 48.2974
21.58888704765135 48.4607
21.61155265291521 48.8592
21.63439619898156 49.1776
21.657063523335786 49.3001
21.67973170537063 49.6639
21.7024007460706 50.0402
21.72524775840385 50.945
21.747918526116475 51.9036
21.770590155457388 53.051
21.79326264741238 54.4378
21.816113141960237 56.3382
21.838787368860547 58.0372
21.861462461341976 59.9331
21.884315579735777 61.8572
21.90699241312273 63.2769
21.92967011506078 63.98
21.95234868653799 64.1062
21.9752053151131 62.8982
21.997885635446785 60.9039
22.020566828293532 59.2278
22.04324889464272 57.6223
22.066109049404666 56.2664
22.088792872571794 55.6054
22.111477572219204 55.4697
22.1341631493376 55.6855
22.157026846313123 55.7521
22.179714188221507 54.8224
22.202402410582668 54.1308
22.22509151438863 52.6066
22.24795876962584 51.1293
22.270649646204486 50.2257
22.293341407213727 49.5591
22.316034053646906 49.1123
22.338904883215342 48.8384
22.36159931041458 48.7914
22.38429462602756 48.6639
22.40699083104897 48.5603
22.429865251039757 48.7264
22.452563244831367 48.7701
22.47526213102522 48.5947
22.49813925616515 48.4169
22.520839937143307 48.2568
22.543541513520587 48.2619
22.56624398629403 48.2115
22.589124730075895 48.1253
22.611829005656723 48.2079
22.63453418063466 48.1247
22.657240256008077 48.3088
22.680124634582935 48.4855
22.70283252079775 48.7329
22.725541310413075 49.0681
22.74825100442868 49.2708
22.771139033969575 49.6489
22.79385054687155 49.8049
22.81656296718292 50.4621
22.83927629590484 51.3269
22.862167992606945 52.2291
22.88488314827121 53.3343
22.907599215359284 54.523999999999994
22.93031619487366 55.5688
22.953211574954405 56.6378
22.975930389478226 57.6219
22.998650119445763 57.8342
23.02137076586092 57.0866
23.044269845560063 56.0151
23.06699233506288 54.4646
23.089715744034912 52.5689
23.112617610931565 50.7153
23.135342869061212 49.6069
23.158069049684816 48.9261
23.1807961538087 48.5973
23.20370174880544 48.3235
23.226430710184808 48.3683
23.249160598093425 48.5719
23.271891413539002 48.3172
23.294800752937697 48.2511
23.31753343374794 48.5411
23.340267045128353 48.6188
23.36300158808808 48.9397
23.38591468821339 49.193000000000005
23.408651104658304 49.633
23.431388455719986 50.1811
23.454126742409 50.9832
23.4770436196085 51.885
23.499783787914662 53.1082
23.522524894889884 54.2043
23.54526694154616 55.288999999999994
23.56818761219047 56.5713
23.59093154860734 57.3322
23.613676427751283 57.8218
23.636422250635754 56.9511
23.659346731118656 55.7278
23.68209445191868 53.6095
23.704843119509587 51.6415
23.72759273490623 49.6506
23.750521041644767 48.0727
23.77327256312355 47.0884
23.796025035462787 46.4473
23.818956224555475 45.9155
23.841710609113413 45.6783
23.86446594758979 45.5766
23.887222241002014 45.2522
23.910157285144578 44.9647
23.932915498962537 45.0098
23.955674670778713 44.7833
23.978434801611975 44.5934
24.001373717286125 44.4506
24.024135776723917 44.3468
24.046898798245582 44.2507
24.06966278287146 44.2505
24.092605586582614 43.9978
24.115371508023642 43.897
24.1381383956401 43.8348
24.16090625045381 43.7871
24.183852958731244 43.7695
24.206622758582608 43.6556
24.229393528706886 43.4108
24.252165270127392 43.4902
24.27511589952438 43.3978
24.297889594216997 43.1808
24.32066426328598 43.1786
24.34343990775613 43.0888
24.36639447485003 42.9255
24.38917208083877 42.8819
24.41195066531332 42.7904
24.43490819850244 42.8654
24.457688750692377 42.6745
24.48047028445616 42.6177
24.503252800821233 42.7982
24.526214300784112 42.8729
24.548998793132213 42.9874
24.57178427117417 42.6829
24.59457073593893 42.6831
24.617536219319863 42.6352
24.64032466834748 42.6139
24.663114107195035 42.5765
24.685904536893013 42.3583
24.708874020360852 42.3234
24.731666442613744 42.1642
24.754459858818787 42.0865
24.777254270007962 42.1097
24.80022777025625 42.0104
24.82302418230472 41.9804
24.845821592443674 41.8856
24.86862000170663 41.8405
24.891597535453727 41.7973
24.914397953892728 42.177
24.93719937456671 41.873999999999995
24.96000179851076 41.9423
24.98298338249997 42.1446
25.00578782394922 42.3466
25.028593271784167 42.309
25.05157790644186 42.7812
25.07438537804115 43.0447
25.097193859145293 43.1848
25.120003350792075 43.4745
25.142992065061257 43.7995
25.165803588823465 43.9718
25.18861612625217 44.2655
25.211429678386736 44.4133
25.234422489079968 44.3531
25.257238081693636 44.4783
25.280054692141732 44.5821
25.3028723214652 44.5713
25.325869245420463 44.8319
25.348688923599397 44.8147
25.371509623787006 44.5574
25.394331347025812 44.2913
25.41733240110666 43.8544
25.440156181590016 43.2833
25.46298098826268 42.9011
25.48580682216873 42.2451
25.50881202326435 41.68899999999999
25.53163992281684 41.1876
25.55446885274561 40.9674
25.577298814096377 40.5596
25.600308179121807 40.6074
25.623140214533745 40.6104
25.64597328451537 40.5005
25.66898578564376 40.225
25.691820936010206 40.4451
25.714657124097695 40.3148
25.737494350954734 40.2356
25.760511045684957 39.9828
25.783350361364224 40.1768
25.806190718969255 40.2873
25.82903211955018 40.3567
25.852053024868923 40.3535
25.874896522722523 40.4448
25.897741066713106 40.2801
25.920586657892454 40.383
25.943611790812668 40.6164
25.966459487728237 40.6438
25.989308234998564 40.81
26.01215803367705 40.9685
26.03518741123814 41.0741
26.05803932412957 41.1999
26.080892291600094 41.0668
26.10374631470478 41.2898
26.12677995397268 41.3729
26.14963609978026 41.4672
26.172493304397875 41.0719
26.19535156888223 40.9066
26.218389486949604 40.4639
26.241249882640123 40.2645
26.26411134137826 40.0297
26.28715248187403 39.9742
26.31001607820869 39.772
26.3328807407756 39.6629
26.35574647063438 39.8273
26.37879191991473 39.8081
26.401659795896734 39.8062
26.424528742360263 39.9192
26.447398760366614 40.0551
26.470448535598294 40.2208
26.49332070826805 40.4668
26.516193955675355 40.6303
26.53906827888316 40.963
26.562122397260108 41.036
26.584998883685063 41.38399999999999
26.607876449110325 41.5218
26.63075509460056 41.7093
26.65381357334404 41.8617
26.67669439061878 41.7541
26.699576291163382 41.8855
26.722459276044212 41.708
26.745522132402975 41.3974
26.768407297649354 41.2863
26.791293550442003 40.9001
26.814180891848974 40.6298
26.837248143099337 40.2877
26.860137673466657 40.2037
26.88302829566349 40.0613
26.90592001075963 39.8846
26.92899167420566 39.6581
26.951885586870763 39.2768
26.974780595655517 39.0893
26.99785558178161 38.8869
27.020752794605112 38.8035
27.043651106772522 38.7683
27.06655051935668 38.6361
27.089629948036183 38.475
27.112531573292053 38.4158
27.135434302194138 38.6628
27.158338135817015 38.2859
27.181422024430987 38.3543
27.204328079372566 38.201
27.22723524226965 38.2817
27.250143514198573 38.3515
27.273231880156334 38.2868
27.296142382065014 38.1555
27.319053996245536 38.1808
27.341966723775965 38.1327
27.365059584515222 38.1379
27.38797455070062 38.2343
27.410890633481237 38.1595
27.433807833936918 38.0691
27.456905206923906 38.2644
27.47982465472398 38.3305
27.502745223449743 38.2651
27.525666914182825 38.3671
27.548768816912457 38.1768
27.571692763693633 38.2057
27.59461783573812 38.0633
27.617723149491244 38.0681
27.640650484125285 37.9755
27.66357894728264 37.8772
27.686508540048052 37.8793
27.709618414237887 37.7646
27.732550278321757 37.6359
27.755483275279115 37.6106
27.778417406196485 37.6349
27.801531858397514 37.4742
27.824468269376716 37.4623
27.847405817586786 37.5981
27.870344504116094 37.7808
27.893463551932008 37.8851
27.916404527281053 37.8978
27.93934664422563 38.075
27.962289903855886 38.1236
27.98541356491974 38.2756
28.00835912214229 38.3695
28.03130582533231 38.6046
28.054253675581805 38.7411
28.077381967556104 38.7233
28.100332124185126 38.7039
28.123283431160893 38.5815
28.146235889577238 38.5644
28.169368830154156 38.4356
28.192323603752033 38.2097
28.215279532083304 38.0227
28.238415973016764 37.8004
28.261374223145094 37.6275
28.284333631303806 37.4426
28.307294198589954 37.3452
28.330435319167677 36.9956
28.353398217078915 36.7629
28.376362277420153 36.486999999999995
28.39932750129032 36.3888
28.422473319286713 36.1987
28.44544088262495 36.2066
28.468409612800283 36.067
28.491379510913497 35.905
28.51453004413313 35.749
28.53750229057244 35.7794
28.56047570826344 35.7222
28.583450298308804 35.7164
28.606605564586562 35.3649
28.629582511831156 35.419000000000004
28.65256063474956 35.2769
28.675539934446338 35.3476
28.698699951647605 35.3973
28.72168161743193 35.3211
28.74466446331978 35.2576
28.767648490417624 35.1687
28.790813276438353 35.2333
28.813799678527303 35.3635
28.836787265157085 35.1825
28.859955641890075 35.1732
28.882945610203045 35.1505
28.905936766392035 35.0831
28.928929111566863 35.1141
28.952102288520145 35.035
28.975097024308607 34.9895
28.998092952423807 34.8586
29.021090073977508 34.661
29.04426806913204 34.5873
29.067267590245258 34.4803
29.090268308143695 34.3452
29.11327022394099 34.3623
29.13645305530891 34.2447
29.159457379627167 34.1789
29.18246290519685 34.1282
29.20546963313352 34.2195
29.22865731875826 34.2557
29.25166646419296 34.1123
29.27467681535305 33.9865
29.29768837335608 34.1458
29.320880931312562 34.1134
29.34389491580634 33.9714
29.366910110507334 33.9594
29.38992651653503 33.9592
29.41312396492981 34.0255
29.436142806456754 33.921
29.45916286268059 33.7969
29.48236399319994 33.7782
29.50538649169417 33.585
29.528410208259935 33.4937
29.55143514402014 33.2193
29.574641196749695 33.2777
29.597668583816574 33.2017
29.6206971934585 33.0173
29.64372702680042 33.109
29.666938019934474 32.7754
29.689970313635285 32.9373
29.713003834422636 32.8743
29.73603858342347 32.7013
29.759254535188578 32.6517
29.78229175361658 32.4892
29.80533020365064 32.6026
29.82836988641968 32.7125
29.85159081507472 32.514
29.874632976355343 32.5725
29.89767637376955 32.6279
29.920721008448314 32.3828
29.9439469322847 32.4037
29.96699405457564 32.2834
29.9900424175358 32.3381
30.013092022298157 32.2278
30.03632295963995 32.3252
30.059375061131373 32.3531
30.08242840783577 32.3413
30.105483000888153 32.2497
30.128718970092244 32.1951
30.151776069006917 32.204
30.17483441768648 32.2604
30.198074175317235 32.2555
30.221135036724256 32.177
30.24419715131772 32.1667
30.267260520236203 32.145
30.290505341942243 32.0849
30.313571232750228 32.211
30.336638381310948 32.2138
30.35970678876503 32.0926
30.38295669299435 31.9852
30.40602763151657 31.914
30.429099832366074 31.9876
30.452173296685572 31.9451
30.47542830191959 31.9137
30.498504306502497 31.8105
30.521581577995562 31.941
30.544660117543582 31.9716
30.56792024229725 31.9122
30.59100133132069 31.89
30.614083691845494 31.8642
30.637167325018545 31.9177
30.660432587840603 32.0047
30.683518779717886 31.9443
30.70660624769615 32.0725
30.729694992924372 31.9695
30.75296541239743 31.9961
30.77605672557558 31.9624
30.799149319462742 31.8495
30.8224236211637 31.6845
30.845518789950724 31.6297
30.868615242910597 31.6609
30.891712981195973 31.5172
30.91499247215866 31.4507
30.938092794619365 31.363000000000003
30.96119440587579 31.3207
30.984297307082752 31.2709
31.00758200598383 31.156999999999996
31.030687500658694 31.0162
31.053794288760695 30.9687
31.076902371446767 30.9033
31.100192296997445 30.97
31.12330298246119 30.854
31.14641496599209 30.7265
31.169528248749216 30.7344
31.19282341969534 30.8075
31.215939314557186 30.7712
31.239056512134788 30.7901
31.262175013589378 30.6839
31.28547544871168 30.6635
31.30859657161541 30.6317
31.331719001892175 30.6229
31.35484274070538 30.8448
31.378148458819545 30.680999999999997
31.401274828443725 30.7019
31.424402510106933 30.6704
31.447712205419993 30.6785
31.470842524931633 30.5719
31.493974159989783 30.5201
31.51710711176168 30.5976
31.54042212308802 30.6303
31.563557722100917 30.6016
31.586694641341655 30.357
31.609832881979628 30.3024
31.63315322823208 30.2532
31.656294125521327 30.1956
31.679436347728515 30.0943
31.70257989602529 30.0157
31.725905596152327 30.01
31.74905181052835 29.8536
31.772199354521323 30.0125
31.79534822930507 29.9101
31.818679302290967 29.8904
31.84183085259981 29.9437
31.864983737233473 29.929000000000002
31.88813795736804 29.9989
31.911474422233013 29.8715
31.934631327356435 29.816999999999997
31.9577895715215 29.8999
31.980949155906522 29.8975
32.004291031706956 29.8371
32.027453310562606 29.6885
32.05061693318573 29.6418
32.07396288236386 29.5777
32.09712920658542 29.526
32.12029687812702 29.5056
32.14346589817093 29.4665
32.166817291729984 29.3458
32.18998902288583 29.2895
32.21316210610336 29.2525
32.23633654256711 29.1052
32.259693399663725 29.1189
32.282870556771144 29.0438
32.30604907069099 29.0443
32.329228942610065 28.8661
32.35259128243769 28.7741
32.375773884550505 28.8007
32.398957848235646 28.768
32.422143174682176 28.7493
32.445511016471215 28.6404
32.468699082679954 28.6049
32.49188851523011 28.4986
32.51507931531304 28.4812
32.538452678331 28.4934
32.56164622776311 28.4567
32.58484114831493 28.2749
32.60803744118015 28.2932
32.631416344731896 28.2528
32.654615396551876 28.2805
32.67781582427913 28.2529
32.701198898634416 28.0459
32.72440209253756 28.064
32.747606665947124 28.0924
32.77081262006088 27.9589
32.79420126883317 27.9915
32.81740999876112 28.0817
32.840620112999424 27.9816
32.86383161274818 27.8364
32.88722585534586 27.8972
32.91044014056596 27.8702
32.933655814909734 27.7742
32.95687287957963 27.7985
32.98027273544904 27.7825
33.00349259526636 27.7
33.026713849030116 27.7232
33.04993649794511 27.6773
33.073341986570746 27.6997
33.09656744032826 27.7826
33.11979429286444 27.6297
33.14302254538647 27.5633
33.166433686291185 27.5574
33.18966475336992 27.4914
33.212897224069096 27.4181
33.23613109959831 27.4519
33.259547912343415 27.4156
33.2827846121627 27.4958
33.306022720453775 27.304000000000002
33.32926223842861 27.3314
33.352684742614166 27.228
33.37592709463173 27.2394
33.399170859982064 27.1447
33.422597648419426 27.0641
33.44584425514446 26.9683
33.46909227885668 26.9393
33.4923417207723 26.8513
33.51577423505344 26.9621
33.539026528130385 26.8
33.56228024307245 26.6404
33.585535381098246 26.5487
33.60897364093058 26.6391
33.63223163992385 26.633000000000003
33.6554910656699 26.5048
33.678751919389796 26.49
33.702195944520106 26.4284
33.72545966903325 26.4285
33.74872482519663 26.2802
33.771991414233746 26.3146
33.79544122444841 26.3461
33.81871069412428 26.2291
33.84198160035767 26.1812
33.86525394437455 26.2711
33.88870955949969 26.1078
33.911984794020626 26.1926
33.93526147001624 26.0455
33.958539588715006 26.0911
33.98200102861669 25.9748
34.0052820477047 25.8793
34.02856451319451 25.892
34.05203033759056 25.8494
34.07531571090147 25.8428
34.09860253431845 25.7837
34.121890809074316 25.7089
34.145362493118924 25.7462
34.16865368561615 25.6458
34.191946333164054 25.6564
34.21524043699793 25.6774
34.23871800066799 25.6264
34.26201503218366 25.566
34.28531352370466 25.4417
34.30861347646881 25.386
34.33209693978188 25.3714
34.3553998301885 25.4322
34.378704185565205 25.3105
34.402010007152356 25.2069
34.42549939016683 25.2337
34.44880815937748 25.1088
34.472118398533134 25.1417
34.49543010887669 25.1497
34.51892543169198 25.0418
34.54224009966052 25.0078
34.56555624255917 24.9742
34.58887386163339 24.983
34.61237514439016 24.8832
34.6356957311114 24.8253
34.65901779775809 24.8994
34.68252356662995 24.7794
34.705848608458616 24.7856
34.72917513396849 24.6794
34.75250314440949 24.6391
34.77601490857862 24.6552
34.799345904259795 24.5282
34.82267838863559 24.5521
34.846012362958525 24.5798
34.869530142679984 24.5666
34.89286711232212 24.5098
34.91620557568269 24.5037
34.93954553401677 24.45
34.9630693495876 24.373
34.986412313340814 24.3101
35.00975677584668 24.3516
35.033102738362956 24.3075
35.05663261012228 24.1985
35.0799815881786 24.2222
35.10333207003229 24.156
35.12668405694369 24.1946
35.150220005273056 24.2283
35.17357501786656 24.0726
35.19693153931268 23.9951
35.220289570874385 23.9493
35.24383161619786 23.9977
35.267192683604904 24.0434
35.290555264930376 23.9288
35.314101899412165 23.905
35.33746752422433 23.9407
35.36083466676374 23.9139
35.38420332829803 23.7856
35.407756095629054 23.9067
35.43112781085063 23.8576
35.45450104888391 23.809
35.477875810999194 23.7701
35.50143473172161 23.7191
35.52481255774625 23.7441
35.54819191167777 23.6605
35.57157279478914 23.6003
35.595137889488406 23.6611
35.61852184675279 23.5513
35.641907337029984 23.4879
35.665294361595684 23.5266
35.68886565090076 23.4908
35.7122557598848 23.4481
35.73564740699838 23.4446
35.759040593519934 23.4161
35.78261809810353 23.3152
35.80601437933051 23.1854
35.829412203814705 23.2236
35.85281157283719 23.1522
35.876395313415884 23.1748
35.8997977874528 23.1265
35.92320180988546 23.1037
35.946790244133936 22.9662
35.97019737933222 22.9601
35.993606066789866 22.8845
36.01701630779276 22.8963
36.04061101440684 22.8853
36.06402437852291 22.8721
36.08743930005611 22.8226
36.1108557802951 22.772
36.13445678011326 22.7748
36.15787639383515 22.7443
36.18129757014299 22.6874
36.20472031032821 22.6303
36.22832762423364 22.6607
36.25175350829375 22.5822
36.275180960119776 22.4838
36.298609981005924 22.5221
36.32222362992669 22.5715
36.34565580510207 22.523000000000003
36.36908955323448 22.531
36.39252487562093 22.3832
36.416144880530226 22.3123
36.43958336764275 22.3388
36.463023432914625 22.3258
36.486465077645676 22.2014
36.51009145956204 22.2929
36.53353627947859 22.333000000000002
36.55698268276811 22.2349
36.58043067073321 22.1593
36.60406345072071 22.1104
36.62751462435344 22.1141
36.65096738658405 22.0844
36.67460498210655 22.0554
36.69806093788647 21.9873
36.72151848619297 21.9037
36.744977628333636 21.9074
36.76862165890998 21.8377
36.79208400512205 21.8646
36.81554794910557 21.8182
36.83901349217101 21.7604
36.862663978991606 21.7177
36.88613273667352 21.6922
36.90960309738324 21.6796
36.933075062434064 21.622
36.95673202673572 21.5451
36.98020721697122 21.5066
37.003684015502365 21.5034
37.027162423645365 21.4567
37.050825886711465 21.4752
37.07430753063053 21.3907
37.09779078812467 21.4092
37.121275660513014 21.3967
37.144945643673694 21.3207
37.16843376245278 21.3072
37.19192350009803 21.2851
37.215414857931435 21.2272
37.239091382563885 21.225
37.262585997426164 21.1843
37.28608223645736 21.182
37.309763684451696 21.1041
37.33326318851098 21.0434
37.356764320726555 21.045
37.380267082425526 21.0738
37.40395510942588 20.9541
37.42746114683234 20.862
37.45096881771841 20.9087
37.474478123414166 20.8593
37.49817275092816 20.8379
37.52168534303452 20.8565
37.54519957395567 20.7513
37.568715445024665 20.7863
37.592416694607714 20.6953
37.61593586281424 20.7306
37.63945667518264 20.6895
37.66297913304891 20.573
37.68668702630454 20.622
37.710212792059274 20.445999999999998
37.733740207334854 20.544
37.757269273470364 20.4235
37.780983832050374 20.4322
37.80451621684926 20.428
37.82805025654007 20.4051
37.851585952464795 20.2906
37.8753071980695 20.3176
37.89884622345676 20.2823
37.92238690911902 20.2613
37.94611318753442 20.1964
37.969657210779765 20.1382
37.99320289834801 20.16
38.016750251586465 20.0413
38.04048325513017 20.0894
38.06403395679343 20.0481
38.087586328183946 20.0351
38.11114037065203 19.9567
38.13488012115898 19.9895
38.1584375229181 19.9507
38.181996599821 19.8596
38.205557353221124 19.8617
38.229303872575656 19.8206
38.2528679961576 19.7168
38.27643380031219 19.7033
38.30000128639589 19.6607
38.32375459653193 19.711
38.34732546371299 19.7026
38.37089801690786 19.5837
38.39447225747609 19.6269
38.418232380377425 19.5981
38.441810012983396 19.5217
38.46538933705673 19.4964
38.488970353960084 19.4642
38.51273731166058 19.4561
38.536321731567014 19.3596
38.55990784840681 19.3995
38.58367995004091 19.3227
38.60726947812959 19.3287
38.63086070726198 19.2869
38.654453638806274 19.2836
38.678232613930824 19.2437
38.70182896773327 19.1511
38.72542702806741 19.2021
38.7490267963045 19.0854
38.77281266709232 19.1156
38.79641586862214 19.0697
38.8200207821842 19.0409
38.843627409152944 19.1144
38.86742019782782 18.9796
38.891030269149255 18.9856
38.914642058016156 18.9643
38.938255565806124 18.916
38.96205529464307 18.8583
38.98567225787121 18.8735
39.00929094417078 18.8257
39.03291135492255 18.8275
39.05671804624804 18.8229
39.080341923549106 18.7008
39.103967529460334 18.6642
39.127594865365744 18.5764
39.15140854155791 18.6049
39.17503935514948 18.6171
39.19867190290282 18.5464
39.22249083587951 18.5306
39.24612686969409 18.54
39.269764641845306 18.4905
39.293404153722804 18.5019
39.317230110864074 18.3853
39.34087311998506 18.3368
39.36451787301696 18.3908
39.388164371352595 18.2953
39.41199737518003 18.2835
39.43564738196752 18.2512
39.45929913825317 18.1985
39.48295264543308 18.2425
39.506792718520884 18.215999999999998
39.530449745387216 18.1483
39.55410852735203 18.1118
39.57776906581474 18.1207
39.60161623079 18.0859
39.625280300200025 18.0633
39.64894613032202 17.9773
39.67261372255866 17.9942
39.6964680021016 17.9631
39.72013913657293 17.882
39.74381203738292 17.9273
39.76748670593756 17.8654
39.79134812278169 17.8288
39.81502634488497 17.8165
39.83870633896685 17.7888
39.862388106436654 17.7277
39.88625668336918 17.730999999999998
39.90994201572829 17.7964
39.933629125719285 17.7134
39.957503091207826 17.6127
39.9811937746168 17.6474
40.00488623990914 17.5652
40.02858048850006 17.5584
40.05246165409549 17.5501
40.076159487492085 17.4619
40.099859108448875 17.4951
40.123560518384345 17.4783
40.1474489070226 17.488
40.171153913178564 17.3755
40.194860712584955 17.3488
40.2185693066637 17.3591
40.242464941335314 17.3019
40.26617714307655 17.3033
40.289891143772046 17.2268
40.3136069448471 17.2298
40.33750984859743 17.2344
40.3612292688043 17.2223
40.3849504936829 17.1029
40.40867352466194 17.0876
40.43258372059144 17.099
40.45631038219906 17.183
40.48003885420956 17.063
40.503769138055105 16.9874
40.52768664931955 17.0801
40.55142057531802 17.0407
40.57515631746428 16.948
40.599079334038514 16.905
40.62281872700477 16.8983
40.64655994043941 16.8012
40.67030297578061 16.7998
40.69423334835778 16.8295
40.71798004609188 16.7842
40.74172857006355 16.7326
40.76547892171441 16.7646
40.7894166736039 16.6808
40.813170699248566 16.6375
40.83692655691388 16.6068
40.86068424804498 16.6785
40.884629402612525 16.6494
40.908390779366385 16.6119
40.932153993938 16.5639
40.95591904777605 16.4946
40.979871628443995 16.5054
41.003640379561936 16.5077
41.02741097430883 16.4036
41.05118341413683 16.4291
41.075143444384416 16.3587
41.098919593177826 16.397000000000002
41.1226975914255 16.3281
41.14647744058318 16.2784
41.170444943946755 16.2819
41.19422851378379 16.2754
41.218013938914645 16.2696
41.24198706625173 16.1608
41.26577622087193 16.1647
41.289567235177785 16.0888
41.31336011063129 16.1219
41.337340752422875 16.0705
41.361137369129835 16.0508
41.38493585138705 16.0388
41.40873620066004 15.9867
41.43272438060107 15.9433
41.45652848292052 15.9474
41.48033445666918 15.8428
41.50414230331616 15.8509
41.528138045159764 15.8833
41.551949656675205 15.7894
41.575763145513235 15.755
41.59957851314666 15.8174
41.62358184070442 15.7529
41.64740098505737 15.7184
41.6712220126409 15.6621
41.69504492493139 15.6237
41.71905586207357 15.642999999999999
41.74288256296395 15.6188
41.766711153007456 15.645
41.79054163368412 15.5527
41.814560204340054 15.5621
41.838394485526365 15.5153
41.86223066180303 15.4672
41.88625497706819 15.4688
41.910094962812 15.4898
41.93393684811168 15.4447
41.95778063445365 15.3522
41.981812625263366 15.3553
42.00566023303407 15.3622
42.029509746323676 15.3206
42.05336116662236 15.3608
42.077400857069705 15.3167
42.10125611078846 15.2289
42.12511327600405 15.1812
42.14897235421036 15.1822
42.173019768448455 15.2404
42.19688269209613 15.1848
42.22074753323349 15.1175
42.24461429335818 15.125
42.268669455600495 15.0721
42.292540073217886 15.0772
42.31641261433284 15.0041
42.34028708044675 15.043
42.36435001496739 14.9956
42.38822835065557 14.9229
42.41210861586426 14.8851
42.4359908120986 14.9154
42.46006154323262 14.8233
42.48394762115317 14.8294
42.507835634632315 14.8287
42.531912233047436 14.7596
42.55580413732265 14.7659
42.579697981698 14.754000000000001
42.60359376768525 14.7171
42.62767820545945 14.6858
42.65157789440821 14.6624
42.67547952952185 14.6437
42.699383112316 14.6714
42.72347541395347 14.5807
42.74738291190531 14.5794
42.771292362102166 14.5469
42.795203766063516 14.5399
42.819303956130405 14.5236
42.843219287476536 14.4862
42.86713657716324 14.4892
42.89105582671383 14.4216
42.91516392983864 14.3889
42.939087119032166 14.4132
42.963012272677304 14.3088
42.98693939230129 14.2554
43.01105543317513 14.31
43.034986504731386 14.2864
43.05891954686589 14.2678
43.08285456110972 14.2316
43.10697856448665 14.1725
43.130917542983475 14.1764
43.15485849820081 14.1339
43.17880143167367 14.0951
43.20293342237094 14.0556
43.226880332449 14.1271
43.25082922540554 14.0477
43.27496722682525 14.0543
43.29892010567796 14.046
43.32287497204102 14.050999999999998
43.34683182745632 13.9426
43.370977859791836 13.9575
43.39493871351105 13.9542
43.41890156092628 13.927
43.44286640358341 13.8766
43.46702049182749 13.8648
43.49098934522816 13.8236
43.51496019852649 13.8228
43.5389330532723 13.8019
43.56309522248204 13.7428
43.58707210044314 13.7262
43.61105098451946 13.705
43.63503187626491 13.6592
43.659202151562134 13.6415
43.68318707902681 13.6433
43.70717401884041 13.6137
43.731162972560874 13.5834
43.75534137913236 13.5333
43.779334381108384 13.5601
43.803329401683186 13.5435
43.82732644241872 13.5369
43.8515130055166 13.5044
43.87551410707659 13.4207
43.89951723350145 13.429
43.923709934595614 13.4077
43.94771713129917 13.3807
43.97172635758096 13.4287
43.99573761501002 13.3335
44.0199385169922 13.3126
44.04395385732619 13.2603
44.067971233533086 13.2347
44.09199064718605 13.2348
44.11619977548961 13.2096
44.14022328470671 13.1723
44.16424883610785 13.1741
44.18827643127035 13.1336
44.21249381139513 13.1413
44.236525514814076 13.0742
44.26055926674478 13.1238
44.28459506876863 13.0622
44.3088207262813 13.0163
44.33286064928722 13.01
44.35690262714919 12.9702
44.38094666145278 12.9574
44.4051806219871 12.9492
44.42922879003185 12.8832
44.45327901929361 12.885
44.477331311362136 12.8961
44.501573600619416 12.8039
44.525630039221795 12.7885
44.54968854541895 12.8429
44.573937102200176 12.7764
44.5979997645541 12.7834
44.622064499300315 12.7144
44.64613130803592 12.6861
44.67038823869318 12.735999999999999
44.69445921643748 12.669
44.718532272981385 12.6132
44.742607409926194 12.6236
44.76687274034801 12.6239
44.79095205918753 12.5623
44.81503346325094 12.6095
44.839116954143876 12.5569
44.86339071028742 12.5187
44.88747839599524 12.4738
44.91156817336837 12.477
44.93566004401666 12.4304
44.959942251908146 12.4455
44.984038330325966 12.4144
45.00813650686762 12.3445
45.03223678314731 12.3282
45.05652746888232 12.3095
45.08063196592069 12.302
45.104738567558705 12.2735
45.128847275414856 12.2566
45.15314646515866 12.2313
45.17725940679741 12.2336
45.20137445952892 12.216
45.22568004865265 12.1529
45.24979934496396 12.1763
45.27392075725247 12.1258
45.29804428714431 12.0781
45.322358426247604 12.0877
45.346486212804315 12.0745
45.370616121861914 12.0492
45.39474815505086 12.0162
45.41907087049246 12.0252
45.4432071734666 11.9989
45.46734560548283 12.0001
45.49148616817604 11.9827
45.51581748638564 11.9722
45.5399623320197 11.8954
45.56410931325473 11.9039
45.58825843173002 11.8918
45.61259837920865 11.8612
45.636751793816 11.8419
45.66090735060093 11.7919
45.68506505120716 11.7824
45.7094136545275 11.7308
45.73357566449271 11.6959
45.75773982322992 11.6765
45.78190613238733 11.7436
45.806263418194064 11.6484
45.83043404997326 11.6429
45.85460683713677 11.6298
45.87897065658495 11.6076
45.90314777634752 11.6005
45.92732705646868 11.549000000000001
45.9515084986045 11.5356
45.97588104735473 11.5106
46.00006683541565 11.5097
46.02425479047904 11.4998
46.04844491420549 11.5175
46.0728262191024 11.5024
46.09702070211635 11.4688
46.12121735879483 11.4885
46.14541619080294 11.4189
46.169806278764455 11.3575
46.194009483459034 11.3373
46.21821486849841 11.2651
46.24242243555223 11.328
46.266821333570014 11.2651
46.29103328674601 11.2408
46.31524742696538 11.2695
46.33946375590237 11.2246
46.36387149104216 11.2242
46.38809221957392 11.1937
46.41231514186606 11.1825
46.436540259597464 11.1378
46.460956858999374 11.1277
46.48518638983522 11.0974
46.509418121166966 11.0707
46.533652054678114 11.0927
46.55807754555709 11.0766
46.58231590571962 11.0441
46.60655647313217 11.0218
46.630988654873654 10.9674
46.655233659129024 10.950999999999999
46.67948087571551 10.950999999999999
46.70373030632484 10.9373
46.72817142736393 10.9227
46.752425308428684 10.9234
46.77668140861147 10.877
46.80093972960865 10.8492
46.82538981736788 10.8099
46.849652602470904 10.7926
46.87391761349769 10.786
46.8981848521493 10.7218
46.9226439341274 10.7205
46.946915650573224 10.6852
46.97118959976749 10.7006
46.99546578341598 10.7063
47.019933887188216 10.6752
47.04421456235744 10.6993
47.06849747711879 10.65
47.09278263318286 10.5734
47.11725978640143 10.5927
47.14154944775105 10.5642
47.165841355555656 10.543
47.1901355115306 10.509
47.214621741924994 10.4902
47.23892041698887 10.4696
47.26322134538975 10.4559
47.28771440635075 10.4449
47.31201986422527 10.3957
47.33632758061436 10.4107
47.360637557241866 10.3807
47.38513974410611 10.3394
47.40945426407847 10.3508
47.43377104948137 10.3303
47.45809010204344 10.3515
47.48260144275502 10.3066
47.506925052572285 10.2745
47.53125093475548 10.2527
47.55557909103813 10.2622
47.58009961361992 10.1742
47.60443234110732 10.2319
47.62876734791564 10.1685
47.65310463578333 10.1542
47.6776343683373 10.1444
47.7019762413987 10.106
47.72632040075572 10.107000000000001
47.75066684815169 10.0852
47.77520581885936 10.0684
47.799556865477655 10.0349
47.823910205386 10.0571
47.84826584033272 10.0239
47.87281407745551 9.96823
47.89717432569297 10.0077
47.92153687423484 10.0194
47.94609208429692 9.94316
47.97045925671401 9.88371
47.99482873471275 9.87307
48.01920052005013 9.89231
48.04376504619224 9.894060000000001
48.068141469543484 9.893139999999999
48.09252020552573 9.8601
48.11690125590099 9.80719
48.1414751266064 9.80437
48.16586082917454 9.78439
48.19024885144316 9.7755
48.2146391951793 9.75398
48.239222439012764 9.770710000000001
48.26361744916137 9.725660000000001
48.28801478610016 9.720139999999999
48.31241445160131 9.699069999999999
48.337007097209366 9.6727
48.36141144338331 9.67026
48.38581812345755 9.624880000000001
48.41022713920929 9.6684
48.434829215320704 9.62577
48.45924292604658 9.620619999999999
48.48365897780325 9.603710000000001
48.50807737237308 9.53859
48.532688907799276 9.51258
48.55711201168574 9.534180000000001
48.581537463754074 9.462660000000001
48.60615611725119 9.4502
48.63058628942721 9.46453
48.65501881516546 9.46524
48.6794536962573 9.44502
48.70408185970339 9.35878
48.72852147531801 9.35276
48.75296345168211 9.36319
48.77740779059232 9.335289999999999
48.80204549302823 9.34331
48.82649458091802 9.3345
48.85094603676547 9.30252
48.87539986237231 9.29396
48.90004713292306 9.27099
48.92450572200832 9.22833
48.94896668628025 9.21167
48.97343002754588 9.15659
48.99808689542115 9.18103
49.02255501470614 9.19913
49.04702551642794 9.16536
49.0714984023988 9.16508
49.096164896893235 9.1528
49.120642575466796 9.10327
49.145122643748394 9.09384
49.16960510355558 9.06945
49.19428125404938 9.0431
49.2187685210852 9.004489999999999
49.243258185121555 9.0333
49.26794160167084 8.99227
49.2924360839405 8.95148
49.31693296869764 8.92914
49.34143225776915 8.94604
49.36612538195438 8.94332
49.39062950396021 8.90932
49.41513603578346 8.90934
49.4396449792564 8.876710000000001
49.46434784069503 8.86955
49.488861631846454 8.82695
49.513377840166804 8.83545
49.537896467493745 8.80983
49.56260909589029 8.77426
49.587132585683285 8.7693
49.611658500018365 8.73471
49.636186840738596 8.73935
49.66090926588511 8.68971
49.685442483902584 8.7317
49.70997813385706 8.697189999999999
49.734516217597076 8.665560000000001
49.75924846937352 8.64579
49.7837914452858 8.64085
49.80833686055187 8.630460000000001
49.83288471702571 8.59597
49.85762682540054 8.60961
49.882179588965734 8.56072
49.9067347993235 8.57193
49.93129245833333 8.54337
49.95604445336378 8.52732
49.98060703442832 8.498389999999999
50.005172069746266 8.46304
50.02993150438364 8.44849
50.05450147301533 8.47231
50.07907390151433 8.44772
50.10364879174981 8.442110000000001
50.12841816587289 8.41248
50.1529980044635 8.41503
50.17758031042124 8.3995
50.20216508562089 8.40199
50.22694442953363 8.35254
50.25153416817468 8.33814
50.27612638170508 8.3029
50.300721072005196 8.30616
50.325510416102105 8.26275
50.350110084975064 8.26131
50.37471223628208 8.29823
50.39931687190919 8.25738
50.424116246675766 8.21771
50.44872587605249 8.23029
50.47333799543065 8.18857
50.49795260670191 8.15355
50.52276204271512 8.144110000000001
50.54738166295838 8.15189
50.57200378079314 8.14628
50.596628398116835 8.08468
50.62144792604559 8.08976
50.646077567609396 8.10183
50.670709714377715 8.09565
50.69553683636198 8.04392
50.72017401885922 8.02891
50.7448137122895 8.01707
50.76945591856022 8.02628
50.79429318636823 7.97808
50.818940443716784 7.9845
50.84359021965163 7.94217
50.868242516085964 7.94154
50.893089960641895 7.9667
50.917747323549435 7.90695
50.94240721271973 7.89456
50.96706963007175 7.873480000000001
50.99192728239342 7.88047
51.01659478166073 7.8643600000000005
51.04126481489051 7.875710000000001
51.06593738400761 7.81186
51.090805275207074 7.81072
51.11548294172845 7.77544
51.14016314993547 7.767180000000001
51.164845901758845 7.772939999999999
51.18972406304274 7.70102
51.21441192780656 7.692480000000001
51.23910234200271 7.710039999999999
51.2637953075678 7.683669999999999
51.288683770237945 7.6657399999999996
51.31338186432707 7.632680000000001
51.33808251561888 7.625610000000001
51.362978729967345 7.62321
51.387684521509755 7.574330000000001
51.41239287610203 7.590489999999999
51.437103795691165 7.58277
51.46201036644977 7.539569999999999
51.486726441956634 7.5636
51.51144508832545 7.54522
51.536166307509156 7.54806
51.56108326624387 7.51958
51.58580965706056 7.5172
51.61053862657523 7.475460000000001
51.635270176746864 7.45063
51.66019755512065 7.43807
51.68493429268881 7.428539999999999
51.70967361681515 7.414060000000001
51.73441552946465 7.4064
51.759353359237934 7.400869999999999
51.7841004750961 7.39536
51.80885018539685 7.354239999999999
51.833602492111254 7.3226
51.8585508051424 7.329219999999999
51.883308330926425 7.31032
51.90806845906181 7.2758
51.932831191525715 7.28448
51.95779001977161 7.2709600000000005
51.98255798721516 7.24825
52.00732856494335 7.21055
52.03229530577543 7.18001
52.057071130455945 7.1988199999999996
52.081849571391054 7.184260000000001
52.106630630568695 7.20078
52.13160794279417 7.164619999999999
52.15639426492067 7.17744
52.18118321127822 7.13859
52.205974783860896 7.10018
52.23096269971011 7.08749
52.255759551287994 7.04555
52.280559035098186 7.068789999999999
52.30536115314103 7.07741
52.33035970494467 7.010439999999999
52.35516711807904 7.0026
52.37997717147198 7.015960000000001
52.40478986713005 7.025930000000001
52.42979908731974 6.996760000000001
52.454617094216 6.9645600000000005
52.47943774942214 6.9345300000000005
52.50426105495102 6.94026
52.529280976059844 6.9092
52.554109609024096 6.928030000000001
52.57894089837482 6.9062600000000005
52.60377484613117 6.888999999999999
52.62880550079408 6.8759
52.65364479223379 6.87465
52.67848674816189 6.85198
52.70352547971946 6.8597600000000005
52.72837279155837 6.78379
52.753222773982785 6.784039999999999
52.778075429022984 6.778
52.80312495150885 6.791930000000001
52.827982978797436 6.76249
52.85284368481815 6.759930000000001
52.87770707160767 6.74547
52.90276741793998 6.68443
52.92763619336701 6.65499
52.952507655698504 6.6506300000000005
52.977381806977576 6.64699
53.00245301017842 6.696439999999999
53.02733256653592 6.64071
53.052214817996074 6.591710000000001
53.077099766608484 6.58957
53.102181859804446 6.58182
53.127072229988265 6.57373
53.15196530349892 6.59987
53.17686108239249 6.580769999999999
53.20195409881522 6.56153
53.22685531582556 6.52671
53.25175924441303 6.48174
53.27666588664027 6.51396
53.30176985962693 6.48549
53.3266819565689 6.43887
53.35159677336455 6.45271
53.376514312083096 6.46101
53.40162927507703 6.431030000000001
53.42655228516116 6.43421
53.45147802340193 6.39832
53.47660125628886 6.36811
53.50153247842639 6.34541
53.52646643496923 6.36941
53.55140312799818 6.346369999999999
53.576537409691696 6.34753
53.60147960336152 6.31805
53.626424539786164 6.29795
53.65137222105307 6.26585
53.67651758529126 6.294230000000001
53.70147078399681 6.23824
53.72642673383343 6.225
53.75138543689533 6.23387
53.776541917524526 6.23338
53.801506154876755 6.2259
53.826473151763246 6.20253
53.851442910284916 6.18003
53.87661054126026 6.14781
53.9015858509782 6.13492
53.92656392866066 6.14799
53.95154477641532 6.16199
53.976723591801296 6.13134
54.00171000771266 6.10274
54.02669920004598 6.12274
54.051691170915745 6.06819
54.076881204886796 6.0259599999999995
54.101878760928514 6.05558
54.12687910187696 6.04191
54.152077577768296 5.99103
54.1770835166946 6.0022400000000005
54.20209224691339 6.00263
54.22710377055121 5.9964699999999995
54.25231352511594 5.9692099999999995
54.27733066384342 5.913819999999999
54.30235060239643 5.92299
54.32737334290836 5.93909
54.35259441062629 5.89058
54.377622783395324 5.89371
54.40265396455061 5.91067
54.42768795623251 5.84019
54.45292037169559 5.80012
54.477960012857906 5.78552
54.50300247099511 5.80966
54.52804774825457 5.81356
54.55329154616743 5.7886
54.57834249018678 5.757219999999999
54.6033962597977 5.75666
54.6284528571545 5.72966
54.653708072335164 5.6883300000000006
54.67877035378786 5.67055
54.70383546947698 5.6841099999999996
54.72890342156389 5.6277
54.7541700889442 5.58978
54.77924374251975 5.5202
54.8043202390049 5.54021
54.82959552413022 5.5049
54.8546777351945 5.553
54.87976279569621 5.45713
54.90485070780914 5.52321
54.930137506558005 5.416869999999999
54.95523115074295 5.43754
54.98032765308844 5.38556
55.005427015775496 5.436780000000001
55.03072536339621 5.42959
55.05583047570572 5.36705
55.080938454927676 5.35752
55.10604930325027 5.385680000000001
55.131359235107396 5.368519999999999
55.15647585066083 5.3179
55.181595341907496 5.28041
55.20671771104285 5.2292
55.232039262617704 5.14565
55.25716741665048 5.18804
55.28229845518636 5.17743
55.30743238042802 5.145230000000001
55.33276558731939 5.08409
55.357905315183636 5.131480000000001
55.383047936390035 5.07005
55.40819345314859 5.08014
55.433538351073295 5.08496
55.458689688238415 5.0311900000000005
55.483843927614096 4.99205
55.509197623043605 5.01912
55.53435769621134 4.9682900000000005
55.55952067826466 4.90917
55.5846865714265 4.8781
55.61005202069737 4.864
55.63522376553902 4.8808300000000004
55.66039842818645 4.82126
55.68557601087004 4.85174
55.7109532500271 4.79849
55.73613670233794 4.79398
