TT I
1.2716486653135266 7.630389999999999
1.2939594142134223 7.04655
1.3162702121660406 6.45432
1.3385810600174564 6.808680000000001
1.3608919586137629 6.950060000000001
1.383202908801069 6.18569
1.405513911425503 5.76077
1.4278249673332093 5.4648900000000005
1.4501343378461518 5.84778
1.4724455028545926 6.01971
1.4947567236847858 5.72045
1.517068001182951 5.97657
1.5393793361953272 6.1672199999999995
1.5616907295681737 5.84743
1.5840021821477681 5.69654
1.60631369478041 5.4560699999999995
1.6286252683124185 4.76394
1.6509369035901333 5.10285
1.6732468618895553 4.842980000000001
1.695558623192809 5.0862300000000005
1.7178704487808514 4.95284
1.7401823395001077 5.17443
1.7625012545597203 4.96408
1.7848028405262486 5.14112
1.8071218901122095 4.66948
1.8294236121921872 4.602580000000001
1.8517427996910911 4.53674
1.8740620574440425 4.562819999999999
1.8963639900671978 4.945469999999999
1.9186833908139995 5.46425
1.9409854680117449 5.0608699999999995
1.9633050151394713 4.8788599999999995
1.9856246367570705 4.6148
2.0079269371922672 4.9869
2.03024671027244 4.91899
2.0525491637446027 4.488230000000001
2.074869091674931 4.32514
2.097171701569106 4.5740099999999995
2.1194917877373847 4.61658
2.141811954326636 4.92453
2.164114805233074 4.87476
2.186435135143035 6.475280000000001
2.208738150935709 14.9871
2.231058647554722 32.3401
2.2533792288321184 24.7327
2.275682498336085 11.3703
2.298003251406138 6.99021
2.3203066942619714 5.66659
2.3426276225136022 5.20765
2.3649486396617507 5.45638
2.387252348930071 5.70973
2.4095735463442893 5.74516
2.4318774374315884 5.400469999999999
2.4541988185014043 5.52243
2.476502894794693 6.08121
2.498824462909887 6.49591
2.521146125856138 6.39855
2.5434504863470337 6.69372
2.5657723414244717 7.29351
2.588076895590662 7.34673
2.610398946189713 7.45405
2.6327210958598384 7.69838
2.6550259469304716 7.78499
2.6773482972090137 7.49004
2.6996533504259 7.44663
2.7219759047039602 7.76118
2.744298562293959 7.87436
2.7666039251246595 8.03733
2.7889267918020164 8.01533
2.8112323652516555 7.84877
2.833555444408179 8.19539
2.8558786311183852 8.03019
2.8781845268938557 8.45566
2.9005079311721484 8.932739999999999
2.9228140460410397 8.88163
2.9451376712799635 9.13406
2.967444008632326 9.25581
2.9897678582247247 9.90162
3.0120918213106695 10.3365
3.0343984987899373 11.5062
3.0567226913198637 11.4396
3.079029599759726 11.7034
3.101354025127254 11.6429
3.123678568232338 12.5638
3.145985829517914 13.0775
3.16831061055229 13.629000000000001
3.1906181112775593 14.0825
3.212943133635653 14.4739
3.2352682779763207 15.0294
3.2575761442691227 15.3508
3.2799015350264273 16.0446
3.302209649240067 16.2176
3.3245352898092655 16.5042
3.3468436553365257 17.2353
3.369169549113219 17.6959
3.3914955708171384 18.941
3.413804319727358 19.241
3.4361305997334863 19.2705
3.4584396084414553 19.9528
3.4807661501462652 20.5603
3.503092824025881 20.9997
3.5254022288463154 21.4792
3.5477291695206588 22.28
3.5700388426251948 22.6612
3.5923660534916446 24.3939
3.6146934007816114 41.3684
3.637003482731501 100.68299999999999
3.6593311053109985 114.743
3.681641464033634 63.6482
3.7039693653009733 32.0655
3.726297407241705 26.8137
3.7486081875460804 25.9912
3.7709365132734978 26.2525
3.793247578841633 26.8449
3.8155761917550093 26.9233
3.8378875459837216 27.0418
3.8602164494827234 27.7653
3.882545499606844 28.3161
3.9048572932539183 29.0918
3.9271866390645718 29.613000000000003
3.9494987298666713 30.1266
3.971828374764527 30.6737
3.9941581705403255 31.1162
4.016470713506008 31.2716
4.038800813471445 32.3118
4.061113662089144 32.7961
4.0834440696459176 33.4563
4.105774632334751 34.3788
4.128087945865126 34.8864
4.150418821249301 36.1512
4.172732448931298 37.5812
4.195063640413578 39.6596
4.2173775856475215 43.9007
4.239709096631102 80.1795
4.262040768704612 271.875
4.284355196706267 374.57199999999995
4.306687193387355 239.968
4.329001947444346 89.6169
4.35133427213731 49.6835
4.373666762177566 45.2158
4.395982011761091 44.6153
4.418314834921175 46.2206
4.44063041906622 55.5253
4.4629635787515625 67.5444
4.4852969080429785 67.8902
4.5076130004776225 55.5669
4.529946671403969 50.2446
4.552263106909177 49.7467
4.574597122877047 51.2736
4.596931312711224 52.3001
4.619248269273446 53.271
4.6415828092605835 54.4643
4.663900117405352 55.5383
4.686235010953232 57.2095
4.708552674085913 58.1231
4.730887924602802 59.5318
4.753223354952695 61.0662
4.775541557023902 62.4787
4.797877349456786 63.7489
4.820195915032126 65.6714
4.842532072957498 67.1708
4.864868414979744 69.208
4.88718753227192 71.3974
4.909524244902505 73.0752
4.931843734218147 75.0114
4.954180820867835 77.4092
4.976518095879839 80.4454
4.998838149695359 83.0211
5.021175803844231 87.0288
5.043496238205739 90.0737
5.065834274903528 94.5832
5.088172504230693 98.7967
5.1104935158799565 105.43299999999999
5.132832132875765 128.312
5.155153533596801 177.91400000000002
5.1774925416746225 212.76
5.199814334878411 342.848
5.2221537374521505 954.84
5.244493338631803 2736.15
5.266815727034316 7342.54
5.289155727832427 12484.7
5.311478517248165 8943.41
5.333818921080011 3004.66
5.356159527788849 607.08
5.3784829252032536 195.764
5.400823940070432 147.851
5.423147747031976 130.442
5.445489173474152 119.86
5.467830807066149 113.301
5.490155234831516 109.835
5.512497285125229 106.208
5.534822130975162 104.619
5.557164601388673 102.479
5.579489868738879 99.4177
5.601832762690846 98.7082
5.6241758697774475 98.3982
5.646501775867269 96.9506
5.668845311622074 95.5418
5.691171647754637 94.5824
5.713515615597765 93.3379
5.735859800852677 92.5339
5.758186788542988 91.74799999999999
5.780531411018185 91.6072
5.802858837297399 90.7961
5.825203900414495 90.8473
5.8475491852224 91.294
5.869877275883075 91.2814
5.892223006467101 92.6801
5.914551544266608 94.0068
5.936897724049891 96.249
5.959244129804903 101.0
5.981573344815301 116.91799999999999
6.0039202049061 198.333
6.026249875609095 430.29900000000004
6.04859719346037 946.966
6.070927323278297 2128.78
6.093275102315365 4395.03
6.115623113320588 5323.6
6.137953938319995 3561.45
6.160302415650845 1127.38
6.182633708324452 260.613
6.2049826554078376 118.81
6.227331838745022 94.9318
6.249663839443684 86.5486
6.27201349767565 83.9818
6.294345974611799 91.2019
6.316696111167083 105.825
6.339046488263839 99.8903
6.361379686074702 82.3031
6.383730546639482 72.9209
6.406064229255215 69.2097
6.428415576718203 68.682
6.450749747566656 67.6969
6.47310158535871 66.7878
6.495453669698332 65.7387
6.517788579421056 65.1539
6.540141159237969 64.1319
6.562476565766648 63.6763
6.5848296444934045 63.3946
6.607182974060425 62.9847
6.6295191323281015 63.2459
6.651872965955752 67.3665
6.6742096296068985 98.3254
6.6965639707294615 154.35299999999998
6.71891856698715 155.894
6.741255995248479 102.235
6.763611104154477 70.2196
6.785949046381137 61.3864
6.808304671371482 58.8846
6.8306605557940046 58.3494
6.852999275508618 58.0711
6.875355681171544 57.2526
6.897694923437771 57.1491
6.92005185377892 57.0101
6.9423916220322655 56.5722
6.964749080490181 56.3334
6.987106804399774 56.0806
7.009447368180821 56.4973
7.031805625367033 55.8022
7.054146723727803 55.5987
7.076505517631004 55.4019
7.098864581288365 55.9678
7.121206488070854 55.4672
7.143566093607822 55.2421
7.165908543567245 55.4394
7.188268694426048 55.9795
7.2106291193438095 56.1276
7.232972390625943 58.1068
7.255333366030969 72.7794
7.277677189091925 136.754
7.300038718428332 196.947
7.322400526130865 164.18599999999998
7.344745183422596 97.1094
7.367107550224791 63.8456
7.389452767901992 57.2901
7.411815697249891 56.4748
7.434161478756298 55.1245
7.456524974096713 55.1355
7.478888753837185 54.8152
7.501235387657368 55.3543
7.523599738562711 55.1255
7.545946944825532 55.3749
7.568311870344528 56.0367
7.5906770845765665 56.1641
7.613025156078678 57.4507
7.635390950099687 58.9458
7.657739602662809 57.9567
7.680105979923558 56.3567
7.702472650212829 56.2103
7.724822180948224 56.2012
7.747189439655568 56.5871
7.769539560075357 56.4627
7.791907410653562 57.0199
7.81425812420825 56.5394
7.836626570110925 56.8775
7.858995315087906 58.0278
7.881346924933401 58.3641
7.903716270417482 58.5149
7.926068482028405 59.0728
7.948438431475253 59.7078
7.9708086843180235 60.0973
7.993161805171116 60.7423
8.015532667162402 61.16
8.037886398416653 61.7839
8.060257873014221 62.1518
8.082629655331942 63.2294
8.104984308787587 63.9651
8.127356708900503 67.5965
8.149711981398308 74.3863
8.172085002766314 76.9872
8.194458336181368 72.9326
8.216814543847752 69.9676
8.23918850371002 69.777
8.26154533906492 70.5857
8.283919928836452 71.9806
8.306277395339652 72.6778
8.328652618483376 73.9737
8.351028159736202 76.1759
8.373386579575245 78.2596
8.395762759396959 80.4155
8.418121819038275 85.2969
8.440498640894003 100.185
8.462875785192262 116.249
8.485235811156207 125.536
8.507613602688501 158.569
8.529974277114228 239.166
8.552352719347912 373.54699999999997
8.574731488360351 627.27
8.59709314210385 1137.58
8.619472567021075 1791.6
8.64183487789147 2175.66
8.664214962183097 1852.99
8.686577933647762 1019.44
8.708958680784317 396.81199999999995
8.731339760774953 174.063
8.753703729764451 114.204
8.77608547780821 100.181
8.798450116065078 96.5284
8.820832535634787 93.1853
8.843215292401656 91.0435
8.865580941199045 90.0125
8.887964374703538 88.8244
8.910330701447199 90.2396
8.932714815164482 93.1423
8.955099270424924 92.2814
8.977466620733543 88.6142
8.999851761421976 85.7388
9.022219798361645 83.9931
9.04460562795561 83.1907
9.066991803441677 83.0345
9.089360876979615 82.5784
9.111747746589993 82.3039
9.13411751544971 81.8236
9.156505082664324 82.0199
9.178875550323522 82.4444
9.20126381862328 82.8046
9.223652438908596 82.9559
9.246023961427412 82.9859
9.26841328802173 81.9499
9.290785518039224 82.1336
9.313175554425882 82.4046
9.335565947154315 82.3863
9.357939245086508 82.9009
9.380330352834827 82.6588
9.40270436697103 82.8976
9.425096193225055 82.8605
9.447488380180165 83.8396
9.469863475295412 84.4854
9.492256385987508 84.6734
9.514632206018318 85.2182
9.537025843935714 85.4765
9.559402392368193 86.4677
9.581796761000229 87.3467
9.604191496441521 88.1606
9.626569144158516 92.2445
9.648964615551032 97.6032
9.671343000390081 99.9952
9.693739211225699 97.2336
9.716135793237463 94.1706
9.738515290448102 93.5024
9.760912617143402 93.9157
9.783292860202891 95.23700000000001
9.805690935076182 96.3459
9.828089385495742 97.1434
9.850470754023561 99.7295
9.872869957865444 108.66799999999999
9.89525208097539 125.895
9.917652041736662 140.372
9.940052382417589 138.615
9.962435644102392 140.329
9.984836746950979 170.28799999999998
10.007220771957746 230.84099999999998
10.029622640473708 329.99300000000005
10.052007432299963 502.51300000000003
10.074410069984072 789.7689999999999
10.096813093716005 1229.58
10.119199042482517 1708.45
10.141602840636468 1934.65
10.163989564971628 1632.09
10.186394141051062 965.1489999999999
10.208799107559706 429.50199999999995
10.231187001965623 201.062
10.253592751657669 129.976
10.275981430388155 114.786
10.298387966769793 114.458
10.320794897965431 117.837
10.343184759907361 116.727
10.36559248305461 109.954
10.387983138083852 105.00200000000001
10.410391656691655 106.455
10.432800574501677 116.08200000000001
10.455192425893369 131.833
10.47760214443012 155.981
10.499994797678786 198.295
10.522405320453982 272.307
10.54479877906917 387.954
10.567210109595656 506.05800000000005
10.5896218454736 576.874
10.612016518879773 514.96
10.634429067781074 363.76099999999997
10.656824555333241 215.71599999999998
10.679237920773568 133.326
10.701651695961992 98.9905
10.724048411481384 89.854
10.746463008485165 86.6593
10.768860546937125 85.1213
10.791275969274796 83.3404
10.81369180576079 82.1129
10.836090585366925 81.4876
10.858507252467449 79.6406
10.88090686379991 79.1447
10.903324365036394 78.7757
10.925724811614439 78.8882
10.948143150509463 80.4106
10.970561909719066 79.5863
10.992963615930844 77.6719
11.015383218085756 74.9411
11.037785768347074 73.6529
11.06020621697282 73.092
11.082627090322113 72.6294
11.105030913430326 72.1781
11.12745263854165 72.861
11.149857314510728 77.1344
11.172279894912576 84.4532
11.194702904450653 85.5362
11.217108866490921 80.5499
11.239532736615194 75.6435
11.26193956033512 72.9374
11.284364294577085 71.2913
11.306789462371718 69.1023
11.329197585398376 67.7285
11.351623622610898 67.3959
11.37403261614354 66.4256
11.396459526308487 66.4824
11.418869393879497 65.9375
11.441297180532617 65.5183
11.463725406927658 65.3497
11.486136592353875 65.2099
11.508565700543707 66.0819
11.530977768845315 68.21
11.553407762368774 69.4599
11.575838200059769 68.5353
11.598251599479612 66.0311
11.620682927815501 64.3575
11.64309721895548 64.0432
11.665529441478206 63.348
11.687962112597958 63.2294
11.710377748130886 63.2174
11.732811318753434 63.2494
11.755227854859067 63.1754
11.777662328529495 62.9268
11.800079768750786 62.8128
11.822515149015453 62.6954
11.844950984084935 63.1469
11.867369787303163 62.4149
11.889806534289491 62.7433
11.912226250487029 63.0023
11.934663912939751 62.9836
11.9571020346363 63.065
11.979523127133968 63.1247
12.001962169624331 63.7985
12.024384183972964 64.4362
12.046824150809913 67.2733
12.069264581333726 72.3643
12.091687985297767 78.1995
12.11412934550045 87.2704
12.136553680195208 101.72
12.158995973632788 122.56299999999999
12.181438735204349 149.83700000000002
12.20386447284199 177.886
12.226308172985636 206.89700000000002
12.24873485024193 202.945
12.271179492516982 173.949
12.293607112949127 134.811
12.316052700916226 101.105
12.338498763250042 82.2183
12.360927805303868 72.0304
12.383374818673879 67.3764
12.405804812803074 64.8341
12.428252780773262 64.6737
12.45070122756722 64.5281
12.473132656675375 64.3867
12.49558206341869 64.4856
12.518014453510101 64.5118
12.540464823770117 64.7159
12.562915677315177 64.8638
12.58534951575545 65.8352
12.607801338171472 68.1344
12.630236146511358 74.4026
12.652688941369085 80.5103
12.675124723177234 80.8523
12.697578494048786 76.312
12.720032754458185 70.6119
12.742470003354093 68.5409
12.764925245138771 68.0606
12.787363476431278 68.1247
12.809819703166806 68.6384
12.83227642391173 69.4259
12.854716135692716 69.7195
12.877173846755147 70.8399
12.899614549869717 71.0579
12.9220732548287 71.7092
12.94453245827299 72.1976
12.966974655289818 73.0467
12.989434858002571 74.1923
13.011878055298721 74.6708
13.034339260862497 75.6182
13.056800969391883 76.8601
13.079245674017244 78.9977
13.101708390774869 80.6063
13.12415410463411 86.9708
13.146617833206086 98.3755
13.169064559883248 110.205
13.191529303857127 124.82600000000001
13.213994557076367 145.761
13.236442809902437 180.392
13.258909083908291 232.22099999999998
13.28135835851934 294.616
13.30382565690295 362.327
13.326293469022952 414.283
13.348744283242008 427.216
13.371213125129904 370.105
13.39366497011003 274.759
13.416134845360597 184.07
13.438605238843131 128.239
13.46105863690397 106.803
13.483530069144786 105.00200000000001
13.505984506951902 109.59200000000001
13.528456981549432 118.712
13.550929978879088 132.80100000000002
13.573385983253365 155.993
13.595860028340867 191.896
13.618317081455832 242.002
13.64079217790333 295.20099999999996
13.663250283359057 343.027
13.685726434770173 373.912
13.708203115221277 344.49
13.730662806148091 272.70099999999996
13.75314054697177 196.547
13.775601299246777 135.10399999999998
13.798080104050406 101.12100000000001
13.820559442405358 86.5705
13.843021793671388 82.5177
13.865502201420897 80.6355
13.887965623051947 80.1084
13.910447103807167 78.8486
13.932929122629764 77.3301
13.955394156785959 76.7788
13.977877254034569 76.0358
14.000343367582113 75.2923
14.022827546871707 74.5638
14.045294743423524 73.8761
14.06778000837062 73.1414
14.090265817715476 73.2289
14.112734645763819 72.8379
14.13522154619454 72.941
14.157691466286913 72.5017
14.180179461423874 72.52199999999999
14.202668005486178 71.6267
14.22513957064374 70.904
14.247629214846473 70.4744
14.270101881097517 70.3509
14.29259262906496 70.5622
14.315083930490205 71.943
14.337558255389705 72.0198
14.360050666019726 72.0102
14.382526101071944 70.8102
14.405019624534942 69.4895
14.427513705993134 68.9346
14.449990813291825 69.0525
14.47248601302899 68.6231
14.49496423954951 68.83
14.517460561197822 68.8873
14.539939910570322 68.824
14.562437357763558 69.1874
14.58493536931253 70.5047
14.607416409993311 71.4331
14.62991555254159 72.4236
14.652397725157423 72.1257
14.674898002342799 71.4377
14.697398848433282 70.6472
14.719882725991326 71.0161
14.74238471217934 71.7478
14.764869730765593 74.4767
14.787372860692983 77.8734
14.809876564079925 82.3229
14.83236330125751 87.7175
14.854868153850365 95.8308
14.877356041159485 108.588
14.899862046604186 126.637
14.922351087688757 150.244
14.944858249632887 177.574
14.967365991421232 202.081
14.989856770231246 219.25900000000001
15.012365673994204 216.799
15.03485761569738 189.761
15.05736768508665 151.63299999999998
15.07987833888692 117.76
15.102372032001655 93.0906
15.124883856909658 77.959
15.14737872204565 72.8012
15.169891721717274 71.0149
15.192405310371893 70.7436
15.214901940621196 71.6262
15.237416709527137 71.7109
15.259914520936249 71.8551
15.282430473753607 70.9919
15.304947020131227 69.6742
15.327446610371178 68.5175
15.349964346154254 67.5112
15.372465126703139 67.0537
15.394984055556009 66.7741
15.417486030076159 66.5089
15.44000615566487 66.118
15.462526881230803 66.2068
15.485030653812652 66.5566
15.507552581617434 66.535
15.530057557334603 66.5208
15.55258069104857 66.3075
15.575104429329837 66.3096
15.597611216864632 65.9367
15.620136166564563 66.0539
15.6426441664095 66.6437
15.665170331202765 68.7215
15.687697105158826 71.62100000000001
15.710206930593545 75.1704
15.732734925158933 79.0951
15.755245972089478 85.0161
15.77777519094324 93.76299999999999
15.800287463046663 106.178
15.822817909869592 123.88799999999999
15.84534897229804 144.225
15.867863089299354 166.239
15.890395385222186 183.68200000000002
15.912910736597423 193.925
15.935444269699861 184.722
15.957978423016485 159.08700000000002
15.980495633101265 129.576
16.003031029129367 100.454
16.02554948280019 79.6541
16.048086125229432 69.1384
16.070623392487107 66.2174
16.09314371869582 65.6245
16.11568223789321 64.6846
16.13820381691126 63.3777
16.160743591742527 62.1221
16.183283996022084 60.9622
16.205807461423195 60.0868
16.228349126881973 59.2323
16.25087385432698 59.2814
16.27341678466365 58.64
16.29594277784926 58.8298
16.31848697676433 59.146
16.341031811604868 59.6771
16.36355971058487 60.0949
16.3861058195587 59.5079
16.40863499352978 58.0644
16.431182380342005 57.2901
16.453730407713202 56.4356
16.476261501364792 56.1892
16.498810812136167 55.8505
16.52134319004079 55.8616
16.54389378792203 55.6752
16.566445031001553 55.4446
16.588979342490088 55.3583
16.61153187824822 55.2243
16.634067483263312 54.9221
16.656621315414416 54.8567
16.679175797408888 54.7114
16.701713349928728 54.8435
16.72426913389191 55.0662
16.74680798922351 55.3124
16.76936507887444 55.3332
16.791905240734874 55.248000000000005
16.814463639794468 54.9797
16.837022695210294 55.1074
16.859564824093756 55.5768
16.882125194503903 56.4396
16.904668639217885 57.2048
16.927230328348003 57.5954
16.949792678493612 57.4269
16.972338104193863 56.8337
16.994901778652235 56.1289
17.017448529496576 55.902
17.040013531998152 55.9356
17.06257920018044 56.4352
17.0851279459922 57.0431
17.107694947817667 57.9811
17.130245028099072 58.6606
17.15281336730298 60.1144
17.17536478578733 61.6039
17.19793446610687 63.6496
17.220504818648422 66.5428
17.243058251703697 69.6357
17.265629950971032 73.8382
17.288184731571736 78.5794
17.310757781306908 82.0507
17.33333150794385 83.4208
17.355888317140174 83.1514
17.37846339986244 78.5357
17.401021565958885 72.5371
17.42359800851343 66.9655
17.44617513265564 62.8318
17.468735341390783 60.604
17.491261035594565 59.4377
17.51396340099364 59.2739
17.536490463869136 59.288000000000004
17.559018209820174 59.4634
17.58154663977963 59.4707
17.604251766089718 59.5505
17.626781572227713 59.6642
17.64931206518155 59.9711
17.671843245885103 60.4592
17.69455114821572 60.6285
17.717083712612634 60.9204
17.739616967569667 61.3253
17.762150914021706 61.6597
17.78486160749854 61.3697
17.807396945166804 61.8583
17.829932977143503 62.4421
17.85246970436452 63.9574
17.875183204129467 65.7699
17.897721330097664 67.898
17.920260154126645 70.3378
17.942799677153296 73.3037
17.9655159983646 76.7752
17.988056927677544 81.8194
18.010598558807683 88.9714
18.033140892692916 98.5163
18.05586005052525 108.654
18.07840379824407 120.109
18.10094825154059 131.355
18.12366954819864 138.884
18.146215420998306 140.961
18.16876200220057 131.994
18.191309292745153 119.76299999999999
18.214033452627167 105.816
18.236582170236648 93.9664
18.259131600016456 87.6755
18.281681742907335 86.7611
18.304408781233683 90.2109
18.32696035875955 94.7846
18.349512652227624 99.7224
18.372065662579683 104.436
18.394795594587553 105.759
18.41735004715306 103.67
18.43990521943684 98.0097
18.46246111238171 89.094
18.485193953325208 79.0368
18.507751296070428 71.4232
18.530309362314178 66.7644
18.552868153000343 64.2287
18.57560391815056 62.7092
18.59816416623245 62.02
18.620725141597372 61.5429
18.643286845190268 61.0961
18.666025549835414 60.5875
18.688588718427933 59.924
18.711152618092243 59.8794
18.73389353884365 59.8574
18.75645890921984 59.1965
18.77902501351406 58.8971
18.801591852673102 58.7447
18.824335739722738 58.1444
18.846904057212626 58.1557
18.8694731124168 57.9667
18.89204290628315 57.9605
18.914789774966803 57.6572
18.937361054791623 57.2178
18.959933076131318 57.2395
18.982505839934877 57.387
19.00525570560582 57.3497
19.027829963004184 57.283
19.05040496572238 57.2594
19.072980714710468 57.0199
19.095733592739563 57.2389
19.11831084296757 57.8304
19.140888842324735 58.248000000000005
19.16346759176222 58.2842
19.18622349753803 59.0658
19.208803755869358 59.7458
19.231384767143577 60.7993
19.253966532312948 61.9547
19.276725481241822 63.923
19.29930876296784 66.3637
19.3218928014549 69.3647
19.34465404436217 72.584
19.36723960516257 75.2803
19.389825925592426 76.7462
19.412413006605938 75.7117
19.43517731967805 72.8835
19.457765930683355 68.6308
19.48035530514408 64.2133
19.50294544401556 60.2559
19.525712842708348 57.2594
19.54830451925909 55.7773
19.570896963095727 54.5732
19.593490175174704 54.0894
19.616260674962184 54.1657
19.638855432416964 53.8377
19.661450960992624 53.9212
19.68404726164677 53.6326
19.706820878021247 53.4434
19.729418731756834 53.7252
19.752017360452857 53.2647
19.77461676506804 53.5812
19.797393513540218 53.67
19.819994478951667 54.1216
19.84259622316767 54.6255
19.8651987471481 54.9656
19.887978643247177 54.9506
19.91058273574792 55.5958
19.933187610901943 56.2403
19.955969879466828 57.285
19.97857632894404 58.6665
20.00118356396599 60.207
20.023791585494575 62.023999999999994
20.046577028914875 64.8671
20.069186632506966 66.9551
20.091797025500632 68.8994
20.114408208858933 69.7694
20.137196842715273 69.5899
20.159809615886765 68.4349
20.18242318232135 65.7728
20.20503754298326 63.6751
20.227829382875154 62.6774
20.250445341109344 62.3949
20.27306209647285 62.9506
20.29567964993108 63.8196
20.31847471147704 65.0406
20.34109387027612 65.8522
20.363713830075454 65.6881
20.386334591841646 64.7652
20.409132890679302 62.3578
20.431755265564437 59.1185
20.454378445325528 56.4564
20.477002430930366 54.1094
20.499803982716553 52.8859
20.522429589228004 52.1426
20.54505600449589 51.6753
20.567683229489194 51.4366
20.590488049900088 50.9862
20.61311690359731 50.4736
20.63574656993626 50.0427
20.658553853717297 49.8205
20.681185154618298 49.9396
20.703817271080066 49.8679
20.72645020407368 49.3589
20.749260783967177 49.3144
20.771895359337133 49.3005
20.794530754161617 49.2969
20.817166969412938 49.0305
20.83998086114876 49.0125
20.86261872660049 48.8235
20.885257415405402 48.8697
20.90789692853701 48.7436
20.930714147864748 48.6064
20.953355319030678 48.6634
20.97599731745334 48.9277
20.99864014410749 48.6805
21.021460706796564 48.8901
21.044105199328826 48.9837
21.06675052302631 49.0536
21.089396678865015 49.2837
21.112220600704806 49.5528
21.134868430275347 49.9703
21.15751709492456 50.257
21.180166595629693 50.675
21.202993892429635 51.1159
21.22564507473034 51.3192
21.24829709602816 51.4625
21.27112693608965 51.5201
21.293780644891275 51.3616
21.316435195634053 50.8925
21.339090589297417 50.331
21.361923832041875 49.8091
21.384580921090404 49.3258
21.407238856007325 48.6409
21.429897637773326 48.6685
21.45273429906592 48.6867
21.475394784108598 48.5774
21.498056118951983 48.5186
21.520718304578022 48.6728
21.543558400304388 48.5957
21.566222297108816 48.8487
21.58888704765135 49.0202
21.61155265291521 49.2481
21.63439619898156 49.6827
21.657063523335786 49.9809
21.67973170537063 50.2613
21.7024007460706 50.8962
21.72524775840385 51.6089
21.747918526116475 52.603
21.770590155457388 53.7829
21.79326264741238 55.2708
21.816113141960237 57.0723
21.838787368860547 58.7466
21.861462461341976 60.3874
21.884315579735777 62.4672
21.90699241312273 63.9514
21.92967011506078 64.8209
21.95234868653799 64.7026
21.9752053151131 63.4418
21.997885635446785 61.8823
22.020566828293532 60.0151
22.04324889464272 58.3649
22.066109049404666 56.9675
22.088792872571794 56.3795
22.111477572219204 56.3473
22.1341631493376 56.3756
22.157026846313123 56.1501
22.179714188221507 55.5649
22.202402410582668 54.6132
22.22509151438863 53.1482
22.24795876962584 51.7199
22.270649646204486 50.9519
22.293341407213727 50.37
22.316034053646906 49.4892
22.338904883215342 49.3815
22.36159931041458 49.2832
22.38429462602756 49.2356
22.40699083104897 49.0349
22.429865251039757 49.2009
22.452563244831367 49.2358
22.47526213102522 49.1758
22.49813925616515 48.9503
22.520839937143307 48.7509
22.543541513520587 48.7667
22.56624398629403 48.5465
22.589124730075895 48.7031
22.611829005656723 48.925
22.63453418063466 48.8194
22.657240256008077 48.8786
22.680124634582935 49.1524
22.70283252079775 49.5023
22.725541310413075 49.6558
22.74825100442868 49.7626
22.771139033969575 50.2587
22.79385054687155 50.4502
22.81656296718292 50.9852
22.83927629590484 51.7481
22.862167992606945 52.9304
22.88488314827121 54.0446
22.907599215359284 55.0558
22.93031619487366 56.2243
22.953211574954405 57.05
22.975930389478226 57.8842
22.998650119445763 58.26
23.02137076586092 57.6264
23.044269845560063 56.4865
23.06699233506288 55.0635
23.089715744034912 53.2185
23.112617610931565 51.638000000000005
23.135342869061212 50.3399
23.158069049684816 49.5827
23.1807961538087 49.13399999999999
23.20370174880544 49.0222
23.226430710184808 48.9485
23.249160598093425 49.1137
23.271891413539002 49.004
23.294800752937697 48.9506
23.31753343374794 48.968
23.340267045128353 49.3771
23.36300158808808 49.6783
23.38591468821339 49.8192
23.408651104658304 50.0979
23.431388455719986 50.6829
23.454126742409 51.7666
23.4770436196085 52.7133
23.499783787914662 53.9186
23.522524894889884 54.8892
23.54526694154616 55.9205
23.56818761219047 56.8984
23.59093154860734 57.6027
23.613676427751283 58.1578
23.636422250635754 57.4326
23.659346731118656 56.2285
23.68209445191868 54.1831
23.704843119509587 51.9185
23.72759273490623 50.0755
23.750521041644767 48.7364
23.77327256312355 47.5472
23.796025035462787 46.8933
23.818956224555475 46.3125
23.841710609113413 46.1932
23.86446594758979 46.0344
23.887222241002014 45.7442
23.910157285144578 45.4205
23.932915498962537 45.5805
23.955674670778713 45.3433
23.978434801611975 45.1575
24.001373717286125 44.9605
24.024135776723917 44.8296
24.046898798245582 44.6424
24.06966278287146 44.5941
24.092605586582614 44.6454
24.115371508023642 44.4378
24.1381383956401 44.2311
24.16090625045381 44.11
24.183852958731244 44.0532
24.206622758582608 44.0259
24.229393528706886 43.8281
24.252165270127392 43.8632
24.27511589952438 43.8007
24.297889594216997 43.5576
24.32066426328598 43.5633
24.34343990775613 43.6819
24.36639447485003 43.3665
24.38917208083877 43.4089
24.41195066531332 43.2046
24.43490819850244 43.1695
24.457688750692377 43.1399
24.48047028445616 43.2079
24.503252800821233 43.2936
24.526214300784112 43.1932
24.548998793132213 43.0985
24.57178427117417 43.074
24.59457073593893 43.1643
24.617536219319863 43.0414
24.64032466834748 43.2072
24.663114107195035 43.0156
24.685904536893013 42.7377
24.708874020360852 42.7096
24.731666442613744 42.5395
24.754459858818787 42.5592
24.777254270007962 42.5287
24.80022777025625 42.2835
24.82302418230472 42.3316
24.845821592443674 42.4757
24.86862000170663 42.2807
24.891597535453727 42.2599
24.914397953892728 42.4674
24.93719937456671 42.3035
24.96000179851076 42.3827
24.98298338249997 42.5332
25.00578782394922 42.8443
25.028593271784167 42.9417
25.05157790644186 43.2261
25.07438537804115 43.4359
25.097193859145293 43.726000000000006
25.120003350792075 43.8892
25.142992065061257 44.2634
25.165803588823465 44.4085
25.18861612625217 44.6151
25.211429678386736 44.8463
25.234422489079968 44.8361
25.257238081693636 44.8661
25.280054692141732 45.1912
25.3028723214652 45.0344
25.325869245420463 44.9464
25.348688923599397 45.0442
25.371509623787006 45.1111
25.394331347025812 44.7723
25.41733240110666 44.4872
25.440156181590016 43.8859
25.46298098826268 43.2089
25.48580682216873 42.8458
25.50881202326435 42.1221
25.53163992281684 41.7353
25.55446885274561 41.3629
25.577298814096377 41.0311
25.600308179121807 41.0716
25.623140214533745 41.0266
25.64597328451537 40.9164
25.66898578564376 40.6825
25.691820936010206 40.7133
25.714657124097695 40.715
25.737494350954734 40.6338
25.760511045684957 40.4986
25.783350361364224 40.6928
25.806190718969255 40.6044
25.82903211955018 40.9216
25.852053024868923 40.7854
25.874896522722523 40.7104
25.897741066713106 40.7649
25.920586657892454 40.9823
25.943611790812668 41.0158
25.966459487728237 41.062
25.989308234998564 41.1421
26.01215803367705 41.4059
26.03518741123814 41.4925
26.05803932412957 41.5665
26.080892291600094 41.5084
26.10374631470478 41.7301
26.12677995397268 41.8613
26.14963609978026 41.839
26.172493304397875 41.4154
26.19535156888223 41.3188
26.218389486949604 40.9333
26.241249882640123 40.7282
26.26411134137826 40.4362
26.28715248187403 40.4138
26.31001607820869 40.3472
26.3328807407756 40.1298
26.35574647063438 40.2581
26.37879191991473 40.2001
26.401659795896734 40.3994
26.424528742360263 40.2846
26.447398760366614 40.3328
26.470448535598294 40.7122
26.49332070826805 40.9865
26.516193955675355 41.2805
26.53906827888316 41.357
26.562122397260108 41.6723
26.584998883685063 41.8995
26.607876449110325 42.0585
26.63075509460056 42.0502
26.65381357334404 42.2524
26.67669439061878 42.3321
26.699576291163382 42.2728
26.722459276044212 42.2571
26.745522132402975 41.8881
26.768407297649354 41.6571
26.791293550442003 41.2612
26.814180891848974 41.0979
26.837248143099337 40.6677
26.860137673466657 40.6675
26.88302829566349 40.3543
26.90592001075963 40.2797
26.92899167420566 40.1425
26.951885586870763 39.6786
26.974780595655517 39.5378
26.99785558178161 39.4282
27.020752794605112 39.1608
27.043651106772522 38.9506
27.06655051935668 39.0518
27.089629948036183 38.8022
27.112531573292053 38.8951
27.135434302194138 38.7308
27.158338135817015 38.6793
27.181422024430987 38.7661
27.204328079372566 38.5197
27.22723524226965 38.5749
27.250143514198573 38.7336
27.273231880156334 38.6869
27.296142382065014 38.6128
27.319053996245536 38.5295
27.341966723775965 38.7358
27.365059584515222 38.6382
27.38797455070062 38.6418
27.410890633481237 38.5923
27.433807833936918 38.5378
27.456905206923906 38.6368
27.47982465472398 38.6311
27.502745223449743 38.6263
27.525666914182825 38.7448
27.548768816912457 38.7161
27.571692763693633 38.5868
27.59461783573812 38.4884
27.617723149491244 38.4034
27.640650484125285 38.2523
27.66357894728264 38.260999999999996
27.686508540048052 38.3078
27.709618414237887 38.2244
27.732550278321757 38.016
27.755483275279115 37.9602
27.778417406196485 37.9655
27.801531858397514 37.9086
27.824468269376716 37.8602
27.847405817586786 37.8995
27.870344504116094 38.1977
27.893463551932008 38.2265
27.916404527281053 38.2972
27.93934664422563 38.4612
27.962289903855886 38.5396
27.98541356491974 38.6666
28.00835912214229 38.9283
28.03130582533231 39.1718
28.054253675581805 39.2427
28.077381967556104 39.1196
28.100332124185126 39.2223
28.123283431160893 39.1025
28.146235889577238 39.0688
28.169368830154156 38.8403
28.192323603752033 38.5704
28.215279532083304 38.3395
28.238415973016764 38.2593
28.261374223145094 38.0976
28.284333631303806 37.8769
28.307294198589954 37.7089
28.330435319167677 37.4084
28.353398217078915 37.1793
28.376362277420153 37.0598
28.39932750129032 36.6514
28.422473319286713 36.6693
28.44544088262495 36.5774
28.468409612800283 36.4639
28.491379510913497 36.1701
28.51453004413313 36.1174
28.53750229057244 36.19
28.56047570826344 36.1738
28.583450298308804 36.0123
28.606605564586562 35.6948
28.629582511831156 35.9303
28.65256063474956 35.865
28.675539934446338 35.8858
28.698699951647605 35.7787
28.72168161743193 35.5679
28.74466446331978 35.6033
28.767648490417624 35.597
28.790813276438353 35.5198
28.813799678527303 35.5815
28.836787265157085 35.6323
28.859955641890075 35.5609
28.882945610203045 35.4931
28.905936766392035 35.4357
28.928929111566863 35.6655
28.952102288520145 35.5002
28.975097024308607 35.3913
28.998092952423807 35.1641
29.021090073977508 35.1833
29.04426806913204 35.1223
29.067267590245258 34.8214
29.090268308143695 34.622
29.11327022394099 34.7555
29.13645305530891 34.6427
29.159457379627167 34.5003
29.18246290519685 34.5994
29.20546963313352 34.5939
29.22865731875826 34.4623
29.25166646419296 34.4548
29.27467681535305 34.4016
29.29768837335608 34.438
29.320880931312562 34.5184
29.34389491580634 34.4143
29.366910110507334 34.3492
29.38992651653503 34.4382
29.41312396492981 34.3335
29.436142806456754 34.222
29.45916286268059 34.2287
29.48236399319994 34.115
29.50538649169417 34.0725
29.528410208259935 33.9594
29.55143514402014 33.723
29.574641196749695 33.4591
29.597668583816574 33.393
29.6206971934585 33.2851
29.64372702680042 33.4276
29.666938019934474 33.2091
29.689970313635285 33.1805
29.713003834422636 33.1438
29.73603858342347 33.1621
29.759254535188578 33.0441
29.78229175361658 33.0047
29.80533020365064 33.1112
29.82836988641968 33.0849
29.85159081507472 32.9319
29.874632976355343 32.9701
29.89767637376955 32.8944
29.920721008448314 32.8542
29.9439469322847 32.882
29.96699405457564 32.7409
29.9900424175358 32.7585
30.013092022298157 32.6145
30.03632295963995 32.6247
30.059375061131373 32.6093
30.08242840783577 32.6229
30.105483000888153 32.614000000000004
30.128718970092244 32.4963
30.151776069006917 32.4854
30.17483441768648 32.6373
30.198074175317235 32.5869
30.221135036724256 32.5539
30.24419715131772 32.4277
30.267260520236203 32.5096
30.290505341942243 32.4629
30.313571232750228 32.558
30.336638381310948 32.513000000000005
30.35970678876503 32.3934
30.38295669299435 32.3432
30.40602763151657 32.391999999999996
30.429099832366074 32.302
30.452173296685572 32.1884
30.47542830191959 32.2716
30.498504306502497 32.0601
30.521581577995562 32.2185
30.544660117543582 32.3743
30.56792024229725 32.2722
30.59100133132069 32.2721
30.614083691845494 32.1902
30.637167325018545 32.2739
30.660432587840603 32.3853
30.683518779717886 32.3922
30.70660624769615 32.314
30.729694992924372 32.2911
30.75296541239743 32.2932
30.77605672557558 32.3011
30.799149319462742 32.2527
30.8224236211637 32.1324
30.845518789950724 32.1312
30.868615242910597 32.0604
30.891712981195973 31.823
30.91499247215866 31.6712
30.938092794619365 31.7085
30.96119440587579 31.6226
30.984297307082752 31.5917
31.00758200598383 31.4039
31.030687500658694 31.4298
31.053794288760695 31.4015
31.076902371446767 31.1515
31.100192296997445 31.1915
31.12330298246119 31.1332
31.14641496599209 31.0534
31.169528248749216 31.1193
31.19282341969534 31.0775
31.215939314557186 31.0583
31.239056512134788 31.160999999999998
31.262175013589378 31.0876
31.28547544871168 31.0405
31.30859657161541 30.9584
31.331719001892175 30.9518
31.35484274070538 31.0706
31.378148458819545 31.0621
31.401274828443725 31.0605
31.424402510106933 31.0799
31.447712205419993 31.1949
31.470842524931633 31.0402
31.493974159989783 30.9164
31.51710711176168 31.0142
31.54042212308802 31.0011
31.563557722100917 30.9044
31.586694641341655 30.7628
31.609832881979628 30.7298
31.63315322823208 30.6084
31.656294125521327 30.4951
31.679436347728515 30.38
31.70257989602529 30.4459
31.725905596152327 30.3343
31.74905181052835 30.2871
31.772199354521323 30.313000000000002
31.79534822930507 30.2672
31.818679302290967 30.2874
31.84183085259981 30.3384
31.864983737233473 30.2607
31.88813795736804 30.1572
31.911474422233013 30.1226
31.934631327356435 30.1629
31.9577895715215 30.1811
31.980949155906522 30.1713
32.004291031706956 30.1947
32.027453310562606 30.0038
32.05061693318573 29.8694
32.07396288236386 29.9334
32.09712920658542 29.8572
32.12029687812702 29.8013
32.14346589817093 29.7405
32.166817291729984 29.5429
32.18998902288583 29.5825
32.21316210610336 29.514
32.23633654256711 29.4459
32.259693399663725 29.4904
32.282870556771144 29.2826
32.30604907069099 29.2478
32.329228942610065 29.2471
32.35259128243769 29.1943
32.375773884550505 29.1229
32.398957848235646 29.07
32.422143174682176 28.9968
32.445511016471215 28.8956
32.468699082679954 28.793000000000003
32.49188851523011 28.7802
32.51507931531304 28.7971
32.538452678331 28.7462
32.56164622776311 28.6578
32.58484114831493 28.6613
32.60803744118015 28.7066
32.631416344731896 28.6291
32.654615396551876 28.4933
32.67781582427913 28.5273
32.701198898634416 28.4981
32.72440209253756 28.4181
32.747606665947124 28.4559
32.77081262006088 28.361
32.79420126883317 28.2157
32.81740999876112 28.2542
32.840620112999424 28.1907
32.86383161274818 28.1721
32.88722585534586 28.2063
32.91044014056596 28.1461
32.933655814909734 28.0589
32.95687287957963 28.0932
32.98027273544904 28.0345
33.00349259526636 28.0264
33.026713849030116 28.0371
33.04993649794511 28.0648
33.073341986570746 27.8793
33.09656744032826 27.9587
33.11979429286444 27.9647
33.14302254538647 27.9002
33.166433686291185 27.8222
33.18966475336992 27.7617
33.212897224069096 27.7843
33.23613109959831 27.745
33.259547912343415 27.741
33.2827846121627 27.6459
33.306022720453775 27.6177
33.32926223842861 27.5401
33.352684742614166 27.5311
33.37592709463173 27.5107
33.399170859982064 27.469
33.422597648419426 27.3775
33.44584425514446 27.2564
33.46909227885668 27.2206
33.4923417207723 27.1336
33.51577423505344 27.1502
33.539026528130385 27.0938
33.56228024307245 27.0129
33.585535381098246 26.9032
33.60897364093058 26.8721
33.63223163992385 26.8872
33.6554910656699 26.8118
33.678751919389796 26.8319
33.702195944520106 26.7441
33.72545966903325 26.7644
33.74872482519663 26.6586
33.771991414233746 26.5946
33.79544122444841 26.5809
33.81871069412428 26.5242
33.84198160035767 26.4725
33.86525394437455 26.5523
33.88870955949969 26.4293
33.911984794020626 26.4075
33.93526147001624 26.3377
33.958539588715006 26.3516
33.98200102861669 26.2411
34.0052820477047 26.1434
34.02856451319451 26.2071
34.05203033759056 26.0025
34.07531571090147 26.1265
34.09860253431845 26.1139
34.121890809074316 25.96
34.145362493118924 26.0346
34.16865368561615 25.9661
34.191946333164054 25.9561
34.21524043699793 25.9187
34.23871800066799 25.9179
34.26201503218366 25.8538
34.28531352370466 25.8081
34.30861347646881 25.6756
34.33209693978188 25.6764
34.3553998301885 25.721999999999998
34.378704185565205 25.4955
34.402010007152356 25.4982
34.42549939016683 25.5474
34.44880815937748 25.4735
34.472118398533134 25.4181
34.49543010887669 25.3805
34.51892543169198 25.2854
34.54224009966052 25.2728
34.56555624255917 25.2485
34.58887386163339 25.1519
34.61237514439016 25.0956
34.6356957311114 25.0523
34.65901779775809 25.0821
34.68252356662995 24.9403
34.705848608458616 25.0404
34.72917513396849 25.0192
34.75250314440949 24.9648
34.77601490857862 24.9029
34.799345904259795 24.7702
34.82267838863559 24.8217
34.846012362958525 24.8447
34.869530142679984 24.7603
34.89286711232212 24.7066
34.91620557568269 24.7352
34.93954553401677 24.7004
34.9630693495876 24.5853
34.986412313340814 24.6454
35.00975677584668 24.6134
35.033102738362956 24.5458
35.05663261012228 24.4798
35.0799815881786 24.5099
35.10333207003229 24.4359
35.12668405694369 24.4732
35.150220005273056 24.4639
35.17357501786656 24.3531
35.19693153931268 24.3283
35.220289570874385 24.3184
35.24383161619786 24.3404
35.267192683604904 24.3591
35.290555264930376 24.1842
35.314101899412165 24.1785
35.33746752422433 24.0635
35.36083466676374 24.0477
35.38420332829803 24.1064
35.407756095629054 24.1609
35.43112781085063 24.0916
35.45450104888391 24.1184
35.477875810999194 24.1047
35.50143473172161 23.9644
35.52481255774625 24.0359
35.54819191167777 23.9554
35.57157279478914 23.8105
35.595137889488406 23.8732
35.61852184675279 23.8413
35.641907337029984 23.8336
35.665294361595684 23.7133
35.68886565090076 23.6845
35.7122557598848 23.6568
35.73564740699838 23.6375
35.759040593519934 23.5416
35.78261809810353 23.5983
35.80601437933051 23.4977
35.829412203814705 23.4964
35.85281157283719 23.3347
35.876395313415884 23.3583
35.8997977874528 23.3465
35.92320180988546 23.2922
35.946790244133936 23.1871
35.97019737933222 23.2776
35.993606066789866 23.1349
36.01701630779276 23.1755
36.04061101440684 23.1122
36.06402437852291 23.0997
36.08743930005611 23.1598
36.1108557802951 23.0183
36.13445678011326 23.0048
36.15787639383515 22.9416
36.18129757014299 22.9439
36.20472031032821 22.7945
36.22832762423364 22.8464
36.25175350829375 22.8348
36.275180960119776 22.7264
36.298609981005924 22.7402
36.32222362992669 22.7923
36.34565580510207 22.7831
36.36908955323448 22.7722
36.39252487562093 22.585
36.416144880530226 22.5533
36.43958336764275 22.5094
36.463023432914625 22.5429
36.486465077645676 22.4366
36.51009145956204 22.4895
36.53353627947859 22.4649
36.55698268276811 22.5222
36.58043067073321 22.4466
36.60406345072071 22.3049
36.62751462435344 22.2456
36.65096738658405 22.2643
36.67460498210655 22.2301
36.69806093788647 22.2039
36.72151848619297 22.0942
36.744977628333636 22.1001
36.76862165890998 22.1034
36.79208400512205 22.0919
36.81554794910557 22.0934
36.83901349217101 21.9836
36.862663978991606 21.9085
36.88613273667352 21.988000000000003
36.90960309738324 21.9061
36.933075062434064 21.8935
36.95673202673572 21.7951
36.98020721697122 21.7297
37.003684015502365 21.7173
37.027162423645365 21.7377
37.050825886711465 21.6928
37.07430753063053 21.5645
37.09779078812467 21.5452
37.121275660513014 21.5183
37.144945643673694 21.5412
37.16843376245278 21.564
37.19192350009803 21.5249
37.215414857931435 21.5127
37.239091382563885 21.4737
37.262585997426164 21.447
37.28608223645736 21.3687
37.309763684451696 21.308000000000003
37.33326318851098 21.224
37.356764320726555 21.2636
37.380267082425526 21.2687
37.40395510942588 21.2428
37.42746114683234 21.0953
37.45096881771841 21.0327
37.474478123414166 21.0761
37.49817275092816 20.9795
37.52168534303452 20.9944
37.54519957395567 20.8971
37.568715445024665 20.9308
37.592416694607714 20.9
37.61593586281424 20.9455
37.63945667518264 20.9293
37.66297913304891 20.8431
37.68668702630454 20.7904
37.710212792059274 20.6888
37.733740207334854 20.6898
37.757269273470364 20.671
37.780983832050374 20.6293
37.80451621684926 20.6507
37.82805025654007 20.5968
37.851585952464795 20.5657
37.8753071980695 20.5013
37.89884622345676 20.4715
37.92238690911902 20.447
37.94611318753442 20.4231
37.969657210779765 20.338
37.99320289834801 20.3031
38.016750251586465 20.2518
38.04048325513017 20.2625
38.06403395679343 20.2808
38.087586328183946 20.2178
38.11114037065203 20.1833
38.13488012115898 20.2239
38.1584375229181 20.1092
38.181996599821 20.0167
38.205557353221124 20.0659
38.229303872575656 19.9753
38.2528679961576 19.9439
38.27643380031219 19.9673
38.30000128639589 19.8955
38.32375459653193 19.9138
38.34732546371299 19.8868
38.37089801690786 19.8273
38.39447225747609 19.7815
38.418232380377425 19.7469
38.441810012983396 19.7207
38.46538933705673 19.7333
38.488970353960084 19.6509
38.51273731166058 19.6855
38.536321731567014 19.7012
38.55990784840681 19.5966
38.58367995004091 19.5645
38.60726947812959 19.482
38.63086070726198 19.5064
38.654453638806274 19.522000000000002
38.678232613930824 19.5087
38.70182896773327 19.3987
38.72542702806741 19.3589
38.7490267963045 19.3308
38.77281266709232 19.3376
38.79641586862214 19.3138
38.8200207821842 19.2053
38.843627409152944 19.2639
38.86742019782782 19.1568
38.891030269149255 19.1752
38.914642058016156 19.1671
38.938255565806124 19.134
38.96205529464307 19.0461
38.98567225787121 19.0353
39.00929094417078 19.0089
39.03291135492255 19.0376
39.05671804624804 18.9964
39.080341923549106 18.94
39.103967529460334 18.8874
39.127594865365744 18.8742
39.15140854155791 18.8516
39.17503935514948 18.7745
39.19867190290282 18.792
39.22249083587951 18.7609
39.24612686969409 18.7806
39.269764641845306 18.7389
39.293404153722804 18.6528
39.317230110864074 18.5743
39.34087311998506 18.5333
39.36451787301696 18.5961
39.388164371352595 18.4811
39.41199737518003 18.4872
39.43564738196752 18.5016
39.45929913825317 18.3975
39.48295264543308 18.4353
39.506792718520884 18.3463
39.530449745387216 18.3303
39.55410852735203 18.4016
39.57776906581474 18.355
39.60161623079 18.266
39.625280300200025 18.2439
39.64894613032202 18.1609
39.67261372255866 18.152
39.6964680021016 18.1453
39.72013913657293 18.1943
39.74381203738292 18.1481
39.76748670593756 18.0866
39.79134812278169 18.0993
39.81502634488497 18.0389
39.83870633896685 17.9396
39.862388106436654 17.8973
39.88625668336918 17.9317
39.90994201572829 17.9391
39.933629125719285 17.8306
39.957503091207826 17.8276
39.9811937746168 17.8446
40.00488623990914 17.7593
40.02858048850006 17.784000000000002
40.05246165409549 17.7648
40.076159487492085 17.6397
40.099859108448875 17.6459
40.123560518384345 17.5849
40.1474489070226 17.6298
40.171153913178564 17.5474
40.194860712584955 17.4999
40.2185693066637 17.5833
40.242464941335314 17.4881
40.26617714307655 17.4936
40.289891143772046 17.4716
40.3136069448471 17.5012
40.33750984859743 17.4472
40.3612292688043 17.3491
40.3849504936829 17.3025
40.40867352466194 17.3096
40.43258372059144 17.2867
40.45631038219906 17.265
40.48003885420956 17.2056
40.503769138055105 17.1673
40.52768664931955 17.194000000000003
40.55142057531802 17.1588
40.57515631746428 17.1531
40.599079334038514 17.1318
40.62281872700477 17.0393
40.64655994043941 16.9916
40.67030297578061 16.9893
40.69423334835778 16.9765
40.71798004609188 16.9203
40.74172857006355 16.9177
40.76547892171441 16.9182
40.7894166736039 16.9315
40.813170699248566 16.8373
40.83692655691388 16.7689
40.86068424804498 16.7706
40.884629402612525 16.7266
40.908390779366385 16.7756
40.932153993938 16.7183
40.95591904777605 16.7066
40.979871628443995 16.7023
41.003640379561936 16.6658
41.02741097430883 16.6552
41.05118341413683 16.6223
41.075143444384416 16.5535
41.098919593177826 16.5649
41.1226975914255 16.5241
41.14647744058318 16.4115
41.170444943946755 16.3938
41.19422851378379 16.4543
41.218013938914645 16.4068
41.24198706625173 16.3288
41.26577622087193 16.3202
41.289567235177785 16.284000000000002
41.31336011063129 16.2703
41.337340752422875 16.1992
41.361137369129835 16.2157
41.38493585138705 16.1736
41.40873620066004 16.201
41.43272438060107 16.1536
41.45652848292052 16.0999
41.48033445666918 16.0521
41.50414230331616 16.0344
41.528138045159764 16.0418
41.551949656675205 15.9973
41.575763145513235 16.0116
41.59957851314666 15.9987
41.62358184070442 15.9491
41.64740098505737 15.9234
41.6712220126409 15.9488
41.69504492493139 15.8459
41.71905586207357 15.8713
41.74288256296395 15.7735
41.766711153007456 15.7566
41.79054163368412 15.7923
41.814560204340054 15.7376
41.838394485526365 15.697000000000001
41.86223066180303 15.7219
41.88625497706819 15.6135
41.910094962812 15.6451
41.93393684811168 15.584000000000001
41.95778063445365 15.5347
41.981812625263366 15.4983
42.00566023303407 15.4991
42.029509746323676 15.499
42.05336116662236 15.3914
42.077400857069705 15.4724
42.10125611078846 15.4313
42.12511327600405 15.4096
42.14897235421036 15.3926
42.173019768448455 15.3079
42.19688269209613 15.3413
42.22074753323349 15.219000000000001
42.24461429335818 15.2541
42.268669455600495 15.2149
42.292540073217886 15.1882
42.31641261433284 15.1599
42.34028708044675 15.1122
42.36435001496739 15.1086
42.38822835065557 15.1137
42.41210861586426 15.0388
42.4359908120986 15.0423
42.46006154323262 15.0332
42.48394762115317 14.9878
42.507835634632315 15.0096
42.531912233047436 14.970999999999998
42.55580413732265 14.9699
42.579697981698 14.9156
42.60359376768525 14.8501
42.62767820545945 14.8425
42.65157789440821 14.8205
42.67547952952185 14.780999999999999
42.699383112316 14.7788
42.72347541395347 14.7045
42.74738291190531 14.725999999999999
42.771292362102166 14.7016
42.795203766063516 14.7081
42.819303956130405 14.6668
42.843219287476536 14.6284
42.86713657716324 14.5832
42.89105582671383 14.5989
42.91516392983864 14.5282
42.939087119032166 14.4454
42.963012272677304 14.4616
42.98693939230129 14.5197
43.01105543317513 14.4716
43.034986504731386 14.4371
43.05891954686589 14.3972
43.08285456110972 14.3678
43.10697856448665 14.3951
43.130917542983475 14.2734
43.15485849820081 14.3063
43.17880143167367 14.2681
43.20293342237094 14.2414
43.226880332449 14.2022
43.25082922540554 14.2245
43.27496722682525 14.1581
43.29892010567796 14.1376
43.32287497204102 14.0865
43.34683182745632 14.079
43.370977859791836 14.0708
43.39493871351105 14.0656
43.41890156092628 14.0355
43.44286640358341 13.9586
43.46702049182749 13.9735
43.49098934522816 13.8896
43.51496019852649 13.9337
43.5389330532723 13.9642
43.56309522248204 13.9014
43.58707210044314 13.8398
43.61105098451946 13.8427
43.63503187626491 13.7801
43.659202151562134 13.7975
43.68318707902681 13.755
43.70717401884041 13.7617
43.731162972560874 13.7537
43.75534137913236 13.6835
43.779334381108384 13.6559
43.803329401683186 13.6223
43.82732644241872 13.6505
43.8515130055166 13.6106
43.87551410707659 13.552
43.89951723350145 13.5486
43.923709934595614 13.5107
43.94771713129917 13.5353
43.97172635758096 13.5085
43.99573761501002 13.4719
44.0199385169922 13.4069
44.04395385732619 13.4226
44.067971233533086 13.3856
44.09199064718605 13.3545
44.11619977548961 13.3563
44.14022328470671 13.3146
44.16424883610785 13.3196
44.18827643127035 13.3321
44.21249381139513 13.3134
44.236525514814076 13.225
44.26055926674478 13.1876
44.28459506876863 13.1905
44.3088207262813 13.0984
44.33286064928722 13.1432
44.35690262714919 13.1126
44.38094666145278 13.0519
44.4051806219871 13.0865
44.42922879003185 13.0833
44.45327901929361 13.0585
44.477331311362136 12.9829
44.501573600619416 12.9832
44.525630039221795 12.9123
44.54968854541895 12.9194
44.573937102200176 12.8903
44.5979997645541 12.8823
44.622064499300315 12.8348
44.64613130803592 12.8465
44.67038823869318 12.8316
44.69445921643748 12.8177
44.718532272981385 12.7691
44.742607409926194 12.7754
44.76687274034801 12.7464
44.79095205918753 12.6653
44.81503346325094 12.6777
44.839116954143876 12.6548
44.86339071028742 12.5913
44.88747839599524 12.5439
44.91156817336837 12.5729
44.93566004401666 12.5956
44.959942251908146 12.5698
44.984038330325966 12.5164
45.00813650686762 12.4559
45.03223678314731 12.4845
45.05652746888232 12.4744
45.08063196592069 12.4427
45.104738567558705 12.3936
45.128847275414856 12.3718
45.15314646515866 12.3412
45.17725940679741 12.3497
45.20137445952892 12.3295
45.22568004865265 12.31
45.24979934496396 12.2945
45.27392075725247 12.276
45.29804428714431 12.2463
45.322358426247604 12.2132
45.346486212804315 12.2197
45.370616121861914 12.1775
45.39474815505086 12.1811
45.41907087049246 12.1094
45.4432071734666 12.1429
45.46734560548283 12.1204
45.49148616817604 12.1257
45.51581748638564 12.0365
45.5399623320197 12.0255
45.56410931325473 11.9893
45.58825843173002 12.0188
45.61259837920865 12.023
45.636751793816 11.9671
45.66090735060093 11.9314
45.68506505120716 11.8678
45.7094136545275 11.8663
45.73357566449271 11.8524
45.75773982322992 11.8456
45.78190613238733 11.8271
45.806263418194064 11.7936
45.83043404997326 11.7619
45.85460683713677 11.7695
45.87897065658495 11.7225
45.90314777634752 11.7201
45.92732705646868 11.7299
45.9515084986045 11.6842
45.97588104735473 11.6448
46.00006683541565 11.6427
46.02425479047904 11.6007
46.04844491420549 11.5664
46.0728262191024 11.5686
46.09702070211635 11.5451
46.12121735879483 11.5758
46.14541619080294 11.5078
46.169806278764455 11.4712
46.194009483459034 11.4959
46.21821486849841 11.4383
46.24242243555223 11.4187
46.266821333570014 11.3849
46.29103328674601 11.3584
46.31524742696538 11.4459
46.33946375590237 11.3169
46.36387149104216 11.2763
46.38809221957392 11.2734
46.41231514186606 11.2588
46.436540259597464 11.2682
46.460956858999374 11.2308
46.48518638983522 11.216
46.509418121166966 11.2069
46.533652054678114 11.1856
46.55807754555709 11.1642
46.58231590571962 11.1316
46.60655647313217 11.1125
46.630988654873654 11.1069
46.655233659129024 11.062999999999999
46.67948087571551 11.0766
46.70373030632484 11.0291
46.72817142736393 11.0213
46.752425308428684 10.9848
46.77668140861147 10.9384
46.80093972960865 10.9097
46.82538981736788 10.8793
46.849652602470904 10.8943
46.87391761349769 10.8685
46.8981848521493 10.8842
46.9226439341274 10.8539
46.946915650573224 10.8353
46.97118959976749 10.7967
46.99546578341598 10.7834
47.019933887188216 10.7442
47.04421456235744 10.7775
47.06849747711879 10.7434
47.09278263318286 10.6847
47.11725978640143 10.6597
47.14154944775105 10.6533
47.165841355555656 10.6666
47.1901355115306 10.6257
47.214621741924994 10.6345
47.23892041698887 10.6144
47.26322134538975 10.5601
47.28771440635075 10.5495
47.31201986422527 10.5492
47.33632758061436 10.4832
47.360637557241866 10.4965
47.38513974410611 10.5009
47.40945426407847 10.4777
47.43377104948137 10.4272
47.45809010204344 10.422
47.48260144275502 10.3926
47.506925052572285 10.3472
47.53125093475548 10.2815
47.55557909103813 10.3435
47.58009961361992 10.3491
47.60443234110732 10.3048
47.62876734791564 10.289000000000001
47.65310463578333 10.245
47.6776343683373 10.2696
47.7019762413987 10.1979
47.72632040075572 10.1795
47.75066684815169 10.2042
47.77520581885936 10.1533
47.799556865477655 10.1318
47.823910205386 10.1343
47.84826584033272 10.1239
47.87281407745551 10.0485
47.89717432569297 10.0721
47.92153687423484 10.0809
47.94609208429692 10.032
47.97045925671401 10.0073
47.99482873471275 9.99722
48.01920052005013 10.0078
48.04376504619224 9.94442
48.068141469543484 9.98115
48.09252020552573 9.97375
48.11690125590099 9.91058
48.1414751266064 9.91323
48.16586082917454 9.92326
48.19024885144316 9.85956
48.2146391951793 9.87582
48.239222439012764 9.842189999999999
48.26361744916137 9.824539999999999
48.28801478610016 9.83111
48.31241445160131 9.79727
48.337007097209366 9.77392
48.36141144338331 9.72828
48.38581812345755 9.71459
48.41022713920929 9.749089999999999
48.434829215320704 9.69955
48.45924292604658 9.68478
48.48365897780325 9.66818
48.50807737237308 9.64321
48.532688907799276 9.61288
48.55711201168574 9.58474
48.581537463754074 9.60379
48.60615611725119 9.60817
48.63058628942721 9.58281
48.65501881516546 9.50774
48.6794536962573 9.49972
48.70408185970339 9.45775
48.72852147531801 9.46062
48.75296345168211 9.44231
48.77740779059232 9.44384
48.80204549302823 9.45542
48.82649458091802 9.40966
48.85094603676547 9.39936
48.87539986237231 9.3511
48.90004713292306 9.34553
48.92450572200832 9.320889999999999
48.94896668628025 9.31365
48.97343002754588 9.3157
48.99808689542115 9.28652
49.02255501470614 9.28015
49.04702551642794 9.24975
49.0714984023988 9.24841
49.096164896893235 9.20988
49.120642575466796 9.154810000000001
49.145122643748394 9.17591
49.16960510355558 9.16287
49.19428125404938 9.11781
49.2187685210852 9.09473
49.243258185121555 9.094669999999999
49.26794160167084 9.067960000000001
49.2924360839405 9.08446
49.31693296869764 9.04543
49.34143225776915 9.01085
49.36612538195438 9.006219999999999
49.39062950396021 9.021410000000001
49.41513603578346 8.969489999999999
49.4396449792564 8.95773
49.46434784069503 8.94716
49.488861631846454 8.91188
49.513377840166804 8.9127
49.537896467493745 8.90751
49.56260909589029 8.86161
49.587132585683285 8.85293
49.611658500018365 8.851239999999999
49.636186840738596 8.81897
49.66090926588511 8.811910000000001
49.685442483902584 8.77749
49.70997813385706 8.74417
49.734516217597076 8.74217
49.75924846937352 8.739410000000001
49.7837914452858 8.7194
49.80833686055187 8.71158
49.83288471702571 8.68753
49.85762682540054 8.67878
49.882179588965734 8.671610000000001
49.9067347993235 8.63671
49.93129245833333 8.64527
49.95604445336378 8.61669
49.98060703442832 8.58602
50.005172069746266 8.56575
50.02993150438364 8.5495
50.05450147301533 8.550410000000001
50.07907390151433 8.519739999999999
50.10364879174981 8.51803
50.12841816587289 8.53702
50.1529980044635 8.48805
50.17758031042124 8.46118
50.20216508562089 8.47967
50.22694442953363 8.429730000000001
50.25153416817468 8.41722
50.27612638170508 8.40213
50.300721072005196 8.34228
50.325510416102105 8.35027
50.350110084975064 8.30782
50.37471223628208 8.35258
50.39931687190919 8.34623
50.424116246675766 8.28458
50.44872587605249 8.26935
50.47333799543065 8.28835
50.49795260670191 8.27519
50.52276204271512 8.21175
50.54738166295838 8.22451
50.57200378079314 8.21243
50.596628398116835 8.204939999999999
50.62144792604559 8.19825
50.646077567609396 8.16427
50.670709714377715 8.13081
50.69553683636198 8.111839999999999
50.72017401885922 8.11842
50.7448137122895 8.097610000000001
50.76945591856022 8.08264
50.79429318636823 8.03452
50.818940443716784 8.02847
50.84359021965163 8.03035
50.868242516085964 8.0237
50.893089960641895 8.00256
50.917747323549435 7.930510000000001
50.94240721271973 7.95493
50.96706963007175 7.91268
50.99192728239342 7.935389999999999
51.01659478166073 7.946330000000001
51.04126481489051 7.91143
51.06593738400761 7.886710000000001
51.090805275207074 7.89116
51.11548294172845 7.873889999999999
51.14016314993547 7.855630000000001
51.164845901758845 7.82264
51.18972406304274 7.82505
51.21441192780656 7.785539999999999
51.23910234200271 7.795839999999999
51.2637953075678 7.768
51.288683770237945 7.7523800000000005
51.31338186432707 7.72668
51.33808251561888 7.720610000000001
51.362978729967345 7.713189999999999
51.387684521509755 7.68164
51.41239287610203 7.66033
51.437103795691165 7.62153
51.46201036644977 7.59847
51.486726441956634 7.5982
51.51144508832545 7.62523
51.536166307509156 7.61065
51.56108326624387 7.556019999999999
51.58580965706056 7.51613
51.61053862657523 7.536460000000001
51.635270176746864 7.542089999999999
51.66019755512065 7.517239999999999
51.68493429268881 7.50577
51.70967361681515 7.50663
51.73441552946465 7.5034600000000005
51.759353359237934 7.46507
51.7841004750961 7.429289999999999
51.80885018539685 7.45445
51.833602492111254 7.3956100000000005
51.8585508051424 7.390860000000001
51.883308330926425 7.4014
51.90806845906181 7.37182
51.932831191525715 7.29975
51.95779001977161 7.32273
51.98255798721516 7.26668
52.00732856494335 7.304410000000001
52.03229530577543 7.29815
52.057071130455945 7.2739899999999995
52.081849571391054 7.23733
52.106630630568695 7.24132
52.13160794279417 7.20091
52.15639426492067 7.21975
52.18118321127822 7.18583
52.205974783860896 7.15262
52.23096269971011 7.17557
52.255759551287994 7.13733
52.280559035098186 7.183160000000001
52.30536115314103 7.125560000000001
52.33035970494467 7.085839999999999
52.35516711807904 7.09658
52.37997717147198 7.08323
52.40478986713005 7.0783
52.42979908731974 7.06284
52.454617094216 7.02221
52.47943774942214 7.02105
52.50426105495102 6.992089999999999
52.529280976059844 6.991789999999999
52.554109609024096 6.97315
52.57894089837482 6.9406300000000005
52.60377484613117 6.92767
52.62880550079408 6.955010000000001
52.65364479223379 6.90758
52.67848674816189 6.8901699999999995
52.70352547971946 6.89721
52.72837279155837 6.86085
52.753222773982785 6.860310000000001
52.778075429022984 6.857239999999999
52.80312495150885 6.871639999999999
52.827982978797436 6.80465
52.85284368481815 6.818789999999999
52.87770707160767 6.7862
52.90276741793998 6.7764
52.92763619336701 6.738180000000001
52.952507655698504 6.7297899999999995
52.977381806977576 6.7327
53.00245301017842 6.701919999999999
53.02733256653592 6.74477
53.052214817996074 6.695110000000001
53.077099766608484 6.662710000000001
53.102181859804446 6.626239999999999
53.127072229988265 6.687819999999999
53.15196530349892 6.6696100000000005
53.17686108239249 6.601660000000001
53.20195409881522 6.641780000000001
53.22685531582556 6.61026
53.25175924441303 6.56262
53.27666588664027 6.56557
53.30176985962693 6.51136
53.3266819565689 6.51198
53.35159677336455 6.52445
53.376514312083096 6.54396
53.40162927507703 6.50381
53.42655228516116 6.4644
53.45147802340193 6.43278
53.47660125628886 6.42168
53.50153247842639 6.41817
53.52646643496923 6.42099
53.55140312799818 6.39066
53.576537409691696 6.41327
53.60147960336152 6.38915
53.626424539786164 6.34854
53.65137222105307 6.38973
53.67651758529126 6.33235
53.70147078399681 6.3101
53.72642673383343 6.30835
53.75138543689533 6.2716400000000005
53.776541917524526 6.2525
53.801506154876755 6.2599800000000005
53.826473151763246 6.23019
53.851442910284916 6.19959
53.87661054126026 6.18093
53.9015858509782 6.2018
53.92656392866066 6.17978
53.95154477641532 6.20324
53.976723591801296 6.15075
54.00171000771266 6.1605300000000005
54.02669920004598 6.15646
54.051691170915745 6.132280000000001
54.076881204886796 6.10135
54.101878760928514 6.122809999999999
54.12687910187696 6.0536900000000005
54.152077577768296 6.106330000000001
54.1770835166946 6.06789
54.20209224691339 6.0709599999999995
54.22710377055121 6.06323
54.25231352511594 6.030390000000001
54.27733066384342 5.98909
54.30235060239643 5.96508
54.32737334290836 5.96157
54.35259441062629 5.943
54.377622783395324 5.9150599999999995
54.40265396455061 5.90005
54.42768795623251 5.89385
54.45292037169559 5.8420000000000005
54.477960012857906 5.84668
54.50300247099511 5.8821
54.52804774825457 5.8625
54.55329154616743 5.83102
54.57834249018678 5.8205800000000005
54.6033962597977 5.7748099999999996
54.6284528571545 5.723319999999999
54.653708072335164 5.7032300000000005
54.67877035378786 5.72511
54.70383546947698 5.70594
54.72890342156389 5.70916
54.7541700889442 5.62595
54.77924374251975 5.59852
54.8043202390049 5.6276
54.82959552413022 5.59026
54.8546777351945 5.6199699999999995
54.87976279569621 5.54833
54.90485070780914 5.56722
54.930137506558005 5.515219999999999
54.95523115074295 5.50617
54.98032765308844 5.492719999999999
55.005427015775496 5.45566
55.03072536339621 5.44755
55.05583047570572 5.4456
55.080938454927676 5.4094
55.10604930325027 5.41097
55.131359235107396 5.4317
55.15647585066083 5.38742
55.181595341907496 5.3254
55.20671771104285 5.27221
55.232039262617704 5.23602
55.25716741665048 5.1919900000000005
55.28229845518636 5.28166
55.30743238042802 5.19841
55.33276558731939 5.17505
55.357905315183636 5.18997
55.383047936390035 5.128819999999999
55.40819345314859 5.1015
55.433538351073295 5.11212
55.458689688238415 5.10955
55.483843927614096 5.01823
55.509197623043605 5.04399
55.53435769621134 5.02804
55.55952067826466 4.95402
55.5846865714265 4.930619999999999
55.61005202069737 4.920030000000001
55.63522376553902 4.93227
55.66039842818645 4.86284
55.68557601087004 4.891859999999999
55.7109532500271 4.87049
55.73613670233794 4.907109999999999
