TT I
1.2716486653135266 7.44866
1.2939594142134223 7.52947
1.3162702121660406 7.15867
1.3385810600174564 7.009530000000001
1.3608919586137629 6.90601
1.383202908801069 6.58513
1.405513911425503 6.04239
1.4278249673332093 6.29599
1.4501343378461518 6.607939999999999
1.4724455028545926 6.090669999999999
1.4947567236847858 6.58387
1.517068001182951 6.707260000000001
1.5393793361953272 5.79536
1.5616907295681737 6.14525
1.5840021821477681 5.62525
1.60631369478041 5.27902
1.6286252683124185 5.306430000000001
1.6509369035901333 5.27449
1.6732468618895553 4.89048
1.695558623192809 5.08933
1.7178704487808514 5.3943
1.7401823395001077 5.26031
1.7625012545597203 5.37599
1.7848028405262486 4.94145
1.8071218901122095 4.8832699999999996
1.8294236121921872 4.6619
1.8517427996910911 4.73278
1.8740620574440425 4.50408
1.8963639900671978 5.04703
1.9186833908139995 4.9961199999999995
1.9409854680117449 5.35009
1.9633050151394713 5.55446
1.9856246367570705 4.50685
2.0079269371922672 5.07257
2.03024671027244 4.523619999999999
2.0525491637446027 4.36086
2.074869091674931 4.51863
2.097171701569106 4.328130000000001
2.1194917877373847 5.00884
2.141811954326636 4.89228
2.164114805233074 4.77425
2.186435135143035 5.4288300000000005
2.208738150935709 16.3241
2.231058647554722 33.0906
2.2533792288321184 25.5771
2.275682498336085 10.9087
2.298003251406138 5.6548099999999994
2.3203066942619714 5.4082099999999995
2.3426276225136022 4.37087
2.3649486396617507 5.03894
2.387252348930071 5.12103
2.4095735463442893 4.98374
2.4318774374315884 5.10139
2.4541988185014043 5.2775300000000005
2.476502894794693 5.2994900000000005
2.498824462909887 5.50177
2.521146125856138 5.8545300000000005
2.5434504863470337 6.01591
2.5657723414244717 6.13056
2.588076895590662 6.24301
2.610398946189713 6.31005
2.6327210958598384 5.66835
2.6550259469304716 6.1946699999999995
2.6773482972090137 7.50973
2.6996533504259 7.225039999999999
2.7219759047039602 7.06077
2.744298562293959 7.25662
2.7666039251246595 6.89772
2.7889267918020164 7.710489999999999
2.8112323652516555 7.6612100000000005
2.833555444408179 8.15981
2.8558786311183852 7.405360000000001
2.8781845268938557 8.4367
2.9005079311721484 8.49188
2.9228140460410397 8.525739999999999
2.9451376712799635 8.92583
2.967444008632326 8.66868
2.9897678582247247 9.71317
3.0120918213106695 10.562000000000001
3.0343984987899373 11.0429
3.0567226913198637 11.2133
3.079029599759726 11.6147
3.101354025127254 12.9042
3.123678568232338 12.9799
3.145985829517914 13.1163
3.16831061055229 13.3837
3.1906181112775593 13.2347
3.212943133635653 14.9743
3.2352682779763207 15.0471
3.2575761442691227 14.9594
3.2799015350264273 15.8568
3.302209649240067 16.5361
3.3245352898092655 16.8434
3.3468436553365257 17.4946
3.369169549113219 17.6538
3.3914955708171384 18.6368
3.413804319727358 19.0525
3.4361305997334863 19.241
3.4584396084414553 19.6586
3.4807661501462652 20.9391
3.503092824025881 21.4759
3.5254022288463154 21.6645
3.5477291695206588 22.388
3.5700388426251948 23.2141
3.5923660534916446 25.1758
3.6146934007816114 42.2785
3.637003482731501 103.97200000000001
3.6593311053109985 116.79899999999999
3.681641464033634 64.7353
3.7039693653009733 32.5639
3.726297407241705 26.9381
3.7486081875460804 26.1711
3.7709365132734978 26.5493
3.793247578841633 26.6451
3.8155761917550093 27.3101
3.8378875459837216 27.6774
3.8602164494827234 28.237
3.882545499606844 28.8899
3.9048572932539183 29.35
3.9271866390645718 29.6906
3.9494987298666713 30.3321
3.971828374764527 30.8148
3.9941581705403255 31.6471
4.016470713506008 31.9296
4.038800813471445 32.9101
4.061113662089144 33.3339
4.0834440696459176 34.0509
4.105774632334751 34.6757
4.128087945865126 35.51
4.150418821249301 36.3765
4.172732448931298 38.2506
4.195063640413578 40.1425
4.2173775856475215 44.445
4.239709096631102 82.2816
4.262040768704612 287.658
4.284355196706267 391.213
4.306687193387355 248.722
4.329001947444346 92.4395
4.35133427213731 50.6442
4.373666762177566 46.1782
4.395982011761091 45.6693
4.418314834921175 47.0335
4.44063041906622 56.5014
4.4629635787515625 70.2766
4.4852969080429785 69.4757
4.5076130004776225 57.0488
4.529946671403969 52.8138
4.552263106909177 52.3568
4.574597122877047 52.9493
4.596931312711224 53.7263
4.619248269273446 54.6544
4.6415828092605835 55.9227
4.663900117405352 57.093
4.686235010953232 58.61600000000001
4.708552674085913 59.7856
4.730887924602802 60.8753
4.753223354952695 62.8354
4.775541557023902 64.5187
4.797877349456786 65.8318
4.820195915032126 67.8611
4.842532072957498 69.16
4.864868414979744 71.42399999999999
4.88718753227192 73.9612
4.909524244902505 75.9417
4.931843734218147 77.3981
4.954180820867835 80.5374
4.976518095879839 83.5613
4.998838149695359 87.0153
5.021175803844231 91.0209
5.043496238205739 95.0893
5.065834274903528 100.135
5.088172504230693 105.618
5.1104935158799565 114.318
5.132832132875765 144.958
5.155153533596801 203.187
5.1774925416746225 253.669
5.199814334878411 500.472
5.2221537374521505 1334.45
5.244493338631803 3183.73
5.266815727034316 6923.89
5.289155727832427 11350.3
5.311478517248165 9526.39
5.333818921080011 3865.88
5.356159527788849 833.0219999999999
5.3784829252032536 235.15400000000002
5.400823940070432 166.11900000000003
5.423147747031976 141.36
5.445489173474152 127.57700000000001
5.467830807066149 121.053
5.490155234831516 115.947
5.512497285125229 111.083
5.534822130975162 108.561
5.557164601388673 106.015
5.579489868738879 103.411
5.601832762690846 102.555
5.6241758697774475 102.17200000000001
5.646501775867269 100.802
5.668845311622074 99.02799999999999
5.691171647754637 97.885
5.713515615597765 96.7756
5.735859800852677 95.943
5.758186788542988 96.1842
5.780531411018185 96.3847
5.802858837297399 95.5739
5.825203900414495 96.1862
5.8475491852224 97.2502
5.869877275883075 97.1825
5.892223006467101 99.1946
5.914551544266608 100.61
5.936897724049891 104.679
5.959244129804903 112.31299999999999
5.981573344815301 138.849
6.0039202049061 261.051
6.026249875609095 561.738
6.04859719346037 1097.26
6.070927323278297 2154.83
6.093275102315365 3943.94
6.115623113320588 4937.11
6.137953938319995 3606.6
6.160302415650845 1290.5
6.182633708324452 313.411
6.2049826554078376 133.851
6.227331838745022 102.676
6.249663839443684 91.8852
6.27201349767565 88.204
6.294345974611799 95.1068
6.316696111167083 110.572
6.339046488263839 103.74700000000001
6.361379686074702 84.7175
6.383730546639482 75.182
6.406064229255215 71.7261
6.428415576718203 70.5939
6.450749747566656 69.8605
6.47310158535871 68.6469
6.495453669698332 67.9134
6.517788579421056 67.0157
6.540141159237969 65.9933
6.562476565766648 65.3204
6.5848296444934045 65.0805
6.607182974060425 64.7479
6.6295191323281015 65.0597
6.651872965955752 68.2412
6.6742096296068985 100.527
6.6965639707294615 159.486
6.71891856698715 161.739
6.741255995248479 106.15
6.763611104154477 71.9127
6.785949046381137 62.5246
6.808304671371482 60.8937
6.8306605557940046 60.482
6.852999275508618 59.3074
6.875355681171544 59.0175
6.897694923437771 58.6062
6.92005185377892 58.2992
6.9423916220322655 58.2009
6.964749080490181 57.705
6.987106804399774 57.9648
7.009447368180821 57.9542
7.031805625367033 57.4197
7.054146723727803 56.8358
7.076505517631004 57.0966
7.098864581288365 57.3361
7.121206488070854 56.8312
7.143566093607822 56.8928
7.165908543567245 57.1157
7.188268694426048 57.4077
7.2106291193438095 57.4693
7.232972390625943 59.1813
7.255333366030969 74.5621
7.277677189091925 141.91299999999998
7.300038718428332 204.793
7.322400526130865 170.535
7.344745183422596 101.08200000000001
7.367107550224791 65.3608
7.389452767901992 58.4177
7.411815697249891 56.8579
7.434161478756298 56.1314
7.456524974096713 56.123999999999995
7.478888753837185 55.9397
7.501235387657368 56.5426
7.523599738562711 56.5686
7.545946944825532 56.6476
7.568311870344528 57.0673
7.5906770845765665 57.3906
7.613025156078678 59.1778
7.635390950099687 60.5091
7.657739602662809 59.7749
7.680105979923558 58.081
7.702472650212829 58.1578
7.724822180948224 57.7366
7.747189439655568 57.6275
7.769539560075357 57.5322
7.791907410653562 58.4692
7.81425812420825 58.2336
7.836626570110925 58.7594
7.858995315087906 59.5098
7.881346924933401 59.9178
7.903716270417482 59.9111
7.926068482028405 60.4249
7.948438431475253 61.2287
7.9708086843180235 61.5106
7.993161805171116 62.1974
8.015532667162402 62.6181
8.037886398416653 63.3426
8.060257873014221 64.08800000000001
8.082629655331942 64.6353
8.104984308787587 65.8973
8.127356708900503 69.9419
8.149711981398308 77.0404
8.172085002766314 79.9616
8.194458336181368 75.6503
8.216814543847752 71.6368
8.23918850371002 71.3669
8.26154533906492 72.1504
8.283919928836452 73.5835
8.306277395339652 74.9647
8.328652618483376 76.6726
8.351028159736202 78.6913
8.373386579575245 81.154
8.395762759396959 83.5712
8.418121819038275 88.9389
8.440498640894003 105.419
8.462875785192262 124.13600000000001
8.485235811156207 140.786
8.507613602688501 191.209
8.529974277114228 294.955
8.552352719347912 437.413
8.574731488360351 668.075
8.59709314210385 1083.6
8.619472567021075 1632.32
8.64183487789147 2117.04
8.664214962183097 1928.53
8.686577933647762 1149.58
8.708958680784317 478.02099999999996
8.731339760774953 195.87900000000002
8.753703729764451 122.51799999999999
8.77608547780821 105.43
8.798450116065078 100.035
8.820832535634787 96.5425
8.843215292401656 94.2516
8.865580941199045 92.9175
8.887964374703538 91.8819
8.910330701447199 93.132
8.932714815164482 96.2619
8.955099270424924 95.4537
8.977466620733543 91.4763
8.999851761421976 88.2063
9.022219798361645 86.4028
9.04460562795561 86.1007
9.066991803441677 85.7795
9.089360876979615 85.0251
9.111747746589993 84.8484
9.13411751544971 84.3232
9.156505082664324 84.1725
9.178875550323522 84.6687
9.20126381862328 84.5279
9.223652438908596 85.1212
9.246023961427412 84.8646
9.26841328802173 84.4473
9.290785518039224 84.7154
9.313175554425882 85.4082
9.335565947154315 85.0749
9.357939245086508 85.4722
9.380330352834827 85.5687
9.40270436697103 85.5128
9.425096193225055 85.5237
9.447488380180165 86.5281
9.469863475295412 86.7177
9.492256385987508 87.0754
9.514632206018318 87.6114
9.537025843935714 87.7549
9.559402392368193 88.8417
9.581796761000229 90.2156
9.604191496441521 90.9867
9.626569144158516 95.1582
9.648964615551032 100.84299999999999
9.671343000390081 102.97399999999999
9.693739211225699 99.9436
9.716135793237463 96.6761
9.738515290448102 96.0617
9.760912617143402 97.0497
9.783292860202891 98.2453
9.805690935076182 99.7929
9.828089385495742 100.61399999999999
9.850470754023561 103.10600000000001
9.872869957865444 112.40799999999999
9.89525208097539 131.804
9.917652041736662 147.543
9.940052382417589 147.864
9.962435644102392 156.626
9.984836746950979 200.071
10.007220771957746 275.22900000000004
10.029622640473708 384.731
10.052007432299963 542.6569999999999
10.074410069984072 773.181
10.096813093716005 1139.06
10.119199042482517 1598.39
10.141602840636468 1913.72
10.163989564971628 1768.18
10.186394141051062 1127.6
10.208799107559706 514.683
10.231187001965623 235.653
10.253592751657669 142.16299999999998
10.275981430388155 120.66799999999999
10.298387966769793 119.59299999999999
10.320794897965431 122.45
10.343184759907361 120.961
10.36559248305461 114.212
10.387983138083852 109.396
10.410391656691655 113.139
10.432800574501677 127.0
10.455192425893369 146.607
10.47760214443012 172.71400000000003
10.499994797678786 210.766
10.522405320453982 271.892
10.54479877906917 371.026
10.567210109595656 476.464
10.5896218454736 552.87
10.612016518879773 534.823
10.634429067781074 388.272
10.656824555333241 231.827
10.679237920773568 136.753
10.701651695961992 101.97
10.724048411481384 93.1721
10.746463008485165 89.4816
10.768860546937125 87.9311
10.791275969274796 85.8357
10.81369180576079 84.9053
10.836090585366925 83.4884
10.858507252467449 82.2233
10.88090686379991 81.3722
10.903324365036394 80.8561
10.925724811614439 81.3733
10.948143150509463 82.9371
10.970561909719066 81.8445
10.992963615930844 79.7866
11.015383218085756 77.4736
11.037785768347074 75.6463
11.06020621697282 75.0354
11.082627090322113 74.4694
11.105030913430326 73.8787
11.12745263854165 74.6691
11.149857314510728 79.0261
11.172279894912576 87.0772
11.194702904450653 88.3401
11.217108866490921 83.0583
11.239532736615194 77.794
11.26193956033512 74.858
11.284364294577085 73.0776
11.306789462371718 70.7237
11.329197585398376 69.5125
11.351623622610898 69.1723
11.37403261614354 68.3451
11.396459526308487 68.2176
11.418869393879497 67.6141
11.441297180532617 67.12100000000001
11.463725406927658 66.7696
11.486136592353875 66.7153
11.508565700543707 67.6844
11.530977768845315 70.0436
11.553407762368774 71.1757
11.575838200059769 70.6845
11.598251599479612 67.90100000000001
11.620682927815501 66.1318
11.64309721895548 65.6497
11.665529441478206 65.0843
11.687962112597958 64.7926
11.710377748130886 65.1135
11.732811318753434 64.8742
11.755227854859067 65.1707
11.777662328529495 64.9496
11.800079768750786 64.7662
11.822515149015453 64.664
11.844950984084935 64.8002
11.867369787303163 64.46600000000001
11.889806534289491 64.2388
11.912226250487029 65.0429
11.934663912939751 64.8248
11.9571020346363 64.8165
11.979523127133968 64.8219
12.001962169624331 65.708
12.024384183972964 67.4833
12.046824150809913 71.0735
12.069264581333726 77.3739
12.091687985297767 83.9118
12.11412934550045 92.4315
12.136553680195208 104.435
12.158995973632788 122.126
12.181438735204349 144.65
12.20386447284199 175.57
12.226308172985636 205.952
12.24873485024193 209.955
12.271179492516982 184.997
12.293607112949127 142.327
12.316052700916226 105.995
12.338498763250042 85.0935
12.360927805303868 74.3888
12.383374818673879 69.5384
12.405804812803074 66.9474
12.428252780773262 66.7482
12.45070122756722 66.5496
12.473132656675375 66.3724
12.49558206341869 66.5845
12.518014453510101 66.3976
12.540464823770117 66.7138
12.562915677315177 66.8355
12.58534951575545 67.7744
12.607801338171472 69.9897
12.630236146511358 76.7587
12.652688941369085 82.9269
12.675124723177234 83.4277
12.697578494048786 78.5686
12.720032754458185 73.0951
12.742470003354093 70.477
12.764925245138771 70.0427
12.787363476431278 70.0212
12.809819703166806 70.4444
12.83227642391173 71.0744
12.854716135692716 71.7919
12.877173846755147 72.9199
12.899614549869717 73.2594
12.9220732548287 73.8972
12.94453245827299 74.5999
12.966974655289818 75.5026
12.989434858002571 76.2307
13.011878055298721 77.0922
13.034339260862497 78.0045
13.056800969391883 79.3009
13.079245674017244 81.3446
13.101708390774869 84.3376
13.12415410463411 92.9104
13.146617833206086 107.31
13.169064559883248 120.757
13.191529303857127 136.106
13.213994557076367 155.671
13.236442809902437 184.28099999999998
13.258909083908291 226.812
13.28135835851934 278.361
13.30382565690295 346.389
13.326293469022952 412.163
13.348744283242008 439.791
13.371213125129904 396.81699999999995
13.39366497011003 299.382
13.416134845360597 199.67
13.438605238843131 137.872
13.46105863690397 114.084
13.483530069144786 112.99
13.505984506951902 119.036
13.528456981549432 129.053
13.550929978879088 142.629
13.573385983253365 161.19299999999998
13.595860028340867 189.317
13.618317081455832 229.595
13.64079217790333 279.002
13.663250283359057 328.733
13.685726434770173 366.284
13.708203115221277 356.58099999999996
13.730662806148091 294.375
13.75314054697177 213.47400000000002
13.775601299246777 144.015
13.798080104050406 105.698
13.820559442405358 90.0139
13.843021793671388 85.0947
13.865502201420897 82.9636
13.887965623051947 82.2853
13.910447103807167 80.8934
13.932929122629764 79.6792
13.955394156785959 79.1615
13.977877254034569 77.8972
14.000343367582113 77.2326
14.022827546871707 76.4492
14.045294743423524 75.9591
14.06778000837062 75.1797
14.090265817715476 74.9706
14.112734645763819 74.9102
14.13522154619454 74.8434
14.157691466286913 75.1032
14.180179461423874 74.5102
14.202668005486178 73.6228
14.22513957064374 73.0154
14.247629214846473 72.7949
14.270101881097517 72.6021
14.29259262906496 73.0793
14.315083930490205 73.9647
14.337558255389705 74.3348
14.360050666019726 73.861
14.382526101071944 72.5075
14.405019624534942 71.5274
14.427513705993134 70.7286
14.449990813291825 70.8643
14.47248601302899 70.5663
14.49496423954951 70.9443
14.517460561197822 70.902
14.539939910570322 70.6085
14.562437357763558 70.9734
14.58493536931253 72.5767
14.607416409993311 73.6421
14.62991555254159 74.5364
14.652397725157423 74.3793
14.674898002342799 73.3928
14.697398848433282 72.8115
14.719882725991326 73.5597
14.74238471217934 74.5112
14.764869730765593 78.7914
14.787372860692983 83.0374
14.809876564079925 88.2344
14.83236330125751 93.977
14.854868153850365 101.583
14.877356041159485 112.31200000000001
14.899862046604186 126.396
14.922351087688757 146.636
14.944858249632887 170.896
14.967365991421232 196.58700000000002
14.989856770231246 219.81599999999997
15.012365673994204 226.45
15.03485761569738 203.645
15.05736768508665 162.624
15.07987833888692 125.26799999999999
15.102372032001655 97.4478
15.124883856909658 80.9775
15.14737872204565 75.3672
15.169891721717274 73.1395
15.192405310371893 73.0335
15.214901940621196 73.4593
15.237416709527137 73.6636
15.259914520936249 74.0184
15.282430473753607 72.851
15.304947020131227 71.6157
15.327446610371178 70.7614
15.349964346154254 69.6531
15.372465126703139 68.9987
15.394984055556009 68.7329
15.417486030076159 68.45100000000001
15.44000615566487 68.0676
15.462526881230803 67.9674
15.485030653812652 68.416
15.507552581617434 68.4059
15.530057557334603 68.6431
15.55258069104857 68.3808
15.575104429329837 68.5078
15.597611216864632 68.0045
15.620136166564563 67.907
15.6426441664095 68.9972
15.665170331202765 71.9781
15.687697105158826 75.8073
15.710206930593545 79.9827
15.732734925158933 84.3859
15.755245972089478 89.9372
15.77777519094324 96.9971
15.800287463046663 107.18299999999999
15.822817909869592 121.95100000000001
15.84534897229804 139.401
15.867863089299354 160.809
15.890395385222186 182.422
15.912910736597423 197.32
15.935444269699861 195.915
15.957978423016485 172.66
15.980495633101265 138.441
16.003031029129367 107.34200000000001
16.02554948280019 82.8889
16.048086125229432 71.5372
16.070623392487107 68.2847
16.09314371869582 67.4011
16.11568223789321 66.6216
16.13820381691126 65.4337
16.160743591742527 64.1498
16.183283996022084 62.898999999999994
16.205807461423195 61.5429
16.228349126881973 60.7493
16.25087385432698 60.6766
16.27341678466365 60.2143
16.29594277784926 60.3784
16.31848697676433 60.8379
16.341031811604868 61.2937
16.36355971058487 61.6931
16.3861058195587 61.2998
16.40863499352978 60.0241
16.431182380342005 58.7817
16.453730407713202 58.2186
16.476261501364792 57.7813
16.498810812136167 57.2103
16.52134319004079 57.4858
16.54389378792203 57.3893
16.566445031001553 57.1919
16.588979342490088 56.9133
16.61153187824822 57.0707
16.634067483263312 56.7862
16.656621315414416 56.7252
16.679175797408888 56.2415
16.701713349928728 56.4621
16.72426913389191 56.7932
16.74680798922351 56.9415
16.76936507887444 56.9344
16.791905240734874 56.8347
16.814463639794468 56.747
16.837022695210294 56.7372
16.859564824093756 57.0721
16.882125194503903 57.9804
16.904668639217885 58.7718
16.927230328348003 59.0595
16.949792678493612 59.1255
16.972338104193863 58.4742
16.994901778652235 57.6662
17.017448529496576 57.5994
17.040013531998152 57.8753
17.06257920018044 58.2852
17.0851279459922 59.0748
17.107694947817667 60.0159
17.130245028099072 61.0701
17.15281336730298 62.4656
17.17536478578733 63.8125
17.19793446610687 65.708
17.220504818648422 67.9658
17.243058251703697 70.0891
17.265629950971032 73.8437
17.288184731571736 78.2929
17.310757781306908 82.6543
17.33333150794385 85.1676
17.355888317140174 84.7946
17.37846339986244 81.1112
17.401021565958885 75.0359
17.42359800851343 69.0741
17.44617513265564 64.8568
17.468735341390783 62.305
17.491261035594565 61.166000000000004
17.51396340099364 60.6617
17.536490463869136 60.9542
17.559018209820174 61.1539
17.58154663977963 61.3848
17.604251766089718 61.4252
17.626781572227713 61.5752
17.64931206518155 61.8458
17.671843245885103 62.3796
17.69455114821572 62.4866
17.717083712612634 62.7654
17.739616967569667 62.95399999999999
17.762150914021706 63.2644
17.78486160749854 63.3032
17.807396945166804 63.919
17.829932977143503 65.0018
17.85246970436452 66.568
17.875183204129467 69.08
17.897721330097664 71.5478
17.920260154126645 74.0723
17.942799677153296 77.1823
17.9655159983646 80.1489
17.988056927677544 84.2564
18.010598558807683 90.2516
18.033140892692916 98.2524
18.05586005052525 106.844
18.07840379824407 117.34299999999999
18.10094825154059 129.36
18.12366954819864 140.418
18.146215420998306 144.326
18.16876200220057 140.24
18.191309292745153 127.476
18.214033452627167 112.706
18.236582170236648 98.8278
18.259131600016456 90.6028
18.281681742907335 87.9649
18.304408781233683 90.3159
18.32696035875955 94.1364
18.349512652227624 98.9944
18.372065662579683 104.79
18.394795594587553 108.315
18.41735004715306 107.402
18.43990521943684 102.068
18.46246111238171 92.3698
18.485193953325208 82.0696
18.507751296070428 73.8215
18.530309362314178 68.6538
18.552868153000343 65.8759
18.57560391815056 64.2163
18.59816416623245 63.8907
18.620725141597372 63.4949
18.643286845190268 62.894
18.666025549835414 62.3973
18.688588718427933 61.9112
18.711152618092243 61.6781
18.73389353884365 61.4643
18.75645890921984 61.0352
18.77902501351406 60.6245
18.801591852673102 60.4122
18.824335739722738 59.973
18.846904057212626 59.9378
18.8694731124168 59.7154
18.89204290628315 59.5362
18.914789774966803 59.3362
18.937361054791623 59.1875
18.959933076131318 58.9065
18.982505839934877 58.8241
19.00525570560582 59.0022
19.027829963004184 58.8342
19.05040496572238 58.9383
19.072980714710468 58.707
19.095733592739563 59.0162
19.11831084296757 59.5342
19.140888842324735 60.2343
19.16346759176222 60.5921
19.18622349753803 61.1521
19.208803755869358 61.8843
19.231384767143577 62.6564
19.253966532312948 63.5902
19.276725481241822 65.0494
19.29930876296784 66.8287
19.3218928014549 69.4043
19.34465404436217 72.7077
19.36723960516257 75.9935
19.389825925592426 78.3392
19.412413006605938 78.5302
19.43517731967805 76.2451
19.457765930683355 71.9994
19.48035530514408 67.1035
19.50294544401556 62.5733
19.525712842708348 59.2192
19.54830451925909 57.3682
19.570896963095727 56.0893
19.593490175174704 55.677
19.616260674962184 55.6757
19.638855432416964 55.2541
19.661450960992624 55.4936
19.68404726164677 55.3389
19.706820878021247 54.9412
19.729418731756834 55.3948
19.752017360452857 55.1157
19.77461676506804 55.356
19.797393513540218 55.4665
19.819994478951667 55.9166
19.84259622316767 56.4542
19.8651987471481 56.8267
19.887978643247177 57.1037
19.91058273574792 57.3764
19.933187610901943 58.0743
19.955969879466828 59.086000000000006
19.97857632894404 60.2882
20.00118356396599 61.3132
20.023791585494575 62.9438
20.046577028914875 65.5664
20.069186632506966 67.7402
20.091797025500632 69.8773
20.114408208858933 71.6346
20.137196842715273 72.2157
20.159809615886765 71.2744
20.18242318232135 68.6904
20.20503754298326 66.1932
20.227829382875154 64.3714
20.250445341109344 63.62
20.27306209647285 63.6227
20.29567964993108 64.4216
20.31847471147704 65.8403
20.34109387027612 67.1006
20.363713830075454 67.5743
20.386334591841646 66.8322
20.409132890679302 64.421
20.431755265564437 61.3015
20.454378445325528 58.3947
20.477002430930366 56.0813
20.499803982716553 54.5643
20.522429589228004 53.4847
20.54505600449589 53.1242
20.567683229489194 52.848
20.590488049900088 52.2627
20.61311690359731 52.0792
20.63574656993626 51.7256
20.658553853717297 51.3793
20.681185154618298 51.405
20.703817271080066 51.2532
20.72645020407368 50.9708
20.749260783967177 50.8225
20.771895359337133 50.7339
20.794530754161617 50.6899
20.817166969412938 50.5416
20.83998086114876 50.317
20.86261872660049 50.2709
20.885257415405402 50.2954
20.90789692853701 50.1111
20.930714147864748 50.2083
20.953355319030678 50.3392
20.97599731745334 50.4111
20.99864014410749 50.2823
21.021460706796564 50.3292
21.044105199328826 50.6331
21.06675052302631 50.6535
21.089396678865015 50.7367
21.112220600704806 50.9591
21.134868430275347 51.3549
21.15751709492456 51.4996
21.180166595629693 51.7176
21.202993892429635 52.2181
21.22564507473034 52.7669
21.24829709602816 53.1156
21.27112693608965 53.3127
21.293780644891275 53.5395
21.316435195634053 52.821000000000005
21.339090589297417 52.1424
21.361923832041875 51.5136
21.384580921090404 50.6823
21.407238856007325 50.1455
21.429897637773326 50.0528
21.45273429906592 50.0468
21.475394784108598 49.93600000000001
21.498056118951983 49.8313
21.520718304578022 50.0594
21.543558400304388 50.409
21.566222297108816 50.5073
21.58888704765135 50.5057
21.61155265291521 50.9802
21.63439619898156 51.6441
21.657063523335786 51.8236
21.67973170537063 52.1291
21.7024007460706 52.7278
21.72524775840385 53.2776
21.747918526116475 54.1665
21.770590155457388 55.2305
21.79326264741238 56.3285
21.816113141960237 57.7274
21.838787368860547 59.5803
21.861462461341976 61.3044
21.884315579735777 63.2819
21.90699241312273 64.9463
21.92967011506078 66.5279
21.95234868653799 67.1301
21.9752053151131 66.3309
21.997885635446785 64.6197
22.020566828293532 62.3928
22.04324889464272 59.9832
22.066109049404666 58.2417
22.088792872571794 57.5068
22.111477572219204 57.4499
22.1341631493376 57.7895
22.157026846313123 57.8018
22.179714188221507 57.4912
22.202402410582668 56.4267
22.22509151438863 54.9726
22.24795876962584 53.5004
22.270649646204486 52.6172
22.293341407213727 51.7356
22.316034053646906 51.1265
22.338904883215342 50.8062
22.36159931041458 50.7086
22.38429462602756 50.692
22.40699083104897 50.5888
22.429865251039757 50.7649
22.452563244831367 50.5279
22.47526213102522 50.5833
22.49813925616515 50.3585
22.520839937143307 50.3093
22.543541513520587 50.2825
22.56624398629403 50.0277
22.589124730075895 49.9745
22.611829005656723 50.2
22.63453418063466 50.2822
22.657240256008077 50.6687
22.680124634582935 50.7085
22.70283252079775 51.0688
22.725541310413075 51.3562
22.74825100442868 51.4673
22.771139033969575 51.7164
22.79385054687155 51.9935
22.81656296718292 52.5606
22.83927629590484 53.3808
22.862167992606945 54.1137
22.88488314827121 54.9482
22.907599215359284 55.7116
22.93031619487366 56.9889
22.953211574954405 58.1338
22.975930389478226 59.1001
22.998650119445763 59.8412
23.02137076586092 59.6567
23.044269845560063 58.8328
23.06699233506288 57.0943
23.089715744034912 55.0884
23.112617610931565 53.1782
23.135342869061212 51.7845
23.158069049684816 51.0216
23.1807961538087 50.4011
23.20370174880544 50.3345
23.226430710184808 50.4083
23.249160598093425 50.6611
23.271891413539002 50.4976
23.294800752937697 50.5779
23.31753343374794 50.6632
23.340267045128353 50.8755
23.36300158808808 51.1075
23.38591468821339 51.4997
23.408651104658304 51.6808
23.431388455719986 52.0087
23.454126742409 52.723
23.4770436196085 53.598
23.499783787914662 54.5807
23.522524894889884 55.4681
23.54526694154616 56.4678
23.56818761219047 57.6134
23.59093154860734 58.636
23.613676427751283 59.5336
23.636422250635754 59.2912
23.659346731118656 58.2035
23.68209445191868 56.511
23.704843119509587 54.2225
23.72759273490623 52.0309
23.750521041644767 50.368
23.77327256312355 49.1572
23.796025035462787 48.4815
23.818956224555475 47.9128
23.841710609113413 47.6239
23.86446594758979 47.2171
23.887222241002014 46.9863
23.910157285144578 46.8465
23.932915498962537 46.7317
23.955674670778713 46.6343
23.978434801611975 46.5602
24.001373717286125 46.2019
24.024135776723917 46.0435
24.046898798245582 46.0454
24.06966278287146 46.0309
24.092605586582614 45.66
24.115371508023642 45.5033
24.1381383956401 45.4567
24.16090625045381 45.3595
24.183852958731244 45.3413
24.206622758582608 45.2595
24.229393528706886 45.0327
24.252165270127392 45.1979
24.27511589952438 45.0759
24.297889594216997 44.8458
24.32066426328598 44.6948
24.34343990775613 44.6532
24.36639447485003 44.586000000000006
24.38917208083877 44.5522
24.41195066531332 44.5202
24.43490819850244 44.4824
24.457688750692377 44.4362
24.48047028445616 44.3635
24.503252800821233 44.4254
24.526214300784112 44.4394
24.548998793132213 44.4525
24.57178427117417 44.3029
24.59457073593893 44.3268
24.617536219319863 44.3175
24.64032466834748 44.4084
24.663114107195035 44.3266
24.685904536893013 44.0324
24.708874020360852 44.0567
24.731666442613744 43.928999999999995
24.754459858818787 43.8699
24.777254270007962 43.6782
24.80022777025625 43.6775
24.82302418230472 43.7256
24.845821592443674 43.6792
24.86862000170663 43.6699
24.891597535453727 43.4682
24.914397953892728 43.6798
24.93719937456671 43.6389
24.96000179851076 43.7137
24.98298338249997 44.0288
25.00578782394922 44.1611
25.028593271784167 44.3027
25.05157790644186 44.4505
25.07438537804115 44.5569
25.097193859145293 44.8222
25.120003350792075 44.9801
25.142992065061257 45.4143
25.165803588823465 45.6543
25.18861612625217 45.9748
25.211429678386736 45.9273
25.234422489079968 46.152
25.257238081693636 46.0972
25.280054692141732 46.1114
25.3028723214652 46.0128
25.325869245420463 46.067
25.348688923599397 46.2824
25.371509623787006 46.5541
25.394331347025812 46.1289
25.41733240110666 45.8658
25.440156181590016 45.2642
25.46298098826268 44.74
25.48580682216873 44.1329
25.50881202326435 43.4611
25.53163992281684 43.0644
25.55446885274561 42.5457
25.577298814096377 42.3252
25.600308179121807 42.1659
25.623140214533745 42.3213
25.64597328451537 42.1366
25.66898578564376 41.806000000000004
25.691820936010206 41.8669
25.714657124097695 41.7954
25.737494350954734 41.8813
25.760511045684957 41.9356
25.783350361364224 41.8375
25.806190718969255 41.8458
25.82903211955018 42.103
25.852053024868923 42.1073
25.874896522722523 42.1606
25.897741066713106 41.9967
25.920586657892454 41.9508
25.943611790812668 42.0247
25.966459487728237 42.2041
25.989308234998564 42.2038
26.01215803367705 42.4924
26.03518741123814 42.5664
26.05803932412957 42.8237
26.080892291600094 42.8058
26.10374631470478 42.9474
26.12677995397268 43.0336
26.14963609978026 43.192
26.172493304397875 42.9389
26.19535156888223 42.6599
26.218389486949604 42.1902
26.241249882640123 41.9259
26.26411134137826 41.6757
26.28715248187403 41.6575
26.31001607820869 41.3537
26.3328807407756 41.2312
26.35574647063438 41.5303
26.37879191991473 41.4615
26.401659795896734 41.5782
26.424528742360263 41.6611
26.447398760366614 41.7674
26.470448535598294 41.8408
26.49332070826805 41.9776
26.516193955675355 42.2604
26.53906827888316 42.4695
26.562122397260108 42.513000000000005
26.584998883685063 42.7199
26.607876449110325 43.0301
26.63075509460056 43.2018
26.65381357334404 43.425
26.67669439061878 43.4962
26.699576291163382 43.4375
26.722459276044212 43.464
26.745522132402975 43.2515
26.768407297649354 42.8502
26.791293550442003 42.4578
26.814180891848974 42.2178
26.837248143099337 41.8161
26.860137673466657 41.7396
26.88302829566349 41.5053
26.90592001075963 41.3676
26.92899167420566 41.38
26.951885586870763 40.8782
26.974780595655517 40.6866
26.99785558178161 40.5188
27.020752794605112 40.4709
27.043651106772522 40.2305
27.06655051935668 40.1411
27.089629948036183 40.0343
27.112531573292053 39.9755
27.135434302194138 39.9659
27.158338135817015 39.7839
27.181422024430987 39.6565
27.204328079372566 39.7602
27.22723524226965 39.8678
27.250143514198573 39.9405
27.273231880156334 39.8487
27.296142382065014 39.6463
27.319053996245536 39.4872
27.341966723775965 39.6652
27.365059584515222 39.7004
27.38797455070062 39.63
27.410890633481237 39.7513
27.433807833936918 39.6274
27.456905206923906 39.6529
27.47982465472398 39.6556
27.502745223449743 39.7031
27.525666914182825 39.8311
27.548768816912457 39.8306
27.571692763693633 39.7615
27.59461783573812 39.5647
27.617723149491244 39.4919
27.640650484125285 39.4184
27.66357894728264 39.4829
27.686508540048052 39.2736
27.709618414237887 39.1647
27.732550278321757 39.0792
27.755483275279115 39.0143
27.778417406196485 39.119
27.801531858397514 39.1268
27.824468269376716 38.9259
27.847405817586786 39.0448
27.870344504116094 39.1905
27.893463551932008 39.3583
27.916404527281053 39.3864
27.93934664422563 39.4215
27.962289903855886 39.4721
27.98541356491974 39.707
28.00835912214229 39.8141
28.03130582533231 40.0581
28.054253675581805 40.1846
28.077381967556104 40.2588
28.100332124185126 40.2354
28.123283431160893 40.0803
28.146235889577238 40.0873
28.169368830154156 39.873000000000005
28.192323603752033 39.6546
28.215279532083304 39.375
28.238415973016764 39.2588
28.261374223145094 39.0013
28.284333631303806 38.9275
28.307294198589954 38.8039
28.330435319167677 38.4388
28.353398217078915 38.1605
28.376362277420153 37.9832
28.39932750129032 37.8192
28.422473319286713 37.6649
28.44544088262495 37.5885
28.468409612800283 37.4748
28.491379510913497 37.1628
28.51453004413313 37.0424
28.53750229057244 37.116
28.56047570826344 36.9698
28.583450298308804 37.0785
28.606605564586562 36.799
28.629582511831156 36.9758
28.65256063474956 36.778
28.675539934446338 36.7337
28.698699951647605 36.7271
28.72168161743193 36.4935
28.74466446331978 36.5852
28.767648490417624 36.457
28.790813276438353 36.4446
28.813799678527303 36.5721
28.836787265157085 36.5742
28.859955641890075 36.5124
28.882945610203045 36.5921
28.905936766392035 36.4649
28.928929111566863 36.4824
28.952102288520145 36.4207
28.975097024308607 36.2174
28.998092952423807 36.2263
29.021090073977508 36.108000000000004
29.04426806913204 36.0184
29.067267590245258 35.8386
29.090268308143695 35.8135
29.11327022394099 35.8003
29.13645305530891 35.6638
29.159457379627167 35.5266
29.18246290519685 35.3567
29.20546963313352 35.4517
29.22865731875826 35.3597
29.25166646419296 35.3485
29.27467681535305 35.1922
29.29768837335608 35.3679
29.320880931312562 35.3165
29.34389491580634 35.3137
29.366910110507334 35.189
29.38992651653503 35.3086
29.41312396492981 35.2796
29.436142806456754 35.2622
29.45916286268059 35.1817
29.48236399319994 35.1139
29.50538649169417 34.9296
29.528410208259935 34.882
29.55143514402014 34.5978
29.574641196749695 34.5652
29.597668583816574 34.4044
29.6206971934585 34.2402
29.64372702680042 34.2595
29.666938019934474 34.1989
29.689970313635285 34.1516
29.713003834422636 34.1467
29.73603858342347 34.0597
29.759254535188578 33.801
29.78229175361658 33.9103
29.80533020365064 34.084
29.82836988641968 33.977
29.85159081507472 33.8691
29.874632976355343 33.7426
29.89767637376955 33.7888
29.920721008448314 33.6589
29.9439469322847 33.6495
29.96699405457564 33.5652
29.9900424175358 33.6975
30.013092022298157 33.4776
30.03632295963995 33.4157
30.059375061131373 33.5489
30.08242840783577 33.4743
30.105483000888153 33.4897
30.128718970092244 33.4313
30.151776069006917 33.4217
30.17483441768648 33.5048
30.198074175317235 33.35
30.221135036724256 33.4402
30.24419715131772 33.3143
30.267260520236203 33.2821
30.290505341942243 33.3284
30.313571232750228 33.4045
30.336638381310948 33.4809
30.35970678876503 33.3089
30.38295669299435 33.2377
30.40602763151657 33.1939
30.429099832366074 33.1501
30.452173296685572 33.0811
30.47542830191959 33.0162
30.498504306502497 33.0728
30.521581577995562 33.1082
30.544660117543582 33.0952
30.56792024229725 33.15
30.59100133132069 33.086999999999996
30.614083691845494 33.1188
30.637167325018545 33.1496
30.660432587840603 33.1864
30.683518779717886 33.1468
30.70660624769615 33.2075
30.729694992924372 33.2154
30.75296541239743 33.2595
30.77605672557558 33.2224
30.799149319462742 33.1699
30.8224236211637 33.0427
30.845518789950724 32.9932
30.868615242910597 32.9741
30.891712981195973 32.7241
30.91499247215866 32.5345
30.938092794619365 32.6662
30.96119440587579 32.6027
30.984297307082752 32.437
31.00758200598383 32.3225
31.030687500658694 32.1496
31.053794288760695 32.1429
31.076902371446767 32.0637
31.100192296997445 32.0473
31.12330298246119 32.1758
31.14641496599209 31.9721
31.169528248749216 32.0289
31.19282341969534 31.9843
31.215939314557186 31.8902
31.239056512134788 31.9815
31.262175013589378 31.9231
31.28547544871168 31.8463
31.30859657161541 31.8003
31.331719001892175 31.8309
31.35484274070538 31.8185
31.378148458819545 31.9952
31.401274828443725 31.8445
31.424402510106933 31.845
31.447712205419993 31.8459
31.470842524931633 31.7405
31.493974159989783 31.8121
31.51710711176168 31.858
31.54042212308802 31.8056
31.563557722100917 31.7747
31.586694641341655 31.6782
31.609832881979628 31.4658
31.63315322823208 31.429000000000002
31.656294125521327 31.3604
31.679436347728515 31.2978
31.70257989602529 31.2287
31.725905596152327 31.1217
31.74905181052835 31.0878
31.772199354521323 31.1817
31.79534822930507 31.0549
31.818679302290967 30.9818
31.84183085259981 31.0361
31.864983737233473 31.0592
31.88813795736804 31.1225
31.911474422233013 31.0791
31.934631327356435 31.081
31.9577895715215 30.9674
31.980949155906522 30.9059
32.004291031706956 30.9686
32.027453310562606 30.8537
32.05061693318573 30.7192
32.07396288236386 30.7321
32.09712920658542 30.7098
32.12029687812702 30.6679
32.14346589817093 30.6073
32.166817291729984 30.5331
32.18998902288583 30.4688
32.21316210610336 30.320999999999998
32.23633654256711 30.2471
32.259693399663725 30.2688
32.282870556771144 30.0513
32.30604907069099 30.0972
32.329228942610065 30.075
32.35259128243769 29.9977
32.375773884550505 29.9387
32.398957848235646 29.8555
32.422143174682176 29.8299
32.445511016471215 29.7357
32.468699082679954 29.6916
32.49188851523011 29.5683
32.51507931531304 29.5738
32.538452678331 29.6022
32.56164622776311 29.4816
32.58484114831493 29.3968
32.60803744118015 29.3693
32.631416344731896 29.4529
32.654615396551876 29.3542
32.67781582427913 29.3189
32.701198898634416 29.2824
32.72440209253756 29.1745
32.747606665947124 29.133000000000003
32.77081262006088 29.0379
32.79420126883317 29.0442
32.81740999876112 29.0836
32.840620112999424 29.0408
32.86383161274818 28.8651
32.88722585534586 28.8961
32.91044014056596 29.039
32.933655814909734 28.9727
32.95687287957963 28.9002
32.98027273544904 28.8249
33.00349259526636 28.671999999999997
33.026713849030116 28.7543
33.04993649794511 28.756999999999998
33.073341986570746 28.6567
33.09656744032826 28.6256
33.11979429286444 28.6987
33.14302254538647 28.6766
33.166433686291185 28.5979
33.18966475336992 28.5714
33.212897224069096 28.4831
33.23613109959831 28.5313
33.259547912343415 28.4545
33.2827846121627 28.4461
33.306022720453775 28.3882
33.32926223842861 28.2727
33.352684742614166 28.2514
33.37592709463173 28.2431
33.399170859982064 28.1852
33.422597648419426 28.0193
33.44584425514446 28.0414
33.46909227885668 27.9764
33.4923417207723 27.9482
33.51577423505344 27.9255
33.539026528130385 27.8163
33.56228024307245 27.7725
33.585535381098246 27.5952
33.60897364093058 27.5888
33.63223163992385 27.611
33.6554910656699 27.4811
33.678751919389796 27.5579
33.702195944520106 27.4815
33.72545966903325 27.473000000000003
33.74872482519663 27.398000000000003
33.771991414233746 27.4257
33.79544122444841 27.3231
33.81871069412428 27.2691
33.84198160035767 27.2599
33.86525394437455 27.3313
33.88870955949969 27.1792
33.911984794020626 27.1685
33.93526147001624 27.1305
33.958539588715006 27.0672
33.98200102861669 27.0295
34.0052820477047 26.9574
34.02856451319451 26.8818
34.05203033759056 26.8552
34.07531571090147 26.8313
34.09860253431845 26.8171
34.121890809074316 26.8188
34.145362493118924 26.8021
34.16865368561615 26.7266
34.191946333164054 26.5984
34.21524043699793 26.6622
34.23871800066799 26.6015
34.26201503218366 26.486
34.28531352370466 26.3599
34.30861347646881 26.3271
34.33209693978188 26.3604
34.3553998301885 26.3539
34.378704185565205 26.3144
34.402010007152356 26.1969
34.42549939016683 26.1458
34.44880815937748 26.1245
34.472118398533134 26.0128
34.49543010887669 26.1879
34.51892543169198 25.9864
34.54224009966052 26.0035
34.56555624255917 25.9693
34.58887386163339 25.8104
34.61237514439016 25.7922
34.6356957311114 25.7805
34.65901779775809 25.7489
34.68252356662995 25.7688
34.705848608458616 25.7195
34.72917513396849 25.6582
34.75250314440949 25.7162
34.77601490857862 25.5177
34.799345904259795 25.4154
34.82267838863559 25.4429
34.846012362958525 25.5867
34.869530142679984 25.419
34.89286711232212 25.4242
34.91620557568269 25.4476
34.93954553401677 25.3306
34.9630693495876 25.2154
34.986412313340814 25.2208
35.00975677584668 25.2569
35.033102738362956 25.1633
35.05663261012228 25.1222
35.0799815881786 25.136999999999997
35.10333207003229 25.0676
35.12668405694369 25.2014
35.150220005273056 25.0013
35.17357501786656 25.0217
35.19693153931268 25.0139
35.220289570874385 25.0214
35.24383161619786 24.9192
35.267192683604904 24.9
35.290555264930376 24.8404
35.314101899412165 24.8403
35.33746752422433 24.820999999999998
35.36083466676374 24.7373
35.38420332829803 24.7829
35.407756095629054 24.7996
35.43112781085063 24.8196
35.45450104888391 24.7226
35.477875810999194 24.6981
35.50143473172161 24.6661
35.52481255774625 24.6515
35.54819191167777 24.5455
35.57157279478914 24.4993
35.595137889488406 24.4649
35.61852184675279 24.4568
35.641907337029984 24.4616
35.665294361595684 24.3363
35.68886565090076 24.3674
35.7122557598848 24.3207
35.73564740699838 24.2612
35.759040593519934 24.1854
35.78261809810353 24.1274
35.80601437933051 24.0854
35.829412203814705 24.0182
35.85281157283719 24.0499
35.876395313415884 24.0993
35.8997977874528 23.9265
35.92320180988546 23.8968
35.946790244133936 23.7993
35.97019737933222 23.8854
35.993606066789866 23.8196
36.01701630779276 23.7503
36.04061101440684 23.773000000000003
36.06402437852291 23.7906
36.08743930005611 23.6988
36.1108557802951 23.6568
36.13445678011326 23.61
36.15787639383515 23.5557
36.18129757014299 23.5199
36.20472031032821 23.5329
36.22832762423364 23.499000000000002
36.25175350829375 23.4632
36.275180960119776 23.3861
36.298609981005924 23.4307
36.32222362992669 23.3588
36.34565580510207 23.3447
36.36908955323448 23.2969
36.39252487562093 23.101
36.416144880530226 23.1712
36.43958336764275 23.13
36.463023432914625 23.1772
36.486465077645676 23.0764
36.51009145956204 23.0914
36.53353627947859 23.0804
36.55698268276811 23.0431
36.58043067073321 23.0436
36.60406345072071 22.9307
36.62751462435344 22.9041
36.65096738658405 22.8647
36.67460498210655 22.8652
36.69806093788647 22.8247
36.72151848619297 22.6774
36.744977628333636 22.7467
36.76862165890998 22.6357
36.79208400512205 22.7452
36.81554794910557 22.7179
36.83901349217101 22.6136
36.862663978991606 22.5941
36.88613273667352 22.4977
36.90960309738324 22.4634
36.933075062434064 22.4465
36.95673202673572 22.4397
36.98020721697122 22.3048
37.003684015502365 22.2552
37.027162423645365 22.2489
37.050825886711465 22.2375
37.07430753063053 22.1663
37.09779078812467 22.1796
37.121275660513014 22.1872
37.144945643673694 22.0958
37.16843376245278 22.059
37.19192350009803 22.03
37.215414857931435 22.0092
37.239091382563885 21.9425
37.262585997426164 22.0137
37.28608223645736 21.9393
37.309763684451696 21.8639
37.33326318851098 21.8207
37.356764320726555 21.8568
37.380267082425526 21.8185
37.40395510942588 21.8175
37.42746114683234 21.7159
37.45096881771841 21.694000000000003
37.474478123414166 21.6703
37.49817275092816 21.598000000000003
37.52168534303452 21.6197
37.54519957395567 21.544
37.568715445024665 21.6
37.592416694607714 21.4976
37.61593586281424 21.5956
37.63945667518264 21.5028
37.66297913304891 21.3902
37.68668702630454 21.3565
37.710212792059274 21.2797
37.733740207334854 21.2512
37.757269273470364 21.2488
37.780983832050374 21.2689
37.80451621684926 21.2024
37.82805025654007 21.1673
37.851585952464795 21.1314
37.8753071980695 21.0567
37.89884622345676 21.0304
37.92238690911902 20.9752
37.94611318753442 20.938000000000002
37.969657210779765 20.9552
37.99320289834801 20.9259
38.016750251586465 20.9017
38.04048325513017 20.8061
38.06403395679343 20.7405
38.087586328183946 20.7337
38.11114037065203 20.815
38.13488012115898 20.7373
38.1584375229181 20.6675
38.181996599821 20.6188
38.205557353221124 20.6338
38.229303872575656 20.5926
38.2528679961576 20.5521
38.27643380031219 20.455
38.30000128639589 20.4586
38.32375459653193 20.4862
38.34732546371299 20.4505
38.37089801690786 20.4309
38.39447225747609 20.3377
38.418232380377425 20.2848
38.441810012983396 20.2851
38.46538933705673 20.2379
38.488970353960084 20.2205
38.51273731166058 20.1569
38.536321731567014 20.1221
38.55990784840681 20.121
38.58367995004091 20.0996
38.60726947812959 20.0497
38.63086070726198 20.0726
38.654453638806274 20.0446
38.678232613930824 19.9635
38.70182896773327 19.9152
38.72542702806741 19.9407
38.7490267963045 19.8844
38.77281266709232 19.8536
38.79641586862214 19.8276
38.8200207821842 19.7627
38.843627409152944 19.7537
38.86742019782782 19.7218
38.891030269149255 19.6874
38.914642058016156 19.6552
38.938255565806124 19.633
38.96205529464307 19.5791
38.98567225787121 19.5514
39.00929094417078 19.5096
39.03291135492255 19.4799
39.05671804624804 19.4633
39.080341923549106 19.4392
39.103967529460334 19.2881
39.127594865365744 19.2982
39.15140854155791 19.3267
39.17503935514948 19.3131
39.19867190290282 19.293
39.22249083587951 19.2346
39.24612686969409 19.2579
39.269764641845306 19.2827
39.293404153722804 19.1623
39.317230110864074 19.1385
39.34087311998506 19.0492
39.36451787301696 19.0817
39.388164371352595 18.9987
39.41199737518003 19.0574
39.43564738196752 18.9424
39.45929913825317 18.886
39.48295264543308 18.9329
39.506792718520884 18.903
39.530449745387216 18.8911
39.55410852735203 18.8515
39.57776906581474 18.8027
39.60161623079 18.7417
39.625280300200025 18.6949
39.64894613032202 18.7267
39.67261372255866 18.7119
39.6964680021016 18.6157
39.72013913657293 18.7169
39.74381203738292 18.6266
39.76748670593756 18.5362
39.79134812278169 18.5014
39.81502634488497 18.5227
39.83870633896685 18.5532
39.862388106436654 18.4708
39.88625668336918 18.3991
39.90994201572829 18.4222
39.933629125719285 18.3272
39.957503091207826 18.3648
39.9811937746168 18.3356
40.00488623990914 18.3168
40.02858048850006 18.2177
40.05246165409549 18.1768
40.076159487492085 18.1628
40.099859108448875 18.1659
40.123560518384345 18.1239
40.1474489070226 18.102
40.171153913178564 18.0701
40.194860712584955 18.0334
40.2185693066637 18.0352
40.242464941335314 17.9915
40.26617714307655 17.8859
40.289891143772046 17.9268
40.3136069448471 17.8641
40.33750984859743 17.8788
40.3612292688043 17.8148
40.3849504936829 17.8393
40.40867352466194 17.7996
40.43258372059144 17.7518
40.45631038219906 17.7406
40.48003885420956 17.655
40.503769138055105 17.6514
40.52768664931955 17.6182
40.55142057531802 17.5686
40.57515631746428 17.566
40.599079334038514 17.5736
40.62281872700477 17.5406
40.64655994043941 17.5362
40.67030297578061 17.5218
40.69423334835778 17.4761
40.71798004609188 17.3845
40.74172857006355 17.3572
40.76547892171441 17.3624
40.7894166736039 17.327
40.813170699248566 17.2904
40.83692655691388 17.2961
40.86068424804498 17.3076
40.884629402612525 17.2568
40.908390779366385 17.2566
40.932153993938 17.1719
40.95591904777605 17.1525
40.979871628443995 17.1866
41.003640379561936 17.128
41.02741097430883 17.0403
41.05118341413683 17.025
41.075143444384416 16.9836
41.098919593177826 16.971
41.1226975914255 16.9366
41.14647744058318 16.9241
41.170444943946755 16.8908
41.19422851378379 16.9015
41.218013938914645 16.8381
41.24198706625173 16.7712
41.26577622087193 16.7866
41.289567235177785 16.7953
41.31336011063129 16.764
41.337340752422875 16.6381
41.361137369129835 16.6873
41.38493585138705 16.6439
41.40873620066004 16.6004
41.43272438060107 16.6349
41.45652848292052 16.6305
41.48033445666918 16.5021
41.50414230331616 16.5155
41.528138045159764 16.5009
41.551949656675205 16.3901
41.575763145513235 16.3395
41.59957851314666 16.3462
41.62358184070442 16.357
41.64740098505737 16.3082
41.6712220126409 16.2835
41.69504492493139 16.2681
41.71905586207357 16.2203
41.74288256296395 16.2459
41.766711153007456 16.139
41.79054163368412 16.1584
41.814560204340054 16.1635
41.838394485526365 16.13
41.86223066180303 16.1106
41.88625497706819 16.1104
41.910094962812 16.0813
41.93393684811168 16.0323
41.95778063445365 15.9919
41.981812625263366 15.9464
42.00566023303407 15.9018
42.029509746323676 15.8742
42.05336116662236 15.8792
42.077400857069705 15.8473
42.10125611078846 15.8629
42.12511327600405 15.7927
42.14897235421036 15.7871
42.173019768448455 15.7415
42.19688269209613 15.7029
42.22074753323349 15.6941
42.24461429335818 15.6959
42.268669455600495 15.6519
42.292540073217886 15.5843
42.31641261433284 15.6388
42.34028708044675 15.5657
42.36435001496739 15.5128
42.38822835065557 15.5635
42.41210861586426 15.4878
42.4359908120986 15.4239
42.46006154323262 15.454
42.48394762115317 15.3934
42.507835634632315 15.3564
42.531912233047436 15.3036
42.55580413732265 15.3439
42.579697981698 15.3375
42.60359376768525 15.2611
42.62767820545945 15.2809
42.65157789440821 15.2479
42.67547952952185 15.2151
42.699383112316 15.1452
42.72347541395347 15.1139
42.74738291190531 15.1253
42.771292362102166 15.1108
42.795203766063516 15.0974
42.819303956130405 15.0371
42.843219287476536 14.9584
42.86713657716324 14.9688
42.89105582671383 14.9996
42.91516392983864 14.9657
42.939087119032166 14.9704
42.963012272677304 14.9584
42.98693939230129 14.8915
43.01105543317513 14.8415
43.034986504731386 14.8116
43.05891954686589 14.7875
43.08285456110972 14.779000000000002
43.10697856448665 14.7097
43.130917542983475 14.6482
43.15485849820081 14.6844
43.17880143167367 14.671
43.20293342237094 14.6455
43.226880332449 14.6147
43.25082922540554 14.6203
43.27496722682525 14.5691
43.29892010567796 14.5416
43.32287497204102 14.4997
43.34683182745632 14.4319
43.370977859791836 14.4061
43.39493871351105 14.4009
43.41890156092628 14.4688
43.44286640358341 14.4251
43.46702049182749 14.3591
43.49098934522816 14.3296
43.51496019852649 14.3028
43.5389330532723 14.2732
43.56309522248204 14.2287
43.58707210044314 14.2513
43.61105098451946 14.2026
43.63503187626491 14.154000000000002
43.659202151562134 14.1766
43.68318707902681 14.1711
43.70717401884041 14.1291
43.731162972560874 14.0885
43.75534137913236 14.0414
43.779334381108384 14.04
43.803329401683186 14.049000000000001
43.82732644241872 13.9971
43.8515130055166 13.9609
43.87551410707659 13.8892
43.89951723350145 13.9481
43.923709934595614 13.9266
43.94771713129917 13.8858
43.97172635758096 13.8433
43.99573761501002 13.8032
44.0199385169922 13.7942
44.04395385732619 13.7523
44.067971233533086 13.7128
44.09199064718605 13.7124
44.11619977548961 13.7198
44.14022328470671 13.6728
44.16424883610785 13.6767
44.18827643127035 13.6684
44.21249381139513 13.585999999999999
44.236525514814076 13.5536
44.26055926674478 13.5813
44.28459506876863 13.5379
44.3088207262813 13.4628
44.33286064928722 13.4465
44.35690262714919 13.4944
44.38094666145278 13.4606
44.4051806219871 13.4412
44.42922879003185 13.4267
44.45327901929361 13.3813
44.477331311362136 13.3427
44.501573600619416 13.34
44.525630039221795 13.2774
44.54968854541895 13.2569
44.573937102200176 13.237
44.5979997645541 13.2021
44.622064499300315 13.2082
44.64613130803592 13.1967
44.67038823869318 13.2094
44.69445921643748 13.1443
44.718532272981385 13.118
44.742607409926194 13.1093
44.76687274034801 13.0845
44.79095205918753 13.0237
44.81503346325094 13.0416
44.839116954143876 13.0128
44.86339071028742 13.0395
44.88747839599524 12.9839
44.91156817336837 12.9412
44.93566004401666 12.9484
44.959942251908146 12.9306
44.984038330325966 12.8757
45.00813650686762 12.8144
45.03223678314731 12.7465
45.05652746888232 12.7993
45.08063196592069 12.7764
45.104738567558705 12.761
45.128847275414856 12.7738
45.15314646515866 12.71
45.17725940679741 12.6771
45.20137445952892 12.6767
45.22568004865265 12.6293
45.24979934496396 12.6271
45.27392075725247 12.5879
45.29804428714431 12.5896
45.322358426247604 12.5689
45.346486212804315 12.5305
45.370616121861914 12.5158
45.39474815505086 12.4802
45.41907087049246 12.4017
45.4432071734666 12.3935
45.46734560548283 12.437999999999999
45.49148616817604 12.4148
45.51581748638564 12.4054
45.5399623320197 12.3674
45.56410931325473 12.2969
45.58825843173002 12.3177
45.61259837920865 12.2875
45.636751793816 12.2881
45.66090735060093 12.1761
45.68506505120716 12.1775
45.7094136545275 12.15
45.73357566449271 12.1007
45.75773982322992 12.1214
45.78190613238733 12.1303
45.806263418194064 12.0841
45.83043404997326 12.0643
45.85460683713677 12.0411
45.87897065658495 12.0391
45.90314777634752 12.0538
45.92732705646868 12.0079
45.9515084986045 11.9925
45.97588104735473 11.9813
46.00006683541565 11.9352
46.02425479047904 11.8874
46.04844491420549 11.9201
46.0728262191024 11.880999999999998
46.09702070211635 11.9185
46.12121735879483 11.9005
46.14541619080294 11.8018
46.169806278764455 11.7799
46.194009483459034 11.7829
46.21821486849841 11.7205
46.24242243555223 11.7112
46.266821333570014 11.7128
46.29103328674601 11.67
46.31524742696538 11.6715
46.33946375590237 11.6515
46.36387149104216 11.6363
46.38809221957392 11.5941
46.41231514186606 11.5742
46.436540259597464 11.5618
46.460956858999374 11.5576
46.48518638983522 11.517999999999999
46.509418121166966 11.4483
46.533652054678114 11.4837
46.55807754555709 11.4471
46.58231590571962 11.4605
46.60655647313217 11.3899
46.630988654873654 11.3352
46.655233659129024 11.3526
46.67948087571551 11.3532
46.70373030632484 11.3156
46.72817142736393 11.3155
46.752425308428684 11.2846
46.77668140861147 11.277999999999999
46.80093972960865 11.2054
46.82538981736788 11.222999999999999
46.849652602470904 11.2174
46.87391761349769 11.1339
46.8981848521493 11.1284
46.9226439341274 11.1364
46.946915650573224 11.1256
46.97118959976749 11.1316
46.99546578341598 10.9914
47.019933887188216 11.0014
47.04421456235744 11.048
47.06849747711879 11.0364
47.09278263318286 11.008
47.11725978640143 10.9563
47.14154944775105 10.8822
47.165841355555656 10.8943
47.1901355115306 10.8682
47.214621741924994 10.8832
47.23892041698887 10.8553
47.26322134538975 10.8126
47.28771440635075 10.8061
47.31201986422527 10.8056
47.33632758061436 10.7848
47.360637557241866 10.7974
47.38513974410611 10.7462
47.40945426407847 10.715
47.43377104948137 10.7083
47.45809010204344 10.687000000000001
47.48260144275502 10.6728
47.506925052572285 10.6533
47.53125093475548 10.6135
47.55557909103813 10.6178
47.58009961361992 10.5447
47.60443234110732 10.5601
47.62876734791564 10.5691
47.65310463578333 10.5338
47.6776343683373 10.5447
47.7019762413987 10.5098
47.72632040075572 10.456
47.75066684815169 10.4422
47.77520581885936 10.442
47.799556865477655 10.4063
47.823910205386 10.4274
47.84826584033272 10.392999999999999
47.87281407745551 10.3455
47.89717432569297 10.3286
47.92153687423484 10.3119
47.94609208429692 10.3147
47.97045925671401 10.312999999999999
47.99482873471275 10.2702
48.01920052005013 10.2479
48.04376504619224 10.2329
48.068141469543484 10.2108
48.09252020552573 10.2116
48.11690125590099 10.1845
48.1414751266064 10.1663
48.16586082917454 10.1639
48.19024885144316 10.1507
48.2146391951793 10.079
48.239222439012764 10.0835
48.26361744916137 10.0455
48.28801478610016 10.0453
48.31241445160131 10.0214
48.337007097209366 10.025
48.36141144338331 10.0121
48.38581812345755 9.9782
48.41022713920929 9.99092
48.434829215320704 9.93117
48.45924292604658 9.943060000000001
48.48365897780325 9.89146
48.50807737237308 9.867989999999999
48.532688907799276 9.83652
48.55711201168574 9.8308
48.581537463754074 9.83103
48.60615611725119 9.85697
48.63058628942721 9.832180000000001
48.65501881516546 9.77975
48.6794536962573 9.784989999999999
48.70408185970339 9.742469999999999
48.72852147531801 9.718580000000001
48.75296345168211 9.68716
48.77740779059232 9.70346
48.80204549302823 9.65172
48.82649458091802 9.626330000000001
48.85094603676547 9.62448
48.87539986237231 9.6012
48.90004713292306 9.60811
48.92450572200832 9.57697
48.94896668628025 9.57911
48.97343002754588 9.54815
48.99808689542115 9.52551
49.02255501470614 9.52253
49.04702551642794 9.515830000000001
49.0714984023988 9.47975
49.096164896893235 9.43104
49.120642575466796 9.42907
49.145122643748394 9.46383
49.16960510355558 9.40514
49.19428125404938 9.3942
49.2187685210852 9.40277
49.243258185121555 9.3455
49.26794160167084 9.32507
49.2924360839405 9.303410000000001
49.31693296869764 9.27719
49.34143225776915 9.2604
49.36612538195438 9.22868
49.39062950396021 9.22379
49.41513603578346 9.23255
49.4396449792564 9.1908
49.46434784069503 9.2172
49.488861631846454 9.112210000000001
49.513377840166804 9.14621
49.537896467493745 9.13744
49.56260909589029 9.10271
49.587132585683285 9.1323
49.611658500018365 9.08602
49.636186840738596 9.047989999999999
49.66090926588511 9.05848
49.685442483902584 9.03599
49.70997813385706 9.007060000000001
49.734516217597076 8.97142
49.75924846937352 8.97447
49.7837914452858 8.95059
49.80833686055187 8.93722
49.83288471702571 8.89235
49.85762682540054 8.89323
49.882179588965734 8.87798
49.9067347993235 8.87305
49.93129245833333 8.885480000000001
49.95604445336378 8.889669999999999
49.98060703442832 8.83419
50.005172069746266 8.80162
50.02993150438364 8.80332
50.05450147301533 8.78978
50.07907390151433 8.75512
50.10364879174981 8.70765
50.12841816587289 8.704260000000001
50.1529980044635 8.714139999999999
50.17758031042124 8.714210000000001
50.20216508562089 8.66708
50.22694442953363 8.66564
50.25153416817468 8.629380000000001
50.27612638170508 8.628960000000001
50.300721072005196 8.6092
50.325510416102105 8.58934
50.350110084975064 8.587489999999999
50.37471223628208 8.54035
50.39931687190919 8.54605
50.424116246675766 8.51421
50.44872587605249 8.46993
50.47333799543065 8.50531
50.49795260670191 8.46922
50.52276204271512 8.473939999999999
50.54738166295838 8.40451
50.57200378079314 8.468010000000001
50.596628398116835 8.41877
50.62144792604559 8.40318
50.646077567609396 8.35747
50.670709714377715 8.38274
50.69553683636198 8.35024
50.72017401885922 8.308119999999999
50.7448137122895 8.3303
50.76945591856022 8.28815
50.79429318636823 8.28926
50.818940443716784 8.27714
50.84359021965163 8.21705
50.868242516085964 8.22772
50.893089960641895 8.207930000000001
50.917747323549435 8.17575
50.94240721271973 8.20958
50.96706963007175 8.15315
50.99192728239342 8.101230000000001
51.01659478166073 8.11577
51.04126481489051 8.11758
51.06593738400761 8.10716
51.090805275207074 8.09455
51.11548294172845 8.0884
51.14016314993547 8.0469
51.164845901758845 8.06984
51.18972406304274 8.02445
51.21441192780656 7.994269999999999
51.23910234200271 7.98765
51.2637953075678 7.95215
51.288683770237945 7.989260000000001
51.31338186432707 7.94068
51.33808251561888 7.945
51.362978729967345 7.92024
51.387684521509755 7.87815
51.41239287610203 7.8725
51.437103795691165 7.8479399999999995
51.46201036644977 7.81933
51.486726441956634 7.81345
51.51144508832545 7.835210000000001
51.536166307509156 7.783410000000001
51.56108326624387 7.789460000000001
51.58580965706056 7.7698100000000005
51.61053862657523 7.7243699999999995
51.635270176746864 7.729260000000001
51.66019755512065 7.68498
51.68493429268881 7.68576
51.70967361681515 7.6897899999999995
51.73441552946465 7.653519999999999
51.759353359237934 7.64032
51.7841004750961 7.61908
51.80885018539685 7.63351
51.833602492111254 7.60814
51.8585508051424 7.56958
51.883308330926425 7.619789999999999
51.90806845906181 7.51673
51.932831191525715 7.52054
51.95779001977161 7.46442
51.98255798721516 7.440930000000001
52.00732856494335 7.433560000000001
52.03229530577543 7.455369999999999
52.057071130455945 7.45715
52.081849571391054 7.43566
52.106630630568695 7.43664
52.13160794279417 7.38674
52.15639426492067 7.383830000000001
52.18118321127822 7.38041
52.205974783860896 7.34415
52.23096269971011 7.3236
52.255759551287994 7.325310000000001
52.280559035098186 7.29218
52.30536115314103 7.32648
52.33035970494467 7.288760000000001
52.35516711807904 7.29772
52.37997717147198 7.2371300000000005
52.40478986713005 7.23433
52.42979908731974 7.232360000000001
52.454617094216 7.199089999999999
52.47943774942214 7.20385
52.50426105495102 7.187119999999999
52.529280976059844 7.1788
52.554109609024096 7.170939999999999
52.57894089837482 7.1395100000000005
52.60377484613117 7.11115
52.62880550079408 7.11222
52.65364479223379 7.09013
52.67848674816189 7.10575
52.70352547971946 7.08179
52.72837279155837 7.059819999999999
52.753222773982785 7.002489999999999
52.778075429022984 7.04489
52.80312495150885 7.02725
52.827982978797436 6.9983
52.85284368481815 6.93487
52.87770707160767 6.928560000000001
52.90276741793998 6.9301699999999995
52.92763619336701 6.93549
52.952507655698504 6.9001399999999995
52.977381806977576 6.88357
53.00245301017842 6.87113
53.02733256653592 6.8834800000000005
53.052214817996074 6.83585
53.077099766608484 6.81302
53.102181859804446 6.804139999999999
53.127072229988265 6.872610000000001
53.15196530349892 6.81026
53.17686108239249 6.77481
53.20195409881522 6.75927
53.22685531582556 6.74269
53.25175924441303 6.74558
53.27666588664027 6.711760000000001
53.30176985962693 6.699889999999999
53.3266819565689 6.710719999999999
53.35159677336455 6.69585
53.376514312083096 6.672999999999999
53.40162927507703 6.6683
53.42655228516116 6.691330000000001
53.45147802340193 6.62395
53.47660125628886 6.6017
53.50153247842639 6.572830000000001
53.52646643496923 6.5692699999999995
53.55140312799818 6.58185
53.576537409691696 6.5563
53.60147960336152 6.53372
53.626424539786164 6.51029
53.65137222105307 6.51553
53.67651758529126 6.49707
53.70147078399681 6.466019999999999
53.72642673383343 6.45161
53.75138543689533 6.44492
53.776541917524526 6.45981
53.801506154876755 6.43516
53.826473151763246 6.42804
53.851442910284916 6.4007
53.87661054126026 6.36596
53.9015858509782 6.35136
53.92656392866066 6.37478
53.95154477641532 6.36281
53.976723591801296 6.32883
54.00171000771266 6.34439
54.02669920004598 6.32739
54.051691170915745 6.32069
54.076881204886796 6.29258
54.101878760928514 6.25636
54.12687910187696 6.2329099999999995
54.152077577768296 6.21272
54.1770835166946 6.2038400000000005
54.20209224691339 6.18549
54.22710377055121 6.1702
54.25231352511594 6.15055
54.27733066384342 6.13901
54.30235060239643 6.1616599999999995
54.32737334290836 6.14234
54.35259441062629 6.0953800000000005
54.377622783395324 6.0365400000000005
54.40265396455061 6.04207
54.42768795623251 6.06096
54.45292037169559 6.01947
54.477960012857906 6.076919999999999
54.50300247099511 6.02681
54.52804774825457 5.98649
54.55329154616743 5.95875
54.57834249018678 5.94359
54.6033962597977 5.88745
54.6284528571545 5.89575
54.653708072335164 5.88879
54.67877035378786 5.86051
54.70383546947698 5.79252
54.72890342156389 5.84676
54.7541700889442 5.77833
54.77924374251975 5.77409
54.8043202390049 5.72604
54.82959552413022 5.6888
54.8546777351945 5.67716
54.87976279569621 5.68141
54.90485070780914 5.71999
54.930137506558005 5.59132
54.95523115074295 5.63922
54.98032765308844 5.676830000000001
55.005427015775496 5.60769
55.03072536339621 5.60114
55.05583047570572 5.51234
55.080938454927676 5.5273699999999995
55.10604930325027 5.50943
55.131359235107396 5.50514
55.15647585066083 5.48091
55.181595341907496 5.42494
55.20671771104285 5.40741
55.232039262617704 5.41967
55.25716741665048 5.34737
55.28229845518636 5.347119999999999
55.30743238042802 5.2956
55.33276558731939 5.33971
55.357905315183636 5.32533
55.383047936390035 5.25408
55.40819345314859 5.227469999999999
55.433538351073295 5.209630000000001
55.458689688238415 5.23685
55.483843927614096 5.17598
55.509197623043605 5.117369999999999
55.53435769621134 5.12818
55.55952067826466 5.12133
55.5846865714265 5.0587599999999995
55.61005202069737 5.02222
55.63522376553902 5.02911
55.66039842818645 4.99027
55.68557601087004 4.9170300000000005
55.7109532500271 4.958819999999999
55.73613670233794 4.98278
