TT I
1.2716486653135266 7.305339999999999
1.2939594142134223 7.06543
1.3162702121660406 6.6382
1.3385810600174564 6.3674800000000005
1.3608919586137629 6.51773
1.383202908801069 6.71904
1.405513911425503 6.22385
1.4278249673332093 6.4238
1.4501343378461518 5.57636
1.4724455028545926 5.83137
1.4947567236847858 6.14305
1.517068001182951 6.588660000000001
1.5393793361953272 6.11284
1.5616907295681737 5.7151
1.5840021821477681 5.2701400000000005
1.60631369478041 5.17643
1.6286252683124185 5.02245
1.6509369035901333 4.9736400000000005
1.6732468618895553 4.830030000000001
1.695558623192809 4.3761
1.7178704487808514 4.75049
1.7401823395001077 4.69923
1.7625012545597203 5.28036
1.7848028405262486 5.127680000000001
1.8071218901122095 4.98767
1.8294236121921872 3.9844199999999996
1.8517427996910911 4.38678
1.8740620574440425 4.7190900000000005
1.8963639900671978 4.66211
1.9186833908139995 4.5159400000000005
1.9409854680117449 4.49443
1.9633050151394713 4.55984
1.9856246367570705 4.2386099999999995
2.0079269371922672 4.78927
2.03024671027244 4.75884
2.0525491637446027 4.47381
2.074869091674931 4.758769999999999
2.097171701569106 4.6706900000000005
2.1194917877373847 4.36875
2.141811954326636 4.51274
2.164114805233074 4.8110800000000005
2.186435135143035 5.040019999999999
2.208738150935709 6.06792
2.231058647554722 6.74816
2.2533792288321184 5.94086
2.275682498336085 5.0265699999999995
2.298003251406138 5.60468
2.3203066942619714 5.196619999999999
2.3426276225136022 5.80058
2.3649486396617507 6.08281
2.387252348930071 6.40752
2.4095735463442893 5.988919999999999
2.4318774374315884 6.20064
2.4541988185014043 6.59307
2.476502894794693 6.94039
2.498824462909887 7.05265
2.521146125856138 7.17068
2.5434504863470337 7.62338
2.5657723414244717 7.55629
2.588076895590662 8.51423
2.610398946189713 8.17522
2.6327210958598384 8.28018
2.6550259469304716 8.17972
2.6773482972090137 8.57795
2.6996533504259 8.56897
2.7219759047039602 8.57157
2.744298562293959 8.99587
2.7666039251246595 8.705639999999999
2.7889267918020164 8.29168
2.8112323652516555 7.730460000000001
2.833555444408179 8.448160000000001
2.8558786311183852 8.4218
2.8781845268938557 8.61214
2.9005079311721484 9.09573
2.9228140460410397 8.68324
2.9451376712799635 8.821
2.967444008632326 8.83638
2.9897678582247247 9.389330000000001
3.0120918213106695 9.71678
3.0343984987899373 10.7676
3.0567226913198637 10.8693
3.079029599759726 11.617
3.101354025127254 11.9381
3.123678568232338 12.8778
3.145985829517914 12.9455
3.16831061055229 13.4886
3.1906181112775593 14.154000000000002
3.212943133635653 14.4378
3.2352682779763207 14.5818
3.2575761442691227 14.8788
3.2799015350264273 15.0609
3.302209649240067 15.9285
3.3245352898092655 16.5294
3.3468436553365257 17.062
3.369169549113219 17.410999999999998
3.3914955708171384 18.1651
3.413804319727358 18.6919
3.4361305997334863 18.8853
3.4584396084414553 19.5177
3.4807661501462652 19.7026
3.503092824025881 20.3254
3.5254022288463154 19.9445
3.5477291695206588 20.6277
3.5700388426251948 21.1989
3.5923660534916446 21.7087
3.6146934007816114 23.5712
3.637003482731501 28.5215
3.6593311053109985 30.0291
3.681641464033634 26.8578
3.7039693653009733 24.5516
3.726297407241705 24.9694
3.7486081875460804 25.2369
3.7709365132734978 25.159000000000002
3.793247578841633 25.7981
3.8155761917550093 26.2869
3.8378875459837216 26.0835
3.8602164494827234 26.5204
3.882545499606844 27.6652
3.9048572932539183 28.4688
3.9271866390645718 28.7241
3.9494987298666713 28.9821
3.971828374764527 29.2929
3.9941581705403255 30.135
4.016470713506008 30.8604
4.038800813471445 31.4188
4.061113662089144 32.4561
4.0834440696459176 32.6294
4.105774632334751 32.8756
4.128087945865126 33.8674
4.150418821249301 34.4094
4.172732448931298 35.0687
4.195063640413578 35.9118
4.2173775856475215 36.873000000000005
4.239709096631102 40.1345
4.262040768704612 55.5876
4.284355196706267 64.7045
4.306687193387355 55.1034
4.329001947444346 44.0905
4.35133427213731 42.0304
4.373666762177566 42.4701
4.395982011761091 42.8304
4.418314834921175 43.9852
4.44063041906622 45.4838
4.4629635787515625 47.351000000000006
4.4852969080429785 47.9782
4.5076130004776225 48.6294
4.529946671403969 48.8234
4.552263106909177 49.6544
4.574597122877047 51.3261
4.596931312711224 52.0886
4.619248269273446 53.2941
4.6415828092605835 54.3888
4.663900117405352 55.5034
4.686235010953232 57.1976
4.708552674085913 58.5341
4.730887924602802 59.6462
4.753223354952695 61.2092
4.775541557023902 62.6778
4.797877349456786 64.07300000000001
4.820195915032126 66.3717
4.842532072957498 67.9237
4.864868414979744 69.9408
4.88718753227192 71.8864
4.909524244902505 73.7572
4.931843734218147 75.8644
4.954180820867835 78.0563
4.976518095879839 81.1668
4.998838149695359 84.4929
5.021175803844231 87.7263
5.043496238205739 90.3358
5.065834274903528 95.2046
5.088172504230693 99.0818
5.1104935158799565 103.537
5.132832132875765 112.48299999999999
5.155153533596801 126.694
5.1774925416746225 148.792
5.199814334878411 280.166
5.2221537374521505 967.9789999999999
5.244493338631803 2983.33
5.266815727034316 8038.18
5.289155727832427 14147.3
5.311478517248165 8993.37
5.333818921080011 2611.2
5.356159527788849 510.977
5.3784829252032536 187.3
5.400823940070432 141.722
5.423147747031976 125.616
5.445489173474152 117.295
5.467830807066149 112.671
5.490155234831516 109.054
5.512497285125229 105.90299999999999
5.534822130975162 104.397
5.557164601388673 102.29700000000001
5.579489868738879 99.204
5.601832762690846 97.7368
5.6241758697774475 96.3489
5.646501775867269 96.3746
5.668845311622074 95.4402
5.691171647754637 94.5652
5.713515615597765 93.65299999999999
5.735859800852677 92.8309
5.758186788542988 91.60799999999999
5.780531411018185 92.0201
5.802858837297399 91.4775
5.825203900414495 90.9862
5.8475491852224 91.1267
5.869877275883075 91.5855
5.892223006467101 92.54700000000001
5.914551544266608 93.1649
5.936897724049891 95.9836
5.959244129804903 100.831
5.981573344815301 116.11
6.0039202049061 196.235
6.026249875609095 470.39
6.04859719346037 1013.99
6.070927323278297 2303.4
6.093275102315365 4729.78
6.115623113320588 5483.64
6.137953938319995 2994.81
6.160302415650845 817.6030000000001
6.182633708324452 194.13
6.2049826554078376 104.35700000000001
6.227331838745022 87.7987
6.249663839443684 82.2247
6.27201349767565 78.9239
6.294345974611799 77.009
6.316696111167083 76.2422
6.339046488263839 74.5632
6.361379686074702 71.6317
6.383730546639482 69.7714
6.406064229255215 67.6541
6.428415576718203 67.436
6.450749747566656 66.6962
6.47310158535871 65.3501
6.495453669698332 64.8969
6.517788579421056 64.1778
6.540141159237969 62.8681
6.562476565766648 62.496
6.5848296444934045 61.9089
6.607182974060425 61.1413
6.6295191323281015 60.7265
6.651872965955752 60.2554
6.6742096296068985 62.0937
6.6965639707294615 66.2934
6.71891856698715 66.0534
6.741255995248479 61.5515
6.763611104154477 58.7568
6.785949046381137 57.6601
6.808304671371482 56.7646
6.8306605557940046 56.7943
6.852999275508618 56.324
6.875355681171544 56.1334
6.897694923437771 55.8027
6.92005185377892 55.442
6.9423916220322655 55.6448
6.964749080490181 54.7634
6.987106804399774 54.7785
7.009447368180821 54.8016
7.031805625367033 54.5809
7.054146723727803 54.5418
7.076505517631004 54.403
7.098864581288365 54.1967
7.121206488070854 54.2787
7.143566093607822 53.9275
7.165908543567245 53.9651
7.188268694426048 53.5933
7.2106291193438095 53.5239
7.232972390625943 53.5683
7.255333366030969 54.5609
7.277677189091925 59.1455
7.300038718428332 64.5729
7.322400526130865 62.0751
7.344745183422596 56.8384
7.367107550224791 54.1058
7.389452767901992 53.9407
7.411815697249891 53.6983
7.434161478756298 53.6238
7.456524974096713 53.5547
7.478888753837185 53.7467
7.501235387657368 55.2282
7.523599738562711 60.2101
7.545946944825532 67.5649
7.568311870344528 69.5309
7.5906770845765665 62.3575
7.613025156078678 57.138999999999996
7.635390950099687 55.5392
7.657739602662809 54.7378
7.680105979923558 54.738
7.702472650212829 55.3854
7.724822180948224 55.1558
7.747189439655568 55.3173
7.769539560075357 55.586999999999996
7.791907410653562 56.0634
7.81425812420825 56.3843
7.836626570110925 56.5633
7.858995315087906 57.2814
7.881346924933401 57.1309
7.903716270417482 57.913000000000004
7.926068482028405 58.3551
7.948438431475253 58.7302
7.9708086843180235 59.696999999999996
7.993161805171116 60.4249
8.015532667162402 60.5389
8.037886398416653 61.8204
8.060257873014221 62.2406
8.082629655331942 62.5878
8.104984308787587 63.2829
8.127356708900503 64.4606
8.149711981398308 65.8391
8.172085002766314 66.8111
8.194458336181368 67.0297
8.216814543847752 67.8245
8.23918850371002 68.6958
8.26154533906492 69.8222
8.283919928836452 71.5862
8.306277395339652 72.181
8.328652618483376 73.855
8.351028159736202 75.9176
8.373386579575245 78.2286
8.395762759396959 79.4455
8.418121819038275 82.1163
8.440498640894003 86.2856
8.462875785192262 91.5749
8.485235811156207 103.664
8.507613602688501 151.935
8.529974277114228 265.126
8.552352719347912 426.99199999999996
8.574731488360351 704.775
8.59709314210385 1247.46
8.619472567021075 1979.63
8.64183487789147 2380.43
8.664214962183097 1813.16
8.686577933647762 880.3789999999999
8.708958680784317 324.928
8.731339760774953 147.476
8.753703729764451 106.45
8.77608547780821 97.4291
8.798450116065078 94.1393
8.820832535634787 91.897
8.843215292401656 90.5189
8.865580941199045 89.258
8.887964374703538 87.9658
8.910330701447199 87.3064
8.932714815164482 86.7873
8.955099270424924 85.7141
8.977466620733543 84.9634
8.999851761421976 84.5787
9.022219798361645 83.7004
9.04460562795561 83.6921
9.066991803441677 83.2375
9.089360876979615 83.1067
9.111747746589993 82.7195
9.13411751544971 82.5045
9.156505082664324 82.3919
9.178875550323522 82.9448
9.20126381862328 85.3759
9.223652438908596 94.0587
9.246023961427412 105.556
9.26841328802173 106.561
9.290785518039224 97.292
9.313175554425882 88.1009
9.335565947154315 84.0826
9.357939245086508 83.85700000000001
9.380330352834827 83.6003
9.40270436697103 83.6269
9.425096193225055 83.2374
9.447488380180165 84.3955
9.469863475295412 84.6625
9.492256385987508 85.13600000000001
9.514632206018318 85.6748
9.537025843935714 85.8918
9.559402392368193 86.3872
9.581796761000229 87.5841
9.604191496441521 87.7055
9.626569144158516 88.46600000000001
9.648964615551032 89.7861
9.671343000390081 90.8151
9.693739211225699 91.9726
9.716135793237463 92.4263
9.738515290448102 92.8871
9.760912617143402 94.3853
9.783292860202891 95.3795
9.805690935076182 96.7586
9.828089385495742 97.495
9.850470754023561 98.8804
9.872869957865444 101.348
9.89525208097539 104.991
9.917652041736662 108.54299999999999
9.940052382417589 112.45100000000001
9.962435644102392 126.945
9.984836746950979 171.03799999999998
10.007220771957746 258.27099999999996
10.029622640473708 389.38300000000004
10.052007432299963 586.271
10.074410069984072 873.1160000000001
10.096813093716005 1326.29
10.119199042482517 1848.0
10.141602840636468 1993.4
10.163989564971628 1500.5
10.186394141051062 785.11
10.208799107559706 338.171
10.231187001965623 168.72099999999998
10.253592751657669 120.20700000000001
10.275981430388155 109.589
10.298387966769793 106.765
10.320794897965431 105.83
10.343184759907361 104.94
10.36559248305461 103.333
10.387983138083852 102.65299999999999
10.410391656691655 105.611
10.432800574501677 117.661
10.455192425893369 141.968
10.47760214443012 174.79
10.499994797678786 223.46
10.522405320453982 302.155
10.54479877906917 418.81300000000005
10.567210109595656 538.726
10.5896218454736 566.944
10.612016518879773 481.296
10.634429067781074 308.978
10.656824555333241 181.99900000000002
10.679237920773568 121.665
10.701651695961992 100.135
10.724048411481384 92.7019
10.746463008485165 87.6796
10.768860546937125 85.0919
10.791275969274796 82.8465
10.81369180576079 82.1064
10.836090585366925 80.9248
10.858507252467449 79.5995
10.88090686379991 78.3223
10.903324365036394 77.6823
10.925724811614439 76.6052
10.948143150509463 76.4442
10.970561909719066 75.5056
10.992963615930844 74.6842
11.015383218085756 73.7678
11.037785768347074 72.7703
11.06020621697282 72.232
11.082627090322113 71.893
11.105030913430326 71.0929
11.12745263854165 70.6876
11.149857314510728 69.9653
11.172279894912576 70.7637
11.194702904450653 70.0976
11.217108866490921 68.8763
11.239532736615194 68.1193
11.26193956033512 67.9324
11.284364294577085 67.4832
11.306789462371718 66.6945
11.329197585398376 66.3368
11.351623622610898 66.2307
11.37403261614354 65.6598
11.396459526308487 65.4829
11.418869393879497 65.2122
11.441297180532617 64.795
11.463725406927658 64.7312
11.486136592353875 64.3931
11.508565700543707 63.6119
11.530977768845315 64.1378
11.553407762368774 63.7651
11.575838200059769 63.6441
11.598251599479612 63.4181
11.620682927815501 63.1844
11.64309721895548 63.1201
11.665529441478206 62.7588
11.687962112597958 62.4197
11.710377748130886 62.6017
11.732811318753434 62.4896
11.755227854859067 62.3711
11.777662328529495 62.2061
11.800079768750786 62.2408
11.822515149015453 62.0403
11.844950984084935 62.2974
11.867369787303163 62.2462
11.889806534289491 62.8504
11.912226250487029 64.4497
11.934663912939751 67.0061
11.9571020346363 68.7736
11.979523127133968 68.4255
12.001962169624331 66.7737
12.024384183972964 65.6031
12.046824150809913 68.0103
12.069264581333726 73.8913
12.091687985297767 81.7157
12.11412934550045 92.1697
12.136553680195208 107.059
12.158995973632788 129.149
12.181438735204349 159.224
12.20386447284199 192.364
12.226308172985636 206.804
12.24873485024193 192.824
12.271179492516982 154.221
12.293607112949127 113.935
12.316052700916226 85.4703
12.338498763250042 70.4622
12.360927805303868 65.0831
12.383374818673879 64.0528
12.405804812803074 63.6409
12.428252780773262 63.8
12.45070122756722 63.6905
12.473132656675375 63.598
12.49558206341869 63.9738
12.518014453510101 63.6127
12.540464823770117 63.7187
12.562915677315177 64.1668
12.58534951575545 64.6647
12.607801338171472 64.5634
12.630236146511358 65.5377
12.652688941369085 66.2855
12.675124723177234 66.5522
12.697578494048786 66.365
12.720032754458185 66.2813
12.742470003354093 66.8081
12.764925245138771 67.4746
12.787363476431278 67.5137
12.809819703166806 67.7151
12.83227642391173 68.5953
12.854716135692716 69.4472
12.877173846755147 70.3363
12.899614549869717 70.4809
12.9220732548287 71.771
12.94453245827299 72.2076
12.966974655289818 73.26899999999999
12.989434858002571 74.1161
13.011878055298721 75.2158
13.034339260862497 75.88600000000001
13.056800969391883 77.5663
13.079245674017244 80.0045
13.101708390774869 81.7873
13.12415410463411 87.7489
13.146617833206086 100.538
13.169064559883248 116.31200000000001
13.191529303857127 135.12
13.213994557076367 160.531
13.236442809902437 198.054
13.258909083908291 253.05599999999998
13.28135835851934 320.724
13.30382565690295 391.32599999999996
13.326293469022952 438.92900000000003
13.348744283242008 410.365
13.371213125129904 333.094
13.39366497011003 234.84099999999998
13.416134845360597 157.248
13.438605238843131 115.116
13.46105863690397 101.429
13.483530069144786 104.005
13.505984506951902 113.411
13.528456981549432 127.685
13.550929978879088 145.379
13.573385983253365 169.43900000000002
13.595860028340867 206.516
13.618317081455832 258.324
13.64079217790333 318.78700000000003
13.663250283359057 373.43
13.685726434770173 377.524
13.708203115221277 330.103
13.730662806148091 248.47799999999998
13.75314054697177 174.34799999999998
13.775601299246777 120.189
13.798080104050406 93.6607
13.820559442405358 84.3041
13.843021793671388 81.2275
13.865502201420897 79.8114
13.887965623051947 79.3064
13.910447103807167 78.255
13.932929122629764 77.009
13.955394156785959 76.6058
13.977877254034569 75.8175
14.000343367582113 75.2511
14.022827546871707 74.4759
14.045294743423524 73.817
14.06778000837062 73.1255
14.090265817715476 73.5086
14.112734645763819 74.1508
14.13522154619454 75.4373
14.157691466286913 76.2064
14.180179461423874 75.6891
14.202668005486178 73.7618
14.22513957064374 71.7565
14.247629214846473 70.5176
14.270101881097517 70.1606
14.29259262906496 69.808
14.315083930490205 69.8043
14.337558255389705 69.7117
14.360050666019726 69.7044
14.382526101071944 68.9398
14.405019624534942 68.8899
14.427513705993134 68.81
14.449990813291825 68.8889
14.47248601302899 68.809
14.49496423954951 68.6468
14.517460561197822 68.65
14.539939910570322 68.605
14.562437357763558 68.7856
14.58493536931253 69.3125
14.607416409993311 69.1856
14.62991555254159 69.5743
14.652397725157423 69.5874
14.674898002342799 69.9388
14.697398848433282 70.0198
14.719882725991326 70.77600000000001
14.74238471217934 71.4743
14.764869730765593 74.6265
14.787372860692983 79.3251
14.809876564079925 86.0708
14.83236330125751 93.8599
14.854868153850365 103.74799999999999
14.877356041159485 118.00200000000001
14.899862046604186 135.671
14.922351087688757 160.756
14.944858249632887 191.61700000000002
14.967365991421232 217.114
14.989856770231246 228.87400000000002
15.012365673994204 215.489
15.03485761569738 181.40599999999998
15.05736768508665 138.357
15.07987833888692 108.006
15.102372032001655 87.0707
15.124883856909658 75.5101
15.14737872204565 71.8553
15.169891721717274 70.1532
15.192405310371893 69.8515
15.214901940621196 69.2117
15.237416709527137 68.3687
15.259914520936249 68.3599
15.282430473753607 67.5719
15.304947020131227 67.1707
15.327446610371178 67.1828
15.349964346154254 66.6541
15.372465126703139 66.403
15.394984055556009 66.5544
15.417486030076159 66.3063
15.44000615566487 65.8576
15.462526881230803 65.7942
15.485030653812652 65.8266
15.507552581617434 65.385
15.530057557334603 65.4966
15.55258069104857 65.5317
15.575104429329837 65.8521
15.597611216864632 65.6316
15.620136166564563 65.7836
15.6426441664095 66.4225
15.665170331202765 68.5191
15.687697105158826 72.6358
15.710206930593545 77.3939
15.732734925158933 83.6635
15.755245972089478 91.7312
15.77777519094324 100.34200000000001
15.800287463046663 113.156
15.822817909869592 131.411
15.84534897229804 152.498
15.867863089299354 177.111
15.890395385222186 192.472
15.912910736597423 193.105
15.935444269699861 175.646
15.957978423016485 146.455
15.980495633101265 114.116
16.003031029129367 90.1546
16.02554948280019 74.2124
16.048086125229432 67.135
16.070623392487107 64.617
16.09314371869582 63.2989
16.11568223789321 61.8785
16.13820381691126 61.1724
16.160743591742527 60.382
16.183283996022084 59.7413
16.205807461423195 58.8954
16.228349126881973 58.5725
16.25087385432698 58.4936
16.27341678466365 57.9712
16.29594277784926 57.6788
16.31848697676433 57.3777
16.341031811604868 57.0258
16.36355971058487 56.8391
16.3861058195587 56.748999999999995
16.40863499352978 56.0719
16.431182380342005 55.9153
16.453730407713202 55.5024
16.476261501364792 55.2857
16.498810812136167 54.9783
16.52134319004079 55.2053
16.54389378792203 55.1717
16.566445031001553 55.0561
16.588979342490088 55.0578
16.61153187824822 54.699
16.634067483263312 54.5232
16.656621315414416 54.5124
16.679175797408888 54.3974
16.701713349928728 54.4337
16.72426913389191 54.6731
16.74680798922351 54.376999999999995
16.76936507887444 54.2978
16.791905240734874 54.2973
16.814463639794468 54.2249
16.837022695210294 54.4253
16.859564824093756 54.5683
16.882125194503903 54.9392
16.904668639217885 55.2893
16.927230328348003 55.3637
16.949792678493612 55.8499
16.972338104193863 55.4944
16.994901778652235 55.2672
17.017448529496576 55.3169
17.040013531998152 55.6018
17.06257920018044 55.9744
17.0851279459922 56.9814
17.107694947817667 57.918
17.130245028099072 59.0012
17.15281336730298 60.6439
17.17536478578733 62.4513
17.19793446610687 64.6865
17.220504818648422 67.6441
17.243058251703697 70.7949
17.265629950971032 75.1737
17.288184731571736 79.6675
17.310757781306908 83.2011
17.33333150794385 82.2686
17.355888317140174 79.756
17.37846339986244 74.4092
17.401021565958885 68.8751
17.42359800851343 64.3688
17.44617513265564 61.5449
17.468735341390783 59.7503
17.491261035594565 58.9571
17.51396340099364 58.728
17.536490463869136 58.9268
17.559018209820174 58.8915
17.58154663977963 58.9987
17.604251766089718 59.2167
17.626781572227713 59.3007
17.64931206518155 59.4516
17.671843245885103 59.8435
17.69455114821572 59.9771
17.717083712612634 60.636
17.739616967569667 60.8905
17.762150914021706 61.5699
17.78486160749854 61.8537
17.807396945166804 62.4815
17.829932977143503 63.0331
17.85246970436452 64.1642
17.875183204129467 66.5777
17.897721330097664 69.3108
17.920260154126645 72.3389
17.942799677153296 76.1941
17.9655159983646 80.3726
17.988056927677544 85.382
18.010598558807683 92.9316
18.033140892692916 102.633
18.05586005052525 113.82
18.07840379824407 125.477
18.10094825154059 134.68
18.12366954819864 139.776
18.146215420998306 136.566
18.16876200220057 126.852
18.191309292745153 112.15799999999999
18.214033452627167 99.9865
18.236582170236648 90.7109
18.259131600016456 86.4239
18.281681742907335 86.97200000000001
18.304408781233683 91.5609
18.32696035875955 97.0486
18.349512652227624 101.95100000000001
18.372065662579683 104.99799999999999
18.394795594587553 103.965
18.41735004715306 99.0179
18.43990521943684 91.07600000000001
18.46246111238171 82.881
18.485193953325208 74.1092
18.507751296070428 68.5549
18.530309362314178 64.95
18.552868153000343 63.2407
18.57560391815056 62.1623
18.59816416623245 61.7505
18.620725141597372 61.0885
18.643286845190268 60.3348
18.666025549835414 60.122
18.688588718427933 59.5413
18.711152618092243 59.2926
18.73389353884365 59.0719
18.75645890921984 58.5101
18.77902501351406 58.2931
18.801591852673102 58.2754
18.824335739722738 57.8874
18.846904057212626 57.701
18.8694731124168 57.6385
18.89204290628315 57.6944
18.914789774966803 57.526
18.937361054791623 57.0791
18.959933076131318 56.8297
18.982505839934877 56.6911
19.00525570560582 56.7146
19.027829963004184 56.341
19.05040496572238 56.4192
19.072980714710468 56.4424
19.095733592739563 56.6634
19.11831084296757 57.027
19.140888842324735 57.5018
19.16346759176222 57.8168
19.18622349753803 58.6442
19.208803755869358 59.7919
19.231384767143577 61.0669
19.253966532312948 62.5805
19.276725481241822 64.7195
19.29930876296784 67.2287
19.3218928014549 70.0533
19.34465404436217 72.7307
19.36723960516257 74.9264
19.389825925592426 75.2507
19.412413006605938 73.22800000000001
19.43517731967805 69.4564
19.457765930683355 65.8699
19.48035530514408 61.4515
19.50294544401556 58.1411
19.525712842708348 55.9411
19.54830451925909 54.6935
19.570896963095727 53.9197
19.593490175174704 53.7368
19.616260674962184 53.6547
19.638855432416964 53.1967
19.661450960992624 53.5807
19.68404726164677 53.4085
19.706820878021247 53.067
19.729418731756834 53.261
19.752017360452857 52.9938
19.77461676506804 53.3977
19.797393513540218 53.4423
19.819994478951667 53.7015
19.84259622316767 54.1987
19.8651987471481 54.7448
19.887978643247177 55.3854
19.91058273574792 55.9243
19.933187610901943 56.5225
19.955969879466828 57.6494
19.97857632894404 59.1502
20.00118356396599 60.9326
20.023791585494575 63.041000000000004
20.046577028914875 65.6275
20.069186632506966 67.8588
20.091797025500632 69.5532
20.114408208858933 70.2065
20.137196842715273 69.6222
20.159809615886765 67.8726
20.18242318232135 65.0983
20.20503754298326 63.1076
20.227829382875154 61.998000000000005
20.250445341109344 62.0243
20.27306209647285 62.8387
20.29567964993108 64.3374
20.31847471147704 65.0711
20.34109387027612 65.6542
20.363713830075454 65.1517
20.386334591841646 63.1217
20.409132890679302 60.2476
20.431755265564437 57.0998
20.454378445325528 54.376999999999995
20.477002430930366 52.659
20.499803982716553 51.5208
20.522429589228004 50.674
20.54505600449589 50.3856
20.567683229489194 50.3659
20.590488049900088 50.0359
20.61311690359731 50.0489
20.63574656993626 49.8285
20.658553853717297 49.2819
20.681185154618298 49.3211
20.703817271080066 49.31100000000001
20.72645020407368 49.0144
20.749260783967177 49.1441
20.771895359337133 49.113
20.794530754161617 49.0276
20.817166969412938 48.9953
20.83998086114876 48.8913
20.86261872660049 48.6518
20.885257415405402 48.4724
20.90789692853701 48.5098
20.930714147864748 48.3135
20.953355319030678 48.5219
20.97599731745334 48.5794
20.99864014410749 48.3255
21.021460706796564 48.5479
21.044105199328826 48.7733
21.06675052302631 49.0149
21.089396678865015 49.0285
21.112220600704806 49.2545
21.134868430275347 49.6861
21.15751709492456 50.0783
21.180166595629693 50.2536
21.202993892429635 50.8745
21.22564507473034 51.1749
21.24829709602816 51.4607
21.27112693608965 51.2741
21.293780644891275 51.1314
21.316435195634053 50.2911
21.339090589297417 49.6536
21.361923832041875 49.2927
21.384580921090404 48.647
21.407238856007325 48.1602
21.429897637773326 48.2886
21.45273429906592 48.3092
21.475394784108598 48.3279
21.498056118951983 48.2159
21.520718304578022 48.3087
21.543558400304388 48.3293
21.566222297108816 48.6297
21.58888704765135 48.7242
21.61155265291521 49.0426
21.63439619898156 49.7243
21.657063523335786 50.06399999999999
21.67973170537063 50.7594
21.7024007460706 51.2029
21.72524775840385 52.2186
21.747918526116475 53.168
21.770590155457388 54.2127
21.79326264741238 55.6206
21.816113141960237 57.388999999999996
21.838787368860547 59.3771
21.861462461341976 61.4435
21.884315579735777 63.4235
21.90699241312273 64.2427
21.92967011506078 64.3876
21.95234868653799 63.5174
21.9752053151131 61.863
21.997885635446785 59.7801
22.020566828293532 58.2082
22.04324889464272 56.7237
22.066109049404666 55.9653
22.088792872571794 55.8879
22.111477572219204 56.0338
22.1341631493376 55.9099
22.157026846313123 55.5971
22.179714188221507 54.7921
22.202402410582668 53.4238
22.22509151438863 51.9527
22.24795876962584 50.9308
22.270649646204486 50.1368
22.293341407213727 49.506
22.316034053646906 48.9706
22.338904883215342 48.85
22.36159931041458 48.6605
22.38429462602756 48.5027
22.40699083104897 48.2663
22.429865251039757 48.3058
22.452563244831367 48.3297
22.47526213102522 48.306999999999995
22.49813925616515 48.2999
22.520839937143307 48.2699
22.543541513520587 48.3569
22.56624398629403 48.1772
22.589124730075895 48.2122
22.611829005656723 48.5252
22.63453418063466 48.5036
22.657240256008077 48.7029
22.680124634582935 48.8619
22.70283252079775 49.2566
22.725541310413075 49.6745
22.74825100442868 49.849
22.771139033969575 50.3103
22.79385054687155 50.6118
22.81656296718292 51.3762
22.83927629590484 52.2387
22.862167992606945 53.1682
22.88488314827121 54.4183
22.907599215359284 55.3008
22.93031619487366 56.413999999999994
22.953211574954405 56.9871
22.975930389478226 57.5056
22.998650119445763 57.3958
23.02137076586092 56.3306
23.044269845560063 55.0369
23.06699233506288 53.3352
23.089715744034912 51.7745
23.112617610931565 50.5295
23.135342869061212 49.3495
23.158069049684816 48.8292
23.1807961538087 48.4476
23.20370174880544 48.3817
23.226430710184808 48.3646
23.249160598093425 48.5469
23.271891413539002 48.6445
23.294800752937697 48.78
23.31753343374794 49.0527
23.340267045128353 49.2278
23.36300158808808 49.7799
23.38591468821339 50.1941
23.408651104658304 50.6733
23.431388455719986 51.0505
23.454126742409 51.9814
23.4770436196085 52.8591
23.499783787914662 53.9985
23.522524894889884 55.1852
23.54526694154616 56.3439
23.56818761219047 57.125
23.59093154860734 57.3181
23.613676427751283 57.2922
23.636422250635754 56.0938
23.659346731118656 54.4469
23.68209445191868 52.7031
23.704843119509587 50.5852
23.72759273490623 48.9977
23.750521041644767 47.6684
23.77327256312355 46.8195
23.796025035462787 46.1637
23.818956224555475 45.8306
23.841710609113413 45.6372
23.86446594758979 45.3902
23.887222241002014 45.3161
23.910157285144578 45.0237
23.932915498962537 45.0084
23.955674670778713 44.7846
23.978434801611975 44.5982
24.001373717286125 44.7278
24.024135776723917 44.5492
24.046898798245582 44.3977
24.06966278287146 44.2722
24.092605586582614 43.96
24.115371508023642 43.7471
24.1381383956401 43.7802
24.16090625045381 43.7968
24.183852958731244 43.5917
24.206622758582608 43.5651
24.229393528706886 43.3161
24.252165270127392 43.5033
24.27511589952438 43.48
24.297889594216997 43.2357
24.32066426328598 42.9639
24.34343990775613 42.9915
24.36639447485003 43.0232
24.38917208083877 42.9417
24.41195066531332 42.903999999999996
24.43490819850244 42.8888
24.457688750692377 42.6174
24.48047028445616 42.688
24.503252800821233 42.8557
24.526214300784112 42.861000000000004
24.548998793132213 42.8078
24.57178427117417 42.7186
24.59457073593893 42.8427
24.617536219319863 42.7375
24.64032466834748 42.7524
24.663114107195035 42.6209
24.685904536893013 42.3308
24.708874020360852 42.2632
24.731666442613744 42.0947
24.754459858818787 42.137
24.777254270007962 41.9907
24.80022777025625 42.0166
24.82302418230472 41.9655
24.845821592443674 42.0421
24.86862000170663 41.9946
24.891597535453727 42.0902
24.914397953892728 42.2082
24.93719937456671 42.0661
24.96000179851076 42.1979
24.98298338249997 42.4744
25.00578782394922 42.7179
25.028593271784167 42.856
25.05157790644186 43.2118
25.07438537804115 43.2244
25.097193859145293 43.4762
25.120003350792075 43.7015
25.142992065061257 44.202
25.165803588823465 44.2572
25.18861612625217 44.5115
25.211429678386736 44.5506
25.234422489079968 44.5014
25.257238081693636 44.6337
25.280054692141732 44.6779
25.3028723214652 44.6786
25.325869245420463 44.8648
25.348688923599397 44.827
25.371509623787006 44.5719
25.394331347025812 44.185
25.41733240110666 43.699
25.440156181590016 43.0123
25.46298098826268 42.4891
25.48580682216873 41.9671
25.50881202326435 41.4007
25.53163992281684 41.1801
25.55446885274561 40.8732
25.577298814096377 40.7861
25.600308179121807 40.5242
25.623140214533745 40.6796
25.64597328451537 40.596
25.66898578564376 40.2604
25.691820936010206 40.3514
25.714657124097695 40.2841
25.737494350954734 40.2794
25.760511045684957 40.1736
25.783350361364224 40.3926
25.806190718969255 40.3571
25.82903211955018 40.4265
25.852053024868923 40.448
25.874896522722523 40.5513
25.897741066713106 40.5045
25.920586657892454 40.5216
25.943611790812668 40.6903
25.966459487728237 40.7587
25.989308234998564 40.8375
26.01215803367705 41.2923
26.03518741123814 41.4029
26.05803932412957 41.4201
26.080892291600094 41.3263
26.10374631470478 41.4075
26.12677995397268 41.5285
26.14963609978026 41.4316
26.172493304397875 41.0676
26.19535156888223 40.7898
26.218389486949604 40.2147
26.241249882640123 40.2329
26.26411134137826 39.9777
26.28715248187403 40.0074
26.31001607820869 39.9495
26.3328807407756 39.7795
26.35574647063438 40.0323
26.37879191991473 39.8708
26.401659795896734 40.0597
26.424528742360263 40.1432
26.447398760366614 40.2493
26.470448535598294 40.3592
26.49332070826805 40.6333
26.516193955675355 40.7978
26.53906827888316 41.0558
26.562122397260108 41.324
26.584998883685063 41.8158
26.607876449110325 41.9031
26.63075509460056 41.8929
26.65381357334404 41.9904
26.67669439061878 41.8587
26.699576291163382 41.7397
26.722459276044212 41.5912
26.745522132402975 41.2723
26.768407297649354 41.1824
26.791293550442003 40.7638
26.814180891848974 40.5849
26.837248143099337 40.3594
26.860137673466657 40.2091
26.88302829566349 39.9647
26.90592001075963 39.8496
26.92899167420566 39.5433
26.951885586870763 39.3081
26.974780595655517 39.1801
26.99785558178161 39.0326
27.020752794605112 38.8137
27.043651106772522 38.7185
27.06655051935668 38.7465
27.089629948036183 38.5603
27.112531573292053 38.5677
27.135434302194138 38.5458
27.158338135817015 38.2697
27.181422024430987 38.452
27.204328079372566 38.3145
27.22723524226965 38.3948
27.250143514198573 38.3596
27.273231880156334 38.4187
27.296142382065014 38.1786
27.319053996245536 38.1598
27.341966723775965 38.1911
27.365059584515222 38.2447
27.38797455070062 38.3311
27.410890633481237 38.2741
27.433807833936918 38.3688
27.456905206923906 38.3767
27.47982465472398 38.3244
27.502745223449743 38.2833
27.525666914182825 38.4939
27.548768816912457 38.4688
27.571692763693633 38.3612
27.59461783573812 38.1822
27.617723149491244 37.9335
27.640650484125285 37.8854
27.66357894728264 37.8575
27.686508540048052 37.8914
27.709618414237887 37.8273
27.732550278321757 37.593
27.755483275279115 37.6685
27.778417406196485 37.6782
27.801531858397514 37.6955
27.824468269376716 37.5688
27.847405817586786 37.7048
27.870344504116094 37.8436
27.893463551932008 37.8665
27.916404527281053 38.0619
27.93934664422563 38.3147
27.962289903855886 38.3597
27.98541356491974 38.6511
28.00835912214229 38.7379
28.03130582533231 38.9454
28.054253675581805 38.9606
28.077381967556104 38.824
28.100332124185126 38.7308
28.123283431160893 38.628
28.146235889577238 38.4905
28.169368830154156 38.4032
28.192323603752033 38.2048
28.215279532083304 37.9331
28.238415973016764 37.7516
28.261374223145094 37.6732
28.284333631303806 37.3638
28.307294198589954 37.14
28.330435319167677 36.8911
28.353398217078915 36.6644
28.376362277420153 36.381
28.39932750129032 36.1767
28.422473319286713 36.0844
28.44544088262495 36.2849
28.468409612800283 36.1229
28.491379510913497 35.8602
28.51453004413313 35.6948
28.53750229057244 35.7192
28.56047570826344 35.7198
28.583450298308804 35.762
28.606605564586562 35.3991
28.629582511831156 35.5944
28.65256063474956 35.4478
28.675539934446338 35.5489
28.698699951647605 35.4795
28.72168161743193 35.2265
28.74466446331978 35.2619
28.767648490417624 35.3621
28.790813276438353 35.2134
28.813799678527303 35.222
28.836787265157085 35.1444
28.859955641890075 35.3775
28.882945610203045 35.233000000000004
28.905936766392035 35.1348
28.928929111566863 35.1657
28.952102288520145 35.1537
28.975097024308607 34.9854
28.998092952423807 34.7825
29.021090073977508 34.7343
29.04426806913204 34.6276
29.067267590245258 34.4067
29.090268308143695 34.3899
29.11327022394099 34.4594
29.13645305530891 34.3535
29.159457379627167 34.2804
29.18246290519685 34.2132
29.20546963313352 34.1819
29.22865731875826 34.2118
29.25166646419296 34.0464
29.27467681535305 34.0285
29.29768837335608 34.074
29.320880931312562 34.1216
29.34389491580634 34.1018
29.366910110507334 33.9667
29.38992651653503 34.0634
29.41312396492981 34.1151
29.436142806456754 33.8799
29.45916286268059 33.8152
29.48236399319994 33.8872
29.50538649169417 33.4617
29.528410208259935 33.5188
29.55143514402014 33.282
29.574641196749695 33.2516
29.597668583816574 33.1045
29.6206971934585 32.9563
29.64372702680042 33.04
29.666938019934474 32.8268
29.689970313635285 32.7873
29.713003834422636 32.77
29.73603858342347 32.8534
29.759254535188578 32.6668
29.78229175361658 32.6865
29.80533020365064 32.6777
29.82836988641968 32.6242
29.85159081507472 32.5455
29.874632976355343 32.508
29.89767637376955 32.5502
29.920721008448314 32.4005
29.9439469322847 32.4351
29.96699405457564 32.3912
29.9900424175358 32.418
30.013092022298157 32.3948
30.03632295963995 32.4032
30.059375061131373 32.2797
30.08242840783577 32.3803
30.105483000888153 32.3418
30.128718970092244 32.221
30.151776069006917 32.2118
30.17483441768648 32.3215
30.198074175317235 32.3105
30.221135036724256 32.2314
30.24419715131772 32.2063
30.267260520236203 32.1735
30.290505341942243 32.1383
30.313571232750228 32.1863
30.336638381310948 32.1076
30.35970678876503 32.0857
30.38295669299435 31.8873
30.40602763151657 31.9599
30.429099832366074 31.8806
30.452173296685572 31.8077
30.47542830191959 31.9067
30.498504306502497 31.8749
30.521581577995562 32.0044
30.544660117543582 31.9699
30.56792024229725 32.0422
30.59100133132069 31.9708
30.614083691845494 31.9584
30.637167325018545 32.0475
30.660432587840603 32.1197
30.683518779717886 32.016999999999996
30.70660624769615 32.0661
30.729694992924372 32.0149
30.75296541239743 31.9662
30.77605672557558 31.9946
30.799149319462742 32.0047
30.8224236211637 31.776
30.845518789950724 31.7166
30.868615242910597 31.6501
30.891712981195973 31.5148
30.91499247215866 31.3842
30.938092794619365 31.3855
30.96119440587579 31.3806
30.984297307082752 31.2309
31.00758200598383 31.163
31.030687500658694 30.9248
31.053794288760695 30.9881
31.076902371446767 30.8971
31.100192296997445 30.9578
31.12330298246119 30.9597
31.14641496599209 30.8264
31.169528248749216 30.8786
31.19282341969534 30.8107
31.215939314557186 30.7565
31.239056512134788 30.7719
31.262175013589378 30.7323
31.28547544871168 30.6547
31.30859657161541 30.5824
31.331719001892175 30.7044
31.35484274070538 30.7731
31.378148458819545 30.7018
31.401274828443725 30.7289
31.424402510106933 30.8541
31.447712205419993 30.842
31.470842524931633 30.6456
31.493974159989783 30.6769
31.51710711176168 30.7044
31.54042212308802 30.7551
31.563557722100917 30.5694
31.586694641341655 30.4487
31.609832881979628 30.2777
31.63315322823208 30.244
31.656294125521327 30.2465
31.679436347728515 30.193
31.70257989602529 29.9949
31.725905596152327 29.9883
31.74905181052835 30.0127
31.772199354521323 30.0851
31.79534822930507 30.0696
31.818679302290967 30.0235
31.84183085259981 29.9602
31.864983737233473 29.9943
31.88813795736804 30.0894
31.911474422233013 29.9029
31.934631327356435 29.9453
31.9577895715215 29.8953
31.980949155906522 29.8361
32.004291031706956 29.7975
32.027453310562606 29.6949
32.05061693318573 29.6805
32.07396288236386 29.6736
32.09712920658542 29.5412
32.12029687812702 29.47
32.14346589817093 29.421
32.166817291729984 29.2626
32.18998902288583 29.2381
32.21316210610336 29.1895
32.23633654256711 29.0932
32.259693399663725 29.070999999999998
32.282870556771144 28.9326
32.30604907069099 29.0337
32.329228942610065 28.9427
32.35259128243769 28.8167
32.375773884550505 28.8315
32.398957848235646 28.768
32.422143174682176 28.7278
32.445511016471215 28.5897
32.468699082679954 28.5805
32.49188851523011 28.5065
32.51507931531304 28.4013
32.538452678331 28.4021
32.56164622776311 28.3783
32.58484114831493 28.3766
32.60803744118015 28.3939
32.631416344731896 28.3408
32.654615396551876 28.2842
32.67781582427913 28.2803
32.701198898634416 28.1671
32.72440209253756 28.1035
32.747606665947124 28.2041
32.77081262006088 28.0651
32.79420126883317 28.0545
32.81740999876112 28.026999999999997
32.840620112999424 27.9612
32.86383161274818 27.8773
32.88722585534586 27.7931
32.91044014056596 27.9353
32.933655814909734 27.8279
32.95687287957963 27.862
32.98027273544904 27.7552
33.00349259526636 27.6964
33.026713849030116 27.7877
33.04993649794511 27.6945
33.073341986570746 27.6709
33.09656744032826 27.6858
33.11979429286444 27.6231
33.14302254538647 27.6219
33.166433686291185 27.5573
33.18966475336992 27.5728
33.212897224069096 27.475
33.23613109959831 27.4208
33.259547912343415 27.3703
33.2827846121627 27.4172
33.306022720453775 27.3189
33.32926223842861 27.2671
33.352684742614166 27.2197
33.37592709463173 27.2407
33.399170859982064 27.146
33.422597648419426 27.0599
33.44584425514446 27.0293
33.46909227885668 26.9464
33.4923417207723 26.7609
33.51577423505344 26.8109
33.539026528130385 26.7884
33.56228024307245 26.7746
33.585535381098246 26.653000000000002
33.60897364093058 26.6015
33.63223163992385 26.5879
33.6554910656699 26.5492
33.678751919389796 26.5028
33.702195944520106 26.4947
33.72545966903325 26.4506
33.74872482519663 26.3966
33.771991414233746 26.3424
33.79544122444841 26.3497
33.81871069412428 26.2139
33.84198160035767 26.1831
33.86525394437455 26.2148
33.88870955949969 26.1574
33.911984794020626 26.1765
33.93526147001624 26.0401
33.958539588715006 26.0009
33.98200102861669 25.9894
34.0052820477047 25.8947
34.02856451319451 25.9463
34.05203033759056 25.8847
34.07531571090147 25.8025
34.09860253431845 25.8029
34.121890809074316 25.787
34.145362493118924 25.754
34.16865368561615 25.616999999999997
34.191946333164054 25.6853
34.21524043699793 25.629
34.23871800066799 25.6481
34.26201503218366 25.5328
34.28531352370466 25.5213
34.30861347646881 25.4005
34.33209693978188 25.3547
34.3553998301885 25.3841
34.378704185565205 25.3529
34.402010007152356 25.2337
34.42549939016683 25.2738
34.44880815937748 25.088
34.472118398533134 25.026999999999997
34.49543010887669 25.1183
34.51892543169198 24.9718
34.54224009966052 24.9801
34.56555624255917 24.9542
34.58887386163339 24.9184
34.61237514439016 24.8731
34.6356957311114 24.7933
34.65901779775809 24.7547
34.68252356662995 24.8103
34.705848608458616 24.8058
34.72917513396849 24.7319
34.75250314440949 24.6596
34.77601490857862 24.5084
34.799345904259795 24.5821
34.82267838863559 24.5951
34.846012362958525 24.5594
34.869530142679984 24.5298
34.89286711232212 24.4253
34.91620557568269 24.4175
34.93954553401677 24.4249
34.9630693495876 24.3287
34.986412313340814 24.3271
35.00975677584668 24.3658
35.033102738362956 24.3091
35.05663261012228 24.2213
35.0799815881786 24.1832
35.10333207003229 24.1606
35.12668405694369 24.1417
35.150220005273056 24.142
35.17357501786656 24.0577
35.19693153931268 24.0433
35.220289570874385 24.0279
35.24383161619786 24.0339
35.267192683604904 24.0039
35.290555264930376 23.9778
35.314101899412165 23.9796
35.33746752422433 23.8849
35.36083466676374 23.8965
35.38420332829803 23.9166
35.407756095629054 23.9343
35.43112781085063 23.8589
35.45450104888391 23.8172
35.477875810999194 23.8885
35.50143473172161 23.7355
35.52481255774625 23.7009
35.54819191167777 23.6144
35.57157279478914 23.6296
35.595137889488406 23.6398
35.61852184675279 23.5308
35.641907337029984 23.4589
35.665294361595684 23.4656
35.68886565090076 23.3665
35.7122557598848 23.3332
35.73564740699838 23.4439
35.759040593519934 23.3592
35.78261809810353 23.3146
35.80601437933051 23.1742
35.829412203814705 23.153000000000002
35.85281157283719 23.0491
35.876395313415884 23.1342
35.8997977874528 23.1768
35.92320180988546 23.1047
35.946790244133936 23.0085
35.97019737933222 22.9882
35.993606066789866 22.971999999999998
36.01701630779276 22.9022
36.04061101440684 22.8917
36.06402437852291 22.8456
36.08743930005611 22.9011
36.1108557802951 22.7578
36.13445678011326 22.6995
36.15787639383515 22.6578
36.18129757014299 22.6199
36.20472031032821 22.6462
36.22832762423364 22.6421
36.25175350829375 22.5921
36.275180960119776 22.5417
36.298609981005924 22.5851
36.32222362992669 22.4914
36.34565580510207 22.511
36.36908955323448 22.521
36.39252487562093 22.364
36.416144880530226 22.3556
36.43958336764275 22.2826
36.463023432914625 22.3678
36.486465077645676 22.2333
36.51009145956204 22.3273
36.53353627947859 22.3118
36.55698268276811 22.2376
36.58043067073321 22.1086
36.60406345072071 22.0627
36.62751462435344 22.089000000000002
36.65096738658405 22.0512
36.67460498210655 21.9547
36.69806093788647 21.96
36.72151848619297 21.9209
36.744977628333636 21.9251
36.76862165890998 21.831
36.79208400512205 21.7681
36.81554794910557 21.8362
36.83901349217101 21.7198
36.862663978991606 21.6676
36.88613273667352 21.7011
36.90960309738324 21.7332
36.933075062434064 21.6166
36.95673202673572 21.5269
36.98020721697122 21.5051
37.003684015502365 21.4073
37.027162423645365 21.4366
37.050825886711465 21.4544
37.07430753063053 21.3913
37.09779078812467 21.3553
37.121275660513014 21.3323
37.144945643673694 21.3324
37.16843376245278 21.268
37.19192350009803 21.296
37.215414857931435 21.2305
37.239091382563885 21.0991
37.262585997426164 21.1424
37.28608223645736 21.0974
37.309763684451696 21.0618
37.33326318851098 20.9963
37.356764320726555 20.988000000000003
37.380267082425526 20.9538
37.40395510942588 21.0108
37.42746114683234 20.9515
37.45096881771841 20.8569
37.474478123414166 20.8434
37.49817275092816 20.7916
37.52168534303452 20.8175
37.54519957395567 20.7532
37.568715445024665 20.7057
37.592416694607714 20.6736
37.61593586281424 20.6724
37.63945667518264 20.6808
37.66297913304891 20.575
37.68668702630454 20.5846
37.710212792059274 20.4611
37.733740207334854 20.4218
37.757269273470364 20.485
37.780983832050374 20.4004
37.80451621684926 20.3819
37.82805025654007 20.3893
37.851585952464795 20.315
37.8753071980695 20.3059
37.89884622345676 20.2664
37.92238690911902 20.1983
37.94611318753442 20.1213
37.969657210779765 20.165
37.99320289834801 20.1685
38.016750251586465 20.0992
38.04048325513017 20.0653
38.06403395679343 20.0387
38.087586328183946 19.9904
38.11114037065203 20.0174
38.13488012115898 19.9741
38.1584375229181 19.8386
38.181996599821 19.8594
38.205557353221124 19.8249
38.229303872575656 19.8282
38.2528679961576 19.8039
38.27643380031219 19.7034
38.30000128639589 19.71
38.32375459653193 19.7284
38.34732546371299 19.7259
38.37089801690786 19.5805
38.39447225747609 19.5956
38.418232380377425 19.5355
38.441810012983396 19.5221
38.46538933705673 19.4905
38.488970353960084 19.479
38.51273731166058 19.4424
38.536321731567014 19.3467
38.55990784840681 19.3604
38.58367995004091 19.3774
38.60726947812959 19.2744
38.63086070726198 19.3415
38.654453638806274 19.3147
38.678232613930824 19.1789
38.70182896773327 19.1943
38.72542702806741 19.1726
38.7490267963045 19.136
38.77281266709232 19.1025
38.79641586862214 19.1025
38.8200207821842 19.0239
38.843627409152944 18.9948
38.86742019782782 18.9621
38.891030269149255 18.9405
38.914642058016156 18.8443
38.938255565806124 18.8409
38.96205529464307 18.8243
38.98567225787121 18.8272
39.00929094417078 18.7772
39.03291135492255 18.7798
39.05671804624804 18.7634
39.080341923549106 18.6843
39.103967529460334 18.7285
39.127594865365744 18.6201
39.15140854155791 18.5468
39.17503935514948 18.5485
39.19867190290282 18.5219
39.22249083587951 18.507
39.24612686969409 18.5077
39.269764641845306 18.4735
39.293404153722804 18.4096
39.317230110864074 18.4136
39.34087311998506 18.352
39.36451787301696 18.3775
39.388164371352595 18.2991
39.41199737518003 18.2489
39.43564738196752 18.3015
39.45929913825317 18.2257
39.48295264543308 18.1922
39.506792718520884 18.1879
39.530449745387216 18.128
39.55410852735203 18.1711
39.57776906581474 18.1246
39.60161623079 18.0736
39.625280300200025 18.0103
39.64894613032202 17.9759
39.67261372255866 17.9231
39.6964680021016 17.9489
39.72013913657293 17.934
39.74381203738292 17.9427
39.76748670593756 17.9204
39.79134812278169 17.8586
39.81502634488497 17.8486
39.83870633896685 17.8107
39.862388106436654 17.7854
39.88625668336918 17.7257
39.90994201572829 17.7341
39.933629125719285 17.6598
39.957503091207826 17.6116
39.9811937746168 17.6248
40.00488623990914 17.5674
40.02858048850006 17.5391
40.05246165409549 17.5351
40.076159487492085 17.4671
40.099859108448875 17.4534
40.123560518384345 17.459
40.1474489070226 17.4467
40.171153913178564 17.3654
40.194860712584955 17.3504
40.2185693066637 17.3491
40.242464941335314 17.285
40.26617714307655 17.2781
40.289891143772046 17.2853
40.3136069448471 17.1828
40.33750984859743 17.1856
40.3612292688043 17.1755
40.3849504936829 17.1593
40.40867352466194 17.1054
40.43258372059144 17.0885
40.45631038219906 17.0317
40.48003885420956 17.0174
40.503769138055105 17.0858
40.52768664931955 17.0217
40.55142057531802 17.0038
40.57515631746428 16.9109
40.599079334038514 16.8653
40.62281872700477 16.8435
40.64655994043941 16.8405
40.67030297578061 16.8807
40.69423334835778 16.7862
40.71798004609188 16.7451
40.74172857006355 16.7263
40.76547892171441 16.7249
40.7894166736039 16.6372
40.813170699248566 16.6355
40.83692655691388 16.5843
40.86068424804498 16.6419
40.884629402612525 16.5748
40.908390779366385 16.6137
40.932153993938 16.4937
40.95591904777605 16.485
40.979871628443995 16.5302
41.003640379561936 16.4911
41.02741097430883 16.4555
41.05118341413683 16.4187
41.075143444384416 16.3439
41.098919593177826 16.3667
41.1226975914255 16.285999999999998
41.14647744058318 16.2575
41.170444943946755 16.2823
41.19422851378379 16.2541
41.218013938914645 16.1665
41.24198706625173 16.1231
41.26577622087193 16.0881
41.289567235177785 16.0886
41.31336011063129 16.0441
41.337340752422875 16.0284
41.361137369129835 16.0684
41.38493585138705 15.9858
41.40873620066004 15.9348
41.43272438060107 15.9457
41.45652848292052 15.8786
41.48033445666918 15.8616
41.50414230331616 15.8768
41.528138045159764 15.8788
41.551949656675205 15.8061
41.575763145513235 15.8057
41.59957851314666 15.7713
41.62358184070442 15.7168
41.64740098505737 15.7168
41.6712220126409 15.6981
41.69504492493139 15.6781
41.71905586207357 15.5919
41.74288256296395 15.5392
41.766711153007456 15.575
41.79054163368412 15.5627
41.814560204340054 15.6076
41.838394485526365 15.5453
41.86223066180303 15.4597
41.88625497706819 15.4531
41.910094962812 15.4611
41.93393684811168 15.4234
41.95778063445365 15.3245
41.981812625263366 15.2509
42.00566023303407 15.3345
42.029509746323676 15.3321
42.05336116662236 15.2678
42.077400857069705 15.3016
42.10125611078846 15.2292
42.12511327600405 15.2215
42.14897235421036 15.1901
42.173019768448455 15.1388
42.19688269209613 15.0954
42.22074753323349 15.1081
42.24461429335818 15.0682
42.268669455600495 15.0052
42.292540073217886 15.0468
42.31641261433284 15.0607
42.34028708044675 14.9852
42.36435001496739 14.9733
42.38822835065557 14.8678
42.41210861586426 14.880999999999998
42.4359908120986 14.8216
42.46006154323262 14.8286
42.48394762115317 14.8053
42.507835634632315 14.8048
42.531912233047436 14.7478
42.55580413732265 14.7961
42.579697981698 14.7531
42.60359376768525 14.7179
42.62767820545945 14.6302
42.65157789440821 14.6493
42.67547952952185 14.5676
42.699383112316 14.6325
42.72347541395347 14.5652
42.74738291190531 14.5159
42.771292362102166 14.5204
42.795203766063516 14.5015
42.819303956130405 14.4644
42.843219287476536 14.4216
42.86713657716324 14.4163
42.89105582671383 14.4216
42.91516392983864 14.4055
42.939087119032166 14.3701
42.963012272677304 14.3727
42.98693939230129 14.3135
43.01105543317513 14.264000000000001
43.034986504731386 14.1927
43.05891954686589 14.1929
43.08285456110972 14.2044
43.10697856448665 14.1723
43.130917542983475 14.1382
43.15485849820081 14.1449
43.17880143167367 14.0864
43.20293342237094 14.0827
43.226880332449 14.0708
43.25082922540554 14.085
43.27496722682525 14.0238
43.29892010567796 13.9912
43.32287497204102 13.9576
43.34683182745632 13.9477
43.370977859791836 13.860999999999999
43.39493871351105 13.8826
43.41890156092628 13.8581
43.44286640358341 13.8577
43.46702049182749 13.8438
43.49098934522816 13.8163
43.51496019852649 13.7761
43.5389330532723 13.7236
43.56309522248204 13.6689
43.58707210044314 13.7163
43.61105098451946 13.69
43.63503187626491 13.5924
43.659202151562134 13.6305
43.68318707902681 13.5701
43.70717401884041 13.5749
43.731162972560874 13.5284
43.75534137913236 13.4912
43.779334381108384 13.4979
43.803329401683186 13.4787
43.82732644241872 13.4372
43.8515130055166 13.4489
43.87551410707659 13.4008
43.89951723350145 13.4274
43.923709934595614 13.3707
43.94771713129917 13.347999999999999
43.97172635758096 13.3332
43.99573761501002 13.2834
44.0199385169922 13.2148
44.04395385732619 13.245
44.067971233533086 13.2856
44.09199064718605 13.2283
44.11619977548961 13.1639
44.14022328470671 13.1634
44.16424883610785 13.1998
44.18827643127035 13.1364
44.21249381139513 13.0816
44.236525514814076 13.042
44.26055926674478 13.0321
44.28459506876863 13.0565
44.3088207262813 13.0168
44.33286064928722 12.994000000000002
44.35690262714919 12.8994
44.38094666145278 12.9201
44.4051806219871 12.8932
44.42922879003185 12.8901
44.45327901929361 12.853
44.477331311362136 12.823
44.501573600619416 12.7858
44.525630039221795 12.7955
44.54968854541895 12.8113
44.573937102200176 12.8007
44.5979997645541 12.7544
44.622064499300315 12.684000000000001
44.64613130803592 12.679
44.67038823869318 12.6856
44.69445921643748 12.6345
44.718532272981385 12.5845
44.742607409926194 12.581
44.76687274034801 12.6079
44.79095205918753 12.6007
44.81503346325094 12.527000000000001
44.839116954143876 12.5315
44.86339071028742 12.4926
44.88747839599524 12.4696
44.91156817336837 12.448
44.93566004401666 12.4384
44.959942251908146 12.4265
44.984038330325966 12.3653
45.00813650686762 12.3438
45.03223678314731 12.3455
45.05652746888232 12.3238
45.08063196592069 12.3022
45.104738567558705 12.2602
45.128847275414856 12.2127
45.15314646515866 12.1888
45.17725940679741 12.1982
45.20137445952892 12.2328
45.22568004865265 12.1646
45.24979934496396 12.1168
45.27392075725247 12.1199
45.29804428714431 12.0651
45.322358426247604 12.0706
45.346486212804315 12.0538
45.370616121861914 12.0365
45.39474815505086 11.9908
45.41907087049246 11.9527
45.4432071734666 11.965
45.46734560548283 11.9789
45.49148616817604 11.9675
45.51581748638564 11.894
45.5399623320197 11.8855
45.56410931325473 11.8682
45.58825843173002 11.8637
45.61259837920865 11.8509
45.636751793816 11.7994
45.66090735060093 11.7919
45.68506505120716 11.7101
45.7094136545275 11.7414
45.73357566449271 11.669
45.75773982322992 11.6966
45.78190613238733 11.6741
45.806263418194064 11.5996
45.83043404997326 11.6205
45.85460683713677 11.583
45.87897065658495 11.5966
45.90314777634752 11.5815
45.92732705646868 11.5672
45.9515084986045 11.5344
45.97588104735473 11.526
46.00006683541565 11.4896
46.02425479047904 11.475999999999999
46.04844491420549 11.4553
46.0728262191024 11.4439
46.09702070211635 11.4104
46.12121735879483 11.4228
46.14541619080294 11.4071
46.169806278764455 11.3414
46.194009483459034 11.3262
46.21821486849841 11.2906
46.24242243555223 11.2583
46.266821333570014 11.2872
46.29103328674601 11.2177
46.31524742696538 11.2589
46.33946375590237 11.2079
46.36387149104216 11.2077
46.38809221957392 11.1374
46.41231514186606 11.1395
46.436540259597464 11.1263
46.460956858999374 11.1184
46.48518638983522 11.084000000000001
46.509418121166966 11.0323
46.533652054678114 11.0471
46.55807754555709 10.9972
46.58231590571962 11.0185
46.60655647313217 10.9683
46.630988654873654 10.9671
46.655233659129024 10.964
46.67948087571551 10.9377
46.70373030632484 10.8838
46.72817142736393 10.8734
46.752425308428684 10.8555
46.77668140861147 10.8077
46.80093972960865 10.8139
46.82538981736788 10.8023
46.849652602470904 10.7667
46.87391761349769 10.7535
46.8981848521493 10.7477
46.9226439341274 10.7376
46.946915650573224 10.6479
46.97118959976749 10.6967
46.99546578341598 10.600999999999999
47.019933887188216 10.6448
47.04421456235744 10.6235
47.06849747711879 10.6281
47.09278263318286 10.5868
47.11725978640143 10.5546
47.14154944775105 10.5217
47.165841355555656 10.5346
47.1901355115306 10.5086
47.214621741924994 10.5366
47.23892041698887 10.4851
47.26322134538975 10.4276
47.28771440635075 10.4277
47.31201986422527 10.4348
47.33632758061436 10.3419
47.360637557241866 10.3557
47.38513974410611 10.3429
47.40945426407847 10.3086
47.43377104948137 10.307
47.45809010204344 10.3082
47.48260144275502 10.280999999999999
47.506925052572285 10.2807
47.53125093475548 10.214
47.55557909103813 10.1928
47.58009961361992 10.1682
47.60443234110732 10.1584
47.62876734791564 10.1484
47.65310463578333 10.1305
47.6776343683373 10.0604
47.7019762413987 10.0814
47.72632040075572 10.1026
47.75066684815169 10.068
47.77520581885936 10.02
47.799556865477655 10.0071
47.823910205386 10.0074
47.84826584033272 9.99424
47.87281407745551 9.98054
47.89717432569297 9.97309
47.92153687423484 9.89933
47.94609208429692 9.891639999999999
47.97045925671401 9.88623
47.99482873471275 9.903089999999999
48.01920052005013 9.85189
48.04376504619224 9.8389
48.068141469543484 9.84962
48.09252020552573 9.8271
48.11690125590099 9.814160000000001
48.1414751266064 9.777439999999999
48.16586082917454 9.80128
48.19024885144316 9.72839
48.2146391951793 9.747119999999999
48.239222439012764 9.71247
48.26361744916137 9.70355
48.28801478610016 9.69586
48.31241445160131 9.664439999999999
48.337007097209366 9.6255
48.36141144338331 9.62195
48.38581812345755 9.5897
48.41022713920929 9.64172
48.434829215320704 9.56072
48.45924292604658 9.54402
48.48365897780325 9.52972
48.50807737237308 9.50928
48.532688907799276 9.51705
48.55711201168574 9.50102
48.581537463754074 9.48052
48.60615611725119 9.4791
48.63058628942721 9.4135
48.65501881516546 9.4417
48.6794536962573 9.43475
48.70408185970339 9.3762
48.72852147531801 9.3734
48.75296345168211 9.35196
48.77740779059232 9.31671
48.80204549302823 9.29927
48.82649458091802 9.235669999999999
48.85094603676547 9.2635
48.87539986237231 9.23905
48.90004713292306 9.23542
48.92450572200832 9.23892
48.94896668628025 9.19234
48.97343002754588 9.17956
48.99808689542115 9.1898
49.02255501470614 9.17523
49.04702551642794 9.13027
49.0714984023988 9.09693
49.096164896893235 9.12768
49.120642575466796 9.141210000000001
49.145122643748394 9.0461
49.16960510355558 9.04988
49.19428125404938 9.038739999999999
49.2187685210852 9.03154
49.243258185121555 9.02362
49.26794160167084 8.93121
49.2924360839405 8.95755
49.31693296869764 8.93775
49.34143225776915 8.932269999999999
49.36612538195438 8.9177
49.39062950396021 8.86973
49.41513603578346 8.8695
49.4396449792564 8.81911
49.46434784069503 8.856810000000001
49.488861631846454 8.81879
49.513377840166804 8.80921
49.537896467493745 8.77792
49.56260909589029 8.72567
49.587132585683285 8.74397
49.611658500018365 8.752510000000001
49.636186840738596 8.744480000000001
49.66090926588511 8.72615
49.685442483902584 8.691310000000001
49.70997813385706 8.65827
49.734516217597076 8.64606
49.75924846937352 8.63072
49.7837914452858 8.605310000000001
49.80833686055187 8.59632
49.83288471702571 8.55107
49.85762682540054 8.6032
49.882179588965734 8.52877
49.9067347993235 8.54245
49.93129245833333 8.54706
49.95604445336378 8.51291
49.98060703442832 8.47195
50.005172069746266 8.47711
50.02993150438364 8.45198
50.05450147301533 8.454839999999999
50.07907390151433 8.41855
50.10364879174981 8.39531
50.12841816587289 8.39814
50.1529980044635 8.35335
50.17758031042124 8.35431
50.20216508562089 8.373339999999999
50.22694442953363 8.31739
50.25153416817468 8.294369999999999
50.27612638170508 8.28963
50.300721072005196 8.24414
50.325510416102105 8.26258
50.350110084975064 8.24968
50.37471223628208 8.268419999999999
50.39931687190919 8.22109
50.424116246675766 8.18757
50.44872587605249 8.16045
50.47333799543065 8.1725
50.49795260670191 8.1391
50.52276204271512 8.097010000000001
50.54738166295838 8.13487
50.57200378079314 8.113
50.596628398116835 8.08849
50.62144792604559 8.07685
50.646077567609396 8.05866
50.670709714377715 8.06527
50.69553683636198 8.04272
50.72017401885922 8.05391
50.7448137122895 8.0057
50.76945591856022 7.97315
50.79429318636823 7.983289999999999
50.818940443716784 7.918139999999999
50.84359021965163 7.938039999999999
50.868242516085964 7.91661
50.893089960641895 7.95823
50.917747323549435 7.8529
50.94240721271973 7.88737
50.96706963007175 7.840669999999999
50.99192728239342 7.852710000000001
51.01659478166073 7.845160000000001
51.04126481489051 7.83661
51.06593738400761 7.800439999999999
51.090805275207074 7.78493
51.11548294172845 7.78565
51.14016314993547 7.77929
51.164845901758845 7.763780000000001
51.18972406304274 7.72705
51.21441192780656 7.71962
51.23910234200271 7.71363
51.2637953075678 7.6638
51.288683770237945 7.664210000000001
51.31338186432707 7.6404
51.33808251561888 7.62153
51.362978729967345 7.6005
51.387684521509755 7.61885
51.41239287610203 7.5813
51.437103795691165 7.58513
51.46201036644977 7.56992
51.486726441956634 7.5582199999999995
51.51144508832545 7.52655
51.536166307509156 7.4854
51.56108326624387 7.48557
51.58580965706056 7.50895
51.61053862657523 7.40797
51.635270176746864 7.443569999999999
51.66019755512065 7.43895
51.68493429268881 7.3951199999999995
51.70967361681515 7.349480000000001
51.73441552946465 7.37855
51.759353359237934 7.377460000000001
51.7841004750961 7.35145
51.80885018539685 7.35642
51.833602492111254 7.3248
51.8585508051424 7.31595
51.883308330926425 7.299869999999999
51.90806845906181 7.260510000000001
51.932831191525715 7.22773
51.95779001977161 7.243360000000001
51.98255798721516 7.2149600000000005
52.00732856494335 7.2047
52.03229530577543 7.183489999999999
52.057071130455945 7.17524
52.081849571391054 7.163989999999999
52.106630630568695 7.12003
52.13160794279417 7.14346
52.15639426492067 7.13117
52.18118321127822 7.13015
52.205974783860896 7.086869999999999
52.23096269971011 7.07662
52.255759551287994 7.048839999999999
52.280559035098186 7.0271300000000005
52.30536115314103 7.04473
52.33035970494467 6.9962
52.35516711807904 7.01491
52.37997717147198 6.96091
52.40478986713005 6.9877199999999995
52.42979908731974 6.978339999999999
52.454617094216 6.95671
52.47943774942214 6.954339999999999
52.50426105495102 6.969119999999999
52.529280976059844 6.89582
52.554109609024096 6.8678300000000005
52.57894089837482 6.873239999999999
52.60377484613117 6.852460000000001
52.62880550079408 6.865130000000001
52.65364479223379 6.816110000000001
52.67848674816189 6.795710000000001
52.70352547971946 6.792260000000001
52.72837279155837 6.77699
52.753222773982785 6.782830000000001
52.778075429022984 6.75184
52.80312495150885 6.7613199999999996
52.827982978797436 6.76156
52.85284368481815 6.718610000000001
52.87770707160767 6.66818
52.90276741793998 6.67115
52.92763619336701 6.6883300000000006
52.952507655698504 6.6636
52.977381806977576 6.6437100000000004
53.00245301017842 6.6517800000000005
53.02733256653592 6.640619999999999
53.052214817996074 6.60725
53.077099766608484 6.58712
53.102181859804446 6.586539999999999
53.127072229988265 6.620480000000001
53.15196530349892 6.56468
53.17686108239249 6.51635
53.20195409881522 6.53819
53.22685531582556 6.51406
53.25175924441303 6.49509
53.27666588664027 6.49325
53.30176985962693 6.45519
53.3266819565689 6.47234
53.35159677336455 6.4733
53.376514312083096 6.4168
53.40162927507703 6.40227
53.42655228516116 6.39219
53.45147802340193 6.35002
53.47660125628886 6.38543
53.50153247842639 6.34701
53.52646643496923 6.33946
53.55140312799818 6.31291
53.576537409691696 6.32429
53.60147960336152 6.34549
53.626424539786164 6.303669999999999
53.65137222105307 6.28334
53.67651758529126 6.2609
53.70147078399681 6.293080000000001
53.72642673383343 6.22312
53.75138543689533 6.21833
53.776541917524526 6.26711
53.801506154876755 6.20175
53.826473151763246 6.16094
53.851442910284916 6.160480000000001
53.87661054126026 6.12365
53.9015858509782 6.13464
53.92656392866066 6.10832
53.95154477641532 6.12893
53.976723591801296 6.10923
54.00171000771266 6.09382
54.02669920004598 6.0461
54.051691170915745 6.08239
54.076881204886796 6.0356
54.101878760928514 6.04381
54.12687910187696 6.01975
54.152077577768296 6.03335
54.1770835166946 5.99901
54.20209224691339 5.98336
54.22710377055121 5.94805
54.25231352511594 5.94319
54.27733066384342 5.92352
54.30235060239643 5.93853
54.32737334290836 5.8929599999999995
54.35259441062629 5.8977699999999995
54.377622783395324 5.894369999999999
54.40265396455061 5.87672
54.42768795623251 5.88305
54.45292037169559 5.81902
54.477960012857906 5.79787
54.50300247099511 5.7841
54.52804774825457 5.77419
54.55329154616743 5.7531300000000005
54.57834249018678 5.62881
54.6033962597977 5.641830000000001
54.6284528571545 5.713830000000001
54.653708072335164 5.65533
54.67877035378786 5.64698
54.70383546947698 5.60417
54.72890342156389 5.63264
54.7541700889442 5.5858300000000005
54.77924374251975 5.55046
54.8043202390049 5.55855
54.82959552413022 5.50955
54.8546777351945 5.50042
54.87976279569621 5.44681
54.90485070780914 5.53003
54.930137506558005 5.44223
54.95523115074295 5.43755
54.98032765308844 5.43387
55.005427015775496 5.43545
55.03072536339621 5.38585
55.05583047570572 5.38361
55.080938454927676 5.33137
55.10604930325027 5.33539
55.131359235107396 5.30366
55.15647585066083 5.27497
55.181595341907496 5.27714
55.20671771104285 5.24326
55.232039262617704 5.16322
55.25716741665048 5.19413
55.28229845518636 5.21857
55.30743238042802 5.15241
55.33276558731939 5.1761099999999995
55.357905315183636 5.10647
55.383047936390035 5.07789
55.40819345314859 5.04592
55.433538351073295 5.046069999999999
55.458689688238415 5.01007
55.483843927614096 4.98567
55.509197623043605 5.01405
55.53435769621134 5.0365
55.55952067826466 4.99443
55.5846865714265 4.85467
55.61005202069737 4.8693800000000005
55.63522376553902 4.846019999999999
55.66039842818645 4.900180000000001
55.68557601087004 4.84516
55.7109532500271 4.78463
55.73613670233794 4.84732
