TT I
1.2716486653135266 12.8237
1.2939594142134223 12.0915
1.3162702121660406 11.5444
1.3385810600174564 11.558
1.3608919586137629 11.0772
1.383202908801069 11.0806
1.405513911425503 10.6634
1.4278249673332093 10.9723
1.4501343378461518 10.5776
1.4724455028545926 9.895489999999999
1.4947567236847858 9.54459
1.517068001182951 9.6345
1.5393793361953272 9.50929
1.5616907295681737 9.25651
1.5840021821477681 9.30598
1.60631369478041 8.846960000000001
1.6286252683124185 8.84914
1.6509369035901333 8.52693
1.6732468618895553 8.36385
1.695558623192809 8.7457
1.7178704487808514 8.75666
1.7401823395001077 8.45699
1.7625012545597203 8.06697
1.7848028405262486 8.01334
1.8071218901122095 8.718869999999999
1.8294236121921872 7.49645
1.8517427996910911 7.831580000000001
1.8740620574440425 7.99023
1.8963639900671978 7.5424
1.9186833908139995 7.85657
1.9409854680117449 8.38136
1.9633050151394713 7.577839999999999
1.9856246367570705 8.34484
2.0079269371922672 8.3252
2.03024671027244 8.26897
2.0525491637446027 7.735110000000001
2.074869091674931 7.77694
2.097171701569106 7.74675
2.1194917877373847 7.945589999999999
2.141811954326636 8.298169999999999
2.164114805233074 7.69913
2.186435135143035 7.5683
2.208738150935709 8.21753
2.231058647554722 7.664969999999999
2.2533792288321184 7.266539999999999
2.275682498336085 8.1987
2.298003251406138 7.51519
2.3203066942619714 7.6769300000000005
2.3426276225136022 6.807230000000001
2.3649486396617507 7.08473
2.387252348930071 7.55036
2.4095735463442893 7.39986
2.4318774374315884 7.1489
2.4541988185014043 7.02245
2.476502894794693 7.26893
2.498824462909887 7.0123
2.521146125856138 7.01271
2.5434504863470337 7.00715
2.5657723414244717 7.28798
2.588076895590662 7.542999999999999
2.610398946189713 7.528639999999999
2.6327210958598384 7.55916
2.6550259469304716 6.92403
2.6773482972090137 7.95142
2.6996533504259 8.33596
2.7219759047039602 8.69556
2.744298562293959 7.93542
2.7666039251246595 7.6628300000000005
2.7889267918020164 9.28923
2.8112323652516555 9.14207
2.833555444408179 9.86929
2.8558786311183852 10.1352
2.8781845268938557 10.932
2.9005079311721484 11.5816
2.9228140460410397 11.7189
2.9451376712799635 11.8552
2.967444008632326 12.5061
2.9897678582247247 13.0615
3.0120918213106695 13.6934
3.0343984987899373 14.1189
3.0567226913198637 15.3824
3.079029599759726 15.2689
3.101354025127254 16.086
3.123678568232338 17.2003
3.145985829517914 16.9803
3.16831061055229 16.9648
3.1906181112775593 17.3878
3.212943133635653 18.1857
3.2352682779763207 17.9269
3.2575761442691227 18.0284
3.2799015350264273 17.6619
3.302209649240067 17.9936
3.3245352898092655 17.9134
3.3468436553365257 17.9239
3.369169549113219 17.8165
3.3914955708171384 18.2999
3.413804319727358 18.6815
3.4361305997334863 18.7775
3.4584396084414553 19.3238
3.4807661501462652 19.1354
3.503092824025881 19.7248
3.5254022288463154 19.5563
3.5477291695206588 19.7974
3.5700388426251948 20.4287
3.5923660534916446 20.4043
3.6146934007816114 20.9985
3.637003482731501 21.5311
3.6593311053109985 21.3621
3.681641464033634 21.6498
3.7039693653009733 22.1414
3.726297407241705 22.2531
3.7486081875460804 22.6518
3.7709365132734978 22.6662
3.793247578841633 23.5904
3.8155761917550093 23.3461
3.8378875459837216 23.9641
3.8602164494827234 24.0325
3.882545499606844 24.8363
3.9048572932539183 25.0564
3.9271866390645718 25.5085
3.9494987298666713 26.0688
3.971828374764527 26.0833
3.9941581705403255 26.7624
4.016470713506008 27.1191
4.038800813471445 27.5016
4.061113662089144 28.3072
4.0834440696459176 28.7433
4.105774632334751 29.0099
4.128087945865126 29.6857
4.150418821249301 29.9023
4.172732448931298 30.5184
4.195063640413578 31.4039
4.2173775856475215 32.0871
4.239709096631102 32.7806
4.262040768704612 33.3305
4.284355196706267 33.8271
4.306687193387355 35.0641
4.329001947444346 36.3969
4.35133427213731 37.1726
4.373666762177566 37.8136
4.395982011761091 37.6269
4.418314834921175 38.359
4.44063041906622 38.9453
4.4629635787515625 39.4593
4.4852969080429785 40.3195
4.5076130004776225 41.1936
4.529946671403969 41.8506
4.552263106909177 42.8417
4.574597122877047 43.9461
4.596931312711224 45.7076
4.619248269273446 46.402
4.6415828092605835 47.2927
4.663900117405352 48.5811
4.686235010953232 50.1737
4.708552674085913 51.1601
4.730887924602802 52.3525
4.753223354952695 53.9531
4.775541557023902 55.5498
4.797877349456786 57.3873
4.820195915032126 59.5333
4.842532072957498 61.0261
4.864868414979744 63.6717
4.88718753227192 66.4998
4.909524244902505 69.3616
4.931843734218147 73.1863
4.954180820867835 77.7802
4.976518095879839 83.2395
4.998838149695359 88.8814
5.021175803844231 96.8879
5.043496238205739 104.06200000000001
5.065834274903528 112.456
5.088172504230693 123.434
5.1104935158799565 137.547
5.132832132875765 162.00799999999998
5.155153533596801 200.53
5.1774925416746225 290.611
5.199814334878411 631.0830000000001
5.2221537374521505 1560.62
5.244493338631803 2302.86
5.266815727034316 2319.04
5.289155727832427 3262.56
5.311478517248165 6295.77
5.333818921080011 7316.91
5.356159527788849 4657.31
5.3784829252032536 1902.82
5.400823940070432 731.925
5.423147747031976 350.348
5.445489173474152 228.951
5.467830807066149 181.204
5.490155234831516 155.969
5.512497285125229 139.037
5.534822130975162 129.89600000000002
5.557164601388673 121.681
5.579489868738879 113.624
5.601832762690846 108.652
5.6241758697774475 105.735
5.646501775867269 103.787
5.668845311622074 101.429
5.691171647754637 100.133
5.713515615597765 98.6355
5.735859800852677 97.2166
5.758186788542988 96.8013
5.780531411018185 97.5853
5.802858837297399 97.8458
5.825203900414495 99.2451
5.8475491852224 101.87899999999999
5.869877275883075 106.167
5.892223006467101 111.399
5.914551544266608 119.45700000000001
5.936897724049891 132.686
5.959244129804903 154.78799999999998
5.981573344815301 202.856
6.0039202049061 331.655
6.026249875609095 620.565
6.04859719346037 900.477
6.070927323278297 958.4119999999999
6.093275102315365 1015.41
6.115623113320588 1556.74
6.137953938319995 2535.11
6.160302415650845 2451.48
6.182633708324452 1312.16
6.2049826554078376 535.8919999999999
6.227331838745022 244.773
6.249663839443684 154.526
6.27201349767565 119.186
6.294345974611799 100.97200000000001
6.316696111167083 87.8263
6.339046488263839 80.0497
6.361379686074702 73.7664
6.383730546639482 69.7379
6.406064229255215 65.7835
6.428415576718203 63.8668
6.450749747566656 61.7296
6.47310158535871 60.0104
6.495453669698332 58.6663
6.517788579421056 57.6155
6.540141159237969 56.095
6.562476565766648 54.9429
6.5848296444934045 53.6865
6.607182974060425 53.0187
6.6295191323281015 52.5011
6.651872965955752 51.6337
6.6742096296068985 50.769
6.6965639707294615 50.766000000000005
6.71891856698715 49.9465
6.741255995248479 49.4699
6.763611104154477 48.8556
6.785949046381137 48.6342
6.808304671371482 47.9722
6.8306605557940046 47.9558
6.852999275508618 47.6173
6.875355681171544 47.4415
6.897694923437771 47.1124
6.92005185377892 47.1418
6.9423916220322655 46.7089
6.964749080490181 46.1069
6.987106804399774 45.9926
7.009447368180821 46.5063
7.031805625367033 46.5458
7.054146723727803 46.5504
7.076505517631004 46.1334
7.098864581288365 46.4102
7.121206488070854 46.2026
7.143566093607822 45.5578
7.165908543567245 45.8115
7.188268694426048 45.5071
7.2106291193438095 45.1496
7.232972390625943 45.1679
7.255333366030969 44.7388
7.277677189091925 44.4642
7.300038718428332 45.0769
7.322400526130865 45.0642
7.344745183422596 45.3625
7.367107550224791 45.3306
7.389452767901992 45.7419
7.411815697249891 45.8414
7.434161478756298 46.323
7.456524974096713 47.2189
7.478888753837185 49.1119
7.501235387657368 55.2257
7.523599738562711 80.7518
7.545946944825532 142.815
7.568311870344528 192.487
7.5906770845765665 173.685
7.613025156078678 110.762
7.635390950099687 69.8813
7.657739602662809 54.3587
7.680105979923558 49.7509
7.702472650212829 48.3659
7.724822180948224 47.7749
7.747189439655568 46.9865
7.769539560075357 46.8027
7.791907410653562 46.8651
7.81425812420825 46.70399999999999
7.836626570110925 46.7919
7.858995315087906 47.3958
7.881346924933401 47.486999999999995
7.903716270417482 48.0917
7.926068482028405 48.2532
7.948438431475253 48.5992
7.9708086843180235 48.7959
7.993161805171116 49.4875
8.015532667162402 49.7229
8.037886398416653 50.678999999999995
8.060257873014221 51.1339
8.082629655331942 51.4928
8.104984308787587 51.9882
8.127356708900503 52.5688
8.149711981398308 53.4873
8.172085002766314 54.233999999999995
8.194458336181368 55.2428
8.216814543847752 56.4874
8.23918850371002 57.7094
8.26154533906492 58.8734
8.283919928836452 60.5926
8.306277395339652 61.7833
8.328652618483376 63.4501
8.351028159736202 65.9348
8.373386579575245 69.0876
8.395762759396959 71.26899999999999
8.418121819038275 75.2844
8.440498640894003 81.9346
8.462875785192262 91.9816
8.485235811156207 111.42200000000001
8.507613602688501 166.132
8.529974277114228 298.45
8.552352719347912 433.374
8.574731488360351 472.74800000000005
8.59709314210385 389.412
8.619472567021075 346.295
8.64183487789147 474.93199999999996
8.664214962183097 914.1
8.686577933647762 1382.27
8.708958680784317 1293.1
8.731339760774953 807.905
8.753703729764451 358.44
8.77608547780821 175.115
8.798450116065078 124.625
8.820832535634787 104.74799999999999
8.843215292401656 94.0335
8.865580941199045 87.3069
8.887964374703538 83.6529
8.910330701447199 80.8207
8.932714815164482 78.7632
8.955099270424924 76.8031
8.977466620733543 75.5002
8.999851761421976 74.5265
9.022219798361645 74.0825
9.04460562795561 73.8941
9.066991803441677 73.6441
9.089360876979615 73.6525
9.111747746589993 73.955
9.13411751544971 74.4104
9.156505082664324 75.7864
9.178875550323522 79.1877
9.20126381862328 89.9098
9.223652438908596 128.15200000000002
9.246023961427412 224.56400000000002
9.26841328802173 310.827
9.290785518039224 294.801
9.313175554425882 205.378
9.335565947154315 123.439
9.357939245086508 89.5448
9.380330352834827 79.0156
9.40270436697103 75.2216
9.425096193225055 73.3215
9.447488380180165 73.2448
9.469863475295412 72.7751
9.492256385987508 72.149
9.514632206018318 72.4422
9.537025843935714 72.8285
9.559402392368193 72.6002
9.581796761000229 73.2332
9.604191496441521 73.1895
9.626569144158516 73.2762
9.648964615551032 73.7837
9.671343000390081 74.4634
9.693739211225699 75.4571
9.716135793237463 76.4307
9.738515290448102 76.9734
9.760912617143402 77.767
9.783292860202891 79.3561
9.805690935076182 81.0117
9.828089385495742 82.196
9.850470754023561 84.4902
9.872869957865444 87.4395
9.89525208097539 91.1851
9.917652041736662 96.54799999999999
9.940052382417589 105.244
9.962435644102392 126.238
9.984836746950979 173.532
10.007220771957746 279.034
10.029622640473708 400.949
10.052007432299963 436.92
10.074410069984072 376.185
10.096813093716005 305.38
10.119199042482517 301.154
10.141602840636468 438.22900000000004
10.163989564971628 792.8330000000001
10.186394141051062 1251.27
10.208799107559706 1271.18
10.231187001965623 879.722
10.253592751657669 433.684
10.275981430388155 207.248
10.298387966769793 136.97
10.320794897965431 115.67200000000001
10.343184759907361 104.741
10.36559248305461 98.3879
10.387983138083852 95.5056
10.410391656691655 97.0621
10.432800574501677 108.31200000000001
10.455192425893369 137.22899999999998
10.47760214443012 169.98
10.499994797678786 179.731
10.522405320453982 158.703
10.54479877906917 134.46
10.567210109595656 129.464
10.5896218454736 154.732
10.612016518879773 237.99200000000002
10.634429067781074 364.207
10.656824555333241 424.49
10.679237920773568 365.858
10.701651695961992 251.53
10.724048411481384 172.782
10.746463008485165 128.003
10.768860546937125 98.5462
10.791275969274796 81.1184
10.81369180576079 73.6243
10.836090585366925 70.4824
10.858507252467449 68.1083
10.88090686379991 66.7821
10.903324365036394 65.4836
10.925724811614439 63.8907
10.948143150509463 63.3518
10.970561909719066 62.4504
10.992963615930844 61.5949
11.015383218085756 60.5173
11.037785768347074 59.943000000000005
11.06020621697282 59.3008
11.082627090322113 58.588
11.105030913430326 58.3766
11.12745263854165 57.7124
11.149857314510728 56.9748
11.172279894912576 56.9886
11.194702904450653 56.0771
11.217108866490921 55.4743
11.239532736615194 55.3025
11.26193956033512 54.8704
11.284364294577085 54.603
11.306789462371718 54.2704
11.329197585398376 53.9858
11.351623622610898 53.8957
11.37403261614354 53.2261
11.396459526308487 53.2165
11.418869393879497 52.806999999999995
11.441297180532617 52.6124
11.463725406927658 52.608000000000004
11.486136592353875 52.0344
11.508565700543707 51.7138
11.530977768845315 51.9298
11.553407762368774 51.7096
11.575838200059769 51.5795
11.598251599479612 51.2564
11.620682927815501 51.3467
11.64309721895548 51.5618
11.665529441478206 51.0233
11.687962112597958 51.065
11.710377748130886 51.3579
11.732811318753434 51.3195
11.755227854859067 51.3081
11.777662328529495 51.1576
11.800079768750786 51.2544
11.822515149015453 51.7601
11.844950984084935 52.668
11.867369787303163 52.9884
11.889806534289491 54.8946
11.912226250487029 60.6282
11.934663912939751 75.5485
11.9571020346363 97.757
11.979523127133968 110.73
12.001962169624331 106.663
12.024384183972964 90.6054
12.046824150809913 75.5665
12.069264581333726 71.4823
12.091687985297767 75.3283
12.11412934550045 78.9224
12.136553680195208 77.7524
12.158995973632788 72.988
12.181438735204349 68.67699999999999
12.20386447284199 67.6646
12.226308172985636 72.6168
12.24873485024193 87.2778
12.271179492516982 115.34899999999999
12.293607112949127 144.14
12.316052700916226 148.726
12.338498763250042 122.303
12.360927805303868 88.7689
12.383374818673879 68.5075
12.405804812803074 59.1279
12.428252780773262 55.6054
12.45070122756722 54.0923
12.473132656675375 53.3087
12.49558206341869 52.7794
12.518014453510101 52.2408
12.540464823770117 52.1374
12.562915677315177 52.0056
12.58534951575545 52.1982
12.607801338171472 51.9408
12.630236146511358 52.1889
12.652688941369085 52.3752
12.675124723177234 52.4383
12.697578494048786 52.9269
12.720032754458185 53.0222
12.742470003354093 53.3132
12.764925245138771 53.9964
12.787363476431278 54.0298
12.809819703166806 54.3412
12.83227642391173 54.9039
12.854716135692716 55.3843
12.877173846755147 55.9772
12.899614549869717 56.4382
12.9220732548287 57.1452
12.94453245827299 57.6324
12.966974655289818 58.596000000000004
12.989434858002571 59.6639
13.011878055298721 60.2431
13.034339260862497 61.7317
13.056800969391883 63.8312
13.079245674017244 69.3303
13.101708390774869 75.8287
13.12415410463411 84.6001
13.146617833206086 96.2739
13.169064559883248 112.633
13.191529303857127 129.442
13.213994557076367 137.38299999999998
13.236442809902437 129.925
13.258909083908291 114.939
13.28135835851934 103.861
13.30382565690295 101.83
13.326293469022952 111.428
13.348744283242008 140.985
13.371213125129904 205.753
13.39366497011003 286.092
13.416134845360597 326.183
13.438605238843131 288.158
13.46105863690397 207.418
13.483530069144786 145.869
13.505984506951902 125.095
13.528456981549432 130.997
13.550929978879088 136.191
13.573385983253365 131.954
13.595860028340867 117.89
13.618317081455832 103.96799999999999
13.64079217790333 97.0014
13.663250283359057 98.9299
13.685726434770173 112.58200000000001
13.708203115221277 153.377
13.730662806148091 222.334
13.75314054697177 279.686
13.775601299246777 284.444
13.798080104050406 222.173
13.820559442405358 144.02
13.843021793671388 98.1756
13.865502201420897 78.7464
13.887965623051947 71.9761
13.910447103807167 68.8438
13.932929122629764 66.4458
13.955394156785959 65.3243
13.977877254034569 64.2604
14.000343367582113 63.3816
14.022827546871707 63.3059
14.045294743423524 62.6695
14.06778000837062 62.7
14.090265817715476 63.7464
14.112734645763819 67.5175
14.13522154619454 78.2895
14.157691466286913 94.0949
14.180179461423874 103.446
14.202668005486178 101.20299999999999
14.22513957064374 89.6347
14.247629214846473 75.6312
14.270101881097517 65.7576
14.29259262906496 61.0259
14.315083930490205 59.21
14.337558255389705 58.2053
14.360050666019726 57.8782
14.382526101071944 57.3176
14.405019624534942 56.9548
14.427513705993134 56.5647
14.449990813291825 56.4209
14.47248601302899 56.4628
14.49496423954951 56.437
14.517460561197822 56.256
14.539939910570322 55.9023
14.562437357763558 55.8602
14.58493536931253 56.0433
14.607416409993311 56.185
14.62991555254159 56.3363
14.652397725157423 56.2972
14.674898002342799 56.5475
14.697398848433282 56.8056
14.719882725991326 57.8326
14.74238471217934 58.9571
14.764869730765593 61.5388
14.787372860692983 66.2299
14.809876564079925 74.6007
14.83236330125751 83.7604
14.854868153850365 87.9811
14.877356041159485 86.0461
14.899862046604186 80.4203
14.922351087688757 74.8178
14.944858249632887 71.6056
14.967365991421232 72.2601
14.989856770231246 76.4992
15.012365673994204 89.5119
15.03485761569738 116.605
15.05736768508665 151.224
15.07987833888692 173.02900000000002
15.102372032001655 166.843
15.124883856909658 132.697
15.14737872204565 98.0937
15.169891721717274 76.9433
15.192405310371893 67.5763
15.214901940621196 62.7306
15.237416709527137 59.3442
15.259914520936249 57.8289
15.282430473753607 56.3769
15.304947020131227 55.3755
15.327446610371178 54.9985
15.349964346154254 54.58
15.372465126703139 54.3817
15.394984055556009 54.1696
15.417486030076159 54.1767
15.44000615566487 53.6337
15.462526881230803 53.5469
15.485030653812652 53.5483
15.507552581617434 53.3466
15.530057557334603 53.2391
15.55258069104857 53.3112
15.575104429329837 53.5906
15.597611216864632 53.6538
15.620136166564563 54.1556
15.6426441664095 55.0205
15.665170331202765 56.7891
15.687697105158826 60.6943
15.710206930593545 67.1525
15.732734925158933 74.7019
15.755245972089478 78.6788
15.77777519094324 78.711
15.800287463046663 74.4067
15.822817909869592 68.6482
15.84534897229804 64.9131
15.867863089299354 64.5168
15.890395385222186 66.0208
15.912910736597423 71.4293
15.935444269699861 86.1947
15.957978423016485 111.925
15.980495633101265 139.711
16.003031029129367 156.515
16.02554948280019 147.123
16.048086125229432 120.779
16.070623392487107 96.3638
16.09314371869582 80.357
16.11568223789321 70.6464
16.13820381691126 63.3238
16.160743591742527 57.7297
16.183283996022084 54.1788
16.205807461423195 51.4221
16.228349126881973 49.9327
16.25087385432698 49.2896
16.27341678466365 48.5738
16.29594277784926 47.9976
16.31848697676433 47.5582
16.341031811604868 46.931999999999995
16.36355971058487 46.7567
16.3861058195587 46.5144
16.40863499352978 46.0887
16.431182380342005 45.7772
16.453730407713202 45.7346
16.476261501364792 45.5356
16.498810812136167 45.2149
16.52134319004079 45.177
16.54389378792203 45.121
16.566445031001553 44.8517
16.588979342490088 44.7826
16.61153187824822 44.706
16.634067483263312 44.5539
16.656621315414416 44.3804
16.679175797408888 44.1035
16.701713349928728 44.1653
16.72426913389191 44.4057
16.74680798922351 44.2325
16.76936507887444 44.2738
16.791905240734874 44.4306
16.814463639794468 44.3129
16.837022695210294 44.3737
16.859564824093756 44.4998
16.882125194503903 45.1841
16.904668639217885 46.3614
16.927230328348003 48.1298
16.949792678493612 50.0694
16.972338104193863 50.793
16.994901778652235 50.3985
17.017448529496576 48.9935
17.040013531998152 47.6688
17.06257920018044 46.6483
17.0851279459922 46.8628
17.107694947817667 47.89
17.130245028099072 49.2053
17.15281336730298 50.3782
17.17536478578733 50.7883
17.19793446610687 50.1978
17.220504818648422 49.2935
17.243058251703697 48.1328
17.265629950971032 47.8643
17.288184731571736 47.9488
17.310757781306908 48.733999999999995
17.33333150794385 49.5594
17.355888317140174 52.2393
17.37846339986244 56.9659
17.401021565958885 63.1017
17.42359800851343 67.6307
17.44617513265564 67.2366
17.468735341390783 62.5947
17.491261035594565 56.2114
17.51396340099364 51.4553
17.536490463869136 49.2423
17.559018209820174 48.2892
17.58154663977963 47.8092
17.604251766089718 47.9909
17.626781572227713 48.1861
17.64931206518155 48.0507
17.671843245885103 48.227
17.69455114821572 48.4792
17.717083712612634 49.2584
17.739616967569667 50.2829
17.762150914021706 52.1827
17.78486160749854 53.6216
17.807396945166804 54.6149
17.829932977143503 55.132
17.85246970436452 55.1506
17.875183204129467 55.7604
17.897721330097664 58.3924
17.920260154126645 62.4338
17.942799677153296 65.7702
17.9655159983646 66.8111
17.988056927677544 65.4146
18.010598558807683 62.748999999999995
18.033140892692916 60.0521
18.05586005052525 58.4695
18.07840379824407 58.17
18.10094825154059 59.4441
18.12366954819864 62.5787
18.146215420998306 68.8517
18.16876200220057 80.575
18.191309292745153 98.5128
18.214033452627167 116.426
18.236582170236648 123.25200000000001
18.259131600016456 115.353
18.281681742907335 97.1167
18.304408781233683 78.7628
18.32696035875955 66.8257
18.349512652227624 61.1742
18.372065662579683 59.3343
18.394795594587553 59.7928
18.41735004715306 63.1747
18.43990521943684 69.5956
18.46246111238171 78.5617
18.485193953325208 85.4154
18.507751296070428 85.7932
18.530309362314178 79.7449
18.552868153000343 70.6867
18.57560391815056 62.7236
18.59816416623245 58.3517
18.620725141597372 55.425
18.643286845190268 53.583999999999996
18.666025549835414 51.9846
18.688588718427933 50.3658
18.711152618092243 49.6615
18.73389353884365 49.1636
18.75645890921984 48.551
18.77902501351406 48.3292
18.801591852673102 48.1219
18.824335739722738 47.5913
18.846904057212626 47.6446
18.8694731124168 47.2654
18.89204290628315 47.181000000000004
18.914789774966803 46.9318
18.937361054791623 46.7504
18.959933076131318 46.5013
18.982505839934877 46.5267
19.00525570560582 46.6583
19.027829963004184 46.3108
19.05040496572238 46.3599
19.072980714710468 46.3183
19.095733592739563 46.5366
19.11831084296757 46.8992
19.140888842324735 47.5431
19.16346759176222 48.4891
19.18622349753803 49.284
19.208803755869358 49.7115
19.231384767143577 49.6038
19.253966532312948 49.1789
19.276725481241822 49.0358
19.29930876296784 49.8556
19.3218928014549 51.863
19.34465404436217 53.3132
19.36723960516257 54.1668
19.389825925592426 54.5277
19.412413006605938 54.523
19.43517731967805 54.93600000000001
19.457765930683355 57.1328
19.48035530514408 60.0834
19.50294544401556 61.567
19.525712842708348 60.4861
19.54830451925909 56.6526
19.570896963095727 51.8749
19.593490175174704 48.0089
19.616260674962184 45.9977
19.638855432416964 44.8669
19.661450960992624 44.5701
19.68404726164677 44.1358
19.706820878021247 43.7044
19.729418731756834 43.7744
19.752017360452857 43.6022
19.77461676506804 43.645
19.797393513540218 43.5674
19.819994478951667 43.8186
19.84259622316767 44.3553
19.8651987471481 45.2087
19.887978643247177 45.7489
19.91058273574792 46.1069
19.933187610901943 46.294
19.955969879466828 46.0961
19.97857632894404 45.4829
20.00118356396599 44.7714
20.023791585494575 44.4613
20.046577028914875 44.5899
20.069186632506966 45.0567
20.091797025500632 45.9505
20.114408208858933 47.0037
20.137196842715273 48.6808
20.159809615886765 51.0609
20.18242318232135 53.6265
20.20503754298326 56.2062
20.227829382875154 57.6205
20.250445341109344 56.5814
20.27306209647285 53.4753
20.29567964993108 49.65
20.31847471147704 46.7998
20.34109387027612 45.4585
20.363713830075454 45.2095
20.386334591841646 46.2172
20.409132890679302 48.373000000000005
20.431755265564437 51.3387
20.454378445325528 53.3305
20.477002430930366 53.4278
20.499803982716553 51.4834
20.522429589228004 48.3088
20.54505600449589 45.1457
20.567683229489194 43.0887
20.590488049900088 42.0171
20.61311690359731 41.5035
20.63574656993626 41.2083
20.658553853717297 40.8864
20.681185154618298 40.843
20.703817271080066 40.7853
20.72645020407368 40.6614
20.749260783967177 41.1153
20.771895359337133 41.7968
20.794530754161617 42.3753
20.817166969412938 42.5819
20.83998086114876 42.4562
20.86261872660049 41.9316
20.885257415405402 41.18600000000001
20.90789692853701 40.5218
20.930714147864748 39.8897
20.953355319030678 39.6294
20.97599731745334 39.8292
20.99864014410749 39.8239
21.021460706796564 39.9362
21.044105199328826 39.9366
21.06675052302631 39.9752
21.089396678865015 39.9525
21.112220600704806 39.7608
21.134868430275347 39.6961
21.15751709492456 39.5405
21.180166595629693 39.2822
21.202993892429635 39.1043
21.22564507473034 39.2279
21.24829709602816 39.3544
21.27112693608965 39.4419
21.293780644891275 39.9451
21.316435195634053 40.26
21.339090589297417 41.0038
21.361923832041875 41.7197
21.384580921090404 41.971000000000004
21.407238856007325 41.7207
21.429897637773326 41.248000000000005
21.45273429906592 40.6873
21.475394784108598 40.3145
21.498056118951983 39.9766
21.520718304578022 40.1276
21.543558400304388 39.8964
21.566222297108816 39.9477
21.58888704765135 39.8379
21.61155265291521 40.1313
21.63439619898156 40.657
21.657063523335786 41.1221
21.67973170537063 41.7976
21.7024007460706 42.3378
21.72524775840385 42.5492
21.747918526116475 42.4869
21.770590155457388 42.0353
21.79326264741238 41.6217
21.816113141960237 41.3304
21.838787368860547 41.4873
21.861462461341976 41.6641
21.884315579735777 42.157
21.90699241312273 42.7222
21.92967011506078 43.2783
21.95234868653799 44.136
21.9752053151131 46.0038
21.997885635446785 48.407
22.020566828293532 51.4621
22.04324889464272 53.3177
22.066109049404666 53.2788
22.088792872571794 51.3112
22.111477572219204 48.7734
22.1341631493376 46.5867
22.157026846313123 45.1065
22.179714188221507 44.7743
22.202402410582668 45.2781
22.22509151438863 45.8966
22.24795876962584 46.3215
22.270649646204486 46.4336
22.293341407213727 45.8437
22.316034053646906 44.5485
22.338904883215342 42.8599
22.36159931041458 41.5274
22.38429462602756 40.7505
22.40699083104897 40.0507
22.429865251039757 39.7971
22.452563244831367 39.7744
22.47526213102522 39.6714
22.49813925616515 39.7172
22.520839937143307 39.5032
22.543541513520587 39.6034
22.56624398629403 39.5334
22.589124730075895 39.4966
22.611829005656723 39.6443
22.63453418063466 39.582
22.657240256008077 39.8702
22.680124634582935 40.1457
22.70283252079775 40.585
22.725541310413075 41.1751
22.74825100442868 41.534
22.771139033969575 41.9934
22.79385054687155 41.8764
22.81656296718292 41.6408
22.83927629590484 41.5668
22.862167992606945 41.302
22.88488314827121 40.8412
22.907599215359284 40.4964
22.93031619487366 40.3494
22.953211574954405 40.2353
22.975930389478226 40.5248
22.998650119445763 40.8851
23.02137076586092 41.418
23.044269845560063 42.7915
23.06699233506288 44.5099
23.089715744034912 46.5946
23.112617610931565 47.8256
23.135342869061212 47.8482
23.158069049684816 46.6974
23.1807961538087 44.6066
23.20370174880544 42.6027
23.226430710184808 41.318000000000005
23.249160598093425 40.6627
23.271891413539002 40.4163
23.294800752937697 40.5693
23.31753343374794 41.0301
23.340267045128353 41.1598
23.36300158808808 41.7684
23.38591468821339 41.9263
23.408651104658304 42.0759
23.431388455719986 42.0428
23.454126742409 41.56399999999999
23.4770436196085 41.4062
23.499783787914662 41.1301
23.522524894889884 40.5401
23.54526694154616 40.1172
23.56818761219047 39.9127
23.59093154860734 39.8868
23.613676427751283 40.5149
23.636422250635754 40.9261
23.659346731118656 42.0367
23.68209445191868 43.9771
23.704843119509587 45.9982
23.72759273490623 47.5481
23.750521041644767 47.8352
23.77327256312355 46.4429
23.796025035462787 44.2472
23.818956224555475 41.7125
23.841710609113413 39.8955
23.86446594758979 38.7732
23.887222241002014 38.1242
23.910157285144578 37.5779
23.932915498962537 37.5284
23.955674670778713 37.314
23.978434801611975 37.1408
24.001373717286125 37.0666
24.024135776723917 36.8234
24.046898798245582 36.7865
24.06966278287146 36.7608
24.092605586582614 36.7397
24.115371508023642 36.4807
24.1381383956401 36.2441
24.16090625045381 36.1503
24.183852958731244 36.0153
24.206622758582608 35.9498
24.229393528706886 35.6872
24.252165270127392 35.7964
24.27511589952438 35.7742
24.297889594216997 35.6623
24.32066426328598 35.4319
24.34343990775613 35.4129
24.36639447485003 35.3237
24.38917208083877 35.2138
24.41195066531332 35.2225
24.43490819850244 35.1778
24.457688750692377 34.9813
24.48047028445616 34.9325
24.503252800821233 35.0748
24.526214300784112 35.0744
24.548998793132213 34.8949
24.57178427117417 34.748000000000005
24.59457073593893 35.0538
24.617536219319863 35.0048
24.64032466834748 35.2395
24.663114107195035 35.4267
24.685904536893013 35.4648
24.708874020360852 35.3898
24.731666442613744 35.3721
24.754459858818787 35.4363
24.777254270007962 35.1892
24.80022777025625 34.8945
24.82302418230472 34.8646
24.845821592443674 34.8197
24.86862000170663 34.6242
24.891597535453727 34.6509
24.914397953892728 34.7365
24.93719937456671 34.692
24.96000179851076 34.6412
24.98298338249997 34.6252
25.00578782394922 34.6473
25.028593271784167 34.5127
25.05157790644186 34.6758
25.07438537804115 34.7702
25.097193859145293 34.8027
25.120003350792075 34.7697
25.142992065061257 34.8574
25.165803588823465 34.8291
25.18861612625217 34.7837
25.211429678386736 34.7741
25.234422489079968 35.0143
25.257238081693636 35.1612
25.280054692141732 35.62
25.3028723214652 35.8687
25.325869245420463 35.9816
25.348688923599397 35.9655
25.371509623787006 35.6269
25.394331347025812 35.2489
25.41733240110666 35.1784
25.440156181590016 35.3429
25.46298098826268 36.0851
25.48580682216873 36.539
25.50881202326435 36.8768
25.53163992281684 36.6039
25.55446885274561 35.9556
25.577298814096377 35.0979
25.600308179121807 34.4979
25.623140214533745 34.1329
25.64597328451537 33.7362
25.66898578564376 33.3397
25.691820936010206 33.1781
25.714657124097695 33.1787
25.737494350954734 33.1895
25.760511045684957 33.2098
25.783350361364224 33.3198
25.806190718969255 33.354
25.82903211955018 33.6886
25.852053024868923 33.5913
25.874896522722523 33.647
25.897741066713106 33.4092
25.920586657892454 33.3405
25.943611790812668 33.0243
25.966459487728237 32.8292
25.989308234998564 32.741
26.01215803367705 32.933
26.03518741123814 32.8405
26.05803932412957 32.8257
26.080892291600094 32.6641
26.10374631470478 32.6437
26.12677995397268 32.8246
26.14963609978026 32.9588
26.172493304397875 33.0437
26.19535156888223 33.4593
26.218389486949604 33.8447
26.241249882640123 34.0298
26.26411134137826 34.3256
26.28715248187403 34.3449
26.31001607820869 33.964
26.3328807407756 33.4561
26.35574647063438 33.4109
26.37879191991473 33.1986
26.401659795896734 33.0837
26.424528742360263 33.1007
26.447398760366614 33.0566
26.470448535598294 32.8857
26.49332070826805 32.9495
26.516193955675355 32.8415
26.53906827888316 32.7353
26.562122397260108 32.6205
26.584998883685063 32.7236
26.607876449110325 32.7525
26.63075509460056 32.8113
26.65381357334404 32.6416
26.67669439061878 32.7094
26.699576291163382 32.7296
26.722459276044212 33.1043
26.745522132402975 33.4265
26.768407297649354 33.9218
26.791293550442003 34.2839
26.814180891848974 34.5433
26.837248143099337 34.3898
26.860137673466657 34.1252
26.88302829566349 33.7313
26.90592001075963 33.4238
26.92899167420566 33.4144
26.951885586870763 33.3762
26.974780595655517 33.3874
26.99785558178161 33.3358
27.020752794605112 33.1551
27.043651106772522 32.8196
27.06655051935668 32.525
27.089629948036183 32.1046
27.112531573292053 32.0044
27.135434302194138 31.9092
27.158338135817015 31.6914
27.181422024430987 31.7561
27.204328079372566 31.5978
27.22723524226965 31.6686
27.250143514198573 31.6805
27.273231880156334 31.5863
27.296142382065014 31.4875
27.319053996245536 31.3681
27.341966723775965 31.3981
27.365059584515222 31.2637
27.38797455070062 31.2616
27.410890633481237 31.2351
27.433807833936918 31.2469
27.456905206923906 31.1473
27.47982465472398 31.1593
27.502745223449743 31.2369
27.525666914182825 31.3087
27.548768816912457 31.1987
27.571692763693633 31.1687
27.59461783573812 31.11
27.617723149491244 31.1607
27.640650484125285 31.3394
27.66357894728264 31.3875
27.686508540048052 31.5937
27.709618414237887 31.704
27.732550278321757 31.5759
27.755483275279115 31.5049
27.778417406196485 31.3442
27.801531858397514 31.3109
27.824468269376716 31.0664
27.847405817586786 30.8613
27.870344504116094 30.9681
27.893463551932008 30.8909
27.916404527281053 30.8642
27.93934664422563 30.9434
27.962289903855886 30.7581
27.98541356491974 31.0031
28.00835912214229 30.9305
28.03130582533231 30.9649
28.054253675581805 31.0148
28.077381967556104 30.9341
28.100332124185126 30.9358
28.123283431160893 30.9411
28.146235889577238 30.9951
28.169368830154156 31.2837
28.192323603752033 31.5741
28.215279532083304 31.708000000000002
28.238415973016764 31.6919
28.261374223145094 31.6782
28.284333631303806 31.4699
28.307294198589954 31.1082
28.330435319167677 30.9989
28.353398217078915 30.803
28.376362277420153 30.7169
28.39932750129032 30.8932
28.422473319286713 30.7791
28.44544088262495 30.6679
28.468409612800283 30.2585
28.491379510913497 29.9795
28.51453004413313 29.8382
28.53750229057244 29.6673
28.56047570826344 29.6
28.583450298308804 29.6234
28.606605564586562 29.3768
28.629582511831156 29.394000000000002
28.65256063474956 29.3054
28.675539934446338 29.3242
28.698699951647605 29.1906
28.72168161743193 29.0744
28.74466446331978 28.875
28.767648490417624 28.7539
28.790813276438353 28.6766
28.813799678527303 28.7837
28.836787265157085 28.715
28.859955641890075 28.6278
28.882945610203045 28.6433
28.905936766392035 28.5249
28.928929111566863 28.6166
28.952102288520145 28.5481
28.975097024308607 28.5432
28.998092952423807 28.5266
29.021090073977508 28.5206
29.04426806913204 28.6845
29.067267590245258 28.6125
29.090268308143695 28.6033
29.11327022394099 28.6014
29.13645305530891 28.4604
29.159457379627167 28.4268
29.18246290519685 28.204
29.20546963313352 28.0833
29.22865731875826 27.980999999999998
29.25166646419296 27.8607
29.27467681535305 27.7017
29.29768837335608 27.7105
29.320880931312562 27.7474
29.34389491580634 27.666999999999998
29.366910110507334 27.5644
29.38992651653503 27.5623
29.41312396492981 27.5753
29.436142806456754 27.4592
29.45916286268059 27.4385
29.48236399319994 27.4881
29.50538649169417 27.475
29.528410208259935 27.5916
29.55143514402014 27.5846
29.574641196749695 27.5874
29.597668583816574 27.6224
29.6206971934585 27.5294
29.64372702680042 27.433000000000003
29.666938019934474 27.1654
29.689970313635285 27.1527
29.713003834422636 26.9599
29.73603858342347 26.9123
29.759254535188578 26.8858
29.78229175361658 26.7275
29.80533020365064 26.834
29.82836988641968 26.8139
29.85159081507472 26.7172
29.874632976355343 26.5912
29.89767637376955 26.7029
29.920721008448314 26.6161
29.9439469322847 26.5319
29.96699405457564 26.5196
29.9900424175358 26.5964
30.013092022298157 26.4858
30.03632295963995 26.4103
30.059375061131373 26.4909
30.08242840783577 26.5583
30.105483000888153 26.5588
30.128718970092244 26.4073
30.151776069006917 26.3916
30.17483441768648 26.3702
30.198074175317235 26.3963
30.221135036724256 26.2528
30.24419715131772 26.215999999999998
30.267260520236203 26.1582
30.290505341942243 26.174
30.313571232750228 26.2612
30.336638381310948 26.2306
30.35970678876503 26.32
30.38295669299435 26.351
30.40602763151657 26.3152
30.429099832366074 26.3525
30.452173296685572 26.269000000000002
30.47542830191959 26.2439
30.498504306502497 26.1119
30.521581577995562 26.0138
30.544660117543582 26.0439
30.56792024229725 25.9613
30.59100133132069 25.9403
30.614083691845494 25.8455
30.637167325018545 25.8677
30.660432587840603 25.7934
30.683518779717886 25.7262
30.70660624769615 25.8328
30.729694992924372 25.7205
30.75296541239743 25.8229
30.77605672557558 25.8548
30.799149319462742 25.9113
30.8224236211637 26.0026
30.845518789950724 26.0607
30.868615242910597 26.2104
30.891712981195973 26.1802
30.91499247215866 26.0808
30.938092794619365 26.0773
30.96119440587579 26.0084
30.984297307082752 25.8209
31.00758200598383 25.6865
31.030687500658694 25.6692
31.053794288760695 25.7159
31.076902371446767 25.6511
31.100192296997445 25.6506
31.12330298246119 25.4391
31.14641496599209 25.3694
31.169528248749216 25.3863
31.19282341969534 25.2631
31.215939314557186 25.2585
31.239056512134788 25.2617
31.262175013589378 25.2904
31.28547544871168 25.0693
31.30859657161541 24.9657
31.331719001892175 25.0384
31.35484274070538 25.076
31.378148458819545 25.0348
31.401274828443725 24.9118
31.424402510106933 24.947
31.447712205419993 25.0152
31.470842524931633 24.8651
31.493974159989783 24.8694
31.51710711176168 24.9115
31.54042212308802 24.936
31.563557722100917 25.0353
31.586694641341655 24.9127
31.609832881979628 24.9186
31.63315322823208 24.9621
31.656294125521327 24.8667
31.679436347728515 24.9947
31.70257989602529 24.909000000000002
31.725905596152327 24.8731
31.74905181052835 24.7119
31.772199354521323 24.6907
31.79534822930507 24.5706
31.818679302290967 24.4368
31.84183085259981 24.4236
31.864983737233473 24.401
31.88813795736804 24.3949
31.911474422233013 24.255
31.934631327356435 24.326
31.9577895715215 24.3258
31.980949155906522 24.3165
32.004291031706956 24.3285
32.027453310562606 24.2907
32.05061693318573 24.239
32.07396288236386 24.3072
32.09712920658542 24.2163
32.12029687812702 24.2842
32.14346589817093 24.2652
32.166817291729984 24.1954
32.18998902288583 24.1735
32.21316210610336 24.1427
32.23633654256711 24.1138
32.259693399663725 23.9599
32.282870556771144 23.9586
32.30604907069099 23.9558
32.329228942610065 23.9087
32.35259128243769 23.7362
32.375773884550505 23.6748
32.398957848235646 23.5858
32.422143174682176 23.5508
32.445511016471215 23.5219
32.468699082679954 23.4308
32.49188851523011 23.458000000000002
32.51507931531304 23.3421
32.538452678331 23.3513
32.56164622776311 23.2282
32.58484114831493 23.2189
32.60803744118015 23.2236
32.631416344731896 23.2194
32.654615396551876 23.1825
32.67781582427913 23.1338
32.701198898634416 23.0839
32.72440209253756 22.9825
32.747606665947124 23.0261
32.77081262006088 22.8802
32.79420126883317 22.9888
32.81740999876112 22.9667
32.840620112999424 22.8982
32.86383161274818 22.8234
32.88722585534586 22.9129
32.91044014056596 22.9152
32.933655814909734 22.8518
32.95687287957963 22.81
32.98027273544904 22.7541
33.00349259526636 22.6764
33.026713849030116 22.713
33.04993649794511 22.6538
33.073341986570746 22.5892
33.09656744032826 22.5069
33.11979429286444 22.5456
33.14302254538647 22.5088
33.166433686291185 22.511
33.18966475336992 22.3961
33.212897224069096 22.3491
33.23613109959831 22.285
33.259547912343415 22.3034
33.2827846121627 22.3382
33.306022720453775 22.3629
33.32926223842861 22.1906
33.352684742614166 22.2658
33.37592709463173 22.3471
33.399170859982064 22.2463
33.422597648419426 22.1683
33.44584425514446 22.2084
33.46909227885668 22.221
33.4923417207723 22.1576
33.51577423505344 22.1688
33.539026528130385 22.1325
33.56228024307245 22.0137
33.585535381098246 21.8443
33.60897364093058 21.7173
33.63223163992385 21.7878
33.6554910656699 21.7166
33.678751919389796 21.715999999999998
33.702195944520106 21.6841
33.72545966903325 21.6123
33.74872482519663 21.6109
33.771991414233746 21.6106
33.79544122444841 21.5762
33.81871069412428 21.4609
33.84198160035767 21.4474
33.86525394437455 21.4289
33.88870955949969 21.3904
33.911984794020626 21.386999999999997
33.93526147001624 21.3396
33.958539588715006 21.2704
33.98200102861669 21.3049
34.0052820477047 21.2703
34.02856451319451 21.2349
34.05203033759056 21.1365
34.07531571090147 21.1783
34.09860253431845 21.1634
34.121890809074316 21.1236
34.145362493118924 21.1422
34.16865368561615 21.1189
34.191946333164054 20.9491
34.21524043699793 20.9302
34.23871800066799 20.8895
34.26201503218366 20.8483
34.28531352370466 20.8563
34.30861347646881 20.7985
34.33209693978188 20.7532
34.3553998301885 20.7925
34.378704185565205 20.6548
34.402010007152356 20.5849
34.42549939016683 20.6852
34.44880815937748 20.5945
34.472118398533134 20.5212
34.49543010887669 20.4929
34.51892543169198 20.3863
34.54224009966052 20.4591
34.56555624255917 20.4978
34.58887386163339 20.438
34.61237514439016 20.3441
34.6356957311114 20.3025
34.65901779775809 20.3384
34.68252356662995 20.3132
34.705848608458616 20.2715
34.72917513396849 20.1936
34.75250314440949 20.1294
34.77601490857862 20.0628
34.799345904259795 20.0518
34.82267838863559 20.1149
34.846012362958525 20.0282
34.869530142679984 20.0303
34.89286711232212 20.05
34.91620557568269 19.9623
34.93954553401677 19.9078
34.9630693495876 19.8415
34.986412313340814 19.882
35.00975677584668 19.8885
35.033102738362956 19.7896
35.05663261012228 19.7897
35.0799815881786 19.7971
35.10333207003229 19.7692
35.12668405694369 19.7503
35.150220005273056 19.7477
35.17357501786656 19.7167
35.19693153931268 19.6358
35.220289570874385 19.5678
35.24383161619786 19.6298
35.267192683604904 19.6
35.290555264930376 19.5121
35.314101899412165 19.4563
35.33746752422433 19.4683
35.36083466676374 19.4378
35.38420332829803 19.4622
35.407756095629054 19.419
35.43112781085063 19.4046
35.45450104888391 19.4009
35.477875810999194 19.3592
35.50143473172161 19.2907
35.52481255774625 19.3018
35.54819191167777 19.2356
35.57157279478914 19.3039
35.595137889488406 19.2248
35.61852184675279 19.2397
35.641907337029984 19.2471
35.665294361595684 19.2865
35.68886565090076 19.2116
35.7122557598848 19.2323
35.73564740699838 19.2392
35.759040593519934 19.0724
35.78261809810353 19.0343
35.80601437933051 18.9665
35.829412203814705 18.9149
35.85281157283719 18.8538
35.876395313415884 18.9322
35.8997977874528 18.8857
35.92320180988546 18.8813
35.946790244133936 18.8173
35.97019737933222 18.7326
35.993606066789866 18.7213
36.01701630779276 18.6202
36.04061101440684 18.5848
36.06402437852291 18.6707
36.08743930005611 18.6729
36.1108557802951 18.5723
36.13445678011326 18.6058
36.15787639383515 18.5186
36.18129757014299 18.4839
36.20472031032821 18.4543
36.22832762423364 18.4028
36.25175350829375 18.4392
36.275180960119776 18.3716
36.298609981005924 18.4638
36.32222362992669 18.3827
36.34565580510207 18.314
36.36908955323448 18.2848
36.39252487562093 18.2825
36.416144880530226 18.2194
36.43958336764275 18.2675
36.463023432914625 18.254
36.486465077645676 18.1869
36.51009145956204 18.2101
36.53353627947859 18.2058
36.55698268276811 18.1492
36.58043067073321 18.0766
36.60406345072071 17.9494
36.62751462435344 17.9485
36.65096738658405 18.0147
36.67460498210655 17.9369
36.69806093788647 17.9687
36.72151848619297 17.8466
36.744977628333636 17.8797
36.76862165890998 17.797
36.79208400512205 17.8794
36.81554794910557 17.8327
36.83901349217101 17.7678
36.862663978991606 17.7051
36.88613273667352 17.7157
36.90960309738324 17.7462
36.933075062434064 17.7459
36.95673202673572 17.6998
36.98020721697122 17.6702
37.003684015502365 17.5107
37.027162423645365 17.4888
37.050825886711465 17.5397
37.07430753063053 17.3983
37.09779078812467 17.4515
37.121275660513014 17.4315
37.144945643673694 17.3718
37.16843376245278 17.3664
37.19192350009803 17.3732
37.215414857931435 17.3808
37.239091382563885 17.302
37.262585997426164 17.2848
37.28608223645736 17.209
37.309763684451696 17.2034
37.33326318851098 17.1991
37.356764320726555 17.159000000000002
37.380267082425526 17.144000000000002
37.40395510942588 17.180999999999997
37.42746114683234 17.1038
37.45096881771841 17.0236
37.474478123414166 16.9756
37.49817275092816 17.0619
37.52168534303452 16.9975
37.54519957395567 16.9269
37.568715445024665 16.9064
37.592416694607714 16.8907
37.61593586281424 16.9263
37.63945667518264 16.8981
37.66297913304891 16.7975
37.68668702630454 16.7904
37.710212792059274 16.7183
37.733740207334854 16.7356
37.757269273470364 16.724
37.780983832050374 16.6781
37.80451621684926 16.6992
37.82805025654007 16.6653
37.851585952464795 16.6422
37.8753071980695 16.5628
37.89884622345676 16.5277
37.92238690911902 16.4789
37.94611318753442 16.4693
37.969657210779765 16.4562
37.99320289834801 16.4637
38.016750251586465 16.3851
38.04048325513017 16.3727
38.06403395679343 16.3514
38.087586328183946 16.3004
38.11114037065203 16.2663
38.13488012115898 16.3104
38.1584375229181 16.2402
38.181996599821 16.172
38.205557353221124 16.1884
38.229303872575656 16.1565
38.2528679961576 16.1735
38.27643380031219 16.112000000000002
38.30000128639589 16.1283
38.32375459653193 16.088
38.34732546371299 16.0527
38.37089801690786 16.0076
38.39447225747609 15.9594
38.418232380377425 15.9749
38.441810012983396 15.9248
38.46538933705673 15.8974
38.488970353960084 15.8974
38.51273731166058 15.927999999999999
38.536321731567014 15.8339
38.55990784840681 15.857999999999999
38.58367995004091 15.7722
38.60726947812959 15.8021
38.63086070726198 15.7985
38.654453638806274 15.7693
38.678232613930824 15.6651
38.70182896773327 15.677999999999999
38.72542702806741 15.6099
38.7490267963045 15.6082
38.77281266709232 15.5721
38.79641586862214 15.5261
38.8200207821842 15.5294
38.843627409152944 15.5862
38.86742019782782 15.5552
38.891030269149255 15.4776
38.914642058016156 15.4579
38.938255565806124 15.4441
38.96205529464307 15.4438
38.98567225787121 15.3972
39.00929094417078 15.369000000000002
39.03291135492255 15.3311
39.05671804624804 15.3046
39.080341923549106 15.3049
39.103967529460334 15.2141
39.127594865365744 15.2366
39.15140854155791 15.183
39.17503935514948 15.1758
39.19867190290282 15.1157
39.22249083587951 15.1349
39.24612686969409 15.0869
39.269764641845306 15.1354
39.293404153722804 15.0687
39.317230110864074 15.003
39.34087311998506 14.9314
39.36451787301696 15.0051
39.388164371352595 14.9691
39.41199737518003 14.985999999999999
39.43564738196752 14.9068
39.45929913825317 14.8574
39.48295264543308 14.8724
39.506792718520884 14.8505
39.530449745387216 14.8173
39.55410852735203 14.786
39.57776906581474 14.7903
39.60161623079 14.7559
39.625280300200025 14.7403
39.64894613032202 14.6767
39.67261372255866 14.6336
39.6964680021016 14.6529
39.72013913657293 14.6782
39.74381203738292 14.6742
39.76748670593756 14.5864
39.79134812278169 14.6104
39.81502634488497 14.5402
39.83870633896685 14.5741
39.862388106436654 14.5042
39.88625668336918 14.4744
39.90994201572829 14.4637
39.933629125719285 14.4283
39.957503091207826 14.3971
39.9811937746168 14.398
40.00488623990914 14.415
40.02858048850006 14.3402
40.05246165409549 14.3499
40.076159487492085 14.2832
40.099859108448875 14.27
40.123560518384345 14.24
40.1474489070226 14.2669
40.171153913178564 14.2476
40.194860712584955 14.2022
40.2185693066637 14.1815
40.242464941335314 14.1185
40.26617714307655 14.0858
40.289891143772046 14.1168
40.3136069448471 14.13
40.33750984859743 14.1169
40.3612292688043 14.0723
40.3849504936829 13.9916
40.40867352466194 13.9894
40.43258372059144 13.9757
40.45631038219906 13.9852
40.48003885420956 13.8971
40.503769138055105 13.9244
40.52768664931955 13.9283
40.55142057531802 13.9286
40.57515631746428 13.8026
40.599079334038514 13.7747
40.62281872700477 13.7561
40.64655994043941 13.7461
40.67030297578061 13.793
40.69423334835778 13.7636
40.71798004609188 13.7072
40.74172857006355 13.7347
40.76547892171441 13.7167
40.7894166736039 13.642999999999999
40.813170699248566 13.5965
40.83692655691388 13.6487
40.86068424804498 13.6671
40.884629402612525 13.5915
40.908390779366385 13.5664
40.932153993938 13.5087
40.95591904777605 13.4839
40.979871628443995 13.4694
41.003640379561936 13.4868
41.02741097430883 13.4594
41.05118341413683 13.4454
41.075143444384416 13.3815
41.098919593177826 13.37
41.1226975914255 13.3907
41.14647744058318 13.3312
41.170444943946755 13.302
41.19422851378379 13.334000000000001
41.218013938914645 13.264000000000001
41.24198706625173 13.2286
41.26577622087193 13.2028
41.289567235177785 13.1677
41.31336011063129 13.1699
41.337340752422875 13.1368
41.361137369129835 13.1478
41.38493585138705 13.1394
41.40873620066004 13.079
41.43272438060107 13.0627
41.45652848292052 13.0036
41.48033445666918 12.9656
41.50414230331616 12.9755
41.528138045159764 12.9841
41.551949656675205 12.9191
41.575763145513235 12.8619
41.59957851314666 12.8848
41.62358184070442 12.8939
41.64740098505737 12.8792
41.6712220126409 12.8387
41.69504492493139 12.7923
41.71905586207357 12.7953
41.74288256296395 12.7914
41.766711153007456 12.7749
41.79054163368412 12.7264
41.814560204340054 12.7106
41.838394485526365 12.7109
41.86223066180303 12.6838
41.88625497706819 12.6775
41.910094962812 12.6448
41.93393684811168 12.6008
41.95778063445365 12.5768
41.981812625263366 12.5793
42.00566023303407 12.5414
42.029509746323676 12.5032
42.05336116662236 12.5522
42.077400857069705 12.5191
42.10125611078846 12.4377
42.12511327600405 12.4141
42.14897235421036 12.3972
42.173019768448455 12.3605
42.19688269209613 12.3489
42.22074753323349 12.3682
42.24461429335818 12.3123
42.268669455600495 12.3354
42.292540073217886 12.3112
42.31641261433284 12.2374
42.34028708044675 12.237
42.36435001496739 12.2267
42.38822835065557 12.2462
42.41210861586426 12.2015
42.4359908120986 12.1907
42.46006154323262 12.1926
42.48394762115317 12.1018
42.507835634632315 12.1448
42.531912233047436 12.1297
42.55580413732265 12.0945
42.579697981698 12.0576
42.60359376768525 12.0314
42.62767820545945 12.01
42.65157789440821 12.02
42.67547952952185 11.9866
42.699383112316 11.99
42.72347541395347 11.9637
42.74738291190531 11.883
42.771292362102166 11.8912
42.795203766063516 11.8694
42.819303956130405 11.8527
42.843219287476536 11.8505
42.86713657716324 11.7877
42.89105582671383 11.7725
42.91516392983864 11.8037
42.939087119032166 11.765
42.963012272677304 11.7161
42.98693939230129 11.6892
43.01105543317513 11.6668
43.034986504731386 11.699000000000002
43.05891954686589 11.6984
43.08285456110972 11.6391
43.10697856448665 11.6016
43.130917542983475 11.5656
43.15485849820081 11.5782
43.17880143167367 11.5639
43.20293342237094 11.495
43.226880332449 11.4563
43.25082922540554 11.4926
43.27496722682525 11.5027
43.29892010567796 11.4286
43.32287497204102 11.447000000000001
43.34683182745632 11.449000000000002
43.370977859791836 11.4158
43.39493871351105 11.3894
43.41890156092628 11.3209
43.44286640358341 11.3491
43.46702049182749 11.3573
43.49098934522816 11.2605
43.51496019852649 11.2614
43.5389330532723 11.3078
43.56309522248204 11.2238
43.58707210044314 11.2262
43.61105098451946 11.192
43.63503187626491 11.152999999999999
43.659202151562134 11.140999999999998
43.68318707902681 11.1748
43.70717401884041 11.1613
43.731162972560874 11.1009
43.75534137913236 11.0682
43.779334381108384 11.0536
43.803329401683186 11.0472
43.82732644241872 11.056
43.8515130055166 11.0487
43.87551410707659 10.9881
43.89951723350145 10.9912
43.923709934595614 10.9768
43.94771713129917 10.9356
43.97172635758096 10.9455
43.99573761501002 10.9209
44.0199385169922 10.9046
44.04395385732619 10.8668
44.067971233533086 10.8525
44.09199064718605 10.8379
44.11619977548961 10.762
44.14022328470671 10.7789
44.16424883610785 10.7806
44.18827643127035 10.7719
44.21249381139513 10.7436
44.236525514814076 10.7055
44.26055926674478 10.6955
44.28459506876863 10.69
44.3088207262813 10.6247
44.33286064928722 10.6482
44.35690262714919 10.6237
44.38094666145278 10.6075
44.4051806219871 10.6035
44.42922879003185 10.5549
44.45327901929361 10.5447
44.477331311362136 10.552999999999999
44.501573600619416 10.5384
44.525630039221795 10.5061
44.54968854541895 10.5058
44.573937102200176 10.4527
44.5979997645541 10.440999999999999
44.622064499300315 10.4082
44.64613130803592 10.3731
44.67038823869318 10.3815
44.69445921643748 10.3453
44.718532272981385 10.382
44.742607409926194 10.3739
44.76687274034801 10.3237
44.79095205918753 10.2759
44.81503346325094 10.2881
44.839116954143876 10.3001
44.86339071028742 10.2452
44.88747839599524 10.2002
44.91156817336837 10.2015
44.93566004401666 10.2223
44.959942251908146 10.1629
44.984038330325966 10.1713
45.00813650686762 10.15
45.03223678314731 10.1162
45.05652746888232 10.0992
45.08063196592069 10.0721
45.104738567558705 10.0486
45.128847275414856 10.0315
45.15314646515866 9.97251
45.17725940679741 10.0239
45.20137445952892 9.97569
45.22568004865265 9.95341
45.24979934496396 9.96307
45.27392075725247 9.962819999999999
45.29804428714431 9.95127
45.322358426247604 9.90468
45.346486212804315 9.87687
45.370616121861914 9.88792
45.39474815505086 9.85435
45.41907087049246 9.846119999999999
45.4432071734666 9.799760000000001
45.46734560548283 9.82071
45.49148616817604 9.76072
45.51581748638564 9.73775
45.5399623320197 9.729239999999999
45.56410931325473 9.740739999999999
45.58825843173002 9.7388
45.61259837920865 9.68515
45.636751793816 9.67873
45.66090735060093 9.66393
45.68506505120716 9.651810000000001
45.7094136545275 9.57779
45.73357566449271 9.60482
45.75773982322992 9.5815
45.78190613238733 9.56456
45.806263418194064 9.560139999999999
45.83043404997326 9.5686
45.85460683713677 9.5327
45.87897065658495 9.518880000000001
45.90314777634752 9.48137
45.92732705646868 9.47551
45.9515084986045 9.42694
45.97588104735473 9.44747
46.00006683541565 9.42937
46.02425479047904 9.423639999999999
46.04844491420549 9.4009
46.0728262191024 9.40512
46.09702070211635 9.38756
46.12121735879483 9.32552
46.14541619080294 9.335989999999999
46.169806278764455 9.35825
46.194009483459034 9.33525
46.21821486849841 9.26349
46.24242243555223 9.24644
46.266821333570014 9.2505
46.29103328674601 9.18414
46.31524742696538 9.20471
46.33946375590237 9.22418
46.36387149104216 9.16838
46.38809221957392 9.1323
46.41231514186606 9.17955
46.436540259597464 9.133510000000001
46.460956858999374 9.1495
46.48518638983522 9.101189999999999
46.509418121166966 9.09325
46.533652054678114 9.06856
46.55807754555709 9.030380000000001
46.58231590571962 9.06845
46.60655647313217 8.98307
46.630988654873654 8.98649
46.655233659129024 8.96631
46.67948087571551 8.984689999999999
46.70373030632484 8.96074
46.72817142736393 8.93677
46.752425308428684 8.90127
46.77668140861147 8.88689
46.80093972960865 8.87247
46.82538981736788 8.84142
46.849652602470904 8.833860000000001
46.87391761349769 8.80381
46.8981848521493 8.81595
46.9226439341274 8.80846
46.946915650573224 8.75037
46.97118959976749 8.74859
46.99546578341598 8.697989999999999
47.019933887188216 8.71957
47.04421456235744 8.7158
47.06849747711879 8.69415
47.09278263318286 8.70773
47.11725978640143 8.65424
47.14154944775105 8.64927
47.165841355555656 8.618910000000001
47.1901355115306 8.62594
47.214621741924994 8.6175
47.23892041698887 8.5867
47.26322134538975 8.55402
47.28771440635075 8.55782
47.31201986422527 8.52398
47.33632758061436 8.55284
47.360637557241866 8.504480000000001
47.38513974410611 8.4496
47.40945426407847 8.45953
47.43377104948137 8.45614
47.45809010204344 8.4665
47.48260144275502 8.41969
47.506925052572285 8.3982
47.53125093475548 8.3863
47.55557909103813 8.39221
47.58009961361992 8.37115
47.60443234110732 8.35926
47.62876734791564 8.34477
47.65310463578333 8.34688
47.6776343683373 8.32788
47.7019762413987 8.260869999999999
47.72632040075572 8.25324
47.75066684815169 8.24858
47.77520581885936 8.24656
47.799556865477655 8.23662
47.823910205386 8.24804
47.84826584033272 8.226989999999999
47.87281407745551 8.19438
47.89717432569297 8.1862
47.92153687423484 8.1849
47.94609208429692 8.13655
47.97045925671401 8.11315
47.99482873471275 8.07962
48.01920052005013 8.10667
48.04376504619224 8.043280000000001
48.068141469543484 8.08416
48.09252020552573 8.08733
48.11690125590099 8.070310000000001
48.1414751266064 8.04611
48.16586082917454 8.05396
48.19024885144316 7.99445
48.2146391951793 8.014380000000001
48.239222439012764 7.97549
48.26361744916137 7.9703100000000004
48.28801478610016 7.968
48.31241445160131 7.99176
48.337007097209366 7.94358
48.36141144338331 7.887519999999999
48.38581812345755 7.916180000000001
48.41022713920929 7.94136
48.434829215320704 7.88722
48.45924292604658 7.85703
48.48365897780325 7.8205
48.50807737237308 7.802560000000001
48.532688907799276 7.817139999999999
48.55711201168574 7.7864
48.581537463754074 7.769610000000001
48.60615611725119 7.79598
48.63058628942721 7.77225
48.65501881516546 7.73675
48.6794536962573 7.753089999999999
48.70408185970339 7.71449
48.72852147531801 7.69157
48.75296345168211 7.673310000000001
48.77740779059232 7.67925
48.80204549302823 7.73159
48.82649458091802 7.6845300000000005
48.85094603676547 7.62412
48.87539986237231 7.60873
48.90004713292306 7.57625
48.92450572200832 7.57338
48.94896668628025 7.57488
48.97343002754588 7.572189999999999
48.99808689542115 7.56342
49.02255501470614 7.53517
49.04702551642794 7.5172
49.0714984023988 7.50678
49.096164896893235 7.47593
49.120642575466796 7.4597
49.145122643748394 7.4781699999999995
49.16960510355558 7.408980000000001
49.19428125404938 7.4189
49.2187685210852 7.43573
49.243258185121555 7.3871199999999995
49.26794160167084 7.39538
49.2924360839405 7.342969999999999
49.31693296869764 7.3635
49.34143225776915 7.3308100000000005
49.36612538195438 7.3146
49.39062950396021 7.36353
49.41513603578346 7.306189999999999
49.4396449792564 7.30088
49.46434784069503 7.27727
49.488861631846454 7.26768
49.513377840166804 7.250430000000001
49.537896467493745 7.233169999999999
49.56260909589029 7.19574
49.587132585683285 7.1948
49.611658500018365 7.193510000000001
49.636186840738596 7.174410000000001
49.66090926588511 7.18963
49.685442483902584 7.176769999999999
49.70997813385706 7.13696
49.734516217597076 7.0831
49.75924846937352 7.11729
49.7837914452858 7.119739999999999
49.80833686055187 7.087910000000001
49.83288471702571 7.049010000000001
49.85762682540054 7.08217
49.882179588965734 7.04175
49.9067347993235 7.033239999999999
49.93129245833333 7.01405
49.95604445336378 7.020980000000001
49.98060703442832 6.98199
50.005172069746266 6.973339999999999
50.02993150438364 6.92647
50.05450147301533 6.93127
50.07907390151433 6.9508399999999995
50.10364879174981 6.93382
50.12841816587289 6.8937800000000005
50.1529980044635 6.889010000000001
50.17758031042124 6.9036800000000005
50.20216508562089 6.873410000000001
50.22694442953363 6.84285
50.25153416817468 6.848910000000001
50.27612638170508 6.831189999999999
50.300721072005196 6.79093
50.325510416102105 6.7865
50.350110084975064 6.796539999999999
50.37471223628208 6.7978
50.39931687190919 6.78649
50.424116246675766 6.798489999999999
50.44872587605249 6.75024
50.47333799543065 6.73085
50.49795260670191 6.72628
50.52276204271512 6.71868
50.54738166295838 6.69597
50.57200378079314 6.6848
50.596628398116835 6.66122
50.62144792604559 6.66447
50.646077567609396 6.65833
50.670709714377715 6.65676
50.69553683636198 6.62845
50.72017401885922 6.59215
50.7448137122895 6.58915
50.76945591856022 6.6037300000000005
50.79429318636823 6.58781
50.818940443716784 6.59695
50.84359021965163 6.55692
50.868242516085964 6.54978
50.893089960641895 6.54507
50.917747323549435 6.5161
50.94240721271973 6.51265
50.96706963007175 6.47849
50.99192728239342 6.49544
51.01659478166073 6.4770199999999996
51.04126481489051 6.44881
51.06593738400761 6.4596
51.090805275207074 6.41594
51.11548294172845 6.43401
51.14016314993547 6.3998800000000005
51.164845901758845 6.38619
51.18972406304274 6.37213
51.21441192780656 6.36386
51.23910234200271 6.380319999999999
51.2637953075678 6.3488
51.288683770237945 6.31987
51.31338186432707 6.29735
51.33808251561888 6.31926
51.362978729967345 6.3112900000000005
51.387684521509755 6.29652
51.41239287610203 6.2676099999999995
51.437103795691165 6.22956
51.46201036644977 6.2297199999999995
51.486726441956634 6.22815
51.51144508832545 6.218369999999999
51.536166307509156 6.21258
51.56108326624387 6.15439
51.58580965706056 6.15469
51.61053862657523 6.192
51.635270176746864 6.18456
51.66019755512065 6.13859
51.68493429268881 6.12477
51.70967361681515 6.10414
51.73441552946465 6.09469
51.759353359237934 6.081930000000001
51.7841004750961 6.07862
51.80885018539685 6.07595
51.833602492111254 6.06094
51.8585508051424 6.0591
51.883308330926425 6.02585
51.90806845906181 6.01322
51.932831191525715 6.011019999999999
51.95779001977161 5.94187
51.98255798721516 5.951890000000001
52.00732856494335 5.93297
52.03229530577543 5.9393
52.057071130455945 5.9474599999999995
52.081849571391054 5.8768
52.106630630568695 5.8828
52.13160794279417 5.86511
52.15639426492067 5.85177
52.18118321127822 5.86955
52.205974783860896 5.8227400000000005
52.23096269971011 5.8464599999999995
52.255759551287994 5.83829
52.280559035098186 5.81565
52.30536115314103 5.7994
52.33035970494467 5.77321
52.35516711807904 5.77861
52.37997717147198 5.77067
52.40478986713005 5.766030000000001
52.42979908731974 5.73894
52.454617094216 5.76276
52.47943774942214 5.7400400000000005
52.50426105495102 5.676830000000001
52.529280976059844 5.674259999999999
52.554109609024096 5.69704
52.57894089837482 5.68735
52.60377484613117 5.65675
52.62880550079408 5.6624300000000005
52.65364479223379 5.64945
52.67848674816189 5.63432
52.70352547971946 5.60886
52.72837279155837 5.57036
52.753222773982785 5.58283
52.778075429022984 5.58146
52.80312495150885 5.5748
52.827982978797436 5.59847
52.85284368481815 5.52642
52.87770707160767 5.4962
52.90276741793998 5.53028
52.92763619336701 5.5060199999999995
52.952507655698504 5.52531
52.977381806977576 5.49432
53.00245301017842 5.47656
53.02733256653592 5.4795300000000005
53.052214817996074 5.47587
53.077099766608484 5.43401
53.102181859804446 5.44135
53.127072229988265 5.43617
53.15196530349892 5.39775
53.17686108239249 5.38601
53.20195409881522 5.35013
53.22685531582556 5.39318
53.25175924441303 5.33678
53.27666588664027 5.36166
53.30176985962693 5.35769
53.3266819565689 5.33769
53.35159677336455 5.312819999999999
53.376514312083096 5.31154
53.40162927507703 5.32198
53.42655228516116 5.28522
53.45147802340193 5.26906
53.47660125628886 5.26655
53.50153247842639 5.23471
53.52646643496923 5.2293400000000005
53.55140312799818 5.2392900000000004
53.576537409691696 5.22847
53.60147960336152 5.18187
53.626424539786164 5.19029
53.65137222105307 5.147390000000001
53.67651758529126 5.16031
53.70147078399681 5.11603
53.72642673383343 5.13005
53.75138543689533 5.1218900000000005
53.776541917524526 5.12675
53.801506154876755 5.13108
53.826473151763246 5.09921
53.851442910284916 5.07791
53.87661054126026 5.12031
53.9015858509782 5.08512
53.92656392866066 5.06189
53.95154477641532 5.04692
53.976723591801296 5.00514
54.00171000771266 5.074269999999999
54.02669920004598 4.99665
54.051691170915745 4.97046
54.076881204886796 4.95716
54.101878760928514 4.95087
54.12687910187696 4.92034
54.152077577768296 4.948
54.1770835166946 4.87174
54.20209224691339 4.8638
54.22710377055121 4.8522300000000005
54.25231352511594 4.87352
54.27733066384342 4.86354
54.30235060239643 4.8525
54.32737334290836 4.8076
54.35259441062629 4.73607
54.377622783395324 4.76233
54.40265396455061 4.777019999999999
54.42768795623251 4.7325
54.45292037169559 4.70047
54.477960012857906 4.695819999999999
54.50300247099511 4.67895
54.52804774825457 4.65848
54.55329154616743 4.6325
54.57834249018678 4.62071
54.6033962597977 4.60072
54.6284528571545 4.56306
54.653708072335164 4.56516
54.67877035378786 4.51865
54.70383546947698 4.49575
54.72890342156389 4.47425
54.7541700889442 4.44954
54.77924374251975 4.4494
54.8043202390049 4.41964
54.82959552413022 4.43468
54.8546777351945 4.4217900000000006
54.87976279569621 4.35824
54.90485070780914 4.3848
54.930137506558005 4.31233
54.95523115074295 4.3575099999999996
54.98032765308844 4.3253699999999995
55.005427015775496 4.2823
55.03072536339621 4.28751
55.05583047570572 4.23435
55.080938454927676 4.232880000000001
55.10604930325027 4.2548900000000005
55.131359235107396 4.27522
55.15647585066083 4.2058800000000005
55.181595341907496 4.167680000000001
55.20671771104285 4.13708
55.232039262617704 4.08663
55.25716741665048 4.0591800000000005
55.28229845518636 4.094130000000001
55.30743238042802 4.041
55.33276558731939 4.04171
55.357905315183636 4.02805
55.383047936390035 4.03564
55.40819345314859 3.95706
55.433538351073295 4.01123
55.458689688238415 3.98156
55.483843927614096 3.9197
55.509197623043605 3.89986
55.53435769621134 3.8877800000000002
55.55952067826466 3.8214599999999996
55.5846865714265 3.87036
55.61005202069737 3.85497
55.63522376553902 3.85311
55.66039842818645 3.82556
55.68557601087004 3.78168
55.7109532500271 3.68488
55.73613670233794 3.7891199999999996
