TT I
1.2716486653135266 8.04941
1.2939594142134223 7.601610000000001
1.3162702121660406 6.95565
1.3385810600174564 7.03215
1.3608919586137629 6.83673
1.383202908801069 6.834339999999999
1.405513911425503 6.94435
1.4278249673332093 6.6393
1.4501343378461518 6.69493
1.4724455028545926 6.5118
1.4947567236847858 6.5037199999999995
1.517068001182951 6.4271400000000005
1.5393793361953272 6.25908
1.5616907295681737 6.0146
1.5840021821477681 5.4374199999999995
1.60631369478041 5.635330000000001
1.6286252683124185 5.18848
1.6509369035901333 6.12814
1.6732468618895553 5.386830000000001
1.695558623192809 4.80579
1.7178704487808514 5.2584599999999995
1.7401823395001077 5.38289
1.7625012545597203 4.9564
1.7848028405262486 4.3913199999999994
1.8071218901122095 5.209280000000001
1.8294236121921872 4.8338
1.8517427996910911 5.0204
1.8740620574440425 4.62561
1.8963639900671978 4.83357
1.9186833908139995 4.79809
1.9409854680117449 5.305680000000001
1.9633050151394713 5.17438
1.9856246367570705 4.96397
2.0079269371922672 5.11544
2.03024671027244 4.99322
2.0525491637446027 4.98185
2.074869091674931 4.4930699999999995
2.097171701569106 4.44917
2.1194917877373847 4.700080000000001
2.141811954326636 4.93891
2.164114805233074 4.95038
2.186435135143035 5.53172
2.208738150935709 10.2294
2.231058647554722 19.1762
2.2533792288321184 14.8874
2.275682498336085 8.13079
2.298003251406138 5.3199
2.3203066942619714 5.0195
2.3426276225136022 5.12505
2.3649486396617507 4.6771400000000005
2.387252348930071 4.87387
2.4095735463442893 5.568219999999999
2.4318774374315884 5.48259
2.4541988185014043 5.62576
2.476502894794693 5.93331
2.498824462909887 5.93038
2.521146125856138 5.8765
2.5434504863470337 5.84161
2.5657723414244717 6.78499
2.588076895590662 6.06687
2.610398946189713 7.333089999999999
2.6327210958598384 6.721769999999999
2.6550259469304716 6.71553
2.6773482972090137 6.6085899999999995
2.6996533504259 7.7782100000000005
2.7219759047039602 7.39663
2.744298562293959 7.577089999999999
2.7666039251246595 7.53057
2.7889267918020164 7.729369999999999
2.8112323652516555 7.6955100000000005
2.833555444408179 8.037519999999999
2.8558786311183852 8.33572
2.8781845268938557 9.18778
2.9005079311721484 9.13637
2.9228140460410397 8.765789999999999
2.9451376712799635 9.45743
2.967444008632326 9.56901
2.9897678582247247 9.71998
3.0120918213106695 10.0685
3.0343984987899373 11.2278
3.0567226913198637 11.0131
3.079029599759726 11.9054
3.101354025127254 12.4147
3.123678568232338 12.5239
3.145985829517914 12.8608
3.16831061055229 13.7346
3.1906181112775593 14.0073
3.212943133635653 14.5673
3.2352682779763207 14.7893
3.2575761442691227 15.5701
3.2799015350264273 15.8422
3.302209649240067 16.4484
3.3245352898092655 16.6965
3.3468436553365257 17.5616
3.369169549113219 17.7391
3.3914955708171384 19.0444
3.413804319727358 19.2869
3.4361305997334863 19.655
3.4584396084414553 19.8287
3.4807661501462652 20.4249
3.503092824025881 21.2944
3.5254022288463154 21.3938
3.5477291695206588 21.6023
3.5700388426251948 22.4925
3.5923660534916446 23.5328
3.6146934007816114 33.2816
3.637003482731501 65.304
3.6593311053109985 70.123
3.681641464033634 44.8411
3.7039693653009733 29.0289
3.726297407241705 26.0815
3.7486081875460804 26.1791
3.7709365132734978 26.1853
3.793247578841633 26.8552
3.8155761917550093 27.2152
3.8378875459837216 27.5077
3.8602164494827234 27.7673
3.882545499606844 28.7466
3.9048572932539183 29.7878
3.9271866390645718 29.7105
3.9494987298666713 30.2902
3.971828374764527 30.6814
3.9941581705403255 31.1521
4.016470713506008 32.2536
4.038800813471445 32.8574
4.061113662089144 33.5455
4.0834440696459176 34.046
4.105774632334751 34.6514
4.128087945865126 35.5863
4.150418821249301 36.0899
4.172732448931298 37.0932
4.195063640413578 38.3166
4.2173775856475215 41.5525
4.239709096631102 62.6565
4.262040768704612 164.088
4.284355196706267 212.11700000000002
4.306687193387355 142.987
4.329001947444346 67.0863
4.35133427213731 46.9719
4.373666762177566 45.2285
4.395982011761091 45.1593
4.418314834921175 46.5744
4.44063041906622 51.1802
4.4629635787515625 58.6991
4.4852969080429785 59.0826
4.5076130004776225 53.8541
4.529946671403969 52.0467
4.552263106909177 52.7191
4.574597122877047 53.1831
4.596931312711224 54.2124
4.619248269273446 54.9406
4.6415828092605835 55.988
4.663900117405352 57.2998
4.686235010953232 58.6078
4.708552674085913 60.1777
4.730887924602802 61.5521
4.753223354952695 62.9888
4.775541557023902 64.9636
4.797877349456786 66.4322
4.820195915032126 68.1457
4.842532072957498 69.6536
4.864868414979744 72.0982
4.88718753227192 74.33
4.909524244902505 76.4337
4.931843734218147 78.2296
4.954180820867835 80.8467
4.976518095879839 84.8271
4.998838149695359 88.00200000000001
5.021175803844231 91.9261
5.043496238205739 96.4632
5.065834274903528 101.678
5.088172504230693 107.39399999999999
5.1104935158799565 114.98
5.132832132875765 137.90200000000002
5.155153533596801 177.149
5.1774925416746225 242.299
5.199814334878411 589.7090000000001
5.2221537374521505 1597.25
5.244493338631803 3658.14
5.266815727034316 7445.69
5.289155727832427 11424.8
5.311478517248165 8865.04
5.333818921080011 3481.91
5.356159527788849 765.488
5.3784829252032536 227.325
5.400823940070432 162.439
5.423147747031976 139.686
5.445489173474152 127.465
5.467830807066149 121.398
5.490155234831516 116.21600000000001
5.512497285125229 111.405
5.534822130975162 109.26700000000001
5.557164601388673 106.706
5.579489868738879 103.639
5.601832762690846 102.24700000000001
5.6241758697774475 101.604
5.646501775867269 100.521
5.668845311622074 99.1391
5.691171647754637 98.5197
5.713515615597765 97.0153
5.735859800852677 96.7326
5.758186788542988 96.744
5.780531411018185 97.4202
5.802858837297399 96.7607
5.825203900414495 96.9861
5.8475491852224 98.0172
5.869877275883075 98.5426
5.892223006467101 99.8009
5.914551544266608 101.639
5.936897724049891 106.76299999999999
5.959244129804903 116.353
5.981573344815301 153.998
6.0039202049061 314.35400000000004
6.026249875609095 665.0139999999999
6.04859719346037 1277.38
6.070927323278297 2338.72
6.093275102315365 4044.11
6.115623113320588 4853.8
6.137953938319995 3410.12
6.160302415650845 1158.16
6.182633708324452 283.08099999999996
6.2049826554078376 127.896
6.227331838745022 100.08200000000001
6.249663839443684 90.743
6.27201349767565 85.949
6.294345974611799 88.1106
6.316696111167083 93.8704
6.339046488263839 89.2914
6.361379686074702 79.2624
6.383730546639482 73.792
6.406064229255215 71.2603
6.428415576718203 71.0407
6.450749747566656 69.5519
6.47310158535871 68.2067
6.495453669698332 67.0383
6.517788579421056 66.2289
6.540141159237969 65.52600000000001
6.562476565766648 64.5914
6.5848296444934045 64.6312
6.607182974060425 64.1324
6.6295191323281015 63.8472
6.651872965955752 65.472
6.6742096296068985 81.5608
6.6965639707294615 110.023
6.71891856698715 110.169
6.741255995248479 82.512
6.763611104154477 65.8199
6.785949046381137 60.8446
6.808304671371482 59.527
6.8306605557940046 59.6121
6.852999275508618 59.0398
6.875355681171544 58.5494
6.897694923437771 57.8757
6.92005185377892 58.1851
6.9423916220322655 57.9639
6.964749080490181 57.0619
6.987106804399774 56.7818
7.009447368180821 57.3437
7.031805625367033 56.7768
7.054146723727803 56.9209
7.076505517631004 56.424
7.098864581288365 56.6323
7.121206488070854 56.1095
7.143566093607822 56.2627
7.165908543567245 56.6077
7.188268694426048 56.9375
7.2106291193438095 56.7754
7.232972390625943 57.2711
7.255333366030969 65.0384
7.277677189091925 98.5923
7.300038718428332 128.64
7.322400526130865 112.869
7.344745183422596 77.2666
7.367107550224791 60.0576
7.389452767901992 56.6644
7.411815697249891 56.121
7.434161478756298 55.5309
7.456524974096713 55.5917
7.478888753837185 55.6232
7.501235387657368 55.5521
7.523599738562711 55.5863
7.545946944825532 56.3024
7.568311870344528 56.6661
7.5906770845765665 56.3855
7.613025156078678 57.5204
7.635390950099687 58.4246
7.657739602662809 57.8689
7.680105979923558 57.1808
7.702472650212829 57.3855
7.724822180948224 57.2879
7.747189439655568 57.3174
7.769539560075357 57.5579
7.791907410653562 58.1719
7.81425812420825 58.0592
7.836626570110925 58.2325
7.858995315087906 59.1175
7.881346924933401 59.4494
7.903716270417482 60.2694
7.926068482028405 60.1608
7.948438431475253 60.9315
7.9708086843180235 61.3414
7.993161805171116 62.2916
8.015532667162402 62.7428
8.037886398416653 63.5613
8.060257873014221 64.1876
8.082629655331942 64.6583
8.104984308787587 65.4697
8.127356708900503 68.2285
8.149711981398308 72.2763
8.172085002766314 74.1202
8.194458336181368 72.3698
8.216814543847752 71.274
8.23918850371002 72.0877
8.26154533906492 72.5432
8.283919928836452 74.0442
8.306277395339652 75.1387
8.328652618483376 76.7707
8.351028159736202 78.9071
8.373386579575245 81.7039
8.395762759396959 83.6857
8.418121819038275 88.3524
8.440498640894003 99.0056
8.462875785192262 114.02
8.485235811156207 143.898
8.507613602688501 221.575
8.529974277114228 341.745
8.552352719347912 496.579
8.574731488360351 753.3580000000001
8.59709314210385 1174.06
8.619472567021075 1686.53
8.64183487789147 2103.16
8.664214962183097 1827.93
8.686577933647762 1056.84
8.708958680784317 431.664
8.731339760774953 184.685
8.753703729764451 119.374
8.77608547780821 104.34899999999999
8.798450116065078 99.4795
8.820832535634787 96.3198
8.843215292401656 94.6023
8.865580941199045 92.7852
8.887964374703538 91.5203
8.910330701447199 91.8984
8.932714815164482 93.1908
8.955099270424924 91.7806
8.977466620733543 89.4417
8.999851761421976 87.5944
9.022219798361645 86.0648
9.04460562795561 86.0509
9.066991803441677 85.8803
9.089360876979615 85.9689
9.111747746589993 85.5405
9.13411751544971 84.568
9.156505082664324 84.3207
9.178875550323522 84.1174
9.20126381862328 84.7907
9.223652438908596 84.84899999999999
9.246023961427412 84.9248
9.26841328802173 84.6038
9.290785518039224 84.5984
9.313175554425882 86.0102
9.335565947154315 85.8694
9.357939245086508 85.9558
9.380330352834827 85.7836
9.40270436697103 85.9504
9.425096193225055 86.1695
9.447488380180165 86.7342
9.469863475295412 86.81200000000001
9.492256385987508 87.3667
9.514632206018318 88.0701
9.537025843935714 88.3835
9.559402392368193 89.0979
9.581796761000229 90.4494
9.604191496441521 91.2165
9.626569144158516 93.7065
9.648964615551032 97.2734
9.671343000390081 98.2566
9.693739211225699 97.2386
9.716135793237463 95.6784
9.738515290448102 95.9381
9.760912617143402 97.1921
9.783292860202891 99.0103
9.805690935076182 100.426
9.828089385495742 101.45200000000001
9.850470754023561 103.809
9.872869957865444 109.87100000000001
9.89525208097539 120.85
9.917652041736662 130.88
9.940052382417589 138.54
9.962435644102392 169.44799999999998
9.984836746950979 231.12599999999998
10.007220771957746 316.215
10.029622640473708 437.74
10.052007432299963 614.705
10.074410069984072 868.052
10.096813093716005 1216.41
10.119199042482517 1602.56
10.141602840636468 1848.93
10.163989564971628 1653.88
10.186394141051062 1022.59
10.208799107559706 478.731
10.231187001965623 213.706
10.253592751657669 136.447
10.275981430388155 119.26899999999999
10.298387966769793 115.931
10.320794897965431 116.28399999999999
10.343184759907361 114.944
10.36559248305461 111.303
10.387983138083852 110.241
10.410391656691655 118.301
10.432800574501677 135.714
10.455192425893369 156.895
10.47760214443012 187.093
10.499994797678786 231.025
10.522405320453982 296.459
10.54479877906917 383.139
10.567210109595656 486.949
10.5896218454736 539.703
10.612016518879773 526.795
10.634429067781074 374.51099999999997
10.656824555333241 216.671
10.679237920773568 131.62
10.701651695961992 100.98899999999999
10.724048411481384 92.8716
10.746463008485165 89.4852
10.768860546937125 87.39200000000001
10.791275969274796 85.5389
10.81369180576079 84.4987
10.836090585366925 83.4173
10.858507252467449 82.0497
10.88090686379991 81.3548
10.903324365036394 80.7171
10.925724811614439 80.2011
10.948143150509463 81.0208
10.970561909719066 80.1153
10.992963615930844 78.3927
11.015383218085756 76.5173
11.037785768347074 75.3582
11.06020621697282 74.6903
11.082627090322113 74.0916
11.105030913430326 73.5701
11.12745263854165 73.4845
11.149857314510728 75.4393
11.172279894912576 79.3265
11.194702904450653 79.587
11.217108866490921 76.8209
11.239532736615194 73.773
11.26193956033512 72.4591
11.284364294577085 71.2188
11.306789462371718 69.7633
11.329197585398376 69.0025
11.351623622610898 68.8957
11.37403261614354 68.0419
11.396459526308487 67.9706
11.418869393879497 67.2761
11.441297180532617 67.0864
11.463725406927658 66.5359
11.486136592353875 66.4183
11.508565700543707 66.8387
11.530977768845315 67.9043
11.553407762368774 68.0318
11.575838200059769 67.8492
11.598251599479612 66.5023
11.620682927815501 65.4659
11.64309721895548 65.2211
11.665529441478206 64.9023
11.687962112597958 64.4996
11.710377748130886 64.7115
11.732811318753434 64.4172
11.755227854859067 64.6352
11.777662328529495 64.6198
11.800079768750786 64.4574
11.822515149015453 64.257
11.844950984084935 64.4018
11.867369787303163 64.1707
11.889806534289491 64.2775
11.912226250487029 64.6535
11.934663912939751 64.7927
11.9571020346363 64.7938
11.979523127133968 65.1599
12.001962169624331 66.3205
12.024384183972964 68.7496
12.046824150809913 73.6089
12.069264581333726 79.6313
12.091687985297767 86.7805
12.11412934550045 96.1064
12.136553680195208 109.57700000000001
12.158995973632788 127.84700000000001
12.181438735204349 149.97799999999998
12.20386447284199 175.868
12.226308172985636 197.74
12.24873485024193 200.623
12.271179492516982 173.68
12.293607112949127 131.852
12.316052700916226 97.3695
12.338498763250042 78.7893
12.360927805303868 70.8451
12.383374818673879 67.8132
12.405804812803074 66.1936
12.428252780773262 66.0659
12.45070122756722 65.9994
12.473132656675375 65.9618
12.49558206341869 66.038
12.518014453510101 66.0074
12.540464823770117 66.0878
12.562915677315177 66.2391
12.58534951575545 66.9725
12.607801338171472 68.4297
12.630236146511358 71.613
12.652688941369085 75.0053
12.675124723177234 75.3197
12.697578494048786 73.3681
12.720032754458185 70.6264
12.742470003354093 69.679
12.764925245138771 69.895
12.787363476431278 70.0586
12.809819703166806 70.7077
12.83227642391173 71.0787
12.854716135692716 71.8896
12.877173846755147 72.9186
12.899614549869717 73.0616
12.9220732548287 74.1235
12.94453245827299 74.653
12.966974655289818 75.7946
12.989434858002571 76.8329
13.011878055298721 77.4834
13.034339260862497 78.6356
13.056800969391883 80.0522
13.079245674017244 82.9091
13.101708390774869 87.3574
13.12415410463411 98.8245
13.146617833206086 113.184
13.169064559883248 127.191
13.191529303857127 144.105
13.213994557076367 167.752
13.236442809902437 200.986
13.258909083908291 246.65
13.28135835851934 294.077
13.30382565690295 351.36699999999996
13.326293469022952 402.366
13.348744283242008 421.749
13.371213125129904 370.066
13.39366497011003 280.286
13.416134845360597 188.554
13.438605238843131 132.966
13.46105863690397 116.00299999999999
13.483530069144786 117.579
13.505984506951902 124.586
13.528456981549432 136.045
13.550929978879088 151.575
13.573385983253365 174.13
13.595860028340867 205.19
13.618317081455832 244.13299999999998
13.64079217790333 287.522
13.663250283359057 331.85699999999997
13.685726434770173 361.325
13.708203115221277 344.00199999999995
13.730662806148091 276.872
13.75314054697177 202.27900000000002
13.775601299246777 137.208
13.798080104050406 102.557
13.820559442405358 88.7011
13.843021793671388 84.4307
13.865502201420897 82.7973
13.887965623051947 82.1223
13.910447103807167 80.9945
13.932929122629764 79.4368
13.955394156785959 79.2018
13.977877254034569 78.0604
14.000343367582113 77.1498
14.022827546871707 76.6048
14.045294743423524 75.8559
14.06778000837062 75.2947
14.090265817715476 75.1533
14.112734645763819 74.9236
14.13522154619454 74.1812
14.157691466286913 74.2191
14.180179461423874 73.813
14.202668005486178 73.3243
14.22513957064374 73.0954
14.247629214846473 72.5502
14.270101881097517 72.1797
14.29259262906496 72.4879
14.315083930490205 72.9287
14.337558255389705 72.9024
14.360050666019726 72.4483
14.382526101071944 71.8363
14.405019624534942 71.1848
14.427513705993134 70.7485
14.449990813291825 70.9981
14.47248601302899 70.8017
14.49496423954951 71.0019
14.517460561197822 71.1358
14.539939910570322 70.5724
14.562437357763558 71.0932
14.58493536931253 71.9203
14.607416409993311 72.8214
14.62991555254159 73.1493
14.652397725157423 73.1232
14.674898002342799 72.8853
14.697398848433282 72.8539
14.719882725991326 74.0889
14.74238471217934 76.5257
14.764869730765593 81.6437
14.787372860692983 86.13600000000001
14.809876564079925 91.3861
14.83236330125751 98.1236
14.854868153850365 107.001
14.877356041159485 119.693
14.899862046604186 134.933
14.922351087688757 154.537
14.944858249632887 176.46099999999998
14.967365991421232 199.53599999999997
14.989856770231246 215.235
15.012365673994204 218.12
15.03485761569738 194.33900000000003
15.05736768508665 155.24200000000002
15.07987833888692 121.785
15.102372032001655 95.1201
15.124883856909658 79.6421
15.14737872204565 74.6648
15.169891721717274 72.7867
15.192405310371893 72.4975
15.214901940621196 72.4408
15.237416709527137 72.1607
15.259914520936249 72.0017
15.282430473753607 71.0775
15.304947020131227 70.3537
15.327446610371178 69.6472
15.349964346154254 68.8222
15.372465126703139 68.6665
15.394984055556009 68.6651
15.417486030076159 68.373
15.44000615566487 67.933
15.462526881230803 67.7606
15.485030653812652 68.0961
15.507552581617434 68.4107
15.530057557334603 68.1054
15.55258069104857 68.2384
15.575104429329837 68.0756
15.597611216864632 68.1928
15.620136166564563 68.8431
15.6426441664095 70.8152
15.665170331202765 74.5392
15.687697105158826 78.5728
15.710206930593545 82.7145
15.732734925158933 87.5872
15.755245972089478 93.9367
15.77777519094324 102.84200000000001
15.800287463046663 114.066
15.822817909869592 128.562
15.84534897229804 144.317
15.867863089299354 162.651
15.890395385222186 179.188
15.912910736597423 190.297
15.935444269699861 187.297
15.957978423016485 163.821
15.980495633101265 132.15
16.003031029129367 103.219
16.02554948280019 80.5375
16.048086125229432 69.9628
16.070623392487107 66.7918
16.09314371869582 65.7414
16.11568223789321 64.5077
16.13820381691126 63.8539
16.160743591742527 62.9267
16.183283996022084 62.1242
16.205807461423195 61.0073
16.228349126881973 60.5255
16.25087385432698 60.7135
16.27341678466365 60.1101
16.29594277784926 59.6102
16.31848697676433 59.9373
16.341031811604868 59.9077
16.36355971058487 59.9411
16.3861058195587 59.751999999999995
16.40863499352978 58.7494
16.431182380342005 58.2332
16.453730407713202 57.6082
16.476261501364792 57.2307
16.498810812136167 57.0844
16.52134319004079 57.0648
16.54389378792203 57.181000000000004
16.566445031001553 56.8801
16.588979342490088 56.6738
16.61153187824822 56.5566
16.634067483263312 56.4911
16.656621315414416 56.6084
16.679175797408888 56.0943
16.701713349928728 56.3449
16.72426913389191 56.5831
16.74680798922351 56.4443
16.76936507887444 56.3543
16.791905240734874 56.5358
16.814463639794468 56.2892
16.837022695210294 56.2673
16.859564824093756 56.6644
16.882125194503903 57.1688
16.904668639217885 57.6057
16.927230328348003 57.6343
16.949792678493612 57.8114
16.972338104193863 57.4099
16.994901778652235 57.2336
17.017448529496576 57.3777
17.040013531998152 57.9999
17.06257920018044 58.5863
17.0851279459922 59.6242
17.107694947817667 60.3367
17.130245028099072 61.1934
17.15281336730298 62.6917
17.17536478578733 64.4601
17.19793446610687 66.7396
17.220504818648422 69.0634
17.243058251703697 71.3587
17.265629950971032 74.9679
17.288184731571736 78.8697
17.310757781306908 83.0275
17.33333150794385 84.5454
17.355888317140174 84.3891
17.37846339986244 79.7906
17.401021565958885 73.91199999999999
17.42359800851343 68.2318
17.44617513265564 64.3837
17.468735341390783 62.1464
17.491261035594565 61.1421
17.51396340099364 60.7453
17.536490463869136 60.7718
17.559018209820174 60.9357
17.58154663977963 61.2128
17.604251766089718 61.0327
17.626781572227713 61.3393
17.64931206518155 61.6514
17.671843245885103 62.0445
17.69455114821572 62.3997
17.717083712612634 62.5248
17.739616967569667 62.9411
17.762150914021706 63.3141
17.78486160749854 63.5448
17.807396945166804 64.3948
17.829932977143503 65.9306
17.85246970436452 68.4337
17.875183204129467 70.5343
17.897721330097664 72.8533
17.920260154126645 75.5563
17.942799677153296 78.8953
17.9655159983646 82.6748
17.988056927677544 87.6804
18.010598558807683 94.4639
18.033140892692916 102.155
18.05586005052525 109.98100000000001
18.07840379824407 119.805
18.10094825154059 130.109
18.12366954819864 139.66899999999998
18.146215420998306 143.178
18.16876200220057 137.543
18.191309292745153 124.705
18.214033452627167 110.919
18.236582170236648 98.1095
18.259131600016456 91.1523
18.281681742907335 89.4885
18.304408781233683 91.9635
18.32696035875955 95.1468
18.349512652227624 99.3751
18.372065662579683 103.62899999999999
18.394795594587553 106.09
18.41735004715306 104.85799999999999
18.43990521943684 98.8102
18.46246111238171 89.9246
18.485193953325208 80.113
18.507751296070428 72.3281
18.530309362314178 67.8914
18.552868153000343 65.4837
18.57560391815056 64.0688
18.59816416623245 63.5863
18.620725141597372 63.1528
18.643286845190268 62.7571
18.666025549835414 62.1934
18.688588718427933 61.6995
18.711152618092243 61.4422
18.73389353884365 61.2912
18.75645890921984 60.9293
18.77902501351406 60.4195
18.801591852673102 60.3693
18.824335739722738 59.9474
18.846904057212626 59.7375
18.8694731124168 59.4842
18.89204290628315 59.4156
18.914789774966803 59.2194
18.937361054791623 59.0437
18.959933076131318 58.718
18.982505839934877 58.5805
19.00525570560582 58.7147
19.027829963004184 58.5734
19.05040496572238 58.7891
19.072980714710468 59.003
19.095733592739563 59.4152
19.11831084296757 59.5295
19.140888842324735 60.1802
19.16346759176222 60.4526
19.18622349753803 60.8336
19.208803755869358 61.9393
19.231384767143577 63.0348
19.253966532312948 64.5216
19.276725481241822 66.0309
19.29930876296784 67.8611
19.3218928014549 70.0346
19.34465404436217 72.4739
19.36723960516257 75.0814
19.389825925592426 76.8396
19.412413006605938 77.0028
19.43517731967805 74.6907
19.457765930683355 70.1556
19.48035530514408 65.74
19.50294544401556 61.7918
19.525712842708348 58.4572
19.54830451925909 56.8466
19.570896963095727 55.9162
19.593490175174704 55.6047
19.616260674962184 55.5374
19.638855432416964 55.3451
19.661450960992624 55.4034
19.68404726164677 55.371
19.706820878021247 55.0037
19.729418731756834 55.2288
19.752017360452857 55.0158
19.77461676506804 55.4347
19.797393513540218 55.58
19.819994478951667 55.8322
19.84259622316767 56.652
19.8651987471481 56.9743
19.887978643247177 57.2232
19.91058273574792 57.628
19.933187610901943 58.5179
19.955969879466828 59.5929
19.97857632894404 60.9356
20.00118356396599 62.4075
20.023791585494575 63.9699
20.046577028914875 66.2403
20.069186632506966 68.0438
20.091797025500632 70.1749
20.114408208858933 71.32
20.137196842715273 71.8911
20.159809615886765 70.8447
20.18242318232135 68.5695
20.20503754298326 66.0704
20.227829382875154 64.234
20.250445341109344 63.5738
20.27306209647285 63.6266
20.29567964993108 64.3952
20.31847471147704 65.4214
20.34109387027612 66.4666
20.363713830075454 66.6281
20.386334591841646 65.9007
20.409132890679302 63.5422
20.431755265564437 60.3491
20.454378445325528 57.4755
20.477002430930366 55.1749
20.499803982716553 53.8438
20.522429589228004 52.8671
20.54505600449589 52.4231
20.567683229489194 52.3415
20.590488049900088 51.9772
20.61311690359731 51.7169
20.63574656993626 51.5708
20.658553853717297 51.1134
20.681185154618298 51.2038
20.703817271080066 51.0022
20.72645020407368 50.7087
20.749260783967177 50.4921
20.771895359337133 50.4465
20.794530754161617 50.3148
20.817166969412938 50.4756
20.83998086114876 50.2586
20.86261872660049 50.2854
20.885257415405402 50.3179
20.90789692853701 50.031000000000006
20.930714147864748 50.0953
20.953355319030678 50.0326
20.97599731745334 50.0616
20.99864014410749 50.0775
21.021460706796564 50.1592
21.044105199328826 50.5064
21.06675052302631 50.6436
21.089396678865015 50.7101
21.112220600704806 51.0644
21.134868430275347 51.3531
21.15751709492456 51.5262
21.180166595629693 51.5916
21.202993892429635 51.8534
21.22564507473034 52.3846
21.24829709602816 52.695
21.27112693608965 52.7112
21.293780644891275 53.1832
21.316435195634053 52.5037
21.339090589297417 51.7955
21.361923832041875 51.3072
21.384580921090404 50.5897
21.407238856007325 49.9923
21.429897637773326 49.9343
21.45273429906592 49.9253
21.475394784108598 49.8018
21.498056118951983 49.6706
21.520718304578022 50.0981
21.543558400304388 50.3125
21.566222297108816 50.6724
21.58888704765135 50.9114
21.61155265291521 51.243
21.63439619898156 51.6894
21.657063523335786 51.9827
21.67973170537063 52.4636
21.7024007460706 52.9593
21.72524775840385 53.8085
21.747918526116475 54.6728
21.770590155457388 55.8013
21.79326264741238 57.3246
21.816113141960237 58.5774
21.838787368860547 60.0605
21.861462461341976 61.6892
21.884315579735777 63.4725
21.90699241312273 64.8838
21.92967011506078 66.1936
21.95234868653799 66.3917
21.9752053151131 65.5902
21.997885635446785 63.7502
22.020566828293532 61.7655
22.04324889464272 59.668
22.066109049404666 57.9881
22.088792872571794 57.0285
22.111477572219204 57.1567
22.1341631493376 57.2152
22.157026846313123 57.3904
22.179714188221507 56.9097
22.202402410582668 55.9495
22.22509151438863 54.5524
22.24795876962584 53.0547
22.270649646204486 52.1543
22.293341407213727 51.4998
22.316034053646906 50.8632
22.338904883215342 50.5305
22.36159931041458 50.6163
22.38429462602756 50.4517
22.40699083104897 50.1999
22.429865251039757 50.3009
22.452563244831367 50.2433
22.47526213102522 50.1729
22.49813925616515 50.184
22.520839937143307 50.1018
22.543541513520587 50.1334
22.56624398629403 50.1987
22.589124730075895 50.0441
22.611829005656723 50.3191
22.63453418063466 50.4353
22.657240256008077 50.5894
22.680124634582935 50.7992
22.70283252079775 51.1922
22.725541310413075 51.5492
22.74825100442868 51.7043
22.771139033969575 52.0035
22.79385054687155 52.2343
22.81656296718292 53.007
22.83927629590484 53.6964
22.862167992606945 54.4361
22.88488314827121 55.3539
22.907599215359284 56.1635
22.93031619487366 57.1385
22.953211574954405 57.9303
22.975930389478226 58.9146
22.998650119445763 59.3175
23.02137076586092 58.934
23.044269845560063 58.058
23.06699233506288 56.4395
23.089715744034912 54.7318
23.112617610931565 52.7625
23.135342869061212 51.5628
23.158069049684816 50.8341
23.1807961538087 50.3322
23.20370174880544 50.46
23.226430710184808 50.4921
23.249160598093425 50.6136
23.271891413539002 50.6231
23.294800752937697 50.661
23.31753343374794 50.9173
23.340267045128353 51.0196
23.36300158808808 51.3932
23.38591468821339 51.5051
23.408651104658304 51.7854
23.431388455719986 52.5526
23.454126742409 53.3498
23.4770436196085 54.0648
23.499783787914662 55.0514
23.522524894889884 55.7159
23.54526694154616 56.5249
23.56818761219047 57.6999
23.59093154860734 58.4
23.613676427751283 59.1148
23.636422250635754 58.6378
23.659346731118656 57.3737
23.68209445191868 55.6012
23.704843119509587 53.4996
23.72759273490623 51.3834
23.750521041644767 49.8092
23.77327256312355 48.6683
23.796025035462787 47.9361
23.818956224555475 47.5661
23.841710609113413 47.525
23.86446594758979 47.0787
23.887222241002014 46.9368
23.910157285144578 46.6454
23.932915498962537 46.618
23.955674670778713 46.4971
23.978434801611975 46.3856
24.001373717286125 46.1423
24.024135776723917 46.0494
24.046898798245582 45.7995
24.06966278287146 45.7249
24.092605586582614 45.4426
24.115371508023642 45.5063
24.1381383956401 45.2585
24.16090625045381 45.2503
24.183852958731244 45.2786
24.206622758582608 45.0035
24.229393528706886 44.8387
24.252165270127392 45.0921
24.27511589952438 44.9538
24.297889594216997 44.8002
24.32066426328598 44.5639
24.34343990775613 44.5445
24.36639447485003 44.3867
24.38917208083877 44.4775
24.41195066531332 44.3464
24.43490819850244 44.3242
24.457688750692377 44.2072
24.48047028445616 44.2106
24.503252800821233 44.2468
24.526214300784112 44.3884
24.548998793132213 44.3094
24.57178427117417 44.2791
24.59457073593893 44.2455
24.617536219319863 44.2763
24.64032466834748 44.2416
24.663114107195035 44.0483
24.685904536893013 43.9312
24.708874020360852 43.7629
24.731666442613744 43.8094
24.754459858818787 43.6923
24.777254270007962 43.8018
24.80022777025625 43.4992
24.82302418230472 43.606
24.845821592443674 43.6127
24.86862000170663 43.6413
24.891597535453727 43.4404
24.914397953892728 43.8179
24.93719937456671 43.7003
24.96000179851076 43.6244
24.98298338249997 43.9353
25.00578782394922 44.1279
25.028593271784167 44.2999
25.05157790644186 44.5928
25.07438537804115 44.6269
25.097193859145293 44.8039
25.120003350792075 44.985
25.142992065061257 45.4098
25.165803588823465 45.6413
25.18861612625217 45.8182
25.211429678386736 46.0386
25.234422489079968 46.1077
25.257238081693636 46.0702
25.280054692141732 45.957
25.3028723214652 45.8057
25.325869245420463 45.9791
25.348688923599397 45.9124
25.371509623787006 46.0468
25.394331347025812 45.8855
25.41733240110666 45.6287
25.440156181590016 45.0497
25.46298098826268 44.385
25.48580682216873 43.8648
25.50881202326435 43.0665
25.53163992281684 42.6018
25.55446885274561 42.4539
25.577298814096377 42.144
25.600308179121807 41.9027
25.623140214533745 42.15
25.64597328451537 41.9588
25.66898578564376 41.8277
25.691820936010206 41.7069
25.714657124097695 41.8185
25.737494350954734 41.8773
25.760511045684957 41.751999999999995
25.783350361364224 41.6754
25.806190718969255 41.6982
25.82903211955018 41.8227
25.852053024868923 41.9309
25.874896522722523 41.8858
25.897741066713106 41.7839
25.920586657892454 41.9099
25.943611790812668 42.176
25.966459487728237 42.2171
25.989308234998564 42.1097
26.01215803367705 42.4443
26.03518741123814 42.5268
26.05803932412957 42.7642
26.080892291600094 42.5899
26.10374631470478 42.7046
26.12677995397268 42.858000000000004
26.14963609978026 42.9845
26.172493304397875 42.5401
26.19535156888223 42.4944
26.218389486949604 42.1613
26.241249882640123 41.9193
26.26411134137826 41.5379
26.28715248187403 41.4599
26.31001607820869 41.3408
26.3328807407756 41.2667
26.35574647063438 41.5266
26.37879191991473 41.3361
26.401659795896734 41.4033
26.424528742360263 41.5355
26.447398760366614 41.6957
26.470448535598294 41.7854
26.49332070826805 41.985
26.516193955675355 42.2952
26.53906827888316 42.2883
26.562122397260108 42.5547
26.584998883685063 42.744
26.607876449110325 42.9105
26.63075509460056 43.2687
26.65381357334404 43.446000000000005
26.67669439061878 43.3138
26.699576291163382 43.2017
26.722459276044212 43.1688
26.745522132402975 42.8298
26.768407297649354 42.6592
26.791293550442003 42.3375
26.814180891848974 42.1014
26.837248143099337 41.7029
26.860137673466657 41.4715
26.88302829566349 41.3206
26.90592001075963 41.2689
26.92899167420566 41.0915
26.951885586870763 40.6256
26.974780595655517 40.5028
26.99785558178161 40.4008
27.020752794605112 40.2581
27.043651106772522 40.0079
27.06655051935668 39.9874
27.089629948036183 39.826
27.112531573292053 39.8635
27.135434302194138 39.98
27.158338135817015 39.7671
27.181422024430987 39.8324
27.204328079372566 39.5704
27.22723524226965 39.7107
27.250143514198573 39.6691
27.273231880156334 39.6671
27.296142382065014 39.5466
27.319053996245536 39.4675
27.341966723775965 39.5677
27.365059584515222 39.6435
27.38797455070062 39.6082
27.410890633481237 39.6136
27.433807833936918 39.5389
27.456905206923906 39.5859
27.47982465472398 39.5013
27.502745223449743 39.731
27.525666914182825 39.8807
27.548768816912457 39.7186
27.571692763693633 39.6041
27.59461783573812 39.5523
27.617723149491244 39.3673
27.640650484125285 39.3377
27.66357894728264 39.3034
27.686508540048052 39.3094
27.709618414237887 39.1717
27.732550278321757 38.9178
27.755483275279115 38.9428
27.778417406196485 39.0854
27.801531858397514 39.0305
27.824468269376716 39.0109
27.847405817586786 38.9144
27.870344504116094 39.1935
27.893463551932008 39.1282
27.916404527281053 39.4675
27.93934664422563 39.3179
27.962289903855886 39.4024
27.98541356491974 39.7771
28.00835912214229 39.8025
28.03130582533231 39.866
28.054253675581805 40.0832
28.077381967556104 40.08
28.100332124185126 40.1984
28.123283431160893 40.0137
28.146235889577238 39.9595
28.169368830154156 39.797
28.192323603752033 39.5372
28.215279532083304 39.1854
28.238415973016764 38.9697
28.261374223145094 38.8593
28.284333631303806 38.7139
28.307294198589954 38.6688
28.330435319167677 38.3284
28.353398217078915 37.9684
28.376362277420153 37.748000000000005
28.39932750129032 37.7686
28.422473319286713 37.4997
28.44544088262495 37.4713
28.468409612800283 37.2845
28.491379510913497 37.0244
28.51453004413313 36.9504
28.53750229057244 36.882
28.56047570826344 36.9545
28.583450298308804 36.9615
28.606605564586562 36.689
28.629582511831156 36.7406
28.65256063474956 36.7068
28.675539934446338 36.7239
28.698699951647605 36.5488
28.72168161743193 36.5656
28.74466446331978 36.4981
28.767648490417624 36.4775
28.790813276438353 36.4127
28.813799678527303 36.4771
28.836787265157085 36.3852
28.859955641890075 36.4482
28.882945610203045 36.4471
28.905936766392035 36.3096
28.928929111566863 36.478
28.952102288520145 36.2741
28.975097024308607 36.2084
28.998092952423807 36.1312
29.021090073977508 35.9867
29.04426806913204 35.9431
29.067267590245258 35.7124
29.090268308143695 35.5932
29.11327022394099 35.5472
29.13645305530891 35.471
29.159457379627167 35.4957
29.18246290519685 35.359
29.20546963313352 35.3464
29.22865731875826 35.3675
29.25166646419296 35.3759
29.27467681535305 35.2975
29.29768837335608 35.2551
29.320880931312562 35.3234
29.34389491580634 35.3434
29.366910110507334 35.1194
29.38992651653503 35.2522
29.41312396492981 35.2582
29.436142806456754 35.0818
29.45916286268059 34.9492
29.48236399319994 34.9863
29.50538649169417 34.7471
29.528410208259935 34.6446
29.55143514402014 34.3099
29.574641196749695 34.3813
29.597668583816574 34.2862
29.6206971934585 34.1195
29.64372702680042 34.1917
29.666938019934474 33.9577
29.689970313635285 33.9254
29.713003834422636 34.0002
29.73603858342347 33.925
29.759254535188578 33.7316
29.78229175361658 33.7252
29.80533020365064 33.8436
29.82836988641968 33.8489
29.85159081507472 33.8171
29.874632976355343 33.6134
29.89767637376955 33.6199
29.920721008448314 33.5641
29.9439469322847 33.6654
29.96699405457564 33.5629
29.9900424175358 33.5117
30.013092022298157 33.5457
30.03632295963995 33.389
30.059375061131373 33.3859
30.08242840783577 33.4934
30.105483000888153 33.4749
30.128718970092244 33.3321
30.151776069006917 33.2607
30.17483441768648 33.3352
30.198074175317235 33.4304
30.221135036724256 33.3807
30.24419715131772 33.3236
30.267260520236203 33.2126
30.290505341942243 33.2605
30.313571232750228 33.3292
30.336638381310948 33.2303
30.35970678876503 33.2387
30.38295669299435 33.1621
30.40602763151657 33.2179
30.429099832366074 33.144
30.452173296685572 33.0396
30.47542830191959 32.9472
30.498504306502497 32.9821
30.521581577995562 33.1244
30.544660117543582 33.0903
30.56792024229725 33.1023
30.59100133132069 33.0659
30.614083691845494 33.0783
30.637167325018545 33.1137
30.660432587840603 33.2169
30.683518779717886 33.0776
30.70660624769615 33.2006
30.729694992924372 33.1838
30.75296541239743 33.1177
30.77605672557558 33.1872
30.799149319462742 33.1156
30.8224236211637 33.025999999999996
30.845518789950724 32.7872
30.868615242910597 32.7442
30.891712981195973 32.5942
30.91499247215866 32.5975
30.938092794619365 32.5698
30.96119440587579 32.4294
30.984297307082752 32.3676
31.00758200598383 32.2955
31.030687500658694 32.1741
31.053794288760695 32.1199
31.076902371446767 32.0682
31.100192296997445 32.0323
31.12330298246119 31.9822
31.14641496599209 31.8324
31.169528248749216 31.9109
31.19282341969534 31.913
31.215939314557186 31.8034
31.239056512134788 31.8939
31.262175013589378 31.8339
31.28547544871168 31.7589
31.30859657161541 31.7389
31.331719001892175 31.7271
31.35484274070538 31.8355
31.378148458819545 31.8475
31.401274828443725 31.7352
31.424402510106933 31.776
31.447712205419993 31.8253
31.470842524931633 31.7939
31.493974159989783 31.7429
31.51710711176168 31.57
31.54042212308802 31.6376
31.563557722100917 31.6491
31.586694641341655 31.5014
31.609832881979628 31.5136
31.63315322823208 31.3072
31.656294125521327 31.23
31.679436347728515 31.1479
31.70257989602529 31.1651
31.725905596152327 31.1007
31.74905181052835 31.0091
31.772199354521323 31.0256
31.79534822930507 31.0386
31.818679302290967 30.9798
31.84183085259981 31.0418
31.864983737233473 31.0269
31.88813795736804 31.1023
31.911474422233013 30.8901
31.934631327356435 30.9108
31.9577895715215 30.8601
31.980949155906522 30.8954
32.004291031706956 30.8527
32.027453310562606 30.7758
32.05061693318573 30.6961
32.07396288236386 30.6751
32.09712920658542 30.656999999999996
32.12029687812702 30.4379
32.14346589817093 30.3595
32.166817291729984 30.4549
32.18998902288583 30.3398
32.21316210610336 30.1963
32.23633654256711 30.1312
32.259693399663725 30.0982
32.282870556771144 29.9675
32.30604907069099 30.0021
32.329228942610065 29.8914
32.35259128243769 29.7647
32.375773884550505 29.7802
32.398957848235646 29.8114
32.422143174682176 29.7094
32.445511016471215 29.5251
32.468699082679954 29.6093
32.49188851523011 29.523000000000003
32.51507931531304 29.4772
32.538452678331 29.5101
32.56164622776311 29.4595
32.58484114831493 29.3704
32.60803744118015 29.3977
32.631416344731896 29.2948
32.654615396551876 29.2395
32.67781582427913 29.2246
32.701198898634416 29.1299
32.72440209253756 29.0795
32.747606665947124 28.9453
32.77081262006088 28.8683
32.79420126883317 28.9322
32.81740999876112 29.0141
32.840620112999424 28.8599
32.86383161274818 28.9479
32.88722585534586 28.8457
32.91044014056596 28.9081
32.933655814909734 28.8438
32.95687287957963 28.8294
32.98027273544904 28.7657
33.00349259526636 28.6326
33.026713849030116 28.6662
33.04993649794511 28.6794
33.073341986570746 28.6124
33.09656744032826 28.6427
33.11979429286444 28.590999999999998
33.14302254538647 28.6053
33.166433686291185 28.4616
33.18966475336992 28.6029
33.212897224069096 28.4718
33.23613109959831 28.3654
33.259547912343415 28.3753
33.2827846121627 28.3365
33.306022720453775 28.2289
33.32926223842861 28.1473
33.352684742614166 28.1777
33.37592709463173 28.184
33.399170859982064 28.066
33.422597648419426 27.9647
33.44584425514446 27.8641
33.46909227885668 27.8899
33.4923417207723 27.8283
33.51577423505344 27.7566
33.539026528130385 27.729
33.56228024307245 27.6374
33.585535381098246 27.5661
33.60897364093058 27.564
33.63223163992385 27.5519
33.6554910656699 27.451999999999998
33.678751919389796 27.485
33.702195944520106 27.2874
33.72545966903325 27.3236
33.74872482519663 27.2447
33.771991414233746 27.2799
33.79544122444841 27.261
33.81871069412428 27.12
33.84198160035767 27.1627
33.86525394437455 27.1355
33.88870955949969 27.037
33.911984794020626 27.0564
33.93526147001624 27.0632
33.958539588715006 26.9832
33.98200102861669 26.8487
34.0052820477047 26.8314
34.02856451319451 26.8316
34.05203033759056 26.6756
34.07531571090147 26.7429
34.09860253431845 26.8064
34.121890809074316 26.6515
34.145362493118924 26.6285
34.16865368561615 26.5944
34.191946333164054 26.4831
34.21524043699793 26.4906
34.23871800066799 26.4891
34.26201503218366 26.3917
34.28531352370466 26.4079
34.30861347646881 26.3023
34.33209693978188 26.2047
34.3553998301885 26.2356
34.378704185565205 26.1328
34.402010007152356 26.1843
34.42549939016683 26.1631
34.44880815937748 26.1464
34.472118398533134 26.0543
34.49543010887669 25.9134
34.51892543169198 25.8006
34.54224009966052 25.8804
34.56555624255917 25.9005
34.58887386163339 25.79
34.61237514439016 25.7383
34.6356957311114 25.7147
34.65901779775809 25.7098
34.68252356662995 25.7031
34.705848608458616 25.5473
34.72917513396849 25.5276
34.75250314440949 25.5471
34.77601490857862 25.4519
34.799345904259795 25.3185
34.82267838863559 25.3347
34.846012362958525 25.4358
34.869530142679984 25.3623
34.89286711232212 25.3017
34.91620557568269 25.2558
34.93954553401677 25.2129
34.9630693495876 25.1335
34.986412313340814 25.2309
35.00975677584668 25.173000000000002
35.033102738362956 25.0973
35.05663261012228 25.0217
35.0799815881786 25.088
35.10333207003229 24.9446
35.12668405694369 25.0124
35.150220005273056 24.9319
35.17357501786656 24.9417
35.19693153931268 24.8308
35.220289570874385 24.8004
35.24383161619786 24.8829
35.267192683604904 24.8733
35.290555264930376 24.6995
35.314101899412165 24.8346
35.33746752422433 24.7207
35.36083466676374 24.772
35.38420332829803 24.7177
35.407756095629054 24.7397
35.43112781085063 24.6566
35.45450104888391 24.594
35.477875810999194 24.5787
35.50143473172161 24.5168
35.52481255774625 24.5445
35.54819191167777 24.5281
35.57157279478914 24.39
35.595137889488406 24.4285
35.61852184675279 24.3707
35.641907337029984 24.3482
35.665294361595684 24.3456
35.68886565090076 24.2513
35.7122557598848 24.1345
35.73564740699838 24.2071
35.759040593519934 24.1633
35.78261809810353 24.1046
35.80601437933051 24.0734
35.829412203814705 24.024
35.85281157283719 23.9006
35.876395313415884 23.9197
35.8997977874528 23.8105
35.92320180988546 23.8423
35.946790244133936 23.7714
35.97019737933222 23.7704
35.993606066789866 23.7733
36.01701630779276 23.7161
36.04061101440684 23.6465
36.06402437852291 23.6571
36.08743930005611 23.5958
36.1108557802951 23.5497
36.13445678011326 23.6052
36.15787639383515 23.5235
36.18129757014299 23.5118
36.20472031032821 23.4245
36.22832762423364 23.3848
36.25175350829375 23.4015
36.275180960119776 23.3456
36.298609981005924 23.3804
36.32222362992669 23.2954
36.34565580510207 23.2684
36.36908955323448 23.2664
36.39252487562093 23.1493
36.416144880530226 23.1102
36.43958336764275 23.1003
36.463023432914625 23.1135
36.486465077645676 23.028000000000002
36.51009145956204 23.0347
36.53353627947859 23.0059
36.55698268276811 22.9702
36.58043067073321 22.9617
36.60406345072071 22.8983
36.62751462435344 22.7974
36.65096738658405 22.7421
36.67460498210655 22.7027
36.69806093788647 22.7213
36.72151848619297 22.6347
36.744977628333636 22.6745
36.76862165890998 22.5691
36.79208400512205 22.5747
36.81554794910557 22.5812
36.83901349217101 22.4672
36.862663978991606 22.4447
36.88613273667352 22.4226
36.90960309738324 22.3861
36.933075062434064 22.3317
36.95673202673572 22.3094
36.98020721697122 22.2355
37.003684015502365 22.2422
37.027162423645365 22.2332
37.050825886711465 22.1145
37.07430753063053 22.1472
37.09779078812467 22.035
37.121275660513014 22.0493
37.144945643673694 21.9921
37.16843376245278 22.0208
37.19192350009803 21.9584
37.215414857931435 21.9451
37.239091382563885 21.8446
37.262585997426164 21.8749
37.28608223645736 21.8394
37.309763684451696 21.8257
37.33326318851098 21.7732
37.356764320726555 21.6838
37.380267082425526 21.7645
37.40395510942588 21.7244
37.42746114683234 21.6268
37.45096881771841 21.6243
37.474478123414166 21.5869
37.49817275092816 21.4751
37.52168534303452 21.56
37.54519957395567 21.3826
37.568715445024665 21.435
37.592416694607714 21.383000000000003
37.61593586281424 21.4167
37.63945667518264 21.4968
37.66297913304891 21.3834
37.68668702630454 21.3589
37.710212792059274 21.2042
37.733740207334854 21.166
37.757269273470364 21.1773
37.780983832050374 21.0824
37.80451621684926 21.0959
37.82805025654007 21.06
37.851585952464795 21.0562
37.8753071980695 20.9807
37.89884622345676 20.9307
37.92238690911902 20.8937
37.94611318753442 20.8464
37.969657210779765 20.8747
37.99320289834801 20.8637
38.016750251586465 20.7927
38.04048325513017 20.7478
38.06403395679343 20.721
38.087586328183946 20.7026
38.11114037065203 20.6447
38.13488012115898 20.6138
38.1584375229181 20.519000000000002
38.181996599821 20.5048
38.205557353221124 20.5123
38.229303872575656 20.5685
38.2528679961576 20.4884
38.27643380031219 20.4117
38.30000128639589 20.3585
38.32375459653193 20.4221
38.34732546371299 20.3619
38.37089801690786 20.2397
38.39447225747609 20.2929
38.418232380377425 20.2214
38.441810012983396 20.1803
38.46538933705673 20.2078
38.488970353960084 20.2334
38.51273731166058 20.1408
38.536321731567014 20.0711
38.55990784840681 19.9912
38.58367995004091 20.0275
38.60726947812959 19.9445
38.63086070726198 19.9495
38.654453638806274 19.9214
38.678232613930824 19.8437
38.70182896773327 19.7949
38.72542702806741 19.8072
38.7490267963045 19.8453
38.77281266709232 19.7727
38.79641586862214 19.7225
38.8200207821842 19.7026
38.843627409152944 19.6621
38.86742019782782 19.6453
38.891030269149255 19.5032
38.914642058016156 19.5611
38.938255565806124 19.5676
38.96205529464307 19.5329
38.98567225787121 19.4511
39.00929094417078 19.3817
39.03291135492255 19.4063
39.05671804624804 19.4074
39.080341923549106 19.2904
39.103967529460334 19.2453
39.127594865365744 19.2997
39.15140854155791 19.2541
39.17503935514948 19.1858
39.19867190290282 19.2014
39.22249083587951 19.1189
39.24612686969409 19.1164
39.269764641845306 19.1321
39.293404153722804 19.1382
39.317230110864074 19.0405
39.34087311998506 19.0169
39.36451787301696 18.9948
39.388164371352595 18.9242
39.41199737518003 18.8883
39.43564738196752 18.9161
39.45929913825317 18.8478
39.48295264543308 18.8372
39.506792718520884 18.8603
39.530449745387216 18.8126
39.55410852735203 18.7653
39.57776906581474 18.7996
39.60161623079 18.7488
39.625280300200025 18.6217
39.64894613032202 18.5563
39.67261372255866 18.6031
39.6964680021016 18.6056
39.72013913657293 18.6284
39.74381203738292 18.527
39.76748670593756 18.5387
39.79134812278169 18.482
39.81502634488497 18.4402
39.83870633896685 18.4245
39.862388106436654 18.4357
39.88625668336918 18.357
39.90994201572829 18.3239
39.933629125719285 18.2668
39.957503091207826 18.2186
39.9811937746168 18.2296
40.00488623990914 18.2072
40.02858048850006 18.1289
40.05246165409549 18.1394
40.076159487492085 18.0696
40.099859108448875 18.1267
40.123560518384345 18.0705
40.1474489070226 18.0135
40.171153913178564 18.0189
40.194860712584955 17.9402
40.2185693066637 17.9056
40.242464941335314 17.8466
40.26617714307655 17.843
40.289891143772046 17.837
40.3136069448471 17.8449
40.33750984859743 17.8068
40.3612292688043 17.7344
40.3849504936829 17.721
40.40867352466194 17.7661
40.43258372059144 17.7291
40.45631038219906 17.7462
40.48003885420956 17.6608
40.503769138055105 17.622
40.52768664931955 17.6032
40.55142057531802 17.5216
40.57515631746428 17.5219
40.599079334038514 17.521
40.62281872700477 17.467
40.64655994043941 17.4305
40.67030297578061 17.4449
40.69423334835778 17.3766
40.71798004609188 17.2894
40.74172857006355 17.277
40.76547892171441 17.3151
40.7894166736039 17.2116
40.813170699248566 17.1873
40.83692655691388 17.215
40.86068424804498 17.1845
40.884629402612525 17.1877
40.908390779366385 17.1569
40.932153993938 17.0757
40.95591904777605 17.0573
40.979871628443995 17.081
41.003640379561936 17.0101
41.02741097430883 16.97
41.05118341413683 17.0099
41.075143444384416 16.9048
41.098919593177826 16.9252
41.1226975914255 16.9251
41.14647744058318 16.8262
41.170444943946755 16.8275
41.19422851378379 16.7832
41.218013938914645 16.7421
41.24198706625173 16.7736
41.26577622087193 16.6959
41.289567235177785 16.6273
41.31336011063129 16.6427
41.337340752422875 16.6341
41.361137369129835 16.6399
41.38493585138705 16.5523
41.40873620066004 16.5012
41.43272438060107 16.5115
41.45652848292052 16.4639
41.48033445666918 16.4447
41.50414230331616 16.4229
41.528138045159764 16.3863
41.551949656675205 16.3418
41.575763145513235 16.3317
41.59957851314666 16.2849
41.62358184070442 16.2657
41.64740098505737 16.2717
41.6712220126409 16.182000000000002
41.69504492493139 16.1863
41.71905586207357 16.184
41.74288256296395 16.1727
41.766711153007456 16.099
41.79054163368412 16.0791
41.814560204340054 16.075
41.838394485526365 16.0091
41.86223066180303 16.0066
41.88625497706819 16.0328
41.910094962812 15.9625
41.93393684811168 15.9869
41.95778063445365 15.8679
41.981812625263366 15.8152
42.00566023303407 15.8304
42.029509746323676 15.8448
42.05336116662236 15.7666
42.077400857069705 15.7942
42.10125611078846 15.7785
42.12511327600405 15.7193
42.14897235421036 15.7004
42.173019768448455 15.6922
42.19688269209613 15.6634
42.22074753323349 15.6158
42.24461429335818 15.5686
42.268669455600495 15.5394
42.292540073217886 15.5101
42.31641261433284 15.4946
42.34028708044675 15.4685
42.36435001496739 15.5305
42.38822835065557 15.4703
42.41210861586426 15.4329
42.4359908120986 15.4103
42.46006154323262 15.3246
42.48394762115317 15.2987
42.507835634632315 15.3194
42.531912233047436 15.3131
42.55580413732265 15.2154
42.579697981698 15.2368
42.60359376768525 15.1698
42.62767820545945 15.1718
42.65157789440821 15.1727
42.67547952952185 15.1361
42.699383112316 15.1228
42.72347541395347 15.0859
42.74738291190531 15.0457
42.771292362102166 15.0232
42.795203766063516 15.0141
42.819303956130405 14.9559
42.843219287476536 14.9238
42.86713657716324 14.9269
42.89105582671383 14.897
42.91516392983864 14.869000000000002
42.939087119032166 14.8463
42.963012272677304 14.8082
42.98693939230129 14.8183
43.01105543317513 14.7746
43.034986504731386 14.7053
43.05891954686589 14.7023
43.08285456110972 14.6585
43.10697856448665 14.655999999999999
43.130917542983475 14.6391
43.15485849820081 14.6017
43.17880143167367 14.5613
43.20293342237094 14.5218
43.226880332449 14.579
43.25082922540554 14.5099
43.27496722682525 14.4895
43.29892010567796 14.4411
43.32287497204102 14.4216
43.34683182745632 14.3868
43.370977859791836 14.3209
43.39493871351105 14.3922
43.41890156092628 14.3477
43.44286640358341 14.3417
43.46702049182749 14.3003
43.49098934522816 14.2728
43.51496019852649 14.2588
43.5389330532723 14.2275
43.56309522248204 14.213
43.58707210044314 14.163
43.61105098451946 14.1201
43.63503187626491 14.1048
43.659202151562134 14.0653
43.68318707902681 14.0741
43.70717401884041 14.107000000000001
43.731162972560874 14.0136
43.75534137913236 13.9762
43.779334381108384 13.9245
43.803329401683186 13.9383
43.82732644241872 13.9131
43.8515130055166 13.8886
43.87551410707659 13.8544
43.89951723350145 13.8689
43.923709934595614 13.7854
43.94771713129917 13.7611
43.97172635758096 13.7801
43.99573761501002 13.7458
44.0199385169922 13.7195
44.04395385732619 13.7391
44.067971233533086 13.6958
44.09199064718605 13.6402
44.11619977548961 13.6016
44.14022328470671 13.5761
44.16424883610785 13.5939
44.18827643127035 13.5972
44.21249381139513 13.5428
44.236525514814076 13.4693
44.26055926674478 13.4454
44.28459506876863 13.4904
44.3088207262813 13.4708
44.33286064928722 13.4529
44.35690262714919 13.3884
44.38094666145278 13.3386
44.4051806219871 13.3782
44.42922879003185 13.2677
44.45327901929361 13.2852
44.477331311362136 13.2543
44.501573600619416 13.2487
44.525630039221795 13.2398
44.54968854541895 13.2628
44.573937102200176 13.1823
44.5979997645541 13.1732
44.622064499300315 13.1496
44.64613130803592 13.1265
44.67038823869318 13.1106
44.69445921643748 13.1047
44.718532272981385 13.0719
44.742607409926194 13.0382
44.76687274034801 12.984000000000002
44.79095205918753 12.9719
44.81503346325094 13.0038
44.839116954143876 12.9412
44.86339071028742 12.911
44.88747839599524 12.8719
44.91156817336837 12.8493
44.93566004401666 12.823
44.959942251908146 12.8527
44.984038330325966 12.8198
45.00813650686762 12.7811
45.03223678314731 12.755
45.05652746888232 12.7414
45.08063196592069 12.7189
45.104738567558705 12.6939
45.128847275414856 12.7136
45.15314646515866 12.6295
45.17725940679741 12.6136
45.20137445952892 12.5961
45.22568004865265 12.5791
45.24979934496396 12.5533
45.27392075725247 12.5366
45.29804428714431 12.4866
45.322358426247604 12.435
45.346486212804315 12.4586
45.370616121861914 12.4418
45.39474815505086 12.3788
45.41907087049246 12.3533
45.4432071734666 12.3216
45.46734560548283 12.3725
45.49148616817604 12.3507
45.51581748638564 12.3033
45.5399623320197 12.3266
45.56410931325473 12.2653
45.58825843173002 12.2407
45.61259837920865 12.2361
45.636751793816 12.2426
45.66090735060093 12.1687
45.68506505120716 12.1486
45.7094136545275 12.120999999999999
45.73357566449271 12.1111
45.75773982322992 12.0925
45.78190613238733 12.0816
45.806263418194064 12.030999999999999
45.83043404997326 12.0456
45.85460683713677 12.022
45.87897065658495 11.9648
45.90314777634752 11.9545
45.92732705646868 11.9903
45.9515084986045 11.945
45.97588104735473 11.8836
46.00006683541565 11.9026
46.02425479047904 11.892999999999999
46.04844491420549 11.886
46.0728262191024 11.8265
46.09702070211635 11.8049
46.12121735879483 11.7652
46.14541619080294 11.739
46.169806278764455 11.7624
46.194009483459034 11.7314
46.21821486849841 11.6723
46.24242243555223 11.6798
46.266821333570014 11.6435
46.29103328674601 11.6156
46.31524742696538 11.5903
46.33946375590237 11.5304
46.36387149104216 11.571
46.38809221957392 11.5426
46.41231514186606 11.5335
46.436540259597464 11.5377
46.460956858999374 11.4575
46.48518638983522 11.4358
46.509418121166966 11.4142
46.533652054678114 11.4052
46.55807754555709 11.3866
46.58231590571962 11.3733
46.60655647313217 11.3323
46.630988654873654 11.327
46.655233659129024 11.2838
46.67948087571551 11.3064
46.70373030632484 11.2706
46.72817142736393 11.2602
46.752425308428684 11.2182
46.77668140861147 11.2208
46.80093972960865 11.1661
46.82538981736788 11.1375
46.849652602470904 11.1123
46.87391761349769 11.1011
46.8981848521493 11.0605
46.9226439341274 11.1007
46.946915650573224 11.0377
46.97118959976749 11.0054
46.99546578341598 11.0082
47.019933887188216 10.9962
47.04421456235744 11.0009
47.06849747711879 10.9635
47.09278263318286 10.9242
47.11725978640143 10.8725
47.14154944775105 10.8864
47.165841355555656 10.8694
47.1901355115306 10.8231
47.214621741924994 10.8398
47.23892041698887 10.8254
47.26322134538975 10.7675
47.28771440635075 10.7246
47.31201986422527 10.7657
47.33632758061436 10.7454
47.360637557241866 10.7195
47.38513974410611 10.6968
47.40945426407847 10.6519
47.43377104948137 10.6568
47.45809010204344 10.6432
47.48260144275502 10.6344
47.506925052572285 10.5881
47.53125093475548 10.5734
47.55557909103813 10.5362
47.58009961361992 10.5234
47.60443234110732 10.4897
47.62876734791564 10.5005
47.65310463578333 10.4698
47.6776343683373 10.4602
47.7019762413987 10.4329
47.72632040075572 10.3796
47.75066684815169 10.4042
47.77520581885936 10.3819
47.799556865477655 10.3399
47.823910205386 10.3728
47.84826584033272 10.3183
47.87281407745551 10.2769
47.89717432569297 10.285
47.92153687423484 10.3013
47.94609208429692 10.2854
47.97045925671401 10.2682
47.99482873471275 10.1997
48.01920052005013 10.1864
48.04376504619224 10.1661
48.068141469543484 10.1738
48.09252020552573 10.1476
48.11690125590099 10.0993
48.1414751266064 10.1267
48.16586082917454 10.1172
48.19024885144316 10.0937
48.2146391951793 10.0759
48.239222439012764 10.0543
48.26361744916137 10.021
48.28801478610016 9.99947
48.31241445160131 9.98092
48.337007097209366 9.95491
48.36141144338331 9.95155
48.38581812345755 9.90428
48.41022713920929 9.9158
48.434829215320704 9.874089999999999
48.45924292604658 9.87721
48.48365897780325 9.87556
48.50807737237308 9.8554
48.532688907799276 9.82501
48.55711201168574 9.798910000000001
48.581537463754074 9.772310000000001
48.60615611725119 9.7705
48.63058628942721 9.747010000000001
48.65501881516546 9.745619999999999
48.6794536962573 9.69173
48.70408185970339 9.67736
48.72852147531801 9.681460000000001
48.75296345168211 9.669410000000001
48.77740779059232 9.61127
48.80204549302823 9.64985
48.82649458091802 9.608139999999999
48.85094603676547 9.59125
48.87539986237231 9.56447
48.90004713292306 9.54319
48.92450572200832 9.5719
48.94896668628025 9.53565
48.97343002754588 9.48879
48.99808689542115 9.48847
49.02255501470614 9.46391
49.04702551642794 9.42657
49.0714984023988 9.42119
49.096164896893235 9.445910000000001
49.120642575466796 9.402610000000001
49.145122643748394 9.38504
49.16960510355558 9.33787
49.19428125404938 9.368739999999999
49.2187685210852 9.36055
49.243258185121555 9.31893
49.26794160167084 9.29616
49.2924360839405 9.2813
49.31693296869764 9.20995
49.34143225776915 9.24117
49.36612538195438 9.19583
49.39062950396021 9.17831
49.41513603578346 9.19547
49.4396449792564 9.18292
49.46434784069503 9.19383
49.488861631846454 9.15493
49.513377840166804 9.15904
49.537896467493745 9.10105
49.56260909589029 9.08732
49.587132585683285 9.094380000000001
49.611658500018365 9.057839999999999
49.636186840738596 8.99915
49.66090926588511 9.02588
49.685442483902584 8.97887
49.70997813385706 8.9879
49.734516217597076 8.95617
49.75924846937352 8.92479
49.7837914452858 8.915569999999999
49.80833686055187 8.91033
49.83288471702571 8.90644
49.85762682540054 8.89282
49.882179588965734 8.87415
49.9067347993235 8.819980000000001
49.93129245833333 8.79916
49.95604445336378 8.8286
49.98060703442832 8.78465
50.005172069746266 8.76099
50.02993150438364 8.74278
50.05450147301533 8.749360000000001
50.07907390151433 8.71978
50.10364879174981 8.66207
50.12841816587289 8.64816
50.1529980044635 8.6522
50.17758031042124 8.63477
50.20216508562089 8.649239999999999
50.22694442953363 8.60121
50.25153416817468 8.5915
50.27612638170508 8.598989999999999
50.300721072005196 8.5588
50.325510416102105 8.54601
50.350110084975064 8.525730000000001
50.37471223628208 8.48806
50.39931687190919 8.49468
50.424116246675766 8.51019
50.44872587605249 8.47296
50.47333799543065 8.44978
50.49795260670191 8.40375
50.52276204271512 8.387830000000001
50.54738166295838 8.40461
50.57200378079314 8.40812
50.596628398116835 8.37019
50.62144792604559 8.3501
50.646077567609396 8.34555
50.670709714377715 8.352260000000001
50.69553683636198 8.29053
50.72017401885922 8.32115
50.7448137122895 8.2879
50.76945591856022 8.23247
50.79429318636823 8.21579
50.818940443716784 8.21129
50.84359021965163 8.20651
50.868242516085964 8.186639999999999
50.893089960641895 8.18242
50.917747323549435 8.11276
50.94240721271973 8.13739
50.96706963007175 8.10951
50.99192728239342 8.12695
51.01659478166073 8.1121
51.04126481489051 8.11234
51.06593738400761 8.08775
51.090805275207074 8.07452
51.11548294172845 8.04513
51.14016314993547 8.02555
51.164845901758845 8.00071
51.18972406304274 7.971439999999999
51.21441192780656 7.961930000000001
51.23910234200271 7.9607399999999995
51.2637953075678 7.943389999999999
51.288683770237945 7.93687
51.31338186432707 7.91746
51.33808251561888 7.91815
51.362978729967345 7.87247
51.387684521509755 7.84323
51.41239287610203 7.81237
51.437103795691165 7.80369
51.46201036644977 7.8297
51.486726441956634 7.802810000000001
51.51144508832545 7.76634
51.536166307509156 7.77603
51.56108326624387 7.698169999999999
51.58580965706056 7.736669999999999
51.61053862657523 7.6722
51.635270176746864 7.67214
51.66019755512065 7.68266
51.68493429268881 7.6454699999999995
51.70967361681515 7.6497399999999995
51.73441552946465 7.649710000000001
51.759353359237934 7.64697
51.7841004750961 7.60429
51.80885018539685 7.6022
51.833602492111254 7.56663
51.8585508051424 7.5019100000000005
51.883308330926425 7.509010000000001
51.90806845906181 7.5011
51.932831191525715 7.4508399999999995
51.95779001977161 7.47191
51.98255798721516 7.481660000000001
52.00732856494335 7.47381
52.03229530577543 7.44106
52.057071130455945 7.412739999999999
52.081849571391054 7.4015
52.106630630568695 7.402839999999999
52.13160794279417 7.36965
52.15639426492067 7.3562
52.18118321127822 7.3837399999999995
52.205974783860896 7.30771
52.23096269971011 7.29315
52.255759551287994 7.29565
52.280559035098186 7.26846
52.30536115314103 7.29425
52.33035970494467 7.3007800000000005
52.35516711807904 7.25099
52.37997717147198 7.20552
52.40478986713005 7.2102
52.42979908731974 7.19804
52.454617094216 7.19037
52.47943774942214 7.14085
52.50426105495102 7.14213
52.529280976059844 7.16458
52.554109609024096 7.15523
52.57894089837482 7.10555
52.60377484613117 7.064960000000001
52.62880550079408 7.0819
52.65364479223379 7.08356
52.67848674816189 7.02915
52.70352547971946 7.037789999999999
52.72837279155837 7.0194399999999995
52.753222773982785 7.031610000000001
52.778075429022984 6.997260000000001
52.80312495150885 6.970280000000001
52.827982978797436 6.992210000000001
52.85284368481815 6.930630000000001
52.87770707160767 6.91586
52.90276741793998 6.905410000000001
52.92763619336701 6.90113
52.952507655698504 6.84722
52.977381806977576 6.87983
53.00245301017842 6.897539999999999
53.02733256653592 6.852689999999999
53.052214817996074 6.827560000000001
53.077099766608484 6.81657
53.102181859804446 6.811789999999999
53.127072229988265 6.84083
53.15196530349892 6.78414
53.17686108239249 6.728739999999999
53.20195409881522 6.67775
53.22685531582556 6.701219999999999
53.25175924441303 6.676480000000001
53.27666588664027 6.70436
53.30176985962693 6.70075
53.3266819565689 6.6707
53.35159677336455 6.65452
53.376514312083096 6.65268
53.40162927507703 6.6026
53.42655228516116 6.60855
53.45147802340193 6.574139999999999
53.47660125628886 6.5567
53.50153247842639 6.52265
53.52646643496923 6.59565
53.55140312799818 6.55403
53.576537409691696 6.52994
53.60147960336152 6.51812
53.626424539786164 6.48803
53.65137222105307 6.48758
53.67651758529126 6.48088
53.70147078399681 6.39763
53.72642673383343 6.45172
53.75138543689533 6.4271199999999995
53.776541917524526 6.39684
53.801506154876755 6.40624
53.826473151763246 6.35642
53.851442910284916 6.35611
53.87661054126026 6.35698
53.9015858509782 6.35166
53.92656392866066 6.310309999999999
53.95154477641532 6.34746
53.976723591801296 6.29859
54.00171000771266 6.27424
54.02669920004598 6.25537
54.051691170915745 6.25929
54.076881204886796 6.2356300000000005
54.101878760928514 6.25873
54.12687910187696 6.192080000000001
54.152077577768296 6.22693
54.1770835166946 6.1611
54.20209224691339 6.17855
54.22710377055121 6.16971
54.25231352511594 6.13532
54.27733066384342 6.10515
54.30235060239643 6.0715900000000005
54.32737334290836 6.06035
54.35259441062629 6.04533
54.377622783395324 6.05276
54.40265396455061 6.0134300000000005
54.42768795623251 5.99491
54.45292037169559 6.08603
54.477960012857906 5.97935
54.50300247099511 5.94555
54.52804774825457 5.8971
54.55329154616743 5.88813
54.57834249018678 5.93328
54.6033962597977 5.89325
54.6284528571545 5.8731599999999995
54.653708072335164 5.83974
54.67877035378786 5.812930000000001
54.70383546947698 5.79285
54.72890342156389 5.7697199999999995
54.7541700889442 5.75589
54.77924374251975 5.7716199999999995
54.8043202390049 5.76417
54.82959552413022 5.7282
54.8546777351945 5.69682
54.87976279569621 5.63666
54.90485070780914 5.6845300000000005
54.930137506558005 5.64128
54.95523115074295 5.61795
54.98032765308844 5.5942300000000005
55.005427015775496 5.5917
55.03072536339621 5.56431
55.05583047570572 5.52616
55.080938454927676 5.50744
55.10604930325027 5.52729
55.131359235107396 5.51133
55.15647585066083 5.48759
55.181595341907496 5.43848
55.20671771104285 5.37496
55.232039262617704 5.33586
55.25716741665048 5.3382
55.28229845518636 5.3604199999999995
55.30743238042802 5.24432
55.33276558731939 5.29481
55.357905315183636 5.2551
55.383047936390035 5.20611
55.40819345314859 5.22436
55.433538351073295 5.20177
55.458689688238415 5.22246
55.483843927614096 5.146780000000001
55.509197623043605 5.1382900000000005
55.53435769621134 5.08335
55.55952067826466 5.09202
55.5846865714265 5.04995
55.61005202069737 5.016369999999999
55.63522376553902 5.01415
55.66039842818645 4.99865
55.68557601087004 5.0063
55.7109532500271 4.97082
55.73613670233794 4.96307
