TT I
1.2716486653135266 7.29422
1.2939594142134223 7.027660000000001
1.3162702121660406 6.9653
1.3385810600174564 6.19035
1.3608919586137629 6.37509
1.383202908801069 5.89578
1.405513911425503 6.00345
1.4278249673332093 6.77216
1.4501343378461518 6.01397
1.4724455028545926 5.6394400000000005
1.4947567236847858 5.29723
1.517068001182951 6.35724
1.5393793361953272 6.04671
1.5616907295681737 5.68436
1.5840021821477681 4.96737
1.60631369478041 5.120769999999999
1.6286252683124185 5.60991
1.6509369035901333 5.1470199999999995
1.6732468618895553 4.700830000000001
1.695558623192809 4.87265
1.7178704487808514 4.98261
1.7401823395001077 5.25994
1.7625012545597203 5.19113
1.7848028405262486 5.1384
1.8071218901122095 4.53418
1.8294236121921872 4.61236
1.8517427996910911 4.36236
1.8740620574440425 4.34094
1.8963639900671978 4.78111
1.9186833908139995 4.33332
1.9409854680117449 4.30877
1.9633050151394713 4.59806
1.9856246367570705 4.98495
2.0079269371922672 4.34178
2.03024671027244 4.2783
2.0525491637446027 4.50376
2.074869091674931 4.51647
2.097171701569106 4.25759
2.1194917877373847 5.03488
2.141811954326636 4.5113199999999996
2.164114805233074 5.23038
2.186435135143035 6.27142
2.208738150935709 13.617
2.231058647554722 27.9277
2.2533792288321184 21.3377
2.275682498336085 10.2076
2.298003251406138 5.96054
2.3203066942619714 5.42949
2.3426276225136022 5.451630000000001
2.3649486396617507 5.44949
2.387252348930071 5.7784
2.4095735463442893 5.78734
2.4318774374315884 5.88149
2.4541988185014043 6.41626
2.476502894794693 7.003939999999999
2.498824462909887 6.25497
2.521146125856138 6.92542
2.5434504863470337 7.2272
2.5657723414244717 7.367839999999999
2.588076895590662 8.39412
2.610398946189713 7.98009
2.6327210958598384 8.26267
2.6550259469304716 7.732189999999999
2.6773482972090137 8.00259
2.6996533504259 7.878360000000001
2.7219759047039602 8.42865
2.744298562293959 8.51348
2.7666039251246595 8.16682
2.7889267918020164 7.87149
2.8112323652516555 7.97116
2.833555444408179 8.37813
2.8558786311183852 7.74685
2.8781845268938557 8.44228
2.9005079311721484 9.15338
2.9228140460410397 9.020480000000001
2.9451376712799635 9.50831
2.967444008632326 9.35997
2.9897678582247247 9.5347
3.0120918213106695 10.2429
3.0343984987899373 10.4774
3.0567226913198637 11.2069
3.079029599759726 11.6748
3.101354025127254 12.6401
3.123678568232338 12.5104
3.145985829517914 12.6606
3.16831061055229 13.5996
3.1906181112775593 13.9958
3.212943133635653 14.7952
3.2352682779763207 15.1119
3.2575761442691227 15.2277
3.2799015350264273 15.9125
3.302209649240067 16.2953
3.3245352898092655 16.6328
3.3468436553365257 17.2889
3.369169549113219 17.3129
3.3914955708171384 18.2723
3.413804319727358 18.7336
3.4361305997334863 19.0953
3.4584396084414553 19.632
3.4807661501462652 20.2749
3.503092824025881 20.6498
3.5254022288463154 20.9618
3.5477291695206588 21.8132
3.5700388426251948 22.3405
3.5923660534916446 23.8571
3.6146934007816114 38.6649
3.637003482731501 89.2923
3.6593311053109985 100.531
3.681641464033634 57.388000000000005
3.7039693653009733 31.1005
3.726297407241705 26.14
3.7486081875460804 25.5551
3.7709365132734978 26.2047
3.793247578841633 26.7994
3.8155761917550093 26.9441
3.8378875459837216 27.2928
3.8602164494827234 27.6332
3.882545499606844 28.2699
3.9048572932539183 28.9246
3.9271866390645718 29.0848
3.9494987298666713 30.0296
3.971828374764527 30.3955
3.9941581705403255 30.906
4.016470713506008 31.3248
4.038800813471445 31.9378
4.061113662089144 32.4987
4.0834440696459176 33.5933
4.105774632334751 34.0519
4.128087945865126 34.5942
4.150418821249301 35.6521
4.172732448931298 37.0334
4.195063640413578 38.6567
4.2173775856475215 42.9938
4.239709096631102 75.2075
4.262040768704612 236.81599999999997
4.284355196706267 320.861
4.306687193387355 207.013
4.329001947444346 82.0075
4.35133427213731 48.3273
4.373666762177566 44.852
4.395982011761091 44.246
4.418314834921175 45.5097
4.44063041906622 53.351000000000006
4.4629635787515625 64.7829
4.4852969080429785 64.8306
4.5076130004776225 54.4561
4.529946671403969 50.8501
4.552263106909177 50.1449
4.574597122877047 51.3531
4.596931312711224 52.358999999999995
4.619248269273446 53.6678
4.6415828092605835 54.5509
4.663900117405352 55.6202
4.686235010953232 56.971000000000004
4.708552674085913 58.1297
4.730887924602802 59.7152
4.753223354952695 61.2882
4.775541557023902 62.5627
4.797877349456786 64.0568
4.820195915032126 66.1071
4.842532072957498 67.2387
4.864868414979744 69.4693
4.88718753227192 71.12
4.909524244902505 73.0219
4.931843734218147 75.0023
4.954180820867835 77.5723
4.976518095879839 80.7899
4.998838149695359 83.8273
5.021175803844231 86.9187
5.043496238205739 90.1776
5.065834274903528 94.3771
5.088172504230693 99.2894
5.1104935158799565 106.448
5.132832132875765 128.643
5.155153533596801 171.963
5.1774925416746225 207.72299999999998
5.199814334878411 353.973
5.2221537374521505 1004.24
5.244493338631803 2938.41
5.266815727034316 7575.65
5.289155727832427 12657.4
5.311478517248165 8845.51
5.333818921080011 3021.39
5.356159527788849 620.2280000000001
5.3784829252032536 195.898
5.400823940070432 147.381
5.423147747031976 130.406
5.445489173474152 120.74700000000001
5.467830807066149 114.7
5.490155234831516 110.236
5.512497285125229 107.071
5.534822130975162 104.897
5.557164601388673 102.765
5.579489868738879 99.9689
5.601832762690846 98.7015
5.6241758697774475 97.96600000000001
5.646501775867269 97.2693
5.668845311622074 96.0687
5.691171647754637 94.3879
5.713515615597765 93.6221
5.735859800852677 92.6281
5.758186788542988 91.7507
5.780531411018185 92.1198
5.802858837297399 91.494
5.825203900414495 91.2502
5.8475491852224 91.9422
5.869877275883075 92.0788
5.892223006467101 93.2715
5.914551544266608 94.583
5.936897724049891 97.2499
5.959244129804903 101.969
5.981573344815301 119.42299999999999
6.0039202049061 204.52
6.026249875609095 455.858
6.04859719346037 978.311
6.070927323278297 2207.43
6.093275102315365 4341.49
6.115623113320588 5349.2
6.137953938319995 3549.54
6.160302415650845 1088.27
6.182633708324452 256.007
6.2049826554078376 119.02799999999999
6.227331838745022 94.4431
6.249663839443684 86.3421
6.27201349767565 83.4682
6.294345974611799 90.0997
6.316696111167083 101.21600000000001
6.339046488263839 95.2953
6.361379686074702 80.5799
6.383730546639482 72.4424
6.406064229255215 69.1508
6.428415576718203 69.0639
6.450749747566656 67.79
6.47310158535871 66.3207
6.495453669698332 65.5542
6.517788579421056 65.3381
6.540141159237969 64.3758
6.562476565766648 63.8979
6.5848296444934045 63.3957
6.607182974060425 62.9197
6.6295191323281015 62.8721
6.651872965955752 66.6887
6.6742096296068985 92.834
6.6965639707294615 139.666
6.71891856698715 140.543
6.741255995248479 95.682
6.763611104154477 68.6978
6.785949046381137 60.9671
6.808304671371482 58.8866
6.8306605557940046 58.3177
6.852999275508618 57.8081
6.875355681171544 57.3413
6.897694923437771 57.3313
6.92005185377892 57.1768
6.9423916220322655 56.9075
6.964749080490181 55.7722
6.987106804399774 55.6775
7.009447368180821 56.0381
7.031805625367033 55.7083
7.054146723727803 55.6403
7.076505517631004 55.711999999999996
7.098864581288365 55.8998
7.121206488070854 55.3605
7.143566093607822 55.1649
7.165908543567245 55.589
7.188268694426048 55.8682
7.2106291193438095 55.5443
7.232972390625943 57.1152
7.255333366030969 70.0553
7.277677189091925 125.245
7.300038718428332 173.87599999999998
7.322400526130865 147.903
7.344745183422596 90.4887
7.367107550224791 62.5005
7.389452767901992 56.7336
7.411815697249891 55.8871
7.434161478756298 54.9665
7.456524974096713 54.5841
7.478888753837185 54.7156
7.501235387657368 54.7217
7.523599738562711 54.7487
7.545946944825532 55.3689
7.568311870344528 55.7155
7.5906770845765665 55.8619
7.613025156078678 57.125
7.635390950099687 58.2046
7.657739602662809 57.2859
7.680105979923558 56.0555
7.702472650212829 56.5534
7.724822180948224 56.0586
7.747189439655568 56.3134
7.769539560075357 56.6093
7.791907410653562 56.8079
7.81425812420825 56.9605
7.836626570110925 56.8848
7.858995315087906 57.9402
7.881346924933401 58.2152
7.903716270417482 58.346000000000004
7.926068482028405 59.0216
7.948438431475253 59.5221
7.9708086843180235 60.0116
7.993161805171116 60.9631
8.015532667162402 61.1029
8.037886398416653 62.0484
8.060257873014221 62.8157
8.082629655331942 63.3004
8.104984308787587 64.1411
8.127356708900503 67.4369
8.149711981398308 73.3721
8.172085002766314 75.7591
8.194458336181368 72.2797
8.216814543847752 69.8455
8.23918850371002 69.7271
8.26154533906492 70.4786
8.283919928836452 72.041
8.306277395339652 72.9873
8.328652618483376 74.3004
8.351028159736202 76.2136
8.373386579575245 78.5799
8.395762759396959 80.5004
8.418121819038275 85.5789
8.440498640894003 98.7545
8.462875785192262 113.06700000000001
8.485235811156207 123.897
8.507613602688501 162.471
8.529974277114228 249.84
8.552352719347912 387.911
8.574731488360351 652.2230000000001
8.59709314210385 1190.35
8.619472567021075 1857.72
8.64183487789147 2194.37
8.664214962183097 1797.24
8.686577933647762 987.758
8.708958680784317 402.551
8.731339760774953 172.953
8.753703729764451 114.805
8.77608547780821 100.556
8.798450116065078 96.0937
8.820832535634787 93.3842
8.843215292401656 91.59200000000001
8.865580941199045 90.4019
8.887964374703538 89.0841
8.910330701447199 89.7609
8.932714815164482 92.5034
8.955099270424924 91.4062
8.977466620733543 88.177
8.999851761421976 85.8037
9.022219798361645 84.2386
9.04460562795561 84.0436
9.066991803441677 83.2832
9.089360876979615 83.0399
9.111747746589993 82.5574
9.13411751544971 82.3253
9.156505082664324 81.8859
9.178875550323522 82.1329
9.20126381862328 82.5689
9.223652438908596 83.363
9.246023961427412 83.0847
9.26841328802173 82.3834
9.290785518039224 82.271
9.313175554425882 83.0758
9.335565947154315 82.8494
9.357939245086508 82.929
9.380330352834827 83.4297
9.40270436697103 83.4393
9.425096193225055 82.6903
9.447488380180165 83.932
9.469863475295412 84.3352
9.492256385987508 84.8444
9.514632206018318 85.3413
9.537025843935714 86.1049
9.559402392368193 86.5761
9.581796761000229 87.5887
9.604191496441521 88.6501
9.626569144158516 92.2576
9.648964615551032 96.7863
9.671343000390081 98.3774
9.693739211225699 96.61200000000001
9.716135793237463 94.0688
9.738515290448102 93.5909
9.760912617143402 94.1408
9.783292860202891 95.1317
9.805690935076182 96.3429
9.828089385495742 97.6878
9.850470754023561 100.35799999999999
9.872869957865444 108.10600000000001
9.89525208097539 123.47
9.917652041736662 136.276
9.940052382417589 135.216
9.962435644102392 140.274
9.984836746950979 173.7
10.007220771957746 236.532
10.029622640473708 339.69300000000004
10.052007432299963 517.862
10.074410069984072 819.19
10.096813093716005 1248.59
10.119199042482517 1723.95
10.141602840636468 1885.38
10.163989564971628 1584.14
10.186394141051062 938.086
10.208799107559706 424.532
10.231187001965623 197.918
10.253592751657669 129.91899999999998
10.275981430388155 114.94200000000001
10.298387966769793 114.27
10.320794897965431 116.375
10.343184759907361 115.24600000000001
10.36559248305461 109.521
10.387983138083852 105.178
10.410391656691655 107.102
10.432800574501677 117.541
10.455192425893369 133.999
10.47760214443012 159.67600000000002
10.499994797678786 203.458
10.522405320453982 282.214
10.54479877906917 400.37199999999996
10.567210109595656 501.616
10.5896218454736 567.529
10.612016518879773 493.089
10.634429067781074 345.281
10.656824555333241 205.484
10.679237920773568 126.848
10.701651695961992 97.2643
10.724048411481384 90.2877
10.746463008485165 87.2465
10.768860546937125 85.2624
10.791275969274796 83.5055
10.81369180576079 82.4947
10.836090585366925 81.7268
10.858507252467449 80.4843
10.88090686379991 79.3679
10.903324365036394 78.8757
10.925724811614439 78.8837
10.948143150509463 79.8806
10.970561909719066 79.3361
10.992963615930844 77.3524
11.015383218085756 75.291
11.037785768347074 73.5559
11.06020621697282 73.0955
11.082627090322113 72.41
11.105030913430326 72.3107
11.12745263854165 72.8252
11.149857314510728 76.5544
11.172279894912576 82.7026
11.194702904450653 82.9431
11.217108866490921 78.9933
11.239532736615194 74.5799
11.26193956033512 72.3932
11.284364294577085 70.6735
11.306789462371718 68.5581
11.329197585398376 67.47
11.351623622610898 67.3567
11.37403261614354 66.4229
11.396459526308487 66.3666
11.418869393879497 65.8399
11.441297180532617 65.32600000000001
11.463725406927658 64.9248
11.486136592353875 65.025
11.508565700543707 65.6055
11.530977768845315 67.4799
11.553407762368774 68.328
11.575838200059769 67.5842
11.598251599479612 65.7071
11.620682927815501 64.2166
11.64309721895548 63.7584
11.665529441478206 63.5659
11.687962112597958 63.2565
11.710377748130886 63.2363
11.732811318753434 63.1151
11.755227854859067 63.135
11.777662328529495 63.2786
11.800079768750786 63.0236
11.822515149015453 62.6836
11.844950984084935 62.9429
11.867369787303163 62.4738
11.889806534289491 62.3041
11.912226250487029 63.0508
11.934663912939751 63.3737
11.9571020346363 63.3393
11.979523127133968 62.8963
12.001962169624331 63.7486
12.024384183972964 64.9076
12.046824150809913 67.7572
12.069264581333726 72.8403
12.091687985297767 79.0489
12.11412934550045 88.662
12.136553680195208 103.331
12.158995973632788 125.26700000000001
12.181438735204349 153.851
12.20386447284199 182.158
12.226308172985636 202.726
12.24873485024193 198.99400000000003
12.271179492516982 168.237
12.293607112949127 131.731
12.316052700916226 98.2194
12.338498763250042 80.2757
12.360927805303868 71.0084
12.383374818673879 67.0051
12.405804812803074 64.8355
12.428252780773262 64.5324
12.45070122756722 64.6022
12.473132656675375 64.407
12.49558206341869 64.6204
12.518014453510101 64.464
12.540464823770117 64.7316
12.562915677315177 65.0906
12.58534951575545 65.8486
12.607801338171472 67.9208
12.630236146511358 73.2123
12.652688941369085 78.1381
12.675124723177234 78.3365
12.697578494048786 74.5821
12.720032754458185 70.3446
12.742470003354093 68.5272
12.764925245138771 68.2201
12.787363476431278 68.3096
12.809819703166806 68.9768
12.83227642391173 69.4478
12.854716135692716 69.9749
12.877173846755147 70.8964
12.899614549869717 71.1435
12.9220732548287 71.9807
12.94453245827299 72.5267
12.966974655289818 73.656
12.989434858002571 74.2018
13.011878055298721 74.9949
13.034339260862497 76.0299
13.056800969391883 77.1427
13.079245674017244 78.6859
13.101708390774869 80.9313
13.12415410463411 87.6876
13.146617833206086 99.2695
13.169064559883248 111.75299999999999
13.191529303857127 126.699
13.213994557076367 149.07
13.236442809902437 184.872
13.258909083908291 238.025
13.28135835851934 301.161
13.30382565690295 365.592
13.326293469022952 414.029
13.348744283242008 422.099
13.371213125129904 367.82300000000004
13.39366497011003 274.991
13.416134845360597 183.142
13.438605238843131 128.672
13.46105863690397 107.48899999999999
13.483530069144786 105.721
13.505984506951902 110.626
13.528456981549432 120.126
13.550929978879088 135.19799999999998
13.573385983253365 159.452
13.595860028340867 197.922
13.618317081455832 249.707
13.64079217790333 302.768
13.663250283359057 345.723
13.685726434770173 366.986
13.708203115221277 341.839
13.730662806148091 267.972
13.75314054697177 193.97
13.775601299246777 133.338
13.798080104050406 100.40700000000001
13.820559442405358 86.5231
13.843021793671388 82.4382
13.865502201420897 80.7543
13.887965623051947 80.0833
13.910447103807167 78.6422
13.932929122629764 77.433
13.955394156785959 77.0864
13.977877254034569 76.1961
14.000343367582113 75.4626
14.022827546871707 74.9102
14.045294743423524 74.0448
14.06778000837062 73.3289
14.090265817715476 73.3668
14.112734645763819 73.1923
14.13522154619454 72.764
14.157691466286913 72.7827
14.180179461423874 72.6798
14.202668005486178 71.8233
14.22513957064374 71.1888
14.247629214846473 70.5049
14.270101881097517 70.3863
14.29259262906496 71.0877
14.315083930490205 71.8499
14.337558255389705 72.0105
14.360050666019726 71.445
14.382526101071944 70.6996
14.405019624534942 69.7406
14.427513705993134 68.9864
14.449990813291825 69.0159
14.47248601302899 68.8378
14.49496423954951 68.9634
14.517460561197822 69.195
14.539939910570322 68.9651
14.562437357763558 69.5873
14.58493536931253 70.6302
14.607416409993311 71.3965
14.62991555254159 71.9376
14.652397725157423 71.7658
14.674898002342799 71.3897
14.697398848433282 70.6442
14.719882725991326 71.3692
14.74238471217934 72.1442
14.764869730765593 74.945
14.787372860692983 78.6713
14.809876564079925 83.2846
14.83236330125751 89.0816
14.854868153850365 97.6258
14.877356041159485 111.652
14.899862046604186 129.401
14.922351087688757 154.045
14.944858249632887 182.11700000000002
14.967365991421232 205.25
14.989856770231246 216.42700000000002
15.012365673994204 215.942
15.03485761569738 189.581
15.05736768508665 153.387
15.07987833888692 118.273
15.102372032001655 93.7162
15.124883856909658 78.6403
15.14737872204565 72.9658
15.169891721717274 70.9867
15.192405310371893 70.8256
15.214901940621196 71.2094
15.237416709527137 71.3104
15.259914520936249 71.4274
15.282430473753607 70.6908
15.304947020131227 69.4691
15.327446610371178 68.2982
15.349964346154254 67.5739
15.372465126703139 67.3502
15.394984055556009 66.7906
15.417486030076159 66.7233
15.44000615566487 66.3902
15.462526881230803 66.5734
15.485030653812652 66.7438
15.507552581617434 66.6253
15.530057557334603 66.6401
15.55258069104857 66.4722
15.575104429329837 66.4521
15.597611216864632 65.9988
15.620136166564563 66.1061
15.6426441664095 66.8245
15.665170331202765 68.9851
15.687697105158826 72.0751
15.710206930593545 75.7981
15.732734925158933 79.9438
15.755245972089478 85.9061
15.77777519094324 95.2213
15.800287463046663 108.404
15.822817909869592 126.595
15.84534897229804 147.097
15.867863089299354 168.36700000000002
15.890395385222186 184.752
15.912910736597423 191.952
15.935444269699861 181.054
15.957978423016485 156.14600000000002
15.980495633101265 126.464
16.003031029129367 98.9333
16.02554948280019 79.0413
16.048086125229432 69.0331
16.070623392487107 65.9235
16.09314371869582 65.0734
16.11568223789321 64.1587
16.13820381691126 63.0461
16.160743591742527 61.9032
16.183283996022084 60.9958
16.205807461423195 59.9348
16.228349126881973 59.1293
16.25087385432698 59.3086
16.27341678466365 58.6093
16.29594277784926 58.6517
16.31848697676433 58.9866
16.341031811604868 59.3293
16.36355971058487 59.5657
16.3861058195587 59.278999999999996
16.40863499352978 58.1417
16.431182380342005 56.9944
16.453730407713202 56.5656
16.476261501364792 56.1262
16.498810812136167 55.7349
16.52134319004079 55.9442
16.54389378792203 55.6417
16.566445031001553 55.4389
16.588979342490088 55.3917
16.61153187824822 55.4286
16.634067483263312 55.2541
16.656621315414416 55.0762
16.679175797408888 54.8782
16.701713349928728 54.9422
16.72426913389191 55.0922
16.74680798922351 55.2098
16.76936507887444 55.451
16.791905240734874 55.251000000000005
16.814463639794468 55.1367
16.837022695210294 55.1908
16.859564824093756 55.5595
16.882125194503903 56.1979
16.904668639217885 57.071999999999996
16.927230328348003 57.3141
16.949792678493612 57.1634
16.972338104193863 56.4159
16.994901778652235 55.9701
17.017448529496576 55.9339
17.040013531998152 56.0125
17.06257920018044 56.5058
17.0851279459922 57.1454
17.107694947817667 58.1013
17.130245028099072 58.8439
17.15281336730298 60.2714
17.17536478578733 61.9737
17.19793446610687 64.131
17.220504818648422 66.9432
17.243058251703697 70.1365
17.265629950971032 74.5902
17.288184731571736 78.9815
17.310757781306908 82.6166
17.33333150794385 83.9458
17.355888317140174 82.8291
17.37846339986244 78.491
17.401021565958885 73.0358
17.42359800851343 67.3867
17.44617513265564 62.9789
17.468735341390783 60.645
17.491261035594565 59.622
17.51396340099364 59.3003
17.536490463869136 59.3214
17.559018209820174 59.4325
17.58154663977963 59.6355
17.604251766089718 59.6207
17.626781572227713 59.8392
17.64931206518155 60.1139
17.671843245885103 60.6485
17.69455114821572 60.9388
17.717083712612634 61.0519
17.739616967569667 61.1862
17.762150914021706 61.5503
17.78486160749854 61.562
17.807396945166804 62.2227
17.829932977143503 62.7151
17.85246970436452 64.4775
17.875183204129467 66.2565
17.897721330097664 68.3626
17.920260154126645 70.6979
17.942799677153296 73.9067
17.9655159983646 77.7514
17.988056927677544 83.1325
18.010598558807683 90.6385
18.033140892692916 100.506
18.05586005052525 110.975
18.07840379824407 121.64399999999999
18.10094825154059 132.055
18.12366954819864 138.283
18.146215420998306 139.68200000000002
18.16876200220057 131.684
18.191309292745153 118.88799999999999
18.214033452627167 105.39
18.236582170236648 94.2348
18.259131600016456 87.9435
18.281681742907335 87.6903
18.304408781233683 91.2534
18.32696035875955 95.4095
18.349512652227624 99.9853
18.372065662579683 104.45299999999999
18.394795594587553 105.554
18.41735004715306 103.48
18.43990521943684 97.4126
18.46246111238171 88.6231
18.485193953325208 79.0994
18.507751296070428 71.5097
18.530309362314178 66.9813
18.552868153000343 64.3646
18.57560391815056 62.6785
18.59816416623245 62.1394
18.620725141597372 61.7524
18.643286845190268 61.3396
18.666025549835414 60.9909
18.688588718427933 60.3773
18.711152618092243 59.917
18.73389353884365 59.5956
18.75645890921984 59.395
18.77902501351406 58.8769
18.801591852673102 59.0899
18.824335739722738 58.437
18.846904057212626 58.4476
18.8694731124168 58.1055
18.89204290628315 58.1694
18.914789774966803 57.8787
18.937361054791623 57.6718
18.959933076131318 57.4234
18.982505839934877 57.3696
19.00525570560582 57.3876
19.027829963004184 57.0684
19.05040496572238 57.2815
19.072980714710468 57.3372
19.095733592739563 57.4053
19.11831084296757 57.8009
19.140888842324735 58.2258
19.16346759176222 58.2535
19.18622349753803 59.0109
19.208803755869358 59.9705
19.231384767143577 61.0607
19.253966532312948 62.7157
19.276725481241822 64.5919
19.29930876296784 66.9238
19.3218928014549 69.8103
19.34465404436217 72.8628
19.36723960516257 75.3009
19.389825925592426 76.3492
19.412413006605938 75.7596
19.43517731967805 72.8507
19.457765930683355 68.4768
19.48035530514408 64.168
19.50294544401556 60.2747
19.525712842708348 57.5547
19.54830451925909 55.6387
19.570896963095727 54.5929
19.593490175174704 54.3093
19.616260674962184 54.0275
19.638855432416964 53.9515
19.661450960992624 54.0081
19.68404726164677 53.7572
19.706820878021247 53.5029
19.729418731756834 53.882
19.752017360452857 53.3929
19.77461676506804 53.6793
19.797393513540218 53.9076
19.819994478951667 54.1703
19.84259622316767 54.6286
19.8651987471481 55.0558
19.887978643247177 55.2039
19.91058273574792 55.8375
19.933187610901943 56.6434
19.955969879466828 57.6211
19.97857632894404 58.9665
20.00118356396599 60.6625
20.023791585494575 62.5982
20.046577028914875 65.2305
20.069186632506966 67.4776
20.091797025500632 69.0288
20.114408208858933 69.6206
20.137196842715273 69.5355
20.159809615886765 68.3713
20.18242318232135 65.9272
20.20503754298326 64.2496
20.227829382875154 63.0178
20.250445341109344 62.748000000000005
20.27306209647285 63.3507
20.29567964993108 64.1159
20.31847471147704 65.1448
20.34109387027612 65.9939
20.363713830075454 65.797
20.386334591841646 64.46300000000001
20.409132890679302 62.1731
20.431755265564437 59.1994
20.454378445325528 56.4157
20.477002430930366 54.2393
20.499803982716553 52.9056
20.522429589228004 51.9751
20.54505600449589 51.6874
20.567683229489194 51.3601
20.590488049900088 51.0166
20.61311690359731 50.4281
20.63574656993626 50.3947
20.658553853717297 49.9489
20.681185154618298 49.8012
20.703817271080066 49.6942
20.72645020407368 49.475
20.749260783967177 49.3803
20.771895359337133 49.2906
20.794530754161617 49.2509
20.817166969412938 49.121
20.83998086114876 49.1406
20.86261872660049 48.9802
20.885257415405402 48.992
20.90789692853701 48.7877
20.930714147864748 48.6023
20.953355319030678 48.8016
20.97599731745334 48.9396
20.99864014410749 48.6813
21.021460706796564 48.7193
21.044105199328826 48.956
21.06675052302631 49.1953
21.089396678865015 49.3738
21.112220600704806 49.8175
21.134868430275347 50.1803
21.15751709492456 50.2609
21.180166595629693 50.7191
21.202993892429635 51.0211
21.22564507473034 51.37
21.24829709602816 51.5743
21.27112693608965 51.6808
21.293780644891275 51.6074
21.316435195634053 50.8853
21.339090589297417 50.1862
21.361923832041875 49.9015
21.384580921090404 49.2113
21.407238856007325 48.6207
21.429897637773326 48.7378
21.45273429906592 48.6349
21.475394784108598 48.435
21.498056118951983 48.5726
21.520718304578022 48.8278
21.543558400304388 48.9271
21.566222297108816 49.0972
21.58888704765135 48.9711
21.61155265291521 49.3712
21.63439619898156 49.8136
21.657063523335786 50.2047
21.67973170537063 50.6179
21.7024007460706 51.0945
21.72524775840385 52.0201
21.747918526116475 52.721000000000004
21.770590155457388 53.9057
21.79326264741238 55.5045
21.816113141960237 57.3786
21.838787368860547 59.2098
21.861462461341976 61.1609
21.884315579735777 62.6047
21.90699241312273 63.8868
21.92967011506078 64.4927
21.95234868653799 64.3662
21.9752053151131 63.6392
21.997885635446785 62.0266
22.020566828293532 60.0471
22.04324889464272 58.3713
22.066109049404666 57.056000000000004
22.088792872571794 56.4601
22.111477572219204 56.2098
22.1341631493376 56.2864
22.157026846313123 56.1407
22.179714188221507 55.7308
22.202402410582668 54.5475
22.22509151438863 53.1213
22.24795876962584 51.835
22.270649646204486 50.9624
22.293341407213727 50.284
22.316034053646906 49.7629
22.338904883215342 49.3379
22.36159931041458 49.3301
22.38429462602756 49.3247
22.40699083104897 49.1247
22.429865251039757 49.0981
22.452563244831367 49.0753
22.47526213102522 49.0287
22.49813925616515 48.9729
22.520839937143307 48.8424
22.543541513520587 48.8557
22.56624398629403 48.633
22.589124730075895 48.6392
22.611829005656723 48.9396
22.63453418063466 48.9023
22.657240256008077 48.9615
22.680124634582935 49.0589
22.70283252079775 49.5364
22.725541310413075 49.7265
22.74825100442868 49.8784
22.771139033969575 50.4694
22.79385054687155 50.6334
22.81656296718292 51.361999999999995
22.83927629590484 52.1003
22.862167992606945 53.2302
22.88488314827121 54.2624
22.907599215359284 55.244
22.93031619487366 56.342
22.953211574954405 57.1518
22.975930389478226 57.7374
22.998650119445763 58.1867
23.02137076586092 57.8107
23.044269845560063 56.4958
23.06699233506288 54.8967
23.089715744034912 53.3619
23.112617610931565 51.7868
23.135342869061212 50.3551
23.158069049684816 49.6004
23.1807961538087 49.052
23.20370174880544 48.9831
23.226430710184808 49.0714
23.249160598093425 49.0511
23.271891413539002 49.0515
23.294800752937697 49.08
23.31753343374794 49.1877
23.340267045128353 49.243
23.36300158808808 49.6628
23.38591468821339 49.9402
23.408651104658304 50.4501
23.431388455719986 51.1176
23.454126742409 51.8469
23.4770436196085 53.0369
23.499783787914662 54.1478
23.522524894889884 55.0543
23.54526694154616 55.9313
23.56818761219047 56.9466
23.59093154860734 57.3236
23.613676427751283 57.9996
23.636422250635754 57.2873
23.659346731118656 55.9885
23.68209445191868 54.1868
23.704843119509587 52.224
23.72759273490623 50.0857
23.750521041644767 48.8555
23.77327256312355 47.6017
23.796025035462787 46.8027
23.818956224555475 46.3202
23.841710609113413 46.1041
23.86446594758979 45.9749
23.887222241002014 45.9045
23.910157285144578 45.4441
23.932915498962537 45.3659
23.955674670778713 45.2442
23.978434801611975 45.0171
24.001373717286125 44.9554
24.024135776723917 44.9652
24.046898798245582 44.8452
24.06966278287146 44.7728
24.092605586582614 44.5211
24.115371508023642 44.3155
24.1381383956401 44.1501
24.16090625045381 44.1798
24.183852958731244 44.1104
24.206622758582608 44.1441
24.229393528706886 43.7361
24.252165270127392 43.9046
24.27511589952438 43.9445
24.297889594216997 43.5175
24.32066426328598 43.5856
24.34343990775613 43.5494
24.36639447485003 43.4228
24.38917208083877 43.4701
24.41195066531332 43.2644
24.43490819850244 43.4284
24.457688750692377 43.3496
24.48047028445616 43.1862
24.503252800821233 43.3231
24.526214300784112 43.4557
24.548998793132213 43.3658
24.57178427117417 43.1274
24.59457073593893 43.1952
24.617536219319863 43.2547
24.64032466834748 43.2149
24.663114107195035 42.928000000000004
24.685904536893013 42.8826
24.708874020360852 42.7347
24.731666442613744 42.6738
24.754459858818787 42.5796
24.777254270007962 42.6525
24.80022777025625 42.4192
24.82302418230472 42.4154
24.845821592443674 42.5283
24.86862000170663 42.4554
24.891597535453727 42.2758
24.914397953892728 42.4212
24.93719937456671 42.4009
24.96000179851076 42.4589
24.98298338249997 42.6514
25.00578782394922 42.8277
25.028593271784167 43.0056
25.05157790644186 43.5044
25.07438537804115 43.5469
25.097193859145293 43.693000000000005
25.120003350792075 44.07
25.142992065061257 44.263999999999996
25.165803588823465 44.4256
25.18861612625217 44.7136
25.211429678386736 44.7415
25.234422489079968 44.973
25.257238081693636 45.0925
25.280054692141732 45.1467
25.3028723214652 45.1153
25.325869245420463 45.0738
25.348688923599397 45.0468
25.371509623787006 44.9933
25.394331347025812 44.8101
25.41733240110666 44.4589
25.440156181590016 43.9088
25.46298098826268 43.2704
25.48580682216873 42.7165
25.50881202326435 42.2297
25.53163992281684 41.7148
25.55446885274561 41.3592
25.577298814096377 41.0862
25.600308179121807 40.9543
25.623140214533745 41.0719
25.64597328451537 41.1203
25.66898578564376 40.7894
25.691820936010206 40.825
25.714657124097695 40.7774
25.737494350954734 40.6635
25.760511045684957 40.6812
25.783350361364224 40.7866
25.806190718969255 40.8532
25.82903211955018 40.7535
25.852053024868923 40.8087
25.874896522722523 40.8547
25.897741066713106 40.8039
25.920586657892454 40.8965
25.943611790812668 40.9721
25.966459487728237 41.1335
25.989308234998564 41.1643
26.01215803367705 41.5751
26.03518741123814 41.6902
26.05803932412957 41.7852
26.080892291600094 41.7422
26.10374631470478 41.8422
26.12677995397268 41.9135
26.14963609978026 41.8795
26.172493304397875 41.5882
26.19535156888223 41.4286
26.218389486949604 40.9684
26.241249882640123 40.7921
26.26411134137826 40.5933
26.28715248187403 40.5885
26.31001607820869 40.4128
26.3328807407756 40.1105
26.35574647063438 40.3188
26.37879191991473 40.2297
26.401659795896734 40.3652
26.424528742360263 40.4547
26.447398760366614 40.6861
26.470448535598294 40.7968
26.49332070826805 40.9686
26.516193955675355 41.284
26.53906827888316 41.4597
26.562122397260108 41.707
26.584998883685063 42.0
26.607876449110325 42.1395
26.63075509460056 42.2299
26.65381357334404 42.3091
26.67669439061878 42.2549
26.699576291163382 42.2325
26.722459276044212 42.1282
26.745522132402975 41.8914
26.768407297649354 41.6584
26.791293550442003 41.3028
26.814180891848974 41.1598
26.837248143099337 40.9164
26.860137673466657 40.6783
26.88302829566349 40.5391
26.90592001075963 40.3572
26.92899167420566 40.196
26.951885586870763 39.6739
26.974780595655517 39.5705
26.99785558178161 39.3829
27.020752794605112 39.2039
27.043651106772522 39.0842
27.06655051935668 39.0932
27.089629948036183 38.9943
27.112531573292053 38.9369
27.135434302194138 38.8733
27.158338135817015 38.7129
27.181422024430987 38.745
27.204328079372566 38.7411
27.22723524226965 38.6315
27.250143514198573 38.7278
27.273231880156334 38.7181
27.296142382065014 38.5398
27.319053996245536 38.4177
27.341966723775965 38.5707
27.365059584515222 38.6062
27.38797455070062 38.6141
27.410890633481237 38.6915
27.433807833936918 38.6439
27.456905206923906 38.7244
27.47982465472398 38.7908
27.502745223449743 38.7404
27.525666914182825 38.8995
27.548768816912457 38.8342
27.571692763693633 38.6913
27.59461783573812 38.6396
27.617723149491244 38.4022
27.640650484125285 38.3905
27.66357894728264 38.3265
27.686508540048052 38.2426
27.709618414237887 38.0892
27.732550278321757 38.0443
27.755483275279115 37.9729
27.778417406196485 37.917
27.801531858397514 38.0701
27.824468269376716 38.1774
27.847405817586786 37.9932
27.870344504116094 38.2171
27.893463551932008 38.21
27.916404527281053 38.3981
27.93934664422563 38.4825
27.962289903855886 38.6731
27.98541356491974 38.8433
28.00835912214229 38.8341
28.03130582533231 39.0828
28.054253675581805 39.2225
28.077381967556104 39.2865
28.100332124185126 39.1919
28.123283431160893 39.1767
28.146235889577238 38.9326
28.169368830154156 38.7933
28.192323603752033 38.7191
28.215279532083304 38.4343
28.238415973016764 38.1406
28.261374223145094 37.9884
28.284333631303806 37.8894
28.307294198589954 37.6561
28.330435319167677 37.4411
28.353398217078915 37.3417
28.376362277420153 37.0553
28.39932750129032 36.7704
28.422473319286713 36.5274
28.44544088262495 36.5085
28.468409612800283 36.4273
28.491379510913497 36.2305
28.51453004413313 36.1941
28.53750229057244 36.0539
28.56047570826344 35.9317
28.583450298308804 36.0956
28.606605564586562 35.9478
28.629582511831156 35.9539
28.65256063474956 35.7884
28.675539934446338 35.7466
28.698699951647605 35.7599
28.72168161743193 35.6894
28.74466446331978 35.6909
28.767648490417624 35.7395
28.790813276438353 35.5831
28.813799678527303 35.6764
28.836787265157085 35.6049
28.859955641890075 35.6359
28.882945610203045 35.6299
28.905936766392035 35.5042
28.928929111566863 35.5573
28.952102288520145 35.4237
28.975097024308607 35.4286
28.998092952423807 35.2963
29.021090073977508 35.0768
29.04426806913204 34.9704
29.067267590245258 34.8376
29.090268308143695 34.8276
29.11327022394099 34.6754
29.13645305530891 34.5433
29.159457379627167 34.5925
29.18246290519685 34.5452
29.20546963313352 34.5127
29.22865731875826 34.5815
29.25166646419296 34.4927
29.27467681535305 34.4497
29.29768837335608 34.5554
29.320880931312562 34.5207
29.34389491580634 34.4777
29.366910110507334 34.4063
29.38992651653503 34.4163
29.41312396492981 34.3883
29.436142806456754 34.2991
29.45916286268059 34.1906
29.48236399319994 34.1943
29.50538649169417 33.9261
29.528410208259935 33.9487
29.55143514402014 33.6766
29.574641196749695 33.5569
29.597668583816574 33.4229
29.6206971934585 33.361
29.64372702680042 33.3368
29.666938019934474 33.244
29.689970313635285 33.1253
29.713003834422636 33.1141
29.73603858342347 33.1587
29.759254535188578 33.0777
29.78229175361658 33.0289
29.80533020365064 32.9834
29.82836988641968 33.1362
29.85159081507472 32.8872
29.874632976355343 32.8145
29.89767637376955 32.8384
29.920721008448314 32.798
29.9439469322847 32.7674
29.96699405457564 32.7149
29.9900424175358 32.686
30.013092022298157 32.6857
30.03632295963995 32.6751
30.059375061131373 32.7318
30.08242840783577 32.7467
30.105483000888153 32.6531
30.128718970092244 32.5791
30.151776069006917 32.5491
30.17483441768648 32.524
30.198074175317235 32.6665
30.221135036724256 32.6624
30.24419715131772 32.538000000000004
30.267260520236203 32.4788
30.290505341942243 32.5086
30.313571232750228 32.5566
30.336638381310948 32.5114
30.35970678876503 32.3812
30.38295669299435 32.3791
30.40602763151657 32.3914
30.429099832366074 32.321
30.452173296685572 32.2251
30.47542830191959 32.218
30.498504306502497 32.3147
30.521581577995562 32.4031
30.544660117543582 32.3271
30.56792024229725 32.2836
30.59100133132069 32.2908
30.614083691845494 32.2705
30.637167325018545 32.318000000000005
30.660432587840603 32.429
30.683518779717886 32.3921
30.70660624769615 32.5096
30.729694992924372 32.4214
30.75296541239743 32.3501
30.77605672557558 32.2486
30.799149319462742 32.2156
30.8224236211637 32.0886
30.845518789950724 32.042
30.868615242910597 32.0274
30.891712981195973 31.7424
30.91499247215866 31.8221
30.938092794619365 31.8698
30.96119440587579 31.6795
30.984297307082752 31.5888
31.00758200598383 31.5527
31.030687500658694 31.3881
31.053794288760695 31.263
31.076902371446767 31.3195
31.100192296997445 31.263
31.12330298246119 31.1757
31.14641496599209 31.1041
31.169528248749216 31.1901
31.19282341969534 31.0476
31.215939314557186 31.1057
31.239056512134788 31.2554
31.262175013589378 31.1347
31.28547544871168 31.026999999999997
31.30859657161541 31.0531
31.331719001892175 30.9499
31.35484274070538 31.0483
31.378148458819545 31.0678
31.401274828443725 31.0658
31.424402510106933 31.0481
31.447712205419993 31.1134
31.470842524931633 30.9652
31.493974159989783 30.9865
31.51710711176168 30.8655
31.54042212308802 30.8652
31.563557722100917 30.8566
31.586694641341655 30.7562
31.609832881979628 30.6715
31.63315322823208 30.5685
31.656294125521327 30.5154
31.679436347728515 30.4164
31.70257989602529 30.3737
31.725905596152327 30.3432
31.74905181052835 30.2424
31.772199354521323 30.2959
31.79534822930507 30.2581
31.818679302290967 30.3119
31.84183085259981 30.3947
31.864983737233473 30.2874
31.88813795736804 30.2586
31.911474422233013 30.1774
31.934631327356435 30.232
31.9577895715215 30.2446
31.980949155906522 30.1867
32.004291031706956 30.1907
32.027453310562606 30.1097
32.05061693318573 30.0541
32.07396288236386 29.9765
32.09712920658542 29.8734
32.12029687812702 29.8174
32.14346589817093 29.6862
32.166817291729984 29.666999999999998
32.18998902288583 29.5327
32.21316210610336 29.4786
32.23633654256711 29.3384
32.259693399663725 29.4286
32.282870556771144 29.3828
32.30604907069099 29.369
32.329228942610065 29.2614
32.35259128243769 29.113000000000003
32.375773884550505 29.0621
32.398957848235646 29.0269
32.422143174682176 28.9093
32.445511016471215 28.9051
32.468699082679954 28.8745
32.49188851523011 28.9238
32.51507931531304 28.8004
32.538452678331 28.8278
32.56164622776311 28.7047
32.58484114831493 28.6347
32.60803744118015 28.7277
32.631416344731896 28.6435
32.654615396551876 28.6437
32.67781582427913 28.5548
32.701198898634416 28.4786
32.72440209253756 28.4713
32.747606665947124 28.4394
32.77081262006088 28.2342
32.79420126883317 28.2892
32.81740999876112 28.3454
32.840620112999424 28.1953
32.86383161274818 28.1392
32.88722585534586 28.1189
32.91044014056596 28.1825
32.933655814909734 28.087
32.95687287957963 28.1055
32.98027273544904 28.0947
33.00349259526636 28.0359
33.026713849030116 28.0613
33.04993649794511 28.0417
33.073341986570746 27.9674
33.09656744032826 27.967
33.11979429286444 27.973000000000003
33.14302254538647 28.0086
33.166433686291185 27.7647
33.18966475336992 27.7291
33.212897224069096 27.7444
33.23613109959831 27.7514
33.259547912343415 27.7094
33.2827846121627 27.7245
33.306022720453775 27.66
33.32926223842861 27.573
33.352684742614166 27.5632
33.37592709463173 27.5363
33.399170859982064 27.5169
33.422597648419426 27.4037
33.44584425514446 27.2791
33.46909227885668 27.2526
33.4923417207723 27.215999999999998
33.51577423505344 27.1516
33.539026528130385 27.0438
33.56228024307245 26.9984
33.585535381098246 26.9106
33.60897364093058 26.8351
33.63223163992385 26.8735
33.6554910656699 26.7967
33.678751919389796 26.7969
33.702195944520106 26.7975
33.72545966903325 26.8235
33.74872482519663 26.6005
33.771991414233746 26.5612
33.79544122444841 26.6212
33.81871069412428 26.7071
33.84198160035767 26.6441
33.86525394437455 26.5204
33.88870955949969 26.5044
33.911984794020626 26.4067
33.93526147001624 26.4317
33.958539588715006 26.3925
33.98200102861669 26.3037
34.0052820477047 26.2001
34.02856451319451 26.2015
34.05203033759056 26.1564
34.07531571090147 26.1052
34.09860253431845 26.0373
34.121890809074316 26.0507
34.145362493118924 26.0147
34.16865368561615 26.0066
34.191946333164054 25.9107
34.21524043699793 25.8854
34.23871800066799 25.893
34.26201503218366 25.7928
34.28531352370466 25.7417
34.30861347646881 25.6857
34.33209693978188 25.7127
34.3553998301885 25.6445
34.378704185565205 25.6085
34.402010007152356 25.5334
34.42549939016683 25.4753
34.44880815937748 25.3921
34.472118398533134 25.4207
34.49543010887669 25.4152
34.51892543169198 25.3284
34.54224009966052 25.3476
34.56555624255917 25.3764
34.58887386163339 25.2302
34.61237514439016 25.2162
34.6356957311114 25.1946
34.65901779775809 25.1279
34.68252356662995 25.084
34.705848608458616 24.974
34.72917513396849 24.9378
34.75250314440949 24.8986
34.77601490857862 24.8634
34.799345904259795 24.8305
34.82267838863559 24.8932
34.846012362958525 24.905
34.869530142679984 24.8385
34.89286711232212 24.6853
34.91620557568269 24.7193
34.93954553401677 24.7123
34.9630693495876 24.5907
34.986412313340814 24.6449
35.00975677584668 24.6515
35.033102738362956 24.6068
35.05663261012228 24.5712
35.0799815881786 24.537
35.10333207003229 24.4723
35.12668405694369 24.5236
35.150220005273056 24.4324
35.17357501786656 24.3479
35.19693153931268 24.3738
35.220289570874385 24.3139
35.24383161619786 24.34
35.267192683604904 24.3012
35.290555264930376 24.295
35.314101899412165 24.2413
35.33746752422433 24.1693
35.36083466676374 24.1601
35.38420332829803 24.0892
35.407756095629054 24.1632
35.43112781085063 24.0777
35.45450104888391 24.0107
35.477875810999194 24.115
35.50143473172161 23.9735
35.52481255774625 23.944000000000003
35.54819191167777 23.8907
35.57157279478914 23.8912
35.595137889488406 23.8914
35.61852184675279 23.7624
35.641907337029984 23.7865
35.665294361595684 23.7438
35.68886565090076 23.7132
35.7122557598848 23.7076
35.73564740699838 23.5983
35.759040593519934 23.5336
35.78261809810353 23.5751
35.80601437933051 23.4926
35.829412203814705 23.4055
35.85281157283719 23.3772
35.876395313415884 23.4616
35.8997977874528 23.372
35.92320180988546 23.3025
35.946790244133936 23.179000000000002
35.97019737933222 23.2908
35.993606066789866 23.1877
36.01701630779276 23.2055
36.04061101440684 23.1541
36.06402437852291 23.0989
36.08743930005611 23.1041
36.1108557802951 22.9941
36.13445678011326 23.0369
36.15787639383515 23.0026
36.18129757014299 22.9098
36.20472031032821 22.9428
36.22832762423364 22.816
36.25175350829375 22.7348
36.275180960119776 22.7457
36.298609981005924 22.8082
36.32222362992669 22.8044
36.34565580510207 22.784000000000002
36.36908955323448 22.6415
36.39252487562093 22.5708
36.416144880530226 22.6254
36.43958336764275 22.551
36.463023432914625 22.5805
36.486465077645676 22.4815
36.51009145956204 22.5279
36.53353627947859 22.4542
36.55698268276811 22.5286
36.58043067073321 22.4233
36.60406345072071 22.303
36.62751462435344 22.3415
36.65096738658405 22.2956
36.67460498210655 22.1956
36.69806093788647 22.2321
36.72151848619297 22.1324
36.744977628333636 22.1471
36.76862165890998 22.0351
36.79208400512205 22.0967
36.81554794910557 22.1225
36.83901349217101 22.0138
36.862663978991606 21.9667
36.88613273667352 21.9089
36.90960309738324 21.8961
36.933075062434064 21.8885
36.95673202673572 21.8487
36.98020721697122 21.8063
37.003684015502365 21.7328
37.027162423645365 21.614
37.050825886711465 21.699
37.07430753063053 21.6349
37.09779078812467 21.6
37.121275660513014 21.5677
37.144945643673694 21.4448
37.16843376245278 21.5452
37.19192350009803 21.6242
37.215414857931435 21.4816
37.239091382563885 21.4006
37.262585997426164 21.3941
37.28608223645736 21.3963
37.309763684451696 21.2837
37.33326318851098 21.2602
37.356764320726555 21.245
37.380267082425526 21.2518
37.40395510942588 21.1668
37.42746114683234 21.1101
37.45096881771841 21.1087
37.474478123414166 21.0699
37.49817275092816 21.0463
37.52168534303452 21.0745
37.54519957395567 20.8998
37.568715445024665 20.9199
37.592416694607714 20.8716
37.61593586281424 20.9457
37.63945667518264 20.9989
37.66297913304891 20.8584
37.68668702630454 20.8299
37.710212792059274 20.7061
37.733740207334854 20.7199
37.757269273470364 20.7232
37.780983832050374 20.6432
37.80451621684926 20.6003
37.82805025654007 20.592
37.851585952464795 20.5878
37.8753071980695 20.4285
37.89884622345676 20.4215
37.92238690911902 20.483
37.94611318753442 20.4587
37.969657210779765 20.3892
37.99320289834801 20.3776
38.016750251586465 20.3387
38.04048325513017 20.2659
38.06403395679343 20.2164
38.087586328183946 20.1732
38.11114037065203 20.1962
38.13488012115898 20.2024
38.1584375229181 20.1435
38.181996599821 20.1226
38.205557353221124 20.0665
38.229303872575656 20.0497
38.2528679961576 20.0211
38.27643380031219 19.9742
38.30000128639589 19.8878
38.32375459653193 19.9248
38.34732546371299 19.9037
38.37089801690786 19.8061
38.39447225747609 19.7771
38.418232380377425 19.7947
38.441810012983396 19.7666
38.46538933705673 19.726
38.488970353960084 19.7237
38.51273731166058 19.6692
38.536321731567014 19.7245
38.55990784840681 19.6172
38.58367995004091 19.5396
38.60726947812959 19.52
38.63086070726198 19.5148
38.654453638806274 19.5625
38.678232613930824 19.3972
38.70182896773327 19.3552
38.72542702806741 19.3672
38.7490267963045 19.3678
38.77281266709232 19.3394
38.79641586862214 19.3032
38.8200207821842 19.2413
38.843627409152944 19.3038
38.86742019782782 19.2013
38.891030269149255 19.1775
38.914642058016156 19.1493
38.938255565806124 19.0665
38.96205529464307 19.0826
38.98567225787121 19.0337
39.00929094417078 19.0319
39.03291135492255 19.0263
39.05671804624804 18.9825
39.080341923549106 18.9496
39.103967529460334 18.9205
39.127594865365744 18.8476
39.15140854155791 18.8135
39.17503935514948 18.8551
39.19867190290282 18.782
39.22249083587951 18.7175
39.24612686969409 18.7104
39.269764641845306 18.7501
39.293404153722804 18.6709
39.317230110864074 18.6838
39.34087311998506 18.5694
39.36451787301696 18.5906
39.388164371352595 18.5233
39.41199737518003 18.4657
39.43564738196752 18.4241
39.45929913825317 18.4662
39.48295264543308 18.3817
39.506792718520884 18.3645
39.530449745387216 18.3857
39.55410852735203 18.4031
39.57776906581474 18.3882
39.60161623079 18.3086
39.625280300200025 18.2188
39.64894613032202 18.1537
39.67261372255866 18.1709
39.6964680021016 18.239
39.72013913657293 18.2484
39.74381203738292 18.1679
39.76748670593756 18.0526
39.79134812278169 18.0435
39.81502634488497 18.1229
39.83870633896685 18.0442
39.862388106436654 17.9509
39.88625668336918 17.9244
39.90994201572829 17.8824
39.933629125719285 17.9004
39.957503091207826 17.8861
39.9811937746168 17.9056
40.00488623990914 17.7772
40.02858048850006 17.7397
40.05246165409549 17.71
40.076159487492085 17.7308
40.099859108448875 17.7266
40.123560518384345 17.6239
40.1474489070226 17.616
40.171153913178564 17.5971
40.194860712584955 17.4767
40.2185693066637 17.538
40.242464941335314 17.4789
40.26617714307655 17.4971
40.289891143772046 17.4579
40.3136069448471 17.398
40.33750984859743 17.3942
40.3612292688043 17.3924
40.3849504936829 17.3468
40.40867352466194 17.2851
40.43258372059144 17.2199
40.45631038219906 17.254
40.48003885420956 17.2128
40.503769138055105 17.1793
40.52768664931955 17.1714
40.55142057531802 17.2276
40.57515631746428 17.1537
40.599079334038514 17.1104
40.62281872700477 17.0736
40.64655994043941 17.0143
40.67030297578061 17.0464
40.69423334835778 16.9577
40.71798004609188 16.9621
40.74172857006355 16.9323
40.76547892171441 16.9236
40.7894166736039 16.8511
40.813170699248566 16.8073
40.83692655691388 16.8366
40.86068424804498 16.8113
40.884629402612525 16.811
40.908390779366385 16.8011
40.932153993938 16.7421
40.95591904777605 16.6877
40.979871628443995 16.7048
41.003640379561936 16.6557
41.02741097430883 16.6429
41.05118341413683 16.6661
41.075143444384416 16.637
41.098919593177826 16.6098
41.1226975914255 16.5561
41.14647744058318 16.5001
41.170444943946755 16.4348
41.19422851378379 16.4173
41.218013938914645 16.4074
41.24198706625173 16.3791
41.26577622087193 16.361
41.289567235177785 16.3334
41.31336011063129 16.3223
41.337340752422875 16.2668
41.361137369129835 16.1785
41.38493585138705 16.217
41.40873620066004 16.1909
41.43272438060107 16.1146
41.45652848292052 16.1015
41.48033445666918 16.0609
41.50414230331616 16.0366
41.528138045159764 16.0567
41.551949656675205 16.0307
41.575763145513235 15.987
41.59957851314666 15.9424
41.62358184070442 15.9528
41.64740098505737 15.9019
41.6712220126409 15.8445
41.69504492493139 15.8409
41.71905586207357 15.7897
41.74288256296395 15.8273
41.766711153007456 15.7685
41.79054163368412 15.7504
41.814560204340054 15.7278
41.838394485526365 15.6522
41.86223066180303 15.6888
41.88625497706819 15.6284
41.910094962812 15.5497
41.93393684811168 15.609000000000002
41.95778063445365 15.5184
41.981812625263366 15.5065
42.00566023303407 15.4891
42.029509746323676 15.475
42.05336116662236 15.4646
42.077400857069705 15.5003
42.10125611078846 15.4177
42.12511327600405 15.3789
42.14897235421036 15.2856
42.173019768448455 15.3169
42.19688269209613 15.2757
42.22074753323349 15.3034
42.24461429335818 15.2438
42.268669455600495 15.2851
42.292540073217886 15.2115
42.31641261433284 15.1474
42.34028708044675 15.1067
42.36435001496739 15.1167
42.38822835065557 15.1024
42.41210861586426 15.0746
42.4359908120986 15.0496
42.46006154323262 15.0367
42.48394762115317 15.0334
42.507835634632315 15.0286
42.531912233047436 14.982999999999999
42.55580413732265 14.9445
42.579697981698 14.9404
42.60359376768525 14.8738
42.62767820545945 14.8541
42.65157789440821 14.8577
42.67547952952185 14.8004
42.699383112316 14.7958
42.72347541395347 14.7149
42.74738291190531 14.6817
42.771292362102166 14.7103
42.795203766063516 14.6539
42.819303956130405 14.6418
42.843219287476536 14.5936
42.86713657716324 14.6106
42.89105582671383 14.5723
42.91516392983864 14.5784
42.939087119032166 14.5368
42.963012272677304 14.4677
42.98693939230129 14.4835
43.01105543317513 14.4574
43.034986504731386 14.3893
43.05891954686589 14.4036
43.08285456110972 14.4059
43.10697856448665 14.3398
43.130917542983475 14.2972
43.15485849820081 14.3225
43.17880143167367 14.2485
43.20293342237094 14.2169
43.226880332449 14.1857
43.25082922540554 14.199000000000002
43.27496722682525 14.1923
43.29892010567796 14.1658
43.32287497204102 14.1145
43.34683182745632 14.0774
43.370977859791836 14.0951
43.39493871351105 14.0495
43.41890156092628 14.0345
43.44286640358341 14.0118
43.46702049182749 14.0087
43.49098934522816 13.9753
43.51496019852649 13.9349
43.5389330532723 13.9206
43.56309522248204 13.8795
43.58707210044314 13.8218
43.61105098451946 13.8423
43.63503187626491 13.8081
43.659202151562134 13.7811
43.68318707902681 13.7795
43.70717401884041 13.7391
43.731162972560874 13.6828
43.75534137913236 13.7021
43.779334381108384 13.7027
43.803329401683186 13.7073
43.82732644241872 13.613
43.8515130055166 13.6342
43.87551410707659 13.5895
43.89951723350145 13.5445
43.923709934595614 13.5533
43.94771713129917 13.5082
43.97172635758096 13.4988
43.99573761501002 13.4688
44.0199385169922 13.3919
44.04395385732619 13.3815
44.067971233533086 13.3829
44.09199064718605 13.3633
44.11619977548961 13.314
44.14022328470671 13.2988
44.16424883610785 13.3438
44.18827643127035 13.2734
44.21249381139513 13.2756
44.236525514814076 13.2655
44.26055926674478 13.2468
44.28459506876863 13.2156
44.3088207262813 13.1566
44.33286064928722 13.2264
44.35690262714919 13.1322
44.38094666145278 13.0786
44.4051806219871 13.0715
44.42922879003185 13.0558
44.45327901929361 13.0087
44.477331311362136 13.0241
44.501573600619416 12.9456
44.525630039221795 12.9378
44.54968854541895 12.9383
44.573937102200176 12.9563
44.5979997645541 12.8829
44.622064499300315 12.868
44.64613130803592 12.8761
44.67038823869318 12.8498
44.69445921643748 12.7972
44.718532272981385 12.735
44.742607409926194 12.777000000000001
44.76687274034801 12.7192
44.79095205918753 12.6865
44.81503346325094 12.6996
44.839116954143876 12.6991
44.86339071028742 12.6344
44.88747839599524 12.5985
44.91156817336837 12.5922
44.93566004401666 12.5855
44.959942251908146 12.5574
44.984038330325966 12.5323
45.00813650686762 12.4514
45.03223678314731 12.4462
45.05652746888232 12.4288
45.08063196592069 12.4296
45.104738567558705 12.4205
45.128847275414856 12.379000000000001
45.15314646515866 12.347000000000001
45.17725940679741 12.3435
45.20137445952892 12.2979
45.22568004865265 12.3114
45.24979934496396 12.2819
45.27392075725247 12.3057
45.29804428714431 12.2486
45.322358426247604 12.2
45.346486212804315 12.2034
45.370616121861914 12.1945
45.39474815505086 12.1314
45.41907087049246 12.0963
45.4432071734666 12.0984
45.46734560548283 12.1265
45.49148616817604 12.1155
45.51581748638564 12.0564
45.5399623320197 12.05
45.56410931325473 12.0281
45.58825843173002 12.0464
45.61259837920865 12.0317
45.636751793816 11.9858
45.66090735060093 11.9438
45.68506505120716 11.8898
45.7094136545275 11.8851
45.73357566449271 11.8315
45.75773982322992 11.8518
45.78190613238733 11.8288
45.806263418194064 11.7833
45.83043404997326 11.7904
45.85460683713677 11.7616
45.87897065658495 11.7047
45.90314777634752 11.7036
45.92732705646868 11.7039
45.9515084986045 11.6314
45.97588104735473 11.6181
46.00006683541565 11.6332
46.02425479047904 11.6352
46.04844491420549 11.6154
46.0728262191024 11.6036
46.09702070211635 11.5869
46.12121735879483 11.547
46.14541619080294 11.5113
46.169806278764455 11.5354
46.194009483459034 11.5096
46.21821486849841 11.4655
46.24242243555223 11.4202
46.266821333570014 11.3824
46.29103328674601 11.4218
46.31524742696538 11.4436
46.33946375590237 11.3521
46.36387149104216 11.3001
46.38809221957392 11.2914
46.41231514186606 11.2866
46.436540259597464 11.2563
46.460956858999374 11.2498
46.48518638983522 11.1875
46.509418121166966 11.1754
46.533652054678114 11.1818
46.55807754555709 11.1796
46.58231590571962 11.1745
46.60655647313217 11.1205
46.630988654873654 11.0936
46.655233659129024 11.0847
46.67948087571551 11.0732
46.70373030632484 11.0281
46.72817142736393 11.0333
46.752425308428684 10.9786
46.77668140861147 10.9741
46.80093972960865 10.9098
46.82538981736788 10.8977
46.849652602470904 10.9104
46.87391761349769 10.9174
46.8981848521493 10.8824
46.9226439341274 10.8325
46.946915650573224 10.8237
46.97118959976749 10.7774
46.99546578341598 10.7593
47.019933887188216 10.7769
47.04421456235744 10.7619
47.06849747711879 10.7412
47.09278263318286 10.6977
47.11725978640143 10.659
47.14154944775105 10.6876
47.165841355555656 10.6595
47.1901355115306 10.6301
47.214621741924994 10.6748
47.23892041698887 10.5978
47.26322134538975 10.59
47.28771440635075 10.5728
47.31201986422527 10.5615
47.33632758061436 10.4998
47.360637557241866 10.5179
47.38513974410611 10.4854
47.40945426407847 10.4194
47.43377104948137 10.4443
47.45809010204344 10.437000000000001
47.48260144275502 10.3725
47.506925052572285 10.3484
47.53125093475548 10.2866
47.55557909103813 10.3127
47.58009961361992 10.3164
47.60443234110732 10.2804
47.62876734791564 10.2697
47.65310463578333 10.2688
47.6776343683373 10.2244
47.7019762413987 10.1994
47.72632040075572 10.1893
47.75066684815169 10.1765
47.77520581885936 10.1644
47.799556865477655 10.1702
47.823910205386 10.1556
47.84826584033272 10.1514
47.87281407745551 10.0855
47.89717432569297 10.0906
47.92153687423484 10.0799
47.94609208429692 10.0517
47.97045925671401 10.0412
47.99482873471275 10.011000000000001
48.01920052005013 9.9739
48.04376504619224 9.95354
48.068141469543484 9.92751
48.09252020552573 9.9641
48.11690125590099 9.93698
48.1414751266064 9.871310000000001
48.16586082917454 9.87771
48.19024885144316 9.83301
48.2146391951793 9.81713
48.239222439012764 9.87308
48.26361744916137 9.79946
48.28801478610016 9.83142
48.31241445160131 9.77997
48.337007097209366 9.77881
48.36141144338331 9.75742
48.38581812345755 9.722999999999999
48.41022713920929 9.71066
48.434829215320704 9.70388
48.45924292604658 9.66756
48.48365897780325 9.67405
48.50807737237308 9.62274
48.532688907799276 9.65441
48.55711201168574 9.576989999999999
48.581537463754074 9.61287
48.60615611725119 9.609110000000001
48.63058628942721 9.55136
48.65501881516546 9.51425
48.6794536962573 9.54156
48.70408185970339 9.48275
48.72852147531801 9.45978
48.75296345168211 9.42876
48.77740779059232 9.45787
48.80204549302823 9.44461
48.82649458091802 9.41078
48.85094603676547 9.38011
48.87539986237231 9.38897
48.90004713292306 9.37319
48.92450572200832 9.34634
48.94896668628025 9.30331
48.97343002754588 9.27951
48.99808689542115 9.28017
49.02255501470614 9.25502
49.04702551642794 9.23842
49.0714984023988 9.2208
49.096164896893235 9.2371
49.120642575466796 9.20778
49.145122643748394 9.17763
49.16960510355558 9.179860000000001
49.19428125404938 9.16615
49.2187685210852 9.13219
49.243258185121555 9.1263
49.26794160167084 9.11701
49.2924360839405 9.068999999999999
49.31693296869764 9.04749
49.34143225776915 9.05648
49.36612538195438 9.00597
49.39062950396021 9.00262
49.41513603578346 8.965530000000001
49.4396449792564 8.9665
49.46434784069503 8.96989
49.488861631846454 8.93118
49.513377840166804 8.94998
49.537896467493745 8.89248
49.56260909589029 8.85609
49.587132585683285 8.88296
49.611658500018365 8.8309
49.636186840738596 8.83492
49.66090926588511 8.846739999999999
49.685442483902584 8.7969
49.70997813385706 8.7435
49.734516217597076 8.739469999999999
49.75924846937352 8.741430000000001
49.7837914452858 8.74813
49.80833686055187 8.6923
49.83288471702571 8.68426
49.85762682540054 8.68613
49.882179588965734 8.65736
49.9067347993235 8.60161
49.93129245833333 8.636610000000001
49.95604445336378 8.62986
49.98060703442832 8.57573
50.005172069746266 8.54075
50.02993150438364 8.604410000000001
50.05450147301533 8.548630000000001
50.07907390151433 8.575560000000001
50.10364879174981 8.508510000000001
50.12841816587289 8.48439
50.1529980044635 8.47919
50.17758031042124 8.47616
50.20216508562089 8.46937
50.22694442953363 8.43564
50.25153416817468 8.42495
50.27612638170508 8.4113
50.300721072005196 8.379380000000001
50.325510416102105 8.366719999999999
50.350110084975064 8.35068
50.37471223628208 8.34468
50.39931687190919 8.302769999999999
50.424116246675766 8.30435
50.44872587605249 8.27721
50.47333799543065 8.26727
50.49795260670191 8.24262
50.52276204271512 8.21141
50.54738166295838 8.22096
50.57200378079314 8.22043
50.596628398116835 8.1753
50.62144792604559 8.19157
50.646077567609396 8.15925
50.670709714377715 8.14825
50.69553683636198 8.11016
50.72017401885922 8.12209
50.7448137122895 8.11105
50.76945591856022 8.06547
50.79429318636823 8.07161
50.818940443716784 8.08194
50.84359021965163 8.016739999999999
50.868242516085964 8.02535
50.893089960641895 8.0129
50.917747323549435 7.94394
50.94240721271973 7.94128
50.96706963007175 7.96552
50.99192728239342 7.97261
51.01659478166073 7.92718
51.04126481489051 7.895410000000001
51.06593738400761 7.92853
51.090805275207074 7.8971100000000005
51.11548294172845 7.86667
51.14016314993547 7.880439999999999
51.164845901758845 7.85173
51.18972406304274 7.81875
51.21441192780656 7.7958
51.23910234200271 7.79639
51.2637953075678 7.7665
51.288683770237945 7.740060000000001
51.31338186432707 7.72519
51.33808251561888 7.69015
51.362978729967345 7.6826300000000005
51.387684521509755 7.6616800000000005
51.41239287610203 7.6495
51.437103795691165 7.630260000000001
51.46201036644977 7.641380000000001
51.486726441956634 7.60855
51.51144508832545 7.60302
51.536166307509156 7.6112899999999994
51.56108326624387 7.58218
51.58580965706056 7.57712
51.61053862657523 7.531810000000001
51.635270176746864 7.5052
51.66019755512065 7.490139999999999
51.68493429268881 7.489669999999999
51.70967361681515 7.5025
51.73441552946465 7.45375
51.759353359237934 7.442239999999999
51.7841004750961 7.49217
51.80885018539685 7.39088
51.833602492111254 7.3959399999999995
51.8585508051424 7.398789999999999
51.883308330926425 7.365
51.90806845906181 7.340739999999999
51.932831191525715 7.355739999999999
51.95779001977161 7.336689999999999
51.98255798721516 7.28591
52.00732856494335 7.2771
52.03229530577543 7.26912
52.057071130455945 7.272889999999999
52.081849571391054 7.255210000000001
52.106630630568695 7.25223
52.13160794279417 7.2401100000000005
52.15639426492067 7.23079
52.18118321127822 7.19112
52.205974783860896 7.14192
52.23096269971011 7.136019999999999
52.255759551287994 7.1978800000000005
52.280559035098186 7.154439999999999
52.30536115314103 7.130780000000001
52.33035970494467 7.10953
52.35516711807904 7.06152
52.37997717147198 7.06566
52.40478986713005 7.09515
52.42979908731974 7.02716
52.454617094216 7.020969999999999
52.47943774942214 6.98965
52.50426105495102 7.00645
52.529280976059844 6.94757
52.554109609024096 7.024360000000001
52.57894089837482 6.93295
52.60377484613117 6.9547300000000005
52.62880550079408 6.92818
52.65364479223379 6.896910000000001
52.67848674816189 6.87714
52.70352547971946 6.877839999999999
52.72837279155837 6.915039999999999
52.753222773982785 6.8619
52.778075429022984 6.837689999999999
52.80312495150885 6.84191
52.827982978797436 6.816660000000001
52.85284368481815 6.773160000000001
52.87770707160767 6.77918
52.90276741793998 6.7241
52.92763619336701 6.759580000000001
52.952507655698504 6.775919999999999
52.977381806977576 6.73486
53.00245301017842 6.720910000000001
53.02733256653592 6.7103
53.052214817996074 6.6966600000000005
53.077099766608484 6.6981399999999995
53.102181859804446 6.66608
53.127072229988265 6.6555
53.15196530349892 6.631
53.17686108239249 6.61222
53.20195409881522 6.62449
53.22685531582556 6.615189999999999
53.25175924441303 6.54908
53.27666588664027 6.53824
53.30176985962693 6.52442
53.3266819565689 6.51661
53.35159677336455 6.545719999999999
53.376514312083096 6.494
53.40162927507703 6.47926
53.42655228516116 6.47579
53.45147802340193 6.41354
53.47660125628886 6.37525
53.50153247842639 6.40299
53.52646643496923 6.3863199999999996
53.55140312799818 6.37715
53.576537409691696 6.39398
53.60147960336152 6.38547
53.626424539786164 6.35021
53.65137222105307 6.37371
53.67651758529126 6.34544
53.70147078399681 6.29706
53.72642673383343 6.29626
53.75138543689533 6.27988
53.776541917524526 6.28596
53.801506154876755 6.31891
53.826473151763246 6.26072
53.851442910284916 6.20854
53.87661054126026 6.22834
53.9015858509782 6.24576
53.92656392866066 6.176740000000001
53.95154477641532 6.21546
53.976723591801296 6.192159999999999
54.00171000771266 6.13415
54.02669920004598 6.1569400000000005
54.051691170915745 6.13978
54.076881204886796 6.15289
54.101878760928514 6.121090000000001
54.12687910187696 6.07592
54.152077577768296 6.03183
54.1770835166946 6.04398
54.20209224691339 6.0344
54.22710377055121 6.080030000000001
54.25231352511594 6.0294099999999995
54.27733066384342 5.97907
54.30235060239643 5.98442
54.32737334290836 5.99947
54.35259441062629 5.92535
54.377622783395324 5.95339
54.40265396455061 5.94664
54.42768795623251 5.91909
54.45292037169559 5.89415
54.477960012857906 5.86099
54.50300247099511 5.84992
54.52804774825457 5.83374
54.55329154616743 5.74526
54.57834249018678 5.77261
54.6033962597977 5.72481
54.6284528571545 5.70987
54.653708072335164 5.72379
54.67877035378786 5.692819999999999
54.70383546947698 5.6816699999999996
54.72890342156389 5.65346
54.7541700889442 5.63698
54.77924374251975 5.64446
54.8043202390049 5.5945800000000006
54.82959552413022 5.60874
54.8546777351945 5.58293
54.87976279569621 5.52261
54.90485070780914 5.53498
54.930137506558005 5.54076
54.95523115074295 5.5378300000000005
54.98032765308844 5.49913
55.005427015775496 5.438
55.03072536339621 5.45172
55.05583047570572 5.37245
55.080938454927676 5.36765
55.10604930325027 5.39728
55.131359235107396 5.43163
55.15647585066083 5.32549
55.181595341907496 5.30271
55.20671771104285 5.24442
55.232039262617704 5.23893
55.25716741665048 5.1916
55.28229845518636 5.2316
55.30743238042802 5.20034
55.33276558731939 5.16441
55.357905315183636 5.145580000000001
55.383047936390035 5.13868
55.40819345314859 5.06615
55.433538351073295 5.0932900000000005
55.458689688238415 5.0376199999999995
55.483843927614096 5.03271
55.509197623043605 4.983230000000001
55.53435769621134 4.95221
55.55952067826466 4.93542
55.5846865714265 4.95638
55.61005202069737 4.9394800000000005
55.63522376553902 4.93754
55.66039842818645 4.79512
55.68557601087004 4.839930000000001
55.7109532500271 4.8108
55.73613670233794 4.81272
