TT I
1.2716486653135266 7.407960000000001
1.2939594142134223 7.244680000000001
1.3162702121660406 6.6735
1.3385810600174564 6.6004
1.3608919586137629 7.000310000000001
1.383202908801069 6.45763
1.405513911425503 6.35895
1.4278249673332093 6.2737300000000005
1.4501343378461518 6.38455
1.4724455028545926 6.38581
1.4947567236847858 5.76127
1.517068001182951 5.92151
1.5393793361953272 6.3222
1.5616907295681737 6.04831
1.5840021821477681 5.12498
1.60631369478041 4.62131
1.6286252683124185 5.0503599999999995
1.6509369035901333 5.61664
1.6732468618895553 5.272469999999999
1.695558623192809 4.7910699999999995
1.7178704487808514 5.08579
1.7401823395001077 4.94422
1.7625012545597203 4.81726
1.7848028405262486 5.299169999999999
1.8071218901122095 4.43067
1.8294236121921872 4.626
1.8517427996910911 5.07894
1.8740620574440425 4.8402400000000005
1.8963639900671978 5.07572
1.9186833908139995 5.58598
1.9409854680117449 5.02765
1.9633050151394713 4.55961
1.9856246367570705 4.16399
2.0079269371922672 4.78201
2.03024671027244 4.4562800000000005
2.0525491637446027 4.69782
2.074869091674931 4.94475
2.097171701569106 4.89102
2.1194917877373847 4.9012199999999995
2.141811954326636 4.9539800000000005
2.164114805233074 4.65367
2.186435135143035 6.2573
2.208738150935709 14.2337
2.231058647554722 29.2809
2.2533792288321184 23.2396
2.275682498336085 10.3389
2.298003251406138 6.20188
2.3203066942619714 6.279780000000001
2.3426276225136022 5.14689
2.3649486396617507 5.1796
2.387252348930071 5.77423
2.4095735463442893 5.31515
2.4318774374315884 5.90301
2.4541988185014043 5.775180000000001
2.476502894794693 7.29735
2.498824462909887 7.0533
2.521146125856138 6.93031
2.5434504863470337 7.1889
2.5657723414244717 7.76675
2.588076895590662 7.96455
2.610398946189713 8.20067
2.6327210958598384 8.656939999999999
2.6550259469304716 8.11519
2.6773482972090137 8.10389
2.6996533504259 8.00412
2.7219759047039602 8.25495
2.744298562293959 8.20841
2.7666039251246595 8.460189999999999
2.7889267918020164 8.60211
2.8112323652516555 8.08062
2.833555444408179 8.23802
2.8558786311183852 8.23748
2.8781845268938557 9.0777
2.9005079311721484 8.9965
2.9228140460410397 9.4288
2.9451376712799635 9.7738
2.967444008632326 9.64061
2.9897678582247247 9.48975
3.0120918213106695 9.726980000000001
3.0343984987899373 10.6059
3.0567226913198637 11.2464
3.079029599759726 11.6442
3.101354025127254 12.6037
3.123678568232338 13.1367
3.145985829517914 12.9945
3.16831061055229 13.2627
3.1906181112775593 14.1909
3.212943133635653 15.187999999999999
3.2352682779763207 14.9407
3.2575761442691227 15.630999999999998
3.2799015350264273 16.0581
3.302209649240067 16.334
3.3245352898092655 17.0267
3.3468436553365257 17.5859
3.369169549113219 17.9026
3.3914955708171384 18.9134
3.413804319727358 19.7565
3.4361305997334863 19.4128
3.4584396084414553 19.5229
3.4807661501462652 20.497
3.503092824025881 21.1208
3.5254022288463154 21.3965
3.5477291695206588 22.1757
3.5700388426251948 22.5975
3.5923660534916446 24.1351
3.6146934007816114 40.0177
3.637003482731501 93.9361
3.6593311053109985 105.745
3.681641464033634 59.8197
3.7039693653009733 31.6221
3.726297407241705 26.798000000000002
3.7486081875460804 25.8347
3.7709365132734978 26.4096
3.793247578841633 26.9125
3.8155761917550093 27.1591
3.8378875459837216 27.4552
3.8602164494827234 27.5512
3.882545499606844 28.2843
3.9048572932539183 29.0846
3.9271866390645718 29.614
3.9494987298666713 29.9942
3.971828374764527 30.8229
3.9941581705403255 30.9333
4.016470713506008 31.7564
4.038800813471445 32.3084
4.061113662089144 32.896
4.0834440696459176 33.8045
4.105774632334751 33.9184
4.128087945865126 35.0134
4.150418821249301 36.0316
4.172732448931298 37.59
4.195063640413578 38.9286
4.2173775856475215 43.3847
4.239709096631102 76.9328
4.262040768704612 248.19
4.284355196706267 337.414
4.306687193387355 218.373
4.329001947444346 84.9895
4.35133427213731 49.1605
4.373666762177566 45.4041
4.395982011761091 44.6955
4.418314834921175 45.8608
4.44063041906622 54.9008
4.4629635787515625 66.1537
4.4852969080429785 65.4292
4.5076130004776225 54.5677
4.529946671403969 50.435
4.552263106909177 50.2797
4.574597122877047 50.9821
4.596931312711224 52.2541
4.619248269273446 53.3205
4.6415828092605835 54.7321
4.663900117405352 55.7933
4.686235010953232 56.913999999999994
4.708552674085913 58.293
4.730887924602802 59.8189
4.753223354952695 60.5932
4.775541557023902 62.2753
4.797877349456786 64.4036
4.820195915032126 66.4284
4.842532072957498 67.2732
4.864868414979744 69.0603
4.88718753227192 71.4584
4.909524244902505 73.3913
4.931843734218147 74.9877
4.954180820867835 77.5607
4.976518095879839 80.2521
4.998838149695359 83.4247
5.021175803844231 87.0973
5.043496238205739 90.6677
5.065834274903528 94.7301
5.088172504230693 99.1514
5.1104935158799565 105.771
5.132832132875765 129.009
5.155153533596801 174.68900000000002
5.1774925416746225 208.78099999999998
5.199814334878411 348.405
5.2221537374521505 991.909
5.244493338631803 2839.48
5.266815727034316 7493.88
5.289155727832427 12670.0
5.311478517248165 8917.09
5.333818921080011 3001.2
5.356159527788849 609.817
5.3784829252032536 195.9
5.400823940070432 147.82
5.423147747031976 130.154
5.445489173474152 120.398
5.467830807066149 114.10799999999999
5.490155234831516 109.76
5.512497285125229 106.82600000000001
5.534822130975162 104.90799999999999
5.557164601388673 102.689
5.579489868738879 99.6974
5.601832762690846 99.1059
5.6241758697774475 98.251
5.646501775867269 97.1186
5.668845311622074 95.4586
5.691171647754637 94.6224
5.713515615597765 93.2279
5.735859800852677 92.3121
5.758186788542988 91.5439
5.780531411018185 92.1031
5.802858837297399 91.2299
5.825203900414495 91.1988
5.8475491852224 91.6422
5.869877275883075 91.9877
5.892223006467101 93.1791
5.914551544266608 94.2316
5.936897724049891 97.1763
5.959244129804903 101.932
5.981573344815301 118.62799999999999
6.0039202049061 202.33900000000003
6.026249875609095 446.851
6.04859719346037 967.74
6.070927323278297 2152.44
6.093275102315365 4378.5
6.115623113320588 5300.31
6.137953938319995 3518.48
6.160302415650845 1095.29
6.182633708324452 257.432
6.2049826554078376 118.762
6.227331838745022 94.6573
6.249663839443684 86.7836
6.27201349767565 83.7606
6.294345974611799 90.3464
6.316696111167083 102.99600000000001
6.339046488263839 96.8517
6.361379686074702 80.8318
6.383730546639482 72.6223
6.406064229255215 69.0403
6.428415576718203 68.5771
6.450749747566656 67.4669
6.47310158535871 66.3527
6.495453669698332 65.7619
6.517788579421056 65.0012
6.540141159237969 64.1922
6.562476565766648 63.5403
6.5848296444934045 63.315
6.607182974060425 62.9422
6.6295191323281015 63.2564
6.651872965955752 67.2908
6.6742096296068985 95.1882
6.6965639707294615 144.545
6.71891856698715 145.653
6.741255995248479 97.9369
6.763611104154477 69.2585
6.785949046381137 60.9847
6.808304671371482 58.8675
6.8306605557940046 58.3003
6.852999275508618 57.6359
6.875355681171544 57.4924
6.897694923437771 57.2905
6.92005185377892 56.8355
6.9423916220322655 56.6003
6.964749080490181 56.1292
6.987106804399774 56.1209
7.009447368180821 56.1809
7.031805625367033 56.0605
7.054146723727803 55.9285
7.076505517631004 55.6157
7.098864581288365 56.0574
7.121206488070854 55.3422
7.143566093607822 55.5355
7.165908543567245 55.6884
7.188268694426048 55.371
7.2106291193438095 55.82
7.232972390625943 57.5816
7.255333366030969 70.7297
7.277677189091925 128.877
7.300038718428332 181.57299999999998
7.322400526130865 152.814
7.344745183422596 92.6096
7.367107550224791 62.8006
7.389452767901992 56.9896
7.411815697249891 55.7689
7.434161478756298 55.1022
7.456524974096713 54.6538
7.478888753837185 54.5893
7.501235387657368 55.2154
7.523599738562711 55.096000000000004
7.545946944825532 55.1672
7.568311870344528 55.7392
7.5906770845765665 56.2087
7.613025156078678 57.3774
7.635390950099687 58.6817
7.657739602662809 57.7632
7.680105979923558 56.4845
7.702472650212829 56.3356
7.724822180948224 56.0087
7.747189439655568 56.5375
7.769539560075357 56.3608
7.791907410653562 57.1254
7.81425812420825 56.7431
7.836626570110925 57.0674
7.858995315087906 57.8019
7.881346924933401 58.1088
7.903716270417482 58.8397
7.926068482028405 58.9307
7.948438431475253 59.6586
7.9708086843180235 60.0033
7.993161805171116 60.5914
8.015532667162402 60.8596
8.037886398416653 62.0611
8.060257873014221 62.187
8.082629655331942 62.8324
8.104984308787587 64.1276
8.127356708900503 67.6794
8.149711981398308 73.847
8.172085002766314 76.15100000000001
8.194458336181368 72.6966
8.216814543847752 69.9206
8.23918850371002 70.2454
8.26154533906492 70.55199999999999
8.283919928836452 72.0619
8.306277395339652 72.9152
8.328652618483376 74.3292
8.351028159736202 76.3436
8.373386579575245 78.5077
8.395762759396959 80.3888
8.418121819038275 85.346
8.440498640894003 99.6323
8.462875785192262 114.385
8.485235811156207 124.791
8.507613602688501 161.255
8.529974277114228 246.3
8.552352719347912 383.61199999999997
8.574731488360351 642.749
8.59709314210385 1168.75
8.619472567021075 1828.11
8.64183487789147 2186.27
8.664214962183097 1806.69
8.686577933647762 1000.93
8.708958680784317 391.335
8.731339760774953 170.81799999999998
8.753703729764451 113.484
8.77608547780821 100.51
8.798450116065078 96.2006
8.820832535634787 93.2869
8.843215292401656 91.3465
8.865580941199045 90.0635
8.887964374703538 88.76
8.910330701447199 89.9137
8.932714815164482 92.3761
8.955099270424924 91.6904
8.977466620733543 88.8556
8.999851761421976 85.8654
9.022219798361645 83.9434
9.04460562795561 83.6776
9.066991803441677 83.26799999999999
9.089360876979615 83.0594
9.111747746589993 82.4019
9.13411751544971 82.0662
9.156505082664324 82.0795
9.178875550323522 82.346
9.20126381862328 82.729
9.223652438908596 83.0573
9.246023961427412 82.6576
9.26841328802173 82.3244
9.290785518039224 82.0517
9.313175554425882 82.8588
9.335565947154315 82.6858
9.357939245086508 82.9399
9.380330352834827 83.2056
9.40270436697103 83.1906
9.425096193225055 83.1634
9.447488380180165 84.3928
9.469863475295412 84.461
9.492256385987508 85.059
9.514632206018318 85.5812
9.537025843935714 85.787
9.559402392368193 86.5403
9.581796761000229 87.525
9.604191496441521 88.2442
9.626569144158516 92.3624
9.648964615551032 97.4375
9.671343000390081 99.1715
9.693739211225699 96.89200000000001
9.716135793237463 94.0976
9.738515290448102 93.3572
9.760912617143402 94.4135
9.783292860202891 95.5489
9.805690935076182 96.3247
9.828089385495742 97.7842
9.850470754023561 100.29899999999999
9.872869957865444 108.39399999999999
9.89525208097539 124.51700000000001
9.917652041736662 137.48
9.940052382417589 136.385
9.962435644102392 139.946
9.984836746950979 172.775
10.007220771957746 234.378
10.029622640473708 337.327
10.052007432299963 513.269
10.074410069984072 807.6669999999999
10.096813093716005 1237.08
10.119199042482517 1703.81
10.141602840636468 1902.54
10.163989564971628 1603.85
10.186394141051062 949.395
10.208799107559706 426.305
10.231187001965623 198.215
10.253592751657669 128.95600000000002
10.275981430388155 114.71700000000001
10.298387966769793 114.334
10.320794897965431 116.729
10.343184759907361 115.708
10.36559248305461 109.697
10.387983138083852 105.036
10.410391656691655 107.04700000000001
10.432800574501677 117.03
10.455192425893369 132.904
10.47760214443012 159.58100000000002
10.499994797678786 202.6
10.522405320453982 279.459
10.54479877906917 395.876
10.567210109595656 503.92800000000005
10.5896218454736 576.749
10.612016518879773 499.773
10.634429067781074 346.754
10.656824555333241 209.13
10.679237920773568 127.99700000000001
10.701651695961992 97.8722
10.724048411481384 90.0376
10.746463008485165 87.111
10.768860546937125 85.3403
10.791275969274796 83.6327
10.81369180576079 82.6111
10.836090585366925 81.5257
10.858507252467449 80.2991
10.88090686379991 79.3946
10.903324365036394 79.0358
10.925724811614439 78.6579
10.948143150509463 80.1922
10.970561909719066 79.4729
10.992963615930844 77.4597
11.015383218085756 75.0492
11.037785768347074 73.3712
11.06020621697282 72.8766
11.082627090322113 72.5822
11.105030913430326 72.0197
11.12745263854165 72.8531
11.149857314510728 76.4284
11.172279894912576 83.0893
11.194702904450653 83.7544
11.217108866490921 79.1617
11.239532736615194 74.9664
11.26193956033512 72.5268
11.284364294577085 70.7778
11.306789462371718 68.9919
11.329197585398376 67.6527
11.351623622610898 67.6631
11.37403261614354 66.3895
11.396459526308487 66.0819
11.418869393879497 65.7732
11.441297180532617 65.5513
11.463725406927658 65.1596
11.486136592353875 65.2543
11.508565700543707 65.9337
11.530977768845315 67.5791
11.553407762368774 68.5261
11.575838200059769 68.0739
11.598251599479612 65.8733
11.620682927815501 64.2258
11.64309721895548 63.6344
11.665529441478206 63.402
11.687962112597958 63.2687
11.710377748130886 62.8465
11.732811318753434 62.9409
11.755227854859067 63.333
11.777662328529495 63.0349
11.800079768750786 63.0397
11.822515149015453 62.6184
11.844950984084935 63.141000000000005
11.867369787303163 62.7086
11.889806534289491 62.9746
11.912226250487029 63.2709
11.934663912939751 63.1637
11.9571020346363 63.2909
11.979523127133968 63.1784
12.001962169624331 64.035
12.024384183972964 64.5757
12.046824150809913 67.4214
12.069264581333726 72.8263
12.091687985297767 78.7939
12.11412934550045 88.3095
12.136553680195208 102.681
12.158995973632788 123.835
12.181438735204349 152.11700000000002
12.20386447284199 180.55599999999998
12.226308172985636 200.208
12.24873485024193 195.899
12.271179492516982 167.895
12.293607112949127 132.90200000000002
12.316052700916226 99.59200000000001
12.338498763250042 81.0711
12.360927805303868 71.2588
12.383374818673879 67.0505
12.405804812803074 65.1963
12.428252780773262 64.7348
12.45070122756722 64.7108
12.473132656675375 64.5074
12.49558206341869 64.5302
12.518014453510101 64.5663
12.540464823770117 64.9298
12.562915677315177 65.0353
12.58534951575545 65.8951
12.607801338171472 68.0811
12.630236146511358 73.4986
12.652688941369085 78.6465
12.675124723177234 79.4061
12.697578494048786 75.4996
12.720032754458185 70.2008
12.742470003354093 68.35600000000001
12.764925245138771 68.0326
12.787363476431278 68.4416
12.809819703166806 68.6156
12.83227642391173 69.3736
12.854716135692716 70.0279
12.877173846755147 71.2086
12.899614549869717 71.1119
12.9220732548287 71.835
12.94453245827299 72.4161
12.966974655289818 73.5705
12.989434858002571 74.3194
13.011878055298721 75.1365
13.034339260862497 76.0958
13.056800969391883 77.2841
13.079245674017244 78.9455
13.101708390774869 80.8901
13.12415410463411 87.6201
13.146617833206086 98.9563
13.169064559883248 110.98200000000001
13.191529303857127 126.17299999999999
13.213994557076367 147.895
13.236442809902437 184.68599999999998
13.258909083908291 236.827
13.28135835851934 300.957
13.30382565690295 367.445
13.326293469022952 416.532
13.348744283242008 426.57800000000003
13.371213125129904 370.339
13.39366497011003 273.815
13.416134845360597 182.52700000000002
13.438605238843131 129.222
13.46105863690397 107.324
13.483530069144786 105.572
13.505984506951902 110.542
13.528456981549432 119.76
13.550929978879088 134.275
13.573385983253365 158.158
13.595860028340867 195.8
13.618317081455832 246.96599999999998
13.64079217790333 301.357
13.663250283359057 347.00699999999995
13.685726434770173 373.23699999999997
13.708203115221277 345.597
13.730662806148091 270.75
13.75314054697177 194.708
13.775601299246777 133.494
13.798080104050406 100.316
13.820559442405358 86.3795
13.843021793671388 82.4702
13.865502201420897 80.6151
13.887965623051947 79.8366
13.910447103807167 78.8945
13.932929122629764 77.5416
13.955394156785959 77.1469
13.977877254034569 76.1323
14.000343367582113 75.1818
14.022827546871707 74.4122
14.045294743423524 73.9585
14.06778000837062 73.315
14.090265817715476 73.1216
14.112734645763819 72.9589
14.13522154619454 72.6756
14.157691466286913 72.8005
14.180179461423874 72.6665
14.202668005486178 71.8836
14.22513957064374 71.2834
14.247629214846473 70.8323
14.270101881097517 70.6073
14.29259262906496 70.8471
14.315083930490205 71.8373
14.337558255389705 71.8614
14.360050666019726 71.8748
14.382526101071944 70.4842
14.405019624534942 69.6397
14.427513705993134 69.1985
14.449990813291825 69.2026
14.47248601302899 68.9934
14.49496423954951 68.9919
14.517460561197822 68.8096
14.539939910570322 68.70100000000001
14.562437357763558 69.361
14.58493536931253 70.678
14.607416409993311 71.3443
14.62991555254159 72.4185
14.652397725157423 72.1327
14.674898002342799 71.3271
14.697398848433282 70.7687
14.719882725991326 71.2072
14.74238471217934 71.7091
14.764869730765593 74.6911
14.787372860692983 78.0984
14.809876564079925 82.87
14.83236330125751 88.6362
14.854868153850365 97.3086
14.877356041159485 110.59200000000001
14.899862046604186 128.692
14.922351087688757 153.408
14.944858249632887 180.493
14.967365991421232 205.574
14.989856770231246 217.56099999999998
15.012365673994204 216.273
15.03485761569738 190.11900000000003
15.05736768508665 152.053
15.07987833888692 117.72
15.102372032001655 93.0549
15.124883856909658 78.5343
15.14737872204565 73.0862
15.169891721717274 71.1835
15.192405310371893 71.0336
15.214901940621196 71.5465
15.237416709527137 71.5529
15.259914520936249 71.5222
15.282430473753607 70.8373
15.304947020131227 69.5649
15.327446610371178 68.5885
15.349964346154254 67.5946
15.372465126703139 67.1383
15.394984055556009 66.842
15.417486030076159 66.7775
15.44000615566487 66.3572
15.462526881230803 66.406
15.485030653812652 66.6078
15.507552581617434 66.7149
15.530057557334603 66.5833
15.55258069104857 66.3996
15.575104429329837 66.4507
15.597611216864632 66.2081
15.620136166564563 66.2319
15.6426441664095 66.9514
15.665170331202765 68.8631
15.687697105158826 71.8455
15.710206930593545 75.3712
15.732734925158933 79.6001
15.755245972089478 85.6994
15.77777519094324 94.7641
15.800287463046663 107.62
15.822817909869592 125.834
15.84534897229804 147.112
15.867863089299354 168.299
15.890395385222186 185.607
15.912910736597423 192.01
15.935444269699861 181.49200000000002
15.957978423016485 157.011
15.980495633101265 126.831
16.003031029129367 99.1854
16.02554948280019 78.9578
16.048086125229432 69.1344
16.070623392487107 66.0468
16.09314371869582 65.2813
16.11568223789321 64.3918
16.13820381691126 63.111999999999995
16.160743591742527 62.0354
16.183283996022084 61.0141
16.205807461423195 59.8432
16.228349126881973 59.2645
16.25087385432698 59.3682
16.27341678466365 58.691
16.29594277784926 58.4959
16.31848697676433 58.98
16.341031811604868 59.4029
16.36355971058487 59.6424
16.3861058195587 59.2732
16.40863499352978 58.0689
16.431182380342005 57.0494
16.453730407713202 56.5129
16.476261501364792 56.0611
16.498810812136167 55.8655
16.52134319004079 56.1219
16.54389378792203 55.9363
16.566445031001553 55.7017
16.588979342490088 55.32
16.61153187824822 55.3373
16.634067483263312 55.2681
16.656621315414416 54.9273
16.679175797408888 54.8265
16.701713349928728 54.9736
16.72426913389191 55.1162
16.74680798922351 54.9942
16.76936507887444 55.089
16.791905240734874 55.1859
16.814463639794468 55.1414
16.837022695210294 55.1786
16.859564824093756 55.4416
16.882125194503903 56.2169
16.904668639217885 57.1585
16.927230328348003 57.2987
16.949792678493612 57.3444
16.972338104193863 56.4573
16.994901778652235 56.0828
17.017448529496576 55.8458
17.040013531998152 55.9698
17.06257920018044 56.4587
17.0851279459922 57.2678
17.107694947817667 57.8973
17.130245028099072 58.8665
17.15281336730298 60.2716
17.17536478578733 61.9437
17.19793446610687 64.3267
17.220504818648422 67.1159
17.243058251703697 70.2189
17.265629950971032 74.744
17.288184731571736 78.8946
17.310757781306908 82.68299999999999
17.33333150794385 83.655
17.355888317140174 82.8569
17.37846339986244 78.6534
17.401021565958885 73.1163
17.42359800851343 67.6225
17.44617513265564 63.0786
17.468735341390783 60.6594
17.491261035594565 59.6584
17.51396340099364 59.1503
17.536490463869136 59.3395
17.559018209820174 59.2873
17.58154663977963 59.5561
17.604251766089718 59.7373
17.626781572227713 59.9161
17.64931206518155 60.3427
17.671843245885103 60.7598
17.69455114821572 60.9431
17.717083712612634 61.2362
17.739616967569667 61.4825
17.762150914021706 61.6056
17.78486160749854 61.4956
17.807396945166804 62.0667
17.829932977143503 62.758
17.85246970436452 64.0248
17.875183204129467 65.9718
17.897721330097664 68.2457
17.920260154126645 70.4875
17.942799677153296 73.8259
17.9655159983646 77.3987
17.988056927677544 82.6494
18.010598558807683 90.1131
18.033140892692916 100.006
18.05586005052525 110.12899999999999
18.07840379824407 121.14399999999999
18.10094825154059 131.65
18.12366954819864 138.72
18.146215420998306 139.252
18.16876200220057 132.381
18.191309292745153 119.15700000000001
18.214033452627167 105.43299999999999
18.236582170236648 93.7983
18.259131600016456 87.6582
18.281681742907335 87.524
18.304408781233683 90.8539
18.32696035875955 95.8691
18.349512652227624 100.105
18.372065662579683 104.382
18.394795594587553 106.02799999999999
18.41735004715306 103.579
18.43990521943684 97.3475
18.46246111238171 88.7965
18.485193953325208 78.8648
18.507751296070428 71.3425
18.530309362314178 66.7346
18.552868153000343 63.9677
18.57560391815056 62.5369
18.59816416623245 62.2483
18.620725141597372 61.7702
18.643286845190268 61.0501
18.666025549835414 60.7405
18.688588718427933 60.0746
18.711152618092243 60.0921
18.73389353884365 59.6306
18.75645890921984 59.2239
18.77902501351406 58.9794
18.801591852673102 58.9023
18.824335739722738 58.2929
18.846904057212626 58.2732
18.8694731124168 58.0774
18.89204290628315 58.0393
18.914789774966803 57.7057
18.937361054791623 57.4411
18.959933076131318 57.169
18.982505839934877 57.2587
19.00525570560582 57.5394
19.027829963004184 57.3577
19.05040496572238 57.3774
19.072980714710468 57.3025
19.095733592739563 57.3559
19.11831084296757 57.5462
19.140888842324735 58.0592
19.16346759176222 58.3943
19.18622349753803 59.0122
19.208803755869358 59.9813
19.231384767143577 60.8952
19.253966532312948 62.1835
19.276725481241822 64.3955
19.29930876296784 66.6768
19.3218928014549 69.9484
19.34465404436217 72.9321
19.36723960516257 75.2605
19.389825925592426 76.6135
19.412413006605938 75.8125
19.43517731967805 72.7522
19.457765930683355 68.597
19.48035530514408 64.1299
19.50294544401556 60.1411
19.525712842708348 57.382
19.54830451925909 55.6198
19.570896963095727 54.696999999999996
19.593490175174704 54.1492
19.616260674962184 54.2713
19.638855432416964 53.9241
19.661450960992624 54.0635
19.68404726164677 53.9637
19.706820878021247 53.6229
19.729418731756834 53.7978
19.752017360452857 53.5723
19.77461676506804 53.88
19.797393513540218 53.9041
19.819994478951667 54.0866
19.84259622316767 54.6586
19.8651987471481 54.9977
19.887978643247177 55.255
19.91058273574792 55.5569
19.933187610901943 56.3698
19.955969879466828 57.5697
19.97857632894404 59.0537
20.00118356396599 60.5668
20.023791585494575 62.4485
20.046577028914875 65.217
20.069186632506966 67.1336
20.091797025500632 68.968
20.114408208858933 69.8561
20.137196842715273 69.4056
20.159809615886765 68.4604
20.18242318232135 65.9935
20.20503754298326 64.1456
20.227829382875154 63.2394
20.250445341109344 62.9158
20.27306209647285 63.0508
20.29567964993108 64.1548
20.31847471147704 65.0765
20.34109387027612 65.6515
20.363713830075454 65.6739
20.386334591841646 64.4136
20.409132890679302 62.0586
20.431755265564437 59.0375
20.454378445325528 56.3509
20.477002430930366 54.1894
20.499803982716553 52.8957
20.522429589228004 52.0412
20.54505600449589 51.7424
20.567683229489194 51.4425
20.590488049900088 50.9479
20.61311690359731 50.5027
20.63574656993626 50.1729
20.658553853717297 49.81100000000001
20.681185154618298 49.9099
20.703817271080066 49.6805
20.72645020407368 49.493
20.749260783967177 49.2195
20.771895359337133 49.3067
20.794530754161617 49.3385
20.817166969412938 49.0435
20.83998086114876 49.0154
20.86261872660049 48.863
20.885257415405402 49.0223
20.90789692853701 48.8737
20.930714147864748 48.82
20.953355319030678 48.7564
20.97599731745334 48.9379
20.99864014410749 48.7684
21.021460706796564 48.8771
21.044105199328826 49.202
21.06675052302631 49.3969
21.089396678865015 49.3198
21.112220600704806 49.7525
21.134868430275347 50.1425
21.15751709492456 50.2684
21.180166595629693 50.6507
21.202993892429635 51.0585
21.22564507473034 51.2472
21.24829709602816 51.53
21.27112693608965 51.5221
21.293780644891275 51.6693
21.316435195634053 50.8813
21.339090589297417 50.4278
21.361923832041875 50.015
21.384580921090404 49.2094
21.407238856007325 48.8259
21.429897637773326 48.6169
21.45273429906592 48.7238
21.475394784108598 48.6545
21.498056118951983 48.4835
21.520718304578022 48.7856
21.543558400304388 48.8699
21.566222297108816 49.0445
21.58888704765135 49.0904
21.61155265291521 49.5052
21.63439619898156 49.9173
21.657063523335786 49.9811
21.67973170537063 50.6124
21.7024007460706 51.00899999999999
21.72524775840385 51.6679
21.747918526116475 52.8095
21.770590155457388 53.9078
21.79326264741238 55.401
21.816113141960237 57.3312
21.838787368860547 59.1399
21.861462461341976 60.7568
21.884315579735777 62.7805
21.90699241312273 63.906000000000006
21.92967011506078 64.6437
21.95234868653799 64.5331
21.9752053151131 63.5764
21.997885635446785 61.8171
22.020566828293532 60.253
22.04324889464272 58.4812
22.066109049404666 57.0773
22.088792872571794 56.4752
22.111477572219204 56.4249
22.1341631493376 56.2257
22.157026846313123 56.0515
22.179714188221507 55.5366
22.202402410582668 54.6236
22.22509151438863 53.1073
22.24795876962584 51.7482
22.270649646204486 51.0168
22.293341407213727 50.2545
22.316034053646906 49.6725
22.338904883215342 49.4499
22.36159931041458 49.3366
22.38429462602756 49.3568
22.40699083104897 49.0598
22.429865251039757 49.2247
22.452563244831367 49.1443
22.47526213102522 49.2879
22.49813925616515 49.04600000000001
22.520839937143307 48.964
22.543541513520587 48.8557
22.56624398629403 48.7459
22.589124730075895 48.6388
22.611829005656723 48.8783
22.63453418063466 48.8115
22.657240256008077 49.2072
22.680124634582935 49.2376
22.70283252079775 49.3645
22.725541310413075 49.6603
22.74825100442868 49.7609
22.771139033969575 50.4513
22.79385054687155 50.50899999999999
22.81656296718292 51.2587
22.83927629590484 52.1504
22.862167992606945 53.1129
22.88488314827121 54.2393
22.907599215359284 55.3473
22.93031619487366 56.217
22.953211574954405 57.2607
22.975930389478226 57.83
22.998650119445763 58.2858
23.02137076586092 57.6295
23.044269845560063 56.6064
23.06699233506288 55.1572
23.089715744034912 53.3899
23.112617610931565 51.6353
23.135342869061212 50.3376
23.158069049684816 49.5155
23.1807961538087 49.1032
23.20370174880544 49.0355
23.226430710184808 49.0471
23.249160598093425 48.9527
23.271891413539002 48.9198
23.294800752937697 49.076
23.31753343374794 49.2189
23.340267045128353 49.2236
23.36300158808808 49.6542
23.38591468821339 49.9635
23.408651104658304 50.4304
23.431388455719986 50.9409
23.454126742409 51.7782
23.4770436196085 52.6813
23.499783787914662 53.911
23.522524894889884 54.983999999999995
23.54526694154616 56.051
23.56818761219047 56.9861
23.59093154860734 57.6393
23.613676427751283 57.9991
23.636422250635754 57.231
23.659346731118656 56.1084
23.68209445191868 54.3356
23.704843119509587 52.269
23.72759273490623 50.1968
23.750521041644767 48.7334
23.77327256312355 47.7011
23.796025035462787 46.9456
23.818956224555475 46.3327
23.841710609113413 46.2648
23.86446594758979 46.1212
23.887222241002014 45.835
23.910157285144578 45.4065
23.932915498962537 45.3788
23.955674670778713 45.482
23.978434801611975 45.1715
24.001373717286125 45.0553
24.024135776723917 44.8614
24.046898798245582 44.7693
24.06966278287146 44.8313
24.092605586582614 44.5482
24.115371508023642 44.2929
24.1381383956401 44.3429
24.16090625045381 44.2759
24.183852958731244 44.1479
24.206622758582608 44.0576
24.229393528706886 43.8299
24.252165270127392 44.0271
24.27511589952438 43.8399
24.297889594216997 43.5706
24.32066426328598 43.5343
24.34343990775613 43.706
24.36639447485003 43.5201
24.38917208083877 43.4379
24.41195066531332 43.3501
24.43490819850244 43.4811
24.457688750692377 43.2378
24.48047028445616 43.1754
24.503252800821233 43.3365
24.526214300784112 43.2659
24.548998793132213 43.3196
24.57178427117417 43.0973
24.59457073593893 43.1626
24.617536219319863 43.1781
24.64032466834748 43.184
24.663114107195035 43.0969
24.685904536893013 42.9635
24.708874020360852 42.7098
24.731666442613744 42.6157
24.754459858818787 42.5588
24.777254270007962 42.5235
24.80022777025625 42.4499
24.82302418230472 42.4299
24.845821592443674 42.5288
24.86862000170663 42.5636
24.891597535453727 42.3054
24.914397953892728 42.448
24.93719937456671 42.3658
24.96000179851076 42.568999999999996
24.98298338249997 42.7869
25.00578782394922 42.9493
25.028593271784167 42.9805
25.05157790644186 43.3318
25.07438537804115 43.5111
25.097193859145293 43.7364
25.120003350792075 43.8576
25.142992065061257 44.3437
25.165803588823465 44.5253
25.18861612625217 44.7822
25.211429678386736 44.8271
25.234422489079968 45.0662
25.257238081693636 45.035
25.280054692141732 45.1277
25.3028723214652 45.113
25.325869245420463 45.148
25.348688923599397 45.2337
25.371509623787006 45.0719
25.394331347025812 44.8789
25.41733240110666 44.4262
25.440156181590016 43.8074
25.46298098826268 43.2993
25.48580682216873 42.6856
25.50881202326435 42.1595
25.53163992281684 41.7963
25.55446885274561 41.5056
25.577298814096377 41.1799
25.600308179121807 41.0373
25.623140214533745 41.1981
25.64597328451537 41.0277
25.66898578564376 40.7431
25.691820936010206 40.7689
25.714657124097695 40.6715
25.737494350954734 40.8009
25.760511045684957 40.696
25.783350361364224 40.7893
25.806190718969255 40.766
25.82903211955018 40.8292
25.852053024868923 40.8383
25.874896522722523 40.8031
25.897741066713106 40.8541
25.920586657892454 40.9311
25.943611790812668 41.0322
25.966459487728237 41.1786
25.989308234998564 41.2389
26.01215803367705 41.5752
26.03518741123814 41.6529
26.05803932412957 41.7505
26.080892291600094 41.7969
26.10374631470478 41.7967
26.12677995397268 42.0697
26.14963609978026 41.9613
26.172493304397875 41.5659
26.19535156888223 41.5319
26.218389486949604 41.0498
26.241249882640123 40.8149
26.26411134137826 40.6274
26.28715248187403 40.504
26.31001607820869 40.2555
26.3328807407756 40.1168
26.35574647063438 40.3541
26.37879191991473 40.297
26.401659795896734 40.279
26.424528742360263 40.5049
26.447398760366614 40.672
26.470448535598294 40.7111
26.49332070826805 40.9212
26.516193955675355 41.3117
26.53906827888316 41.5355
26.562122397260108 41.6808
26.584998883685063 41.8776
26.607876449110325 42.1492
26.63075509460056 42.2175
26.65381357334404 42.3562
26.67669439061878 42.378
26.699576291163382 42.272
26.722459276044212 42.2208
26.745522132402975 41.9471
26.768407297649354 41.6897
26.791293550442003 41.3355
26.814180891848974 41.0645
26.837248143099337 40.7439
26.860137673466657 40.6609
26.88302829566349 40.3289
26.90592001075963 40.3199
26.92899167420566 40.3236
26.951885586870763 39.8168
26.974780595655517 39.6474
26.99785558178161 39.4261
27.020752794605112 39.4373
27.043651106772522 39.0268
27.06655051935668 39.1044
27.089629948036183 39.0202
27.112531573292053 38.9858
27.135434302194138 38.9635
27.158338135817015 38.8208
27.181422024430987 38.7838
27.204328079372566 38.7683
27.22723524226965 38.773
27.250143514198573 38.7859
27.273231880156334 38.9862
27.296142382065014 38.6222
27.319053996245536 38.4301
27.341966723775965 38.6069
27.365059584515222 38.7379
27.38797455070062 38.6815
27.410890633481237 38.5009
27.433807833936918 38.6502
27.456905206923906 38.7778
27.47982465472398 38.6809
27.502745223449743 38.7414
27.525666914182825 38.7194
27.548768816912457 38.7515
27.571692763693633 38.6829
27.59461783573812 38.6133
27.617723149491244 38.5207
27.640650484125285 38.353
27.66357894728264 38.2465
27.686508540048052 38.2599
27.709618414237887 38.123000000000005
27.732550278321757 38.0606
27.755483275279115 38.0775
27.778417406196485 38.0994
27.801531858397514 38.1023
27.824468269376716 38.0153
27.847405817586786 38.001999999999995
27.870344504116094 38.2258
27.893463551932008 38.3236
27.916404527281053 38.4824
27.93934664422563 38.46
27.962289903855886 38.5994
27.98541356491974 38.8406
28.00835912214229 38.9268
28.03130582533231 39.1352
28.054253675581805 39.317
28.077381967556104 39.2183
28.100332124185126 39.1856
28.123283431160893 39.1918
28.146235889577238 39.0506
28.169368830154156 38.9445
28.192323603752033 38.6811
28.215279532083304 38.3915
28.238415973016764 38.2238
28.261374223145094 38.0463
28.284333631303806 37.8273
28.307294198589954 37.6777
28.330435319167677 37.5165
28.353398217078915 37.2221
28.376362277420153 36.927
28.39932750129032 36.8449
28.422473319286713 36.7143
28.44544088262495 36.5843
28.468409612800283 36.4711
28.491379510913497 36.2615
28.51453004413313 36.1686
28.53750229057244 36.2212
28.56047570826344 36.11
28.583450298308804 36.008
28.606605564586562 35.8841
28.629582511831156 35.8856
28.65256063474956 35.8096
28.675539934446338 35.7754
28.698699951647605 35.683
28.72168161743193 35.6189
28.74466446331978 35.6938
28.767648490417624 35.6618
28.790813276438353 35.5801
28.813799678527303 35.6436
28.836787265157085 35.6653
28.859955641890075 35.6388
28.882945610203045 35.5867
28.905936766392035 35.5456
28.928929111566863 35.6293
28.952102288520145 35.4755
28.975097024308607 35.2182
28.998092952423807 35.1864
29.021090073977508 35.0315
29.04426806913204 35.0667
29.067267590245258 34.8142
29.090268308143695 34.8348
29.11327022394099 34.7724
29.13645305530891 34.6133
29.159457379627167 34.5935
29.18246290519685 34.5778
29.20546963313352 34.4922
29.22865731875826 34.5329
29.25166646419296 34.5618
29.27467681535305 34.3911
29.29768837335608 34.4199
29.320880931312562 34.4742
29.34389491580634 34.5228
29.366910110507334 34.3437
29.38992651653503 34.4221
29.41312396492981 34.4254
29.436142806456754 34.3248
29.45916286268059 34.2513
29.48236399319994 34.1567
29.50538649169417 34.0992
29.528410208259935 33.9228
29.55143514402014 33.7074
29.574641196749695 33.6299
29.597668583816574 33.4629
29.6206971934585 33.3459
29.64372702680042 33.3983
29.666938019934474 33.3213
29.689970313635285 33.1968
29.713003834422636 33.2135
29.73603858342347 33.1869
29.759254535188578 33.054
29.78229175361658 32.983000000000004
29.80533020365064 33.0608
29.82836988641968 32.9936
29.85159081507472 32.9786
29.874632976355343 32.8631
29.89767637376955 32.8841
29.920721008448314 32.8117
29.9439469322847 32.8397
29.96699405457564 32.7741
29.9900424175358 32.7586
30.013092022298157 32.6432
30.03632295963995 32.5433
30.059375061131373 32.6146
30.08242840783577 32.6842
30.105483000888153 32.7299
30.128718970092244 32.5408
30.151776069006917 32.5503
30.17483441768648 32.5578
30.198074175317235 32.5632
30.221135036724256 32.6529
30.24419715131772 32.4704
30.267260520236203 32.4164
30.290505341942243 32.5479
30.313571232750228 32.5782
30.336638381310948 32.4704
30.35970678876503 32.4069
30.38295669299435 32.3252
30.40602763151657 32.2115
30.429099832366074 32.3594
30.452173296685572 32.2195
30.47542830191959 32.2312
30.498504306502497 32.2699
30.521581577995562 32.403
30.544660117543582 32.3845
30.56792024229725 32.2093
30.59100133132069 32.2178
30.614083691845494 32.2732
30.637167325018545 32.3377
30.660432587840603 32.4516
30.683518779717886 32.3498
30.70660624769615 32.3345
30.729694992924372 32.3487
30.75296541239743 32.3852
30.77605672557558 32.2854
30.799149319462742 32.3576
30.8224236211637 32.1589
30.845518789950724 32.0884
30.868615242910597 32.0836
30.891712981195973 31.8012
30.91499247215866 31.6923
30.938092794619365 31.7012
30.96119440587579 31.654
30.984297307082752 31.5373
31.00758200598383 31.4723
31.030687500658694 31.4235
31.053794288760695 31.3696
31.076902371446767 31.3167
31.100192296997445 31.3123
31.12330298246119 31.3123
31.14641496599209 31.236
31.169528248749216 31.1167
31.19282341969534 31.1482
31.215939314557186 31.1106
31.239056512134788 31.2375
31.262175013589378 31.1057
31.28547544871168 31.0722
31.30859657161541 31.0324
31.331719001892175 31.0721
31.35484274070538 31.1212
31.378148458819545 31.1598
31.401274828443725 31.0919
31.424402510106933 31.0201
31.447712205419993 31.1313
31.470842524931633 31.0358
31.493974159989783 31.041
31.51710711176168 30.906
31.54042212308802 30.9837
31.563557722100917 30.8636
31.586694641341655 30.711
31.609832881979628 30.6555
31.63315322823208 30.6194
31.656294125521327 30.5822
31.679436347728515 30.5254
31.70257989602529 30.4339
31.725905596152327 30.3938
31.74905181052835 30.4479
31.772199354521323 30.3441
31.79534822930507 30.2689
31.818679302290967 30.3144
31.84183085259981 30.3147
31.864983737233473 30.3427
31.88813795736804 30.2704
31.911474422233013 30.2463
31.934631327356435 30.1885
31.9577895715215 30.1963
31.980949155906522 30.1814
32.004291031706956 30.2427
32.027453310562606 30.0732
32.05061693318573 29.896
32.07396288236386 30.0145
32.09712920658542 29.8734
32.12029687812702 29.7827
32.14346589817093 29.7429
32.166817291729984 29.7735
32.18998902288583 29.6294
32.21316210610336 29.5136
32.23633654256711 29.401
32.259693399663725 29.3964
32.282870556771144 29.2942
32.30604907069099 29.2806
32.329228942610065 29.2368
32.35259128243769 29.0361
32.375773884550505 29.0657
32.398957848235646 29.0988
32.422143174682176 28.9917
32.445511016471215 28.9279
32.468699082679954 28.9574
32.49188851523011 28.9133
32.51507931531304 28.819000000000003
32.538452678331 28.8274
32.56164622776311 28.7107
32.58484114831493 28.647
32.60803744118015 28.631
32.631416344731896 28.6045
32.654615396551876 28.6564
32.67781582427913 28.6097
32.701198898634416 28.4973
32.72440209253756 28.4637
32.747606665947124 28.4376
32.77081262006088 28.3072
32.79420126883317 28.3307
32.81740999876112 28.3152
32.840620112999424 28.2181
32.86383161274818 28.2373
32.88722585534586 28.3146
32.91044014056596 28.2308
32.933655814909734 28.206999999999997
32.95687287957963 28.2144
32.98027273544904 28.0519
33.00349259526636 27.99
33.026713849030116 28.0193
33.04993649794511 28.0281
33.073341986570746 28.0192
33.09656744032826 27.9379
33.11979429286444 27.9287
33.14302254538647 27.8752
33.166433686291185 27.905
33.18966475336992 27.8568
33.212897224069096 27.7433
33.23613109959831 27.7933
33.259547912343415 27.6868
33.2827846121627 27.7442
33.306022720453775 27.6592
33.32926223842861 27.5288
33.352684742614166 27.6042
33.37592709463173 27.5852
33.399170859982064 27.4211
33.422597648419426 27.3821
33.44584425514446 27.2132
33.46909227885668 27.309
33.4923417207723 27.2026
33.51577423505344 27.1967
33.539026528130385 27.0721
33.56228024307245 27.0423
33.585535381098246 26.8727
33.60897364093058 26.9562
33.63223163992385 26.914
33.6554910656699 26.785
33.678751919389796 26.7485
33.702195944520106 26.6209
33.72545966903325 26.7246
33.74872482519663 26.6117
33.771991414233746 26.6614
33.79544122444841 26.6476
33.81871069412428 26.6212
33.84198160035767 26.5925
33.86525394437455 26.6026
33.88870955949969 26.4461
33.911984794020626 26.4996
33.93526147001624 26.4826
33.958539588715006 26.3842
33.98200102861669 26.2959
34.0052820477047 26.2431
34.02856451319451 26.2722
34.05203033759056 26.0669
34.07531571090147 26.1981
34.09860253431845 26.1915
34.121890809074316 26.033
34.145362493118924 26.0505
34.16865368561615 25.9991
34.191946333164054 25.9131
34.21524043699793 25.9475
34.23871800066799 26.0176
34.26201503218366 25.8076
34.28531352370466 25.7956
34.30861347646881 25.7426
34.33209693978188 25.7013
34.3553998301885 25.6774
34.378704185565205 25.4823
34.402010007152356 25.5649
34.42549939016683 25.5764
34.44880815937748 25.5114
34.472118398533134 25.5162
34.49543010887669 25.4027
34.51892543169198 25.296
34.54224009966052 25.3439
34.56555624255917 25.3204
34.58887386163339 25.1911
34.61237514439016 25.2153
34.6356957311114 25.092
34.65901779775809 25.1406
34.68252356662995 25.0917
34.705848608458616 25.0427
34.72917513396849 25.0407
34.75250314440949 24.9465
34.77601490857862 24.9169
34.799345904259795 24.8338
34.82267838863559 24.8448
34.846012362958525 24.754
34.869530142679984 24.8351
34.89286711232212 24.7767
34.91620557568269 24.7409
34.93954553401677 24.7155
34.9630693495876 24.5818
34.986412313340814 24.5914
35.00975677584668 24.6174
35.033102738362956 24.6001
35.05663261012228 24.5606
35.0799815881786 24.4737
35.10333207003229 24.4136
35.12668405694369 24.4712
35.150220005273056 24.4042
35.17357501786656 24.3485
35.19693153931268 24.3672
35.220289570874385 24.3166
35.24383161619786 24.2283
35.267192683604904 24.3548
35.290555264930376 24.2906
35.314101899412165 24.2493
35.33746752422433 24.1879
35.36083466676374 24.1854
35.38420332829803 24.1382
35.407756095629054 24.1931
35.43112781085063 24.1715
35.45450104888391 24.118000000000002
35.477875810999194 24.1173
35.50143473172161 24.0042
35.52481255774625 24.1078
35.54819191167777 23.9694
35.57157279478914 23.9529
35.595137889488406 23.9114
35.61852184675279 23.7977
35.641907337029984 23.7242
35.665294361595684 23.7694
35.68886565090076 23.709
35.7122557598848 23.7328
35.73564740699838 23.6132
35.759040593519934 23.5754
35.78261809810353 23.5416
35.80601437933051 23.5114
35.829412203814705 23.465
35.85281157283719 23.4632
35.876395313415884 23.4743
35.8997977874528 23.3705
35.92320180988546 23.3764
35.946790244133936 23.2304
35.97019737933222 23.2152
35.993606066789866 23.1789
36.01701630779276 23.1947
36.04061101440684 23.1069
36.06402437852291 23.1981
36.08743930005611 23.1294
36.1108557802951 22.9602
36.13445678011326 23.0272
36.15787639383515 22.996
36.18129757014299 22.9428
36.20472031032821 22.8685
36.22832762423364 22.8246
36.25175350829375 22.8879
36.275180960119776 22.7472
36.298609981005924 22.8387
36.32222362992669 22.7714
36.34565580510207 22.6651
36.36908955323448 22.6527
36.39252487562093 22.624000000000002
36.416144880530226 22.5819
36.43958336764275 22.6005
36.463023432914625 22.6012
36.486465077645676 22.4961
36.51009145956204 22.5996
36.53353627947859 22.5541
36.55698268276811 22.4761
36.58043067073321 22.3904
36.60406345072071 22.2947
36.62751462435344 22.3901
36.65096738658405 22.3177
36.67460498210655 22.1817
36.69806093788647 22.2055
36.72151848619297 22.2573
36.744977628333636 22.2446
36.76862165890998 22.1324
36.79208400512205 22.1382
36.81554794910557 22.0849
36.83901349217101 21.947
36.862663978991606 21.971
36.88613273667352 21.8746
36.90960309738324 21.9213
36.933075062434064 21.8348
36.95673202673572 21.8413
36.98020721697122 21.7938
37.003684015502365 21.7152
37.027162423645365 21.6633
37.050825886711465 21.6385
37.07430753063053 21.548000000000002
37.09779078812467 21.587
37.121275660513014 21.6181
37.144945643673694 21.559
37.16843376245278 21.5651
37.19192350009803 21.5238
37.215414857931435 21.4481
37.239091382563885 21.4617
37.262585997426164 21.4602
37.28608223645736 21.4072
37.309763684451696 21.3817
37.33326318851098 21.2827
37.356764320726555 21.2426
37.380267082425526 21.2274
37.40395510942588 21.2076
37.42746114683234 21.1688
37.45096881771841 21.0853
37.474478123414166 21.0703
37.49817275092816 21.1158
37.52168534303452 21.1627
37.54519957395567 20.9949
37.568715445024665 20.9753
37.592416694607714 20.8968
37.61593586281424 20.9438
37.63945667518264 20.8793
37.66297913304891 20.8827
37.68668702630454 20.8274
37.710212792059274 20.7082
37.733740207334854 20.6948
37.757269273470364 20.7492
37.780983832050374 20.6996
37.80451621684926 20.6595
37.82805025654007 20.656999999999996
37.851585952464795 20.5827
37.8753071980695 20.5581
37.89884622345676 20.4756
37.92238690911902 20.49
37.94611318753442 20.4136
37.969657210779765 20.366
37.99320289834801 20.4058
38.016750251586465 20.325
38.04048325513017 20.2798
38.06403395679343 20.3006
38.087586328183946 20.2469
38.11114037065203 20.1849
38.13488012115898 20.22
38.1584375229181 20.1541
38.181996599821 20.0975
38.205557353221124 20.1257
38.229303872575656 20.1128
38.2528679961576 20.0255
38.27643380031219 19.9483
38.30000128639589 19.9395
38.32375459653193 19.8746
38.34732546371299 19.9103
38.37089801690786 19.8026
38.39447225747609 19.8064
38.418232380377425 19.8077
38.441810012983396 19.7862
38.46538933705673 19.6973
38.488970353960084 19.7131
38.51273731166058 19.6908
38.536321731567014 19.5943
38.55990784840681 19.5912
38.58367995004091 19.5227
38.60726947812959 19.4931
38.63086070726198 19.5542
38.654453638806274 19.5637
38.678232613930824 19.4958
38.70182896773327 19.3602
38.72542702806741 19.3735
38.7490267963045 19.3613
38.77281266709232 19.311
38.79641586862214 19.3018
38.8200207821842 19.2007
38.843627409152944 19.2303
38.86742019782782 19.1554
38.891030269149255 19.121
38.914642058016156 19.1911
38.938255565806124 19.1186
38.96205529464307 19.0651
38.98567225787121 19.022000000000002
39.00929094417078 19.0029
39.03291135492255 18.9634
39.05671804624804 18.9465
39.080341923549106 18.9936
39.103967529460334 18.9717
39.127594865365744 18.8952
39.15140854155791 18.8203
39.17503935514948 18.8143
39.19867190290282 18.7768
39.22249083587951 18.7653
39.24612686969409 18.7391
39.269764641845306 18.7027
39.293404153722804 18.7177
39.317230110864074 18.6166
39.34087311998506 18.5383
39.36451787301696 18.5765
39.388164371352595 18.5228
39.41199737518003 18.5143
39.43564738196752 18.4728
39.45929913825317 18.4462
39.48295264543308 18.4378
39.506792718520884 18.3769
39.530449745387216 18.3403
39.55410852735203 18.355999999999998
39.57776906581474 18.3258
39.60161623079 18.269000000000002
39.625280300200025 18.2599
39.64894613032202 18.2345
39.67261372255866 18.1864
39.6964680021016 18.1908
39.72013913657293 18.1434
39.74381203738292 18.1135
39.76748670593756 18.1122
39.79134812278169 18.0463
39.81502634488497 17.9944
39.83870633896685 17.9752
39.862388106436654 17.9605
39.88625668336918 17.9747
39.90994201572829 17.9342
39.933629125719285 17.8506
39.957503091207826 17.8663
39.9811937746168 17.8253
40.00488623990914 17.8184
40.02858048850006 17.7721
40.05246165409549 17.711
40.076159487492085 17.7073
40.099859108448875 17.675
40.123560518384345 17.6619
40.1474489070226 17.6599
40.171153913178564 17.5777
40.194860712584955 17.5942
40.2185693066637 17.5175
40.242464941335314 17.5208
40.26617714307655 17.4128
40.289891143772046 17.4748
40.3136069448471 17.4474
40.33750984859743 17.432000000000002
40.3612292688043 17.3301
40.3849504936829 17.3449
40.40867352466194 17.3904
40.43258372059144 17.3194
40.45631038219906 17.2922
40.48003885420956 17.1653
40.503769138055105 17.256
40.52768664931955 17.2315
40.55142057531802 17.2172
40.57515631746428 17.1422
40.599079334038514 17.1107
40.62281872700477 17.0531
40.64655994043941 17.0284
40.67030297578061 16.9985
40.69423334835778 17.0084
40.71798004609188 16.9448
40.74172857006355 16.9485
40.76547892171441 16.8641
40.7894166736039 16.8381
40.813170699248566 16.8739
40.83692655691388 16.8397
40.86068424804498 16.8389
40.884629402612525 16.7613
40.908390779366385 16.7866
40.932153993938 16.7479
40.95591904777605 16.7177
40.979871628443995 16.687
41.003640379561936 16.6665
41.02741097430883 16.6395
41.05118341413683 16.6367
41.075143444384416 16.6537
41.098919593177826 16.5496
41.1226975914255 16.557000000000002
41.14647744058318 16.4971
41.170444943946755 16.4511
41.19422851378379 16.4933
41.218013938914645 16.3945
41.24198706625173 16.3762
41.26577622087193 16.3385
41.289567235177785 16.3354
41.31336011063129 16.2467
41.337340752422875 16.262999999999998
41.361137369129835 16.2977
41.38493585138705 16.1997
41.40873620066004 16.2072
41.43272438060107 16.1555
41.45652848292052 16.1257
41.48033445666918 16.0805
41.50414230331616 16.0829
41.528138045159764 16.0797
41.551949656675205 15.9086
41.575763145513235 15.9413
41.59957851314666 15.9847
41.62358184070442 15.9393
41.64740098505737 15.8818
41.6712220126409 15.8719
41.69504492493139 15.8504
41.71905586207357 15.8679
41.74288256296395 15.835999999999999
41.766711153007456 15.7784
41.79054163368412 15.7034
41.814560204340054 15.719000000000001
41.838394485526365 15.7221
41.86223066180303 15.6565
41.88625497706819 15.6423
41.910094962812 15.6297
41.93393684811168 15.6023
41.95778063445365 15.5174
41.981812625263366 15.5199
42.00566023303407 15.525
42.029509746323676 15.4913
42.05336116662236 15.4753
42.077400857069705 15.4573
42.10125611078846 15.4017
42.12511327600405 15.3771
42.14897235421036 15.4261
42.173019768448455 15.3575
42.19688269209613 15.2993
42.22074753323349 15.2867
42.24461429335818 15.2668
42.268669455600495 15.2659
42.292540073217886 15.2611
42.31641261433284 15.1921
42.34028708044675 15.1451
42.36435001496739 15.1803
42.38822835065557 15.1357
42.41210861586426 15.056
42.4359908120986 15.0536
42.46006154323262 15.0381
42.48394762115317 15.0164
42.507835634632315 15.0225
42.531912233047436 15.0052
42.55580413732265 14.9599
42.579697981698 14.9168
42.60359376768525 14.8969
42.62767820545945 14.8303
42.65157789440821 14.8528
42.67547952952185 14.8268
42.699383112316 14.8314
42.72347541395347 14.7233
42.74738291190531 14.6735
42.771292362102166 14.7504
42.795203766063516 14.7028
42.819303956130405 14.6618
42.843219287476536 14.6312
42.86713657716324 14.6384
42.89105582671383 14.623
42.91516392983864 14.559000000000001
42.939087119032166 14.5247
42.963012272677304 14.5348
42.98693939230129 14.4939
43.01105543317513 14.4367
43.034986504731386 14.4151
43.05891954686589 14.4106
43.08285456110972 14.3606
43.10697856448665 14.3048
43.130917542983475 14.3031
43.15485849820081 14.3296
43.17880143167367 14.2545
43.20293342237094 14.2094
43.226880332449 14.1825
43.25082922540554 14.186
43.27496722682525 14.1587
43.29892010567796 14.1329
43.32287497204102 14.1672
43.34683182745632 14.0887
43.370977859791836 14.0723
43.39493871351105 14.0649
43.41890156092628 14.1002
43.44286640358341 14.0536
43.46702049182749 14.0175
43.49098934522816 13.9553
43.51496019852649 13.9611
43.5389330532723 13.9192
43.56309522248204 13.9084
43.58707210044314 13.8806
43.61105098451946 13.7582
43.63503187626491 13.8193
43.659202151562134 13.8285
43.68318707902681 13.7725
43.70717401884041 13.6915
43.731162972560874 13.6995
43.75534137913236 13.687000000000001
43.779334381108384 13.6903
43.803329401683186 13.6119
43.82732644241872 13.5765
43.8515130055166 13.604000000000001
43.87551410707659 13.5455
43.89951723350145 13.5575
43.923709934595614 13.5635
43.94771713129917 13.495
43.97172635758096 13.5032
43.99573761501002 13.4217
44.0199385169922 13.4706
44.04395385732619 13.4581
44.067971233533086 13.467
44.09199064718605 13.3735
44.11619977548961 13.38
44.14022328470671 13.2979
44.16424883610785 13.3636
44.18827643127035 13.312000000000001
44.21249381139513 13.252
44.236525514814076 13.217
44.26055926674478 13.2139
44.28459506876863 13.1887
44.3088207262813 13.2025
44.33286064928722 13.1732
44.35690262714919 13.1489
44.38094666145278 13.1072
44.4051806219871 13.1001
44.42922879003185 13.043
44.45327901929361 13.025
44.477331311362136 12.9805
44.501573600619416 12.9815
44.525630039221795 12.9813
44.54968854541895 12.9511
44.573937102200176 12.9383
44.5979997645541 12.9017
44.622064499300315 12.9087
44.64613130803592 12.8184
44.67038823869318 12.8406
44.69445921643748 12.8261
44.718532272981385 12.7868
44.742607409926194 12.7278
44.76687274034801 12.7487
44.79095205918753 12.6724
44.81503346325094 12.6472
44.839116954143876 12.6522
44.86339071028742 12.6578
44.88747839599524 12.6714
44.91156817336837 12.5768
44.93566004401666 12.5575
44.959942251908146 12.5411
44.984038330325966 12.5495
45.00813650686762 12.5364
45.03223678314731 12.5051
45.05652746888232 12.4764
45.08063196592069 12.4422
45.104738567558705 12.3984
45.128847275414856 12.4133
45.15314646515866 12.3676
45.17725940679741 12.3561
45.20137445952892 12.3231
45.22568004865265 12.2966
45.24979934496396 12.2795
45.27392075725247 12.290999999999999
45.29804428714431 12.253
45.322358426247604 12.2268
45.346486212804315 12.2254
45.370616121861914 12.1959
45.39474815505086 12.145999999999999
45.41907087049246 12.123
45.4432071734666 12.1317
45.46734560548283 12.1213
45.49148616817604 12.1218
45.51581748638564 12.0433
45.5399623320197 12.0211
45.56410931325473 12.0081
45.58825843173002 12.0024
45.61259837920865 11.9439
45.636751793816 11.956
45.66090735060093 11.9081
45.68506505120716 11.8856
45.7094136545275 11.8653
45.73357566449271 11.874
45.75773982322992 11.8623
45.78190613238733 11.8597
45.806263418194064 11.7854
45.83043404997326 11.8014
45.85460683713677 11.7531
45.87897065658495 11.7618
45.90314777634752 11.7189
45.92732705646868 11.684000000000001
45.9515084986045 11.6664
45.97588104735473 11.6571
46.00006683541565 11.6445
46.02425479047904 11.6291
46.04844491420549 11.6076
46.0728262191024 11.6332
46.09702070211635 11.603
46.12121735879483 11.5849
46.14541619080294 11.505999999999998
46.169806278764455 11.5391
46.194009483459034 11.4531
46.21821486849841 11.4561
46.24242243555223 11.4313
46.266821333570014 11.3876
46.29103328674601 11.3999
46.31524742696538 11.4086
46.33946375590237 11.3621
46.36387149104216 11.3421
46.38809221957392 11.2577
46.41231514186606 11.2729
46.436540259597464 11.2771
46.460956858999374 11.2366
46.48518638983522 11.2593
46.509418121166966 11.2142
46.533652054678114 11.1365
46.55807754555709 11.165999999999999
46.58231590571962 11.1726
46.60655647313217 11.1158
46.630988654873654 11.0684
46.655233659129024 11.1221
46.67948087571551 11.0618
46.70373030632484 11.0611
46.72817142736393 11.0239
46.752425308428684 11.0253
46.77668140861147 10.9743
46.80093972960865 10.944
46.82538981736788 10.8952
46.849652602470904 10.9001
46.87391761349769 10.9153
46.8981848521493 10.9139
46.9226439341274 10.897
46.946915650573224 10.8343
46.97118959976749 10.8413
46.99546578341598 10.785
47.019933887188216 10.775
47.04421456235744 10.7635
47.06849747711879 10.7016
47.09278263318286 10.7316
47.11725978640143 10.6783
47.14154944775105 10.6843
47.165841355555656 10.6411
47.1901355115306 10.5838
47.214621741924994 10.61
47.23892041698887 10.5757
47.26322134538975 10.5134
47.28771440635075 10.542
47.31201986422527 10.5631
47.33632758061436 10.5012
47.360637557241866 10.5216
47.38513974410611 10.5189
47.40945426407847 10.4591
47.43377104948137 10.4284
47.45809010204344 10.4127
47.48260144275502 10.3993
47.506925052572285 10.4086
47.53125093475548 10.3479
47.55557909103813 10.3546
47.58009961361992 10.3047
47.60443234110732 10.2766
47.62876734791564 10.2714
47.65310463578333 10.2551
47.6776343683373 10.2504
47.7019762413987 10.1966
47.72632040075572 10.201
47.75066684815169 10.1976
47.77520581885936 10.1335
47.799556865477655 10.1257
47.823910205386 10.1418
47.84826584033272 10.135
47.87281407745551 10.0706
47.89717432569297 10.0756
47.92153687423484 10.0814
47.94609208429692 10.0137
47.97045925671401 10.0208
47.99482873471275 9.97155
48.01920052005013 9.994769999999999
48.04376504619224 9.99848
48.068141469543484 9.99657
48.09252020552573 9.94507
48.11690125590099 9.905569999999999
48.1414751266064 9.93039
48.16586082917454 9.88375
48.19024885144316 9.83181
48.2146391951793 9.85632
48.239222439012764 9.86807
48.26361744916137 9.80223
48.28801478610016 9.82368
48.31241445160131 9.80971
48.337007097209366 9.795630000000001
48.36141144338331 9.74072
48.38581812345755 9.73378
48.41022713920929 9.70663
48.434829215320704 9.65847
48.45924292604658 9.690489999999999
48.48365897780325 9.696639999999999
48.50807737237308 9.6356
48.532688907799276 9.647689999999999
48.55711201168574 9.62296
48.581537463754074 9.58463
48.60615611725119 9.56077
48.63058628942721 9.53425
48.65501881516546 9.551969999999999
48.6794536962573 9.51415
48.70408185970339 9.522860000000001
48.72852147531801 9.4672
48.75296345168211 9.451839999999999
48.77740779059232 9.444410000000001
48.80204549302823 9.44619
48.82649458091802 9.427810000000001
48.85094603676547 9.37769
48.87539986237231 9.38616
48.90004713292306 9.34941
48.92450572200832 9.336319999999999
48.94896668628025 9.31759
48.97343002754588 9.32408
48.99808689542115 9.32891
49.02255501470614 9.31219
49.04702551642794 9.28123
49.0714984023988 9.2483
49.096164896893235 9.22432
49.120642575466796 9.19045
49.145122643748394 9.15954
49.16960510355558 9.145389999999999
49.19428125404938 9.17205
49.2187685210852 9.11009
49.243258185121555 9.09881
49.26794160167084 9.08034
49.2924360839405 9.06241
49.31693296869764 9.01249
49.34143225776915 9.04313
49.36612538195438 8.98842
49.39062950396021 9.01625
49.41513603578346 8.980939999999999
49.4396449792564 8.98621
49.46434784069503 8.95912
49.488861631846454 8.92337
49.513377840166804 8.92179
49.537896467493745 8.87722
49.56260909589029 8.82279
49.587132585683285 8.85261
49.611658500018365 8.84111
49.636186840738596 8.80158
49.66090926588511 8.81429
49.685442483902584 8.7838
49.70997813385706 8.762410000000001
49.734516217597076 8.75108
49.75924846937352 8.7527
49.7837914452858 8.75354
49.80833686055187 8.71042
49.83288471702571 8.699589999999999
49.85762682540054 8.73935
49.882179588965734 8.69401
49.9067347993235 8.63288
49.93129245833333 8.632530000000001
49.95604445336378 8.63787
49.98060703442832 8.59446
50.005172069746266 8.57192
50.02993150438364 8.56297
50.05450147301533 8.54274
50.07907390151433 8.500169999999999
50.10364879174981 8.50548
50.12841816587289 8.49509
50.1529980044635 8.484060000000001
50.17758031042124 8.45042
50.20216508562089 8.44046
50.22694442953363 8.40001
50.25153416817468 8.412289999999999
50.27612638170508 8.40964
50.300721072005196 8.385660000000001
50.325510416102105 8.359160000000001
50.350110084975064 8.324019999999999
50.37471223628208 8.32591
50.39931687190919 8.294189999999999
50.424116246675766 8.26388
50.44872587605249 8.26505
50.47333799543065 8.294030000000001
50.49795260670191 8.25233
50.52276204271512 8.215530000000001
50.54738166295838 8.20987
50.57200378079314 8.20548
50.596628398116835 8.20754
50.62144792604559 8.19444
50.646077567609396 8.14425
50.670709714377715 8.11323
50.69553683636198 8.135589999999999
50.72017401885922 8.11605
50.7448137122895 8.09093
50.76945591856022 8.091239999999999
50.79429318636823 8.06185
50.818940443716784 8.07751
50.84359021965163 8.0517
50.868242516085964 8.04632
50.893089960641895 7.9917
50.917747323549435 7.98216
50.94240721271973 7.9574300000000004
50.96706963007175 7.95592
50.99192728239342 7.961710000000001
51.01659478166073 7.9724699999999995
51.04126481489051 7.93945
51.06593738400761 7.8868100000000005
51.090805275207074 7.866639999999999
51.11548294172845 7.888960000000001
51.14016314993547 7.87625
51.164845901758845 7.82488
51.18972406304274 7.814939999999999
51.21441192780656 7.77413
51.23910234200271 7.80633
51.2637953075678 7.74608
51.288683770237945 7.7632
51.31338186432707 7.74091
51.33808251561888 7.74512
51.362978729967345 7.75052
51.387684521509755 7.73337
51.41239287610203 7.676360000000001
51.437103795691165 7.6851199999999995
51.46201036644977 7.65073
51.486726441956634 7.59992
51.51144508832545 7.59635
51.536166307509156 7.62057
51.56108326624387 7.57839
51.58580965706056 7.58139
51.61053862657523 7.53753
51.635270176746864 7.51721
51.66019755512065 7.5089
51.68493429268881 7.484660000000001
51.70967361681515 7.51006
51.73441552946465 7.48683
51.759353359237934 7.44694
51.7841004750961 7.47651
51.80885018539685 7.45115
51.833602492111254 7.41097
51.8585508051424 7.4051100000000005
51.883308330926425 7.4303300000000005
51.90806845906181 7.35545
51.932831191525715 7.329610000000001
51.95779001977161 7.3156300000000005
51.98255798721516 7.283180000000001
52.00732856494335 7.309539999999999
52.03229530577543 7.2842199999999995
52.057071130455945 7.26301
52.081849571391054 7.26692
52.106630630568695 7.24597
52.13160794279417 7.20993
52.15639426492067 7.1972
52.18118321127822 7.216660000000001
52.205974783860896 7.171819999999999
52.23096269971011 7.19671
52.255759551287994 7.17962
52.280559035098186 7.166510000000001
52.30536115314103 7.119269999999999
52.33035970494467 7.098669999999999
52.35516711807904 7.10695
52.37997717147198 7.09552
52.40478986713005 7.08771
52.42979908731974 7.065339999999999
52.454617094216 7.02226
52.47943774942214 7.02315
52.50426105495102 7.01515
52.529280976059844 7.00663
52.554109609024096 6.99931
52.57894089837482 6.93863
52.60377484613117 6.927989999999999
52.62880550079408 6.926130000000001
52.65364479223379 6.887980000000001
52.67848674816189 6.89173
52.70352547971946 6.90005
52.72837279155837 6.8876100000000005
52.753222773982785 6.83787
52.778075429022984 6.83812
52.80312495150885 6.85504
52.827982978797436 6.78632
52.85284368481815 6.76531
52.87770707160767 6.74302
52.90276741793998 6.76297
52.92763619336701 6.756869999999999
52.952507655698504 6.79598
52.977381806977576 6.76186
53.00245301017842 6.75103
53.02733256653592 6.718539999999999
53.052214817996074 6.69495
53.077099766608484 6.7207300000000005
53.102181859804446 6.661230000000001
53.127072229988265 6.6776
53.15196530349892 6.67973
53.17686108239249 6.65072
53.20195409881522 6.6272
53.22685531582556 6.584239999999999
53.25175924441303 6.573119999999999
53.27666588664027 6.55173
53.30176985962693 6.56752
53.3266819565689 6.57636
53.35159677336455 6.531280000000001
53.376514312083096 6.5053
53.40162927507703 6.5279300000000005
53.42655228516116 6.50269
53.45147802340193 6.45552
53.47660125628886 6.46645
53.50153247842639 6.42227
53.52646643496923 6.3946
53.55140312799818 6.41519
53.576537409691696 6.4058
53.60147960336152 6.394430000000001
53.626424539786164 6.37136
53.65137222105307 6.321330000000001
53.67651758529126 6.27924
53.70147078399681 6.31426
53.72642673383343 6.32265
53.75138543689533 6.28037
53.776541917524526 6.30614
53.801506154876755 6.27882
53.826473151763246 6.2695300000000005
53.851442910284916 6.25113
53.87661054126026 6.20749
53.9015858509782 6.18941
53.92656392866066 6.17727
53.95154477641532 6.18052
53.976723591801296 6.17812
54.00171000771266 6.17287
54.02669920004598 6.15758
54.051691170915745 6.13141
54.076881204886796 6.137490000000001
54.101878760928514 6.1075800000000005
54.12687910187696 6.06811
54.152077577768296 6.06075
54.1770835166946 6.05874
54.20209224691339 6.0542300000000004
54.22710377055121 6.0706
54.25231352511594 6.01989
54.27733066384342 5.98387
54.30235060239643 6.0056400000000005
54.32737334290836 5.9431400000000005
54.35259441062629 5.94219
54.377622783395324 5.9582
54.40265396455061 5.94194
54.42768795623251 5.92429
54.45292037169559 5.90956
54.477960012857906 5.86763
54.50300247099511 5.83554
54.52804774825457 5.89947
54.55329154616743 5.79814
54.57834249018678 5.788119999999999
54.6033962597977 5.7617199999999995
54.6284528571545 5.76789
54.653708072335164 5.7634
54.67877035378786 5.71305
54.70383546947698 5.6774
54.72890342156389 5.71552
54.7541700889442 5.65227
54.77924374251975 5.676480000000001
54.8043202390049 5.62199
54.82959552413022 5.53178
54.8546777351945 5.58182
54.87976279569621 5.520169999999999
54.90485070780914 5.57527
54.930137506558005 5.54304
54.95523115074295 5.5201
54.98032765308844 5.43599
55.005427015775496 5.41573
55.03072536339621 5.44957
55.05583047570572 5.41679
55.080938454927676 5.38796
55.10604930325027 5.34664
55.131359235107396 5.39919
55.15647585066083 5.32523
55.181595341907496 5.29986
55.20671771104285 5.30009
55.232039262617704 5.30622
55.25716741665048 5.27008
55.28229845518636 5.24673
55.30743238042802 5.19224
55.33276558731939 5.15559
55.357905315183636 5.14548
55.383047936390035 5.13724
55.40819345314859 5.09585
55.433538351073295 5.07425
55.458689688238415 5.0560599999999996
55.483843927614096 5.07447
55.509197623043605 5.03768
55.53435769621134 4.97622
55.55952067826466 4.97575
55.5846865714265 4.91575
55.61005202069737 4.91445
55.63522376553902 4.93427
55.66039842818645 4.89511
55.68557601087004 4.85055
55.7109532500271 4.8093699999999995
55.73613670233794 4.88008
