TT I
1.2716486653135266 7.424589999999999
1.2939594142134223 6.6950899999999995
1.3162702121660406 6.52401
1.3385810600174564 6.02986
1.3608919586137629 6.21659
1.383202908801069 6.43389
1.405513911425503 6.0727400000000005
1.4278249673332093 6.098319999999999
1.4501343378461518 5.70412
1.4724455028545926 5.85578
1.4947567236847858 5.3685599999999996
1.517068001182951 5.53915
1.5393793361953272 5.41676
1.5616907295681737 5.37549
1.5840021821477681 5.23974
1.60631369478041 5.32526
1.6286252683124185 5.91611
1.6509369035901333 5.54801
1.6732468618895553 5.01118
1.695558623192809 4.5218300000000005
1.7178704487808514 4.8134
1.7401823395001077 4.628419999999999
1.7625012545597203 4.528580000000001
1.7848028405262486 4.87327
1.8071218901122095 4.4268
1.8294236121921872 4.51363
1.8517427996910911 4.364
1.8740620574440425 4.5624
1.8963639900671978 4.55136
1.9186833908139995 4.58788
1.9409854680117449 4.78062
1.9633050151394713 5.06902
1.9856246367570705 4.551080000000001
2.0079269371922672 4.73294
2.03024671027244 4.28115
2.0525491637446027 4.29738
2.074869091674931 4.24641
2.097171701569106 4.64588
2.1194917877373847 5.00835
2.141811954326636 4.44756
2.164114805233074 4.18117
2.186435135143035 4.96045
2.208738150935709 5.87017
2.231058647554722 6.87064
2.2533792288321184 6.21269
2.275682498336085 5.761480000000001
2.298003251406138 5.49976
2.3203066942619714 5.430540000000001
2.3426276225136022 5.4535
2.3649486396617507 6.022819999999999
2.387252348930071 5.78492
2.4095735463442893 5.21349
2.4318774374315884 5.9858199999999995
2.4541988185014043 6.65635
2.476502894794693 7.027
2.498824462909887 7.68053
2.521146125856138 7.42161
2.5434504863470337 7.86172
2.5657723414244717 8.0684
2.588076895590662 8.09111
2.610398946189713 8.18775
2.6327210958598384 7.96928
2.6550259469304716 7.80537
2.6773482972090137 8.09838
2.6996533504259 8.61117
2.7219759047039602 8.231810000000001
2.744298562293959 8.489410000000001
2.7666039251246595 8.9655
2.7889267918020164 8.96772
2.8112323652516555 7.78712
2.833555444408179 8.15067
2.8558786311183852 8.12015
2.8781845268938557 8.87625
2.9005079311721484 9.026710000000001
2.9228140460410397 8.91939
2.9451376712799635 9.27704
2.967444008632326 9.27617
2.9897678582247247 9.40147
3.0120918213106695 10.251
3.0343984987899373 10.38
3.0567226913198637 10.9323
3.079029599759726 12.1577
3.101354025127254 11.9559
3.123678568232338 12.704
3.145985829517914 12.5477
3.16831061055229 12.9816
3.1906181112775593 14.2451
3.212943133635653 14.2927
3.2352682779763207 14.7659
3.2575761442691227 14.7223
3.2799015350264273 15.1556
3.302209649240067 15.6139
3.3245352898092655 16.2549
3.3468436553365257 17.1604
3.369169549113219 17.9256
3.3914955708171384 18.5275
3.413804319727358 18.6085
3.4361305997334863 18.6417
3.4584396084414553 19.0581
3.4807661501462652 19.6793
3.503092824025881 20.1014
3.5254022288463154 20.6205
3.5477291695206588 20.8124
3.5700388426251948 21.4048
3.5923660534916446 21.7792
3.6146934007816114 23.4811
3.637003482731501 28.4544
3.6593311053109985 29.891
3.681641464033634 25.9591
3.7039693653009733 24.099
3.726297407241705 24.4469
3.7486081875460804 24.4416
3.7709365132734978 25.1736
3.793247578841633 25.4258
3.8155761917550093 25.7486
3.8378875459837216 26.5101
3.8602164494827234 26.99
3.882545499606844 27.7502
3.9048572932539183 28.3603
3.9271866390645718 28.8191
3.9494987298666713 28.8989
3.971828374764527 29.505
3.9941581705403255 30.3096
4.016470713506008 30.6377
4.038800813471445 31.1877
4.061113662089144 32.0524
4.0834440696459176 33.0873
4.105774632334751 32.7272
4.128087945865126 33.6246
4.150418821249301 34.3555
4.172732448931298 35.3163
4.195063640413578 35.2736
4.2173775856475215 36.9372
4.239709096631102 40.3961
4.262040768704612 55.8781
4.284355196706267 63.9052
4.306687193387355 55.4318
4.329001947444346 44.7808
4.35133427213731 42.4682
4.373666762177566 42.1722
4.395982011761091 43.1767
4.418314834921175 44.1501
4.44063041906622 45.6227
4.4629635787515625 48.0247
4.4852969080429785 48.473
4.5076130004776225 48.1984
4.529946671403969 49.4278
4.552263106909177 49.7816
4.574597122877047 51.0544
4.596931312711224 52.8442
4.619248269273446 53.1183
4.6415828092605835 54.6967
4.663900117405352 55.5411
4.686235010953232 57.2828
4.708552674085913 58.5749
4.730887924602802 59.8288
4.753223354952695 61.306999999999995
4.775541557023902 62.9082
4.797877349456786 64.0547
4.820195915032126 66.5473
4.842532072957498 67.5939
4.864868414979744 69.6125
4.88718753227192 71.9068
4.909524244902505 74.0194
4.931843734218147 76.2584
4.954180820867835 78.4744
4.976518095879839 81.3511
4.998838149695359 84.0533
5.021175803844231 87.7578
5.043496238205739 91.2291
5.065834274903528 94.5363
5.088172504230693 99.1054
5.1104935158799565 104.07700000000001
5.132832132875765 112.45200000000001
5.155153533596801 126.7
5.1774925416746225 149.048
5.199814334878411 279.699
5.2221537374521505 966.3969999999999
5.244493338631803 2990.62
5.266815727034316 8077.11
5.289155727832427 13942.8
5.311478517248165 8983.7
5.333818921080011 2597.23
5.356159527788849 507.605
5.3784829252032536 187.62900000000002
5.400823940070432 141.718
5.423147747031976 126.072
5.445489173474152 117.134
5.467830807066149 112.398
5.490155234831516 109.34100000000001
5.512497285125229 105.575
5.534822130975162 104.09899999999999
5.557164601388673 102.46600000000001
5.579489868738879 99.7381
5.601832762690846 98.2033
5.6241758697774475 96.7128
5.646501775867269 96.7337
5.668845311622074 95.5824
5.691171647754637 94.9753
5.713515615597765 93.5385
5.735859800852677 92.6077
5.758186788542988 91.7399
5.780531411018185 91.9323
5.802858837297399 91.0412
5.825203900414495 91.2073
5.8475491852224 91.6495
5.869877275883075 92.1889
5.892223006467101 92.8444
5.914551544266608 93.8618
5.936897724049891 96.4851
5.959244129804903 101.412
5.981573344815301 115.679
6.0039202049061 196.112
6.026249875609095 467.895
6.04859719346037 1011.37
6.070927323278297 2296.81
6.093275102315365 4714.99
6.115623113320588 5471.73
6.137953938319995 2968.49
6.160302415650845 806.442
6.182633708324452 192.803
6.2049826554078376 103.92299999999999
6.227331838745022 88.2553
6.249663839443684 82.1901
6.27201349767565 78.4182
6.294345974611799 77.2853
6.316696111167083 76.4321
6.339046488263839 75.0183
6.361379686074702 71.4271
6.383730546639482 69.7558
6.406064229255215 68.0528
6.428415576718203 67.8601
6.450749747566656 66.5294
6.47310158535871 65.5551
6.495453669698332 64.7207
6.517788579421056 64.0169
6.540141159237969 62.926
6.562476565766648 62.445
6.5848296444934045 61.8748
6.607182974060425 61.1361
6.6295191323281015 60.6391
6.651872965955752 60.5912
6.6742096296068985 62.1689
6.6965639707294615 66.5215
6.71891856698715 66.1482
6.741255995248479 61.678000000000004
6.763611104154477 58.8257
6.785949046381137 57.9047
6.808304671371482 56.743
6.8306605557940046 56.7466
6.852999275508618 56.2373
6.875355681171544 56.0981
6.897694923437771 55.8711
6.92005185377892 55.9518
6.9423916220322655 55.6147
6.964749080490181 55.0176
6.987106804399774 54.8734
7.009447368180821 55.1261
7.031805625367033 54.7135
7.054146723727803 54.7144
7.076505517631004 54.428000000000004
7.098864581288365 54.5732
7.121206488070854 54.0364
7.143566093607822 53.864
7.165908543567245 54.251999999999995
7.188268694426048 53.6842
7.2106291193438095 53.5344
7.232972390625943 53.7758
7.255333366030969 54.6042
7.277677189091925 59.4213
7.300038718428332 64.396
7.322400526130865 62.1879
7.344745183422596 56.9747
7.367107550224791 54.1327
7.389452767901992 54.1551
7.411815697249891 54.0954
7.434161478756298 53.3586
7.456524974096713 53.449
7.478888753837185 53.5501
7.501235387657368 54.9701
7.523599738562711 60.3236
7.545946944825532 67.7263
7.568311870344528 69.6858
7.5906770845765665 62.8319
7.613025156078678 57.3822
7.635390950099687 55.6499
7.657739602662809 55.0131
7.680105979923558 54.8649
7.702472650212829 55.5383
7.724822180948224 55.6427
7.747189439655568 55.7112
7.769539560075357 55.8486
7.791907410653562 56.2335
7.81425812420825 56.3812
7.836626570110925 56.6862
7.858995315087906 57.2251
7.881346924933401 57.6334
7.903716270417482 58.1732
7.926068482028405 58.3083
7.948438431475253 59.2511
7.9708086843180235 59.4961
7.993161805171116 60.2231
8.015532667162402 60.683
8.037886398416653 61.3692
8.060257873014221 62.0224
8.082629655331942 62.5028
8.104984308787587 63.0445
8.127356708900503 64.1133
8.149711981398308 65.172
8.172085002766314 66.5991
8.194458336181368 67.1587
8.216814543847752 67.7138
8.23918850371002 68.8952
8.26154533906492 70.0756
8.283919928836452 71.6381
8.306277395339652 72.7417
8.328652618483376 74.1041
8.351028159736202 76.0938
8.373386579575245 78.3132
8.395762759396959 79.6402
8.418121819038275 82.773
8.440498640894003 86.4243
8.462875785192262 91.6845
8.485235811156207 103.50399999999999
8.507613602688501 151.695
8.529974277114228 264.288
8.552352719347912 426.246
8.574731488360351 704.56
8.59709314210385 1260.62
8.619472567021075 1992.15
8.64183487789147 2385.28
8.664214962183097 1809.85
8.686577933647762 857.705
8.708958680784317 320.901
8.731339760774953 146.821
8.753703729764451 106.704
8.77608547780821 97.2252
8.798450116065078 94.4831
8.820832535634787 91.7336
8.843215292401656 90.5501
8.865580941199045 89.4234
8.887964374703538 88.0819
8.910330701447199 87.4276
8.932714815164482 86.7931
8.955099270424924 86.0377
8.977466620733543 85.411
8.999851761421976 84.8898
9.022219798361645 83.8433
9.04460562795561 83.6862
9.066991803441677 83.5026
9.089360876979615 83.1386
9.111747746589993 83.1999
9.13411751544971 82.9554
9.156505082664324 82.5896
9.178875550323522 83.2857
9.20126381862328 85.637
9.223652438908596 94.2338
9.246023961427412 105.18
9.26841328802173 106.77
9.290785518039224 96.8529
9.313175554425882 87.5176
9.335565947154315 84.0895
9.357939245086508 83.5307
9.380330352834827 83.1268
9.40270436697103 83.6142
9.425096193225055 83.6851
9.447488380180165 84.5604
9.469863475295412 84.7399
9.492256385987508 85.3762
9.514632206018318 85.9609
9.537025843935714 85.9311
9.559402392368193 86.5792
9.581796761000229 87.7218
9.604191496441521 88.06299999999999
9.626569144158516 88.8371
9.648964615551032 90.2964
9.671343000390081 91.4456
9.693739211225699 91.8024
9.716135793237463 92.3191
9.738515290448102 93.2685
9.760912617143402 94.2397
9.783292860202891 95.1968
9.805690935076182 96.4127
9.828089385495742 97.4583
9.850470754023561 99.272
9.872869957865444 101.348
9.89525208097539 104.448
9.917652041736662 108.734
9.940052382417589 112.288
9.962435644102392 126.928
9.984836746950979 171.291
10.007220771957746 258.308
10.029622640473708 389.416
10.052007432299963 584.97
10.074410069984072 874.3689999999999
10.096813093716005 1336.6
10.119199042482517 1844.25
10.141602840636468 1984.18
10.163989564971628 1493.43
10.186394141051062 791.8960000000001
10.208799107559706 341.99699999999996
10.231187001965623 171.828
10.253592751657669 121.014
10.275981430388155 109.572
10.298387966769793 106.76299999999999
10.320794897965431 105.999
10.343184759907361 104.74799999999999
10.36559248305461 103.095
10.387983138083852 102.325
10.410391656691655 104.914
10.432800574501677 117.64399999999999
10.455192425893369 141.558
10.47760214443012 175.22
10.499994797678786 224.488
10.522405320453982 303.731
10.54479877906917 422.276
10.567210109595656 538.634
10.5896218454736 566.674
10.612016518879773 479.35
10.634429067781074 308.39599999999996
10.656824555333241 182.204
10.679237920773568 120.546
10.701651695961992 99.9513
10.724048411481384 92.5514
10.746463008485165 87.5355
10.768860546937125 84.8709
10.791275969274796 83.089
10.81369180576079 81.8787
10.836090585366925 81.12100000000001
10.858507252467449 79.965
10.88090686379991 78.9723
10.903324365036394 77.8611
10.925724811614439 76.8196
10.948143150509463 76.4084
10.970561909719066 75.6333
10.992963615930844 74.8519
11.015383218085756 73.9036
11.037785768347074 72.7809
11.06020621697282 72.1559
11.082627090322113 71.6843
11.105030913430326 70.9794
11.12745263854165 70.403
11.149857314510728 70.0604
11.172279894912576 71.1151
11.194702904450653 70.2929
11.217108866490921 68.9071
11.239532736615194 68.5199
11.26193956033512 68.14
11.284364294577085 67.7902
11.306789462371718 66.5762
11.329197585398376 66.4804
11.351623622610898 66.6749
11.37403261614354 66.0647
11.396459526308487 65.8416
11.418869393879497 65.358
11.441297180532617 64.9259
11.463725406927658 64.3539
11.486136592353875 64.0891
11.508565700543707 63.7885
11.530977768845315 64.1498
11.553407762368774 63.81399999999999
11.575838200059769 63.5345
11.598251599479612 63.3738
11.620682927815501 63.1561
11.64309721895548 63.1814
11.665529441478206 62.8439
11.687962112597958 62.5286
11.710377748130886 62.7334
11.732811318753434 62.5953
11.755227854859067 62.5319
11.777662328529495 62.386
11.800079768750786 62.1716
11.822515149015453 62.4008
11.844950984084935 62.4565
11.867369787303163 62.3845
11.889806534289491 62.6716
11.912226250487029 64.601
11.934663912939751 66.9933
11.9571020346363 68.4065
11.979523127133968 68.4915
12.001962169624331 66.5574
12.024384183972964 65.60600000000001
12.046824150809913 67.907
12.069264581333726 73.9244
12.091687985297767 81.6544
12.11412934550045 92.4542
12.136553680195208 107.706
12.158995973632788 130.446
12.181438735204349 159.96200000000002
12.20386447284199 193.012
12.226308172985636 205.27599999999998
12.24873485024193 194.188
12.271179492516982 154.934
12.293607112949127 113.44200000000001
12.316052700916226 85.4897
12.338498763250042 70.7452
12.360927805303868 65.2335
12.383374818673879 64.1697
12.405804812803074 63.5306
12.428252780773262 63.8818
12.45070122756722 63.8392
12.473132656675375 63.5318
12.49558206341869 63.6233
12.518014453510101 64.0215
12.540464823770117 63.948
12.562915677315177 63.9424
12.58534951575545 64.5993
12.607801338171472 64.5854
12.630236146511358 65.4091
12.652688941369085 66.307
12.675124723177234 66.6372
12.697578494048786 66.6091
12.720032754458185 66.6398
12.742470003354093 66.5632
12.764925245138771 67.3525
12.787363476431278 67.8185
12.809819703166806 68.3032
12.83227642391173 68.8304
12.854716135692716 69.4844
12.877173846755147 70.4967
12.899614549869717 70.6043
12.9220732548287 71.7192
12.94453245827299 72.1907
12.966974655289818 73.0865
12.989434858002571 74.2828
13.011878055298721 74.7259
13.034339260862497 75.9207
13.056800969391883 77.67699999999999
13.079245674017244 79.9017
13.101708390774869 82.0086
13.12415410463411 87.8969
13.146617833206086 100.648
13.169064559883248 116.294
13.191529303857127 135.031
13.213994557076367 160.395
13.236442809902437 197.408
13.258909083908291 253.14
13.28135835851934 321.629
13.30382565690295 392.605
13.326293469022952 437.25699999999995
13.348744283242008 412.92199999999997
13.371213125129904 332.89300000000003
13.39366497011003 235.87099999999998
13.416134845360597 156.74
13.438605238843131 115.26899999999999
13.46105863690397 101.46
13.483530069144786 104.132
13.505984506951902 113.164
13.528456981549432 127.139
13.550929978879088 145.155
13.573385983253365 169.542
13.595860028340867 206.722
13.618317081455832 258.258
13.64079217790333 319.436
13.663250283359057 373.167
13.685726434770173 378.11400000000003
13.708203115221277 330.64099999999996
13.730662806148091 246.547
13.75314054697177 173.75400000000002
13.775601299246777 119.49799999999999
13.798080104050406 93.9541
13.820559442405358 84.2793
13.843021793671388 81.1714
13.865502201420897 79.7894
13.887965623051947 79.2388
13.910447103807167 78.3194
13.932929122629764 76.9321
13.955394156785959 76.7731
13.977877254034569 75.9659
14.000343367582113 75.1083
14.022827546871707 74.3931
14.045294743423524 73.6593
14.06778000837062 73.3499
14.090265817715476 73.532
14.112734645763819 74.3171
14.13522154619454 75.2463
14.157691466286913 76.1365
14.180179461423874 75.7349
14.202668005486178 73.8177
14.22513957064374 71.6854
14.247629214846473 70.63
14.270101881097517 70.0427
14.29259262906496 69.7925
14.315083930490205 69.8685
14.337558255389705 69.5852
14.360050666019726 69.5406
14.382526101071944 69.2238
14.405019624534942 68.94800000000001
14.427513705993134 68.8569
14.449990813291825 68.8022
14.47248601302899 68.7154
14.49496423954951 68.8568
14.517460561197822 69.0347
14.539939910570322 68.5195
14.562437357763558 68.8056
14.58493536931253 69.4513
14.607416409993311 69.3629
14.62991555254159 69.8934
14.652397725157423 69.9757
14.674898002342799 70.1729
14.697398848433282 70.0259
14.719882725991326 70.8331
14.74238471217934 71.5551
14.764869730765593 74.6814
14.787372860692983 79.2384
14.809876564079925 85.6793
14.83236330125751 93.5264
14.854868153850365 103.605
14.877356041159485 117.838
14.899862046604186 135.392
14.922351087688757 160.577
14.944858249632887 192.16
14.967365991421232 216.71099999999998
14.989856770231246 228.50099999999998
15.012365673994204 215.562
15.03485761569738 179.68400000000003
15.05736768508665 137.661
15.07987833888692 106.611
15.102372032001655 86.7592
15.124883856909658 75.6771
15.14737872204565 71.8903
15.169891721717274 70.5769
15.192405310371893 69.91199999999999
15.214901940621196 69.3814
15.237416709527137 68.5061
15.259914520936249 68.4681
15.282430473753607 67.8033
15.304947020131227 67.1389
15.327446610371178 67.0877
15.349964346154254 66.7156
15.372465126703139 66.406
15.394984055556009 66.3666
15.417486030076159 66.3824
15.44000615566487 65.9406
15.462526881230803 65.8028
15.485030653812652 65.9172
15.507552581617434 65.6187
15.530057557334603 65.4924
15.55258069104857 65.6263
15.575104429329837 65.8101
15.597611216864632 65.7229
15.620136166564563 65.8976
15.6426441664095 66.4965
15.665170331202765 68.5222
15.687697105158826 72.5385
15.710206930593545 77.6462
15.732734925158933 83.5352
15.755245972089478 91.0402
15.77777519094324 100.148
15.800287463046663 113.208
15.822817909869592 131.72899999999998
15.84534897229804 152.19899999999998
15.867863089299354 176.64
15.890395385222186 192.699
15.912910736597423 192.68200000000002
15.935444269699861 175.3
15.957978423016485 145.453
15.980495633101265 113.76100000000001
16.003031029129367 89.925
16.02554948280019 74.2309
16.048086125229432 67.1035
16.070623392487107 64.6529
16.09314371869582 63.3545
16.11568223789321 62.0974
16.13820381691126 61.0636
16.160743591742527 60.2681
16.183283996022084 59.7297
16.205807461423195 59.119
16.228349126881973 58.6967
16.25087385432698 58.5191
16.27341678466365 58.0409
16.29594277784926 57.784
16.31848697676433 57.3725
16.341031811604868 57.1213
16.36355971058487 56.9409
16.3861058195587 56.9134
16.40863499352978 56.0894
16.431182380342005 55.7779
16.453730407713202 55.7104
16.476261501364792 55.3893
16.498810812136167 55.153
16.52134319004079 55.0973
16.54389378792203 55.0396
16.566445031001553 55.0824
16.588979342490088 54.9285
16.61153187824822 54.6859
16.634067483263312 54.7272
16.656621315414416 54.4738
16.679175797408888 54.1641
16.701713349928728 54.3046
16.72426913389191 54.4786
16.74680798922351 54.591
16.76936507887444 54.4981
16.791905240734874 54.5257
16.814463639794468 54.2759
16.837022695210294 54.3509
16.859564824093756 54.8435
16.882125194503903 54.8979
16.904668639217885 55.2839
16.927230328348003 55.3249
16.949792678493612 55.6788
16.972338104193863 55.4936
16.994901778652235 55.3237
17.017448529496576 55.2745
17.040013531998152 55.4146
17.06257920018044 55.9402
17.0851279459922 56.949
17.107694947817667 58.1745
17.130245028099072 59.1009
17.15281336730298 60.651
17.17536478578733 62.3403
17.19793446610687 64.7744
17.220504818648422 67.5753
17.243058251703697 71.0124
17.265629950971032 75.2148
17.288184731571736 79.4881
17.310757781306908 83.2799
17.33333150794385 82.51899999999999
17.355888317140174 79.9655
17.37846339986244 74.3019
17.401021565958885 68.5403
17.42359800851343 63.9944
17.44617513265564 61.2355
17.468735341390783 59.6235
17.491261035594565 59.0928
17.51396340099364 58.6919
17.536490463869136 58.7922
17.559018209820174 58.7651
17.58154663977963 58.876999999999995
17.604251766089718 59.0822
17.626781572227713 59.2794
17.64931206518155 59.3858
17.671843245885103 60.013999999999996
17.69455114821572 60.1953
17.717083712612634 60.3857
17.739616967569667 61.2101
17.762150914021706 61.6359
17.78486160749854 61.7775
17.807396945166804 62.2855
17.829932977143503 62.7714
17.85246970436452 64.0873
17.875183204129467 66.2958
17.897721330097664 69.3302
17.920260154126645 72.3993
17.942799677153296 76.1306
17.9655159983646 80.2557
17.988056927677544 85.6512
18.010598558807683 92.98
18.033140892692916 102.75299999999999
18.05586005052525 114.014
18.07840379824407 125.82799999999999
18.10094825154059 134.689
18.12366954819864 139.54
18.146215420998306 136.564
18.16876200220057 127.56299999999999
18.191309292745153 112.603
18.214033452627167 99.905
18.236582170236648 90.7215
18.259131600016456 86.5651
18.281681742907335 86.8393
18.304408781233683 91.5815
18.32696035875955 97.086
18.349512652227624 101.74700000000001
18.372065662579683 104.602
18.394795594587553 104.351
18.41735004715306 99.1095
18.43990521943684 91.6954
18.46246111238171 82.7062
18.485193953325208 74.3671
18.507751296070428 68.3651
18.530309362314178 65.1858
18.552868153000343 63.2336
18.57560391815056 62.238
18.59816416623245 61.8129
18.620725141597372 61.1527
18.643286845190268 60.5769
18.666025549835414 60.3385
18.688588718427933 59.6383
18.711152618092243 59.3981
18.73389353884365 59.1755
18.75645890921984 58.9408
18.77902501351406 58.4584
18.801591852673102 58.5529
18.824335739722738 58.0526
18.846904057212626 57.8626
18.8694731124168 57.3524
18.89204290628315 57.4759
18.914789774966803 57.2661
18.937361054791623 57.0579
18.959933076131318 56.7463
18.982505839934877 56.6793
19.00525570560582 56.8332
19.027829963004184 56.5782
19.05040496572238 56.6744
19.072980714710468 56.5729
19.095733592739563 56.6616
19.11831084296757 56.8726
19.140888842324735 57.6344
19.16346759176222 57.8945
19.18622349753803 58.7246
19.208803755869358 59.6749
19.231384767143577 61.034
19.253966532312948 62.4518
19.276725481241822 64.625
19.29930876296784 67.6823
19.3218928014549 70.0331
19.34465404436217 72.7026
19.36723960516257 74.734
19.389825925592426 74.9839
19.412413006605938 72.9454
19.43517731967805 69.388
19.457765930683355 65.3902
19.48035530514408 61.2824
19.50294544401556 58.273999999999994
19.525712842708348 55.9906
19.54830451925909 54.8162
19.570896963095727 53.8724
19.593490175174704 53.5989
19.616260674962184 53.7906
19.638855432416964 53.293
19.661450960992624 53.4808
19.68404726164677 53.3764
19.706820878021247 53.2691
19.729418731756834 53.4227
19.752017360452857 53.0161
19.77461676506804 53.288000000000004
19.797393513540218 53.2271
19.819994478951667 53.6215
19.84259622316767 54.1613
19.8651987471481 54.716
19.887978643247177 55.0856
19.91058273574792 55.7155
19.933187610901943 56.6915
19.955969879466828 57.9229
19.97857632894404 59.4177
20.00118356396599 60.7044
20.023791585494575 62.8162
20.046577028914875 65.7304
20.069186632506966 68.0075
20.091797025500632 69.6826
20.114408208858933 70.1445
20.137196842715273 69.5923
20.159809615886765 67.84
20.18242318232135 65.0121
20.20503754298326 63.099
20.227829382875154 62.0895
20.250445341109344 62.3926
20.27306209647285 62.9643
20.29567964993108 64.336
20.31847471147704 65.1706
20.34109387027612 65.6388
20.363713830075454 64.8148
20.386334591841646 63.0058
20.409132890679302 59.7616
20.431755265564437 56.9733
20.454378445325528 54.316
20.477002430930366 52.5697
20.499803982716553 51.6991
20.522429589228004 50.8325
20.54505600449589 50.3937
20.567683229489194 50.2822
20.590488049900088 50.0116
20.61311690359731 49.8979
20.63574656993626 49.754
20.658553853717297 49.4082
20.681185154618298 49.4085
20.703817271080066 49.3229
20.72645020407368 49.1399
20.749260783967177 49.1542
20.771895359337133 49.1891
20.794530754161617 49.0316
20.817166969412938 48.9538
20.83998086114876 48.924
20.86261872660049 48.6458
20.885257415405402 48.6414
20.90789692853701 48.5152
20.930714147864748 48.4352
20.953355319030678 48.4962
20.97599731745334 48.4864
20.99864014410749 48.5559
21.021460706796564 48.5398
21.044105199328826 48.6845
21.06675052302631 48.791000000000004
21.089396678865015 49.0016
21.112220600704806 49.318999999999996
21.134868430275347 49.7654
21.15751709492456 50.006
21.180166595629693 50.3113
21.202993892429635 50.8519
21.22564507473034 51.067
21.24829709602816 51.3509
21.27112693608965 51.262
21.293780644891275 51.0929
21.316435195634053 50.206
21.339090589297417 49.4895
21.361923832041875 49.1571
21.384580921090404 48.4516
21.407238856007325 48.1094
21.429897637773326 48.2431
21.45273429906592 48.3356
21.475394784108598 48.1021
21.498056118951983 48.1897
21.520718304578022 48.4613
21.543558400304388 48.577
21.566222297108816 48.7115
21.58888704765135 48.7447
21.61155265291521 49.0879
21.63439619898156 49.6219
21.657063523335786 50.0211
21.67973170537063 50.7277
21.7024007460706 51.1684
21.72524775840385 51.9604
21.747918526116475 53.0253
21.770590155457388 54.1722
21.79326264741238 55.6435
21.816113141960237 57.5196
21.838787368860547 59.4922
21.861462461341976 61.2817
21.884315579735777 63.2812
21.90699241312273 64.2529
21.92967011506078 64.2746
21.95234868653799 63.4369
21.9752053151131 61.6069
21.997885635446785 59.8423
22.020566828293532 58.3201
22.04324889464272 56.8715
22.066109049404666 56.0019
22.088792872571794 55.7475
22.111477572219204 56.0872
22.1341631493376 55.9251
22.157026846313123 55.3601
22.179714188221507 54.711999999999996
22.202402410582668 53.6253
22.22509151438863 52.0547
22.24795876962584 50.8853
22.270649646204486 50.1656
22.293341407213727 49.3806
22.316034053646906 48.9043
22.338904883215342 48.6949
22.36159931041458 48.7882
22.38429462602756 48.575
22.40699083104897 48.2856
22.429865251039757 48.2095
22.452563244831367 48.3689
22.47526213102522 48.3752
22.49813925616515 48.3997
22.520839937143307 48.258
22.543541513520587 48.4023
22.56624398629403 48.1945
22.589124730075895 48.1744
22.611829005656723 48.3402
22.63453418063466 48.3364
22.657240256008077 48.7725
22.680124634582935 48.8707
22.70283252079775 49.2967
22.725541310413075 49.7158
22.74825100442868 49.9978
22.771139033969575 50.5261
22.79385054687155 50.6971
22.81656296718292 51.3383
22.83927629590484 52.1471
22.862167992606945 53.207
22.88488314827121 54.2241
22.907599215359284 55.1985
22.93031619487366 56.2224
22.953211574954405 56.9711
22.975930389478226 57.3598
22.998650119445763 57.2122
23.02137076586092 56.3102
23.044269845560063 55.0205
23.06699233506288 53.2774
23.089715744034912 51.7605
23.112617610931565 50.4507
23.135342869061212 49.3692
23.158069049684816 48.8115
23.1807961538087 48.4448
23.20370174880544 48.5241
23.226430710184808 48.5038
23.249160598093425 48.5616
23.271891413539002 48.52
23.294800752937697 48.7913
23.31753343374794 49.1493
23.340267045128353 49.2127
23.36300158808808 49.6858
23.38591468821339 50.1301
23.408651104658304 50.5858
23.431388455719986 51.276
23.454126742409 51.995
23.4770436196085 52.8622
23.499783787914662 54.2164
23.522524894889884 54.9511
23.54526694154616 56.1179
23.56818761219047 57.1944
23.59093154860734 57.2639
23.613676427751283 57.4252
23.636422250635754 56.2458
23.659346731118656 54.5325
23.68209445191868 52.7383
23.704843119509587 50.6772
23.72759273490623 49.0426
23.750521041644767 47.8735
23.77327256312355 46.8557
23.796025035462787 46.2389
23.818956224555475 45.8097
23.841710609113413 45.6151
23.86446594758979 45.4574
23.887222241002014 45.1905
23.910157285144578 44.7813
23.932915498962537 44.8595
23.955674670778713 44.87
23.978434801611975 44.5464
24.001373717286125 44.5226
24.024135776723917 44.4389
24.046898798245582 44.2446
24.06966278287146 44.2001
24.092605586582614 44.0509
24.115371508023642 43.9111
24.1381383956401 43.6298
24.16090625045381 43.5603
24.183852958731244 43.7134
24.206622758582608 43.5903
24.229393528706886 43.2436
24.252165270127392 43.4989
24.27511589952438 43.4419
24.297889594216997 43.2258
24.32066426328598 43.0632
24.34343990775613 43.0892
24.36639447485003 43.0543
24.38917208083877 43.0063
24.41195066531332 42.9365
24.43490819850244 42.8618
24.457688750692377 42.653
24.48047028445616 42.6679
24.503252800821233 42.8317
24.526214300784112 42.9383
24.548998793132213 42.8985
24.57178427117417 42.7607
24.59457073593893 42.7419
24.617536219319863 42.7064
24.64032466834748 42.743
24.663114107195035 42.6287
24.685904536893013 42.2689
24.708874020360852 42.1425
24.731666442613744 42.1421
24.754459858818787 42.1327
24.777254270007962 42.098
24.80022777025625 41.9855
24.82302418230472 42.0332
24.845821592443674 41.8838
24.86862000170663 41.9831
24.891597535453727 42.0857
24.914397953892728 42.2217
24.93719937456671 42.0698
24.96000179851076 42.2804
24.98298338249997 42.4002
25.00578782394922 42.7149
25.028593271784167 42.7184
25.05157790644186 43.1078
25.07438537804115 43.2066
25.097193859145293 43.5113
25.120003350792075 43.9203
25.142992065061257 44.0596
25.165803588823465 44.2016
25.18861612625217 44.458
25.211429678386736 44.5162
25.234422489079968 44.507
25.257238081693636 44.5492
25.280054692141732 44.6975
25.3028723214652 44.6693
25.325869245420463 44.6806
25.348688923599397 44.7433
25.371509623787006 44.5022
25.394331347025812 44.1383
25.41733240110666 43.7585
25.440156181590016 42.9291
25.46298098826268 42.5197
25.48580682216873 41.9771
25.50881202326435 41.5109
25.53163992281684 41.178000000000004
25.55446885274561 41.0256
25.577298814096377 40.6305
25.600308179121807 40.6254
25.623140214533745 40.6803
25.64597328451537 40.4679
25.66898578564376 40.4069
25.691820936010206 40.2605
25.714657124097695 40.2497
25.737494350954734 40.3608
25.760511045684957 40.2944
25.783350361364224 40.4139
25.806190718969255 40.2954
25.82903211955018 40.3597
25.852053024868923 40.4324
25.874896522722523 40.4895
25.897741066713106 40.4037
25.920586657892454 40.4538
25.943611790812668 40.6554
25.966459487728237 40.705
25.989308234998564 40.8847
26.01215803367705 41.2272
26.03518741123814 41.3101
26.05803932412957 41.3577
26.080892291600094 41.2857
26.10374631470478 41.4449
26.12677995397268 41.4318
26.14963609978026 41.3687
26.172493304397875 41.0718
26.19535156888223 40.8453
26.218389486949604 40.4509
26.241249882640123 40.2836
26.26411134137826 40.1365
26.28715248187403 40.0496
26.31001607820869 39.9505
26.3328807407756 39.8035
26.35574647063438 40.0179
26.37879191991473 39.8366
26.401659795896734 39.9561
26.424528742360263 40.1171
26.447398760366614 40.2348
26.470448535598294 40.4343
26.49332070826805 40.6345
26.516193955675355 40.9016
26.53906827888316 41.0717
26.562122397260108 41.4396
26.584998883685063 41.717
26.607876449110325 41.8499
26.63075509460056 41.9417
26.65381357334404 42.0667
26.67669439061878 41.9507
26.699576291163382 41.6655
26.722459276044212 41.6251
26.745522132402975 41.411
26.768407297649354 41.0925
26.791293550442003 40.808
26.814180891848974 40.6574
26.837248143099337 40.2856
26.860137673466657 40.2803
26.88302829566349 39.8671
26.90592001075963 39.8803
26.92899167420566 39.6107
26.951885586870763 39.2874
26.974780595655517 39.0082
26.99785558178161 38.8813
27.020752794605112 38.7957
27.043651106772522 38.6539
27.06655051935668 38.7503
27.089629948036183 38.4944
27.112531573292053 38.4973
27.135434302194138 38.6091
27.158338135817015 38.4043
27.181422024430987 38.3484
27.204328079372566 38.2983
27.22723524226965 38.3812
27.250143514198573 38.3675
27.273231880156334 38.2361
27.296142382065014 38.2056
27.319053996245536 38.1208
27.341966723775965 38.2373
27.365059584515222 38.3274
27.38797455070062 38.3662
27.410890633481237 38.3295
27.433807833936918 38.1762
27.456905206923906 38.4049
27.47982465472398 38.3268
27.502745223449743 38.3121
27.525666914182825 38.4069
27.548768816912457 38.4051
27.571692763693633 38.2504
27.59461783573812 38.2502
27.617723149491244 38.1494
27.640650484125285 37.8542
27.66357894728264 37.8883
27.686508540048052 37.8956
27.709618414237887 37.7912
27.732550278321757 37.6945
27.755483275279115 37.7223
27.778417406196485 37.7514
27.801531858397514 37.8258
27.824468269376716 37.6466
27.847405817586786 37.6642
27.870344504116094 37.8966
27.893463551932008 37.9371
27.916404527281053 38.1281
27.93934664422563 38.2033
27.962289903855886 38.2465
27.98541356491974 38.6452
28.00835912214229 38.731
28.03130582533231 38.9339
28.054253675581805 39.008
28.077381967556104 38.9046
28.100332124185126 38.7313
28.123283431160893 38.7949
28.146235889577238 38.6244
28.169368830154156 38.4099
28.192323603752033 38.1799
28.215279532083304 37.9388
28.238415973016764 37.7315
28.261374223145094 37.5868
28.284333631303806 37.2349
28.307294198589954 37.1126
28.330435319167677 36.8282
28.353398217078915 36.6135
28.376362277420153 36.4131
28.39932750129032 36.4173
28.422473319286713 36.1637
28.44544088262495 36.1976
28.468409612800283 36.0813
28.491379510913497 35.8314
28.51453004413313 35.8417
28.53750229057244 35.7244
28.56047570826344 35.6608
28.583450298308804 35.785
28.606605564586562 35.4603
28.629582511831156 35.5918
28.65256063474956 35.4198
28.675539934446338 35.5195
28.698699951647605 35.4908
28.72168161743193 35.4867
28.74466446331978 35.4934
28.767648490417624 35.3669
28.790813276438353 35.292
28.813799678527303 35.2964
28.836787265157085 35.2426
28.859955641890075 35.2556
28.882945610203045 35.2344
28.905936766392035 35.1586
28.928929111566863 35.1656
28.952102288520145 35.0492
28.975097024308607 34.937
28.998092952423807 34.9453
29.021090073977508 34.7908
29.04426806913204 34.7453
29.067267590245258 34.5398
29.090268308143695 34.4079
29.11327022394099 34.3355
29.13645305530891 34.3351
29.159457379627167 34.2248
29.18246290519685 34.2255
29.20546963313352 34.1182
29.22865731875826 34.1409
29.25166646419296 34.1226
29.27467681535305 33.9835
29.29768837335608 34.0569
29.320880931312562 34.014
29.34389491580634 34.0404
29.366910110507334 34.03
29.38992651653503 34.0633
29.41312396492981 34.0507
29.436142806456754 34.0049
29.45916286268059 33.8453
29.48236399319994 33.7082
29.50538649169417 33.5291
29.528410208259935 33.5343
29.55143514402014 33.2629
29.574641196749695 33.1369
29.597668583816574 33.1139
29.6206971934585 32.9215
29.64372702680042 33.1077
29.666938019934474 32.9529
29.689970313635285 32.8382
29.713003834422636 32.7879
29.73603858342347 32.8216
29.759254535188578 32.7765
29.78229175361658 32.6297
29.80533020365064 32.7517
29.82836988641968 32.6487
29.85159081507472 32.6858
29.874632976355343 32.48
29.89767637376955 32.6747
29.920721008448314 32.4353
29.9439469322847 32.4474
29.96699405457564 32.4195
29.9900424175358 32.4424
30.013092022298157 32.3776
30.03632295963995 32.2894
30.059375061131373 32.3454
30.08242840783577 32.3296
30.105483000888153 32.2943
30.128718970092244 32.2564
30.151776069006917 32.3212
30.17483441768648 32.2648
30.198074175317235 32.2553
30.221135036724256 32.2639
30.24419715131772 32.1197
30.267260520236203 32.1648
30.290505341942243 32.2152
30.313571232750228 32.2108
30.336638381310948 32.1762
30.35970678876503 32.118
30.38295669299435 32.0714
30.40602763151657 32.0247
30.429099832366074 31.9608
30.452173296685572 31.949
30.47542830191959 31.9051
30.498504306502497 31.9042
30.521581577995562 31.9224
30.544660117543582 32.0053
30.56792024229725 32.1695
30.59100133132069 32.0156
30.614083691845494 31.9811
30.637167325018545 31.9901
30.660432587840603 32.0614
30.683518779717886 31.9979
30.70660624769615 32.0498
30.729694992924372 32.0711
30.75296541239743 32.053000000000004
30.77605672557558 31.9407
30.799149319462742 31.9695
30.8224236211637 31.7976
30.845518789950724 31.697
30.868615242910597 31.6717
30.891712981195973 31.3919
30.91499247215866 31.3922
30.938092794619365 31.4963
30.96119440587579 31.3628
30.984297307082752 31.2113
31.00758200598383 31.1325
31.030687500658694 31.0702
31.053794288760695 30.9723
31.076902371446767 30.8385
31.100192296997445 30.9086
31.12330298246119 30.9927
31.14641496599209 30.7892
31.169528248749216 30.8002
31.19282341969534 30.771
31.215939314557186 30.9305
31.239056512134788 30.833000000000002
31.262175013589378 30.7171
31.28547544871168 30.781
31.30859657161541 30.6789
31.331719001892175 30.6916
31.35484274070538 30.7436
31.378148458819545 30.7522
31.401274828443725 30.7528
31.424402510106933 30.7227
31.447712205419993 30.8285
31.470842524931633 30.6466
31.493974159989783 30.6371
31.51710711176168 30.6374
31.54042212308802 30.5905
31.563557722100917 30.5551
31.586694641341655 30.4436
31.609832881979628 30.2794
31.63315322823208 30.3185
31.656294125521327 30.2736
31.679436347728515 30.1465
31.70257989602529 30.0787
31.725905596152327 30.0149
31.74905181052835 29.9587
31.772199354521323 30.0827
31.79534822930507 29.9859
31.818679302290967 30.0389
31.84183085259981 30.0186
31.864983737233473 30.0135
31.88813795736804 30.066999999999997
31.911474422233013 29.8562
31.934631327356435 29.9881
31.9577895715215 29.8847
31.980949155906522 29.8039
32.004291031706956 29.7765
32.027453310562606 29.82
32.05061693318573 29.5746
32.07396288236386 29.5375
32.09712920658542 29.5638
32.12029687812702 29.4362
32.14346589817093 29.3113
32.166817291729984 29.3629
32.18998902288583 29.2491
32.21316210610336 29.2037
32.23633654256711 29.1246
32.259693399663725 29.141
32.282870556771144 29.14
32.30604907069099 29.0521
32.329228942610065 28.965
32.35259128243769 28.7865
32.375773884550505 28.689
32.398957848235646 28.7369
32.422143174682176 28.6434
32.445511016471215 28.5264
32.468699082679954 28.5772
32.49188851523011 28.6174
32.51507931531304 28.506999999999998
32.538452678331 28.5187
32.56164622776311 28.4659
32.58484114831493 28.3587
32.60803744118015 28.281
32.631416344731896 28.296
32.654615396551876 28.3437
32.67781582427913 28.2896
32.701198898634416 28.263
32.72440209253756 28.1631
32.747606665947124 28.0512
32.77081262006088 28.0747
32.79420126883317 28.0187
32.81740999876112 28.0368
32.840620112999424 27.8867
32.86383161274818 27.8408
32.88722585534586 27.7941
32.91044014056596 28.0034
32.933655814909734 27.9239
32.95687287957963 27.9442
32.98027273544904 27.8606
33.00349259526636 27.7697
33.026713849030116 27.8241
33.04993649794511 27.7882
33.073341986570746 27.6478
33.09656744032826 27.6859
33.11979429286444 27.6624
33.14302254538647 27.6959
33.166433686291185 27.6094
33.18966475336992 27.5913
33.212897224069096 27.4137
33.23613109959831 27.3997
33.259547912343415 27.4566
33.2827846121627 27.4642
33.306022720453775 27.4185
33.32926223842861 27.2748
33.352684742614166 27.3015
33.37592709463173 27.2405
33.399170859982064 27.0238
33.422597648419426 27.0407
33.44584425514446 26.9759
33.46909227885668 26.9726
33.4923417207723 26.9021
33.51577423505344 26.8913
33.539026528130385 26.7633
33.56228024307245 26.7899
33.585535381098246 26.6759
33.60897364093058 26.5512
33.63223163992385 26.5586
33.6554910656699 26.4988
33.678751919389796 26.5046
33.702195944520106 26.5238
33.72545966903325 26.523000000000003
33.74872482519663 26.3457
33.771991414233746 26.4
33.79544122444841 26.3788
33.81871069412428 26.2429
33.84198160035767 26.2703
33.86525394437455 26.2845
33.88870955949969 26.158
33.911984794020626 26.1272
33.93526147001624 26.101999999999997
33.958539588715006 26.0177
33.98200102861669 25.9619
34.0052820477047 25.8835
34.02856451319451 25.8957
34.05203033759056 25.8446
34.07531571090147 25.7889
34.09860253431845 25.8187
34.121890809074316 25.7801
34.145362493118924 25.7653
34.16865368561615 25.7313
34.191946333164054 25.6816
34.21524043699793 25.709
34.23871800066799 25.6336
34.26201503218366 25.4994
34.28531352370466 25.4829
34.30861347646881 25.4862
34.33209693978188 25.4775
34.3553998301885 25.3705
34.378704185565205 25.2623
34.402010007152356 25.2852
34.42549939016683 25.2777
34.44880815937748 25.1308
34.472118398533134 25.1298
34.49543010887669 25.0921
34.51892543169198 25.0367
34.54224009966052 24.9598
34.56555624255917 25.1011
34.58887386163339 24.9563
34.61237514439016 24.8193
34.6356957311114 24.8435
34.65901779775809 24.8884
34.68252356662995 24.8359
34.705848608458616 24.8306
34.72917513396849 24.7298
34.75250314440949 24.7338
34.77601490857862 24.576
34.799345904259795 24.5204
34.82267838863559 24.5176
34.846012362958525 24.5553
34.869530142679984 24.521
34.89286711232212 24.4745
34.91620557568269 24.4279
34.93954553401677 24.3538
34.9630693495876 24.2794
34.986412313340814 24.4001
35.00975677584668 24.4119
35.033102738362956 24.2761
35.05663261012228 24.1936
35.0799815881786 24.2544
35.10333207003229 24.2041
35.12668405694369 24.223000000000003
35.150220005273056 24.166
35.17357501786656 24.0995
35.19693153931268 24.1066
35.220289570874385 24.0522
35.24383161619786 23.9514
35.267192683604904 24.0236
35.290555264930376 23.9166
35.314101899412165 23.9469
35.33746752422433 23.9368
35.36083466676374 23.9632
35.38420332829803 23.8962
35.407756095629054 23.921999999999997
35.43112781085063 23.843000000000004
35.45450104888391 23.7531
35.477875810999194 23.8408
35.50143473172161 23.6945
35.52481255774625 23.713
35.54819191167777 23.6633
35.57157279478914 23.6139
35.595137889488406 23.5912
35.61852184675279 23.5557
35.641907337029984 23.5336
35.665294361595684 23.5041
35.68886565090076 23.4229
35.7122557598848 23.3027
35.73564740699838 23.3122
35.759040593519934 23.26
35.78261809810353 23.3052
35.80601437933051 23.2226
35.829412203814705 23.1676
35.85281157283719 23.1035
35.876395313415884 23.1837
35.8997977874528 23.1165
35.92320180988546 23.083000000000002
35.946790244133936 22.9534
35.97019737933222 22.9674
35.993606066789866 22.903000000000002
36.01701630779276 22.9189
36.04061101440684 22.8633
36.06402437852291 22.8844
36.08743930005611 22.8791
36.1108557802951 22.7819
36.13445678011326 22.7387
36.15787639383515 22.685
36.18129757014299 22.7133
36.20472031032821 22.5977
36.22832762423364 22.5477
36.25175350829375 22.5647
36.275180960119776 22.5379
36.298609981005924 22.5115
36.32222362992669 22.5526
36.34565580510207 22.5513
36.36908955323448 22.4874
36.39252487562093 22.2783
36.416144880530226 22.2768
36.43958336764275 22.3284
36.463023432914625 22.316999999999997
36.486465077645676 22.1711
36.51009145956204 22.278000000000002
36.53353627947859 22.2325
36.55698268276811 22.2576
36.58043067073321 22.1162
36.60406345072071 21.997
36.62751462435344 21.9963
36.65096738658405 22.0227
36.67460498210655 21.9415
36.69806093788647 21.9715
36.72151848619297 21.8997
36.744977628333636 21.9055
36.76862165890998 21.8229
36.79208400512205 21.8696
36.81554794910557 21.872
36.83901349217101 21.7789
36.862663978991606 21.737
36.88613273667352 21.7656
36.90960309738324 21.6338
36.933075062434064 21.6506
36.95673202673572 21.6605
36.98020721697122 21.5431
37.003684015502365 21.4968
37.027162423645365 21.4043
37.050825886711465 21.4292
37.07430753063053 21.372
37.09779078812467 21.3841
37.121275660513014 21.363000000000003
37.144945643673694 21.2398
37.16843376245278 21.2838
37.19192350009803 21.3106
37.215414857931435 21.2471
37.239091382563885 21.1218
37.262585997426164 21.1001
37.28608223645736 21.1309
37.309763684451696 21.1281
37.33326318851098 21.0321
37.356764320726555 21.0357
37.380267082425526 21.0293
37.40395510942588 20.9403
37.42746114683234 20.9035
37.45096881771841 20.8935
37.474478123414166 20.8703
37.49817275092816 20.8071
37.52168534303452 20.8297
37.54519957395567 20.7696
37.568715445024665 20.676
37.592416694607714 20.683000000000003
37.61593586281424 20.7053
37.63945667518264 20.6615
37.66297913304891 20.5663
37.68668702630454 20.5167
37.710212792059274 20.5446
37.733740207334854 20.4647
37.757269273470364 20.3989
37.780983832050374 20.4242
37.80451621684926 20.4012
37.82805025654007 20.4046
37.851585952464795 20.3698
37.8753071980695 20.3172
37.89884622345676 20.2048
37.92238690911902 20.1984
37.94611318753442 20.1666
37.969657210779765 20.1255
37.99320289834801 20.1175
38.016750251586465 20.0678
38.04048325513017 20.0338
38.06403395679343 20.0296
38.087586328183946 19.9869
38.11114037065203 20.0289
38.13488012115898 20.0012
38.1584375229181 19.9173
38.181996599821 19.8959
38.205557353221124 19.8753
38.229303872575656 19.7744
38.2528679961576 19.7709
38.27643380031219 19.7364
38.30000128639589 19.6936
38.32375459653193 19.6793
38.34732546371299 19.691
38.37089801690786 19.6134
38.39447225747609 19.6183
38.418232380377425 19.5884
38.441810012983396 19.5694
38.46538933705673 19.4582
38.488970353960084 19.5107
38.51273731166058 19.436
38.536321731567014 19.3891
38.55990784840681 19.369
38.58367995004091 19.3687
38.60726947812959 19.2852
38.63086070726198 19.3205
38.654453638806274 19.3262
38.678232613930824 19.2117
38.70182896773327 19.176
38.72542702806741 19.146
38.7490267963045 19.1817
38.77281266709232 19.0387
38.79641586862214 19.0936
38.8200207821842 19.0144
38.843627409152944 19.016
38.86742019782782 18.9739
38.891030269149255 18.9249
38.914642058016156 18.8941
38.938255565806124 18.8774
38.96205529464307 18.9225
38.98567225787121 18.9092
39.00929094417078 18.8378
39.03291135492255 18.8788
39.05671804624804 18.8682
39.080341923549106 18.7764
39.103967529460334 18.7172
39.127594865365744 18.6119
39.15140854155791 18.6149
39.17503935514948 18.6159
39.19867190290282 18.559
39.22249083587951 18.5394
39.24612686969409 18.5458
39.269764641845306 18.4604
39.293404153722804 18.3936
39.317230110864074 18.3591
39.34087311998506 18.3111
39.36451787301696 18.3649
39.388164371352595 18.2579
39.41199737518003 18.2801
39.43564738196752 18.319000000000003
39.45929913825317 18.2594
39.48295264543308 18.1897
39.506792718520884 18.182000000000002
39.530449745387216 18.1608
39.55410852735203 18.0734
39.57776906581474 18.1411
39.60161623079 18.0539
39.625280300200025 18.0195
39.64894613032202 18.0356
39.67261372255866 18.0221
39.6964680021016 17.9776
39.72013913657293 18.0186
39.74381203738292 17.9184
39.76748670593756 17.8791
39.79134812278169 17.820999999999998
39.81502634488497 17.7891
39.83870633896685 17.7424
39.862388106436654 17.735
39.88625668336918 17.7482
39.90994201572829 17.715
39.933629125719285 17.6201
39.957503091207826 17.6047
39.9811937746168 17.6885
40.00488623990914 17.5891
40.02858048850006 17.6058
40.05246165409549 17.5852
40.076159487492085 17.5091
40.099859108448875 17.4924
40.123560518384345 17.4562
40.1474489070226 17.436
40.171153913178564 17.4055
40.194860712584955 17.4154
40.2185693066637 17.3794
40.242464941335314 17.3059
40.26617714307655 17.3122
40.289891143772046 17.2884
40.3136069448471 17.1928
40.33750984859743 17.1829
40.3612292688043 17.1853
40.3849504936829 17.1561
40.40867352466194 17.1596
40.43258372059144 17.1358
40.45631038219906 17.087
40.48003885420956 17.0151
40.503769138055105 17.014
40.52768664931955 16.9788
40.55142057531802 16.9887
40.57515631746428 16.9614
40.599079334038514 16.8805
40.62281872700477 16.9107
40.64655994043941 16.8044
40.67030297578061 16.8163
40.69423334835778 16.8491
40.71798004609188 16.7926
40.74172857006355 16.7294
40.76547892171441 16.7185
40.7894166736039 16.6555
40.813170699248566 16.6799
40.83692655691388 16.6355
40.86068424804498 16.6139
40.884629402612525 16.6081
40.908390779366385 16.5703
40.932153993938 16.5164
40.95591904777605 16.500999999999998
40.979871628443995 16.5148
41.003640379561936 16.511
41.02741097430883 16.467
41.05118341413683 16.369
41.075143444384416 16.3064
41.098919593177826 16.3543
41.1226975914255 16.3571
41.14647744058318 16.2834
41.170444943946755 16.2556
41.19422851378379 16.2908
41.218013938914645 16.1658
41.24198706625173 16.1882
41.26577622087193 16.1973
41.289567235177785 16.1526
41.31336011063129 16.1726
41.337340752422875 16.0998
41.361137369129835 16.054000000000002
41.38493585138705 16.0391
41.40873620066004 15.9726
41.43272438060107 16.0176
41.45652848292052 15.9756
41.48033445666918 15.8882
41.50414230331616 15.8753
41.528138045159764 15.9031
41.551949656675205 15.8078
41.575763145513235 15.7964
41.59957851314666 15.7808
41.62358184070442 15.7276
41.64740098505737 15.6879
41.6712220126409 15.7106
41.69504492493139 15.6189
41.71905586207357 15.6157
41.74288256296395 15.6262
41.766711153007456 15.6129
41.79054163368412 15.5474
41.814560204340054 15.5834
41.838394485526365 15.5495
41.86223066180303 15.4137
41.88625497706819 15.3767
41.910094962812 15.4427
41.93393684811168 15.4501
41.95778063445365 15.3685
41.981812625263366 15.3008
42.00566023303407 15.3373
42.029509746323676 15.2926
42.05336116662236 15.3513
42.077400857069705 15.2683
42.10125611078846 15.2249
42.12511327600405 15.1726
42.14897235421036 15.1437
42.173019768448455 15.1379
42.19688269209613 15.0823
42.22074753323349 15.1075
42.24461429335818 15.0861
42.268669455600495 15.0585
42.292540073217886 14.9957
42.31641261433284 14.9821
42.34028708044675 14.9616
42.36435001496739 15.0098
42.38822835065557 14.9209
42.41210861586426 14.8885
42.4359908120986 14.8532
42.46006154323262 14.8319
42.48394762115317 14.8366
42.507835634632315 14.8731
42.531912233047436 14.7559
42.55580413732265 14.7238
42.579697981698 14.7062
42.60359376768525 14.7074
42.62767820545945 14.6908
42.65157789440821 14.6527
42.67547952952185 14.6562
42.699383112316 14.5929
42.72347541395347 14.5261
42.74738291190531 14.537
42.771292362102166 14.527999999999999
42.795203766063516 14.4512
42.819303956130405 14.4828
42.843219287476536 14.4701
42.86713657716324 14.4086
42.89105582671383 14.3925
42.91516392983864 14.4119
42.939087119032166 14.347999999999999
42.963012272677304 14.3278
42.98693939230129 14.315999999999999
43.01105543317513 14.3135
43.034986504731386 14.2754
43.05891954686589 14.2151
43.08285456110972 14.205
43.10697856448665 14.1838
43.130917542983475 14.194
43.15485849820081 14.1668
43.17880143167367 14.0682
43.20293342237094 14.0385
43.226880332449 14.0581
43.25082922540554 14.0595
43.27496722682525 14.0124
43.29892010567796 14.019
43.32287497204102 13.9977
43.34683182745632 13.9281
43.370977859791836 13.9087
43.39493871351105 13.8556
43.41890156092628 13.8774
43.44286640358341 13.8244
43.46702049182749 13.8097
43.49098934522816 13.8176
43.51496019852649 13.7597
43.5389330532723 13.776
43.56309522248204 13.7323
43.58707210044314 13.6929
43.61105098451946 13.634
43.63503187626491 13.6692
43.659202151562134 13.6576
43.68318707902681 13.6324
43.70717401884041 13.5817
43.731162972560874 13.5793
43.75534137913236 13.4995
43.779334381108384 13.4459
43.803329401683186 13.4895
43.82732644241872 13.3984
43.8515130055166 13.4273
43.87551410707659 13.4202
43.89951723350145 13.4111
43.923709934595614 13.3599
43.94771713129917 13.3738
43.97172635758096 13.3065
43.99573761501002 13.2988
44.0199385169922 13.2789
44.04395385732619 13.3054
44.067971233533086 13.2118
44.09199064718605 13.2446
44.11619977548961 13.228
44.14022328470671 13.1518
44.16424883610785 13.1651
44.18827643127035 13.1428
44.21249381139513 13.0882
44.236525514814076 13.065
44.26055926674478 13.0472
44.28459506876863 13.0442
44.3088207262813 13.0279
44.33286064928722 12.9845
44.35690262714919 12.9697
44.38094666145278 12.9543
44.4051806219871 12.9432
44.42922879003185 12.9245
44.45327901929361 12.827
44.477331311362136 12.8593
44.501573600619416 12.8133
44.525630039221795 12.7441
44.54968854541895 12.7704
44.573937102200176 12.7757
44.5979997645541 12.7443
44.622064499300315 12.6669
44.64613130803592 12.684000000000001
44.67038823869318 12.7006
44.69445921643748 12.6435
44.718532272981385 12.5948
44.742607409926194 12.5789
44.76687274034801 12.5454
44.79095205918753 12.5214
44.81503346325094 12.5489
44.839116954143876 12.5632
44.86339071028742 12.5288
44.88747839599524 12.4952
44.91156817336837 12.4958
44.93566004401666 12.4394
44.959942251908146 12.4048
44.984038330325966 12.3991
45.00813650686762 12.3829
45.03223678314731 12.3494
45.05652746888232 12.3125
45.08063196592069 12.3074
45.104738567558705 12.283
45.128847275414856 12.2133
45.15314646515866 12.2012
45.17725940679741 12.235
45.20137445952892 12.1941
45.22568004865265 12.1549
45.24979934496396 12.1447
45.27392075725247 12.1228
45.29804428714431 12.1016
45.322358426247604 12.0612
45.346486212804315 12.0111
45.370616121861914 12.0284
45.39474815505086 12.0414
45.41907087049246 12.0141
45.4432071734666 11.9777
45.46734560548283 11.9805
45.49148616817604 11.9521
45.51581748638564 11.931
45.5399623320197 11.918
45.56410931325473 11.8639
45.58825843173002 11.8752
45.61259837920865 11.8546
45.636751793816 11.8293
45.66090735060093 11.7707
45.68506505120716 11.7407
45.7094136545275 11.7308
45.73357566449271 11.6681
45.75773982322992 11.7019
45.78190613238733 11.6789
45.806263418194064 11.5903
45.83043404997326 11.6358
45.85460683713677 11.6114
45.87897065658495 11.6319
45.90314777634752 11.5634
45.92732705646868 11.5582
45.9515084986045 11.5008
45.97588104735473 11.4876
46.00006683541565 11.4588
46.02425479047904 11.4504
46.04844491420549 11.4852
46.0728262191024 11.4858
46.09702070211635 11.4349
46.12121735879483 11.4238
46.14541619080294 11.3852
46.169806278764455 11.3723
46.194009483459034 11.3703
46.21821486849841 11.3596
46.24242243555223 11.3327
46.266821333570014 11.286
46.29103328674601 11.2751
46.31524742696538 11.244000000000002
46.33946375590237 11.2048
46.36387149104216 11.1654
46.38809221957392 11.1372
46.41231514186606 11.1322
46.436540259597464 11.1424
46.460956858999374 11.0689
46.48518638983522 11.050999999999998
46.509418121166966 11.0617
46.533652054678114 11.0394
46.55807754555709 11.0068
46.58231590571962 11.0117
46.60655647313217 10.9806
46.630988654873654 10.985
46.655233659129024 10.9353
46.67948087571551 10.927
46.70373030632484 10.8984
46.72817142736393 10.8753
46.752425308428684 10.8654
46.77668140861147 10.8305
46.80093972960865 10.8019
46.82538981736788 10.7562
46.849652602470904 10.7902
46.87391761349769 10.7308
46.8981848521493 10.7305
46.9226439341274 10.6967
46.946915650573224 10.6611
46.97118959976749 10.6915
46.99546578341598 10.6711
47.019933887188216 10.6653
47.04421456235744 10.6132
47.06849747711879 10.5872
47.09278263318286 10.534
47.11725978640143 10.5463
47.14154944775105 10.5444
47.165841355555656 10.5508
47.1901355115306 10.5107
47.214621741924994 10.5119
47.23892041698887 10.4591
47.26322134538975 10.4337
47.28771440635075 10.3746
47.31201986422527 10.3873
47.33632758061436 10.4065
47.360637557241866 10.3737
47.38513974410611 10.3691
47.40945426407847 10.3473
47.43377104948137 10.3156
47.45809010204344 10.2796
47.48260144275502 10.2622
47.506925052572285 10.2371
47.53125093475548 10.2166
47.55557909103813 10.2264
47.58009961361992 10.182
47.60443234110732 10.2006
47.62876734791564 10.175
47.65310463578333 10.1083
47.6776343683373 10.0885
47.7019762413987 10.0812
47.72632040075572 10.0455
47.75066684815169 10.0555
47.77520581885936 10.0007
47.799556865477655 9.99817
47.823910205386 9.99416
47.84826584033272 9.993839999999999
47.87281407745551 9.96138
47.89717432569297 10.003
47.92153687423484 9.95662
47.94609208429692 9.947989999999999
47.97045925671401 9.92685
47.99482873471275 9.87774
48.01920052005013 9.8632
48.04376504619224 9.86336
48.068141469543484 9.88096
48.09252020552573 9.79756
48.11690125590099 9.78909
48.1414751266064 9.75485
48.16586082917454 9.76443
48.19024885144316 9.72123
48.2146391951793 9.74335
48.239222439012764 9.742389999999999
48.26361744916137 9.701789999999999
48.28801478610016 9.68705
48.31241445160131 9.688989999999999
48.337007097209366 9.62549
48.36141144338331 9.64035
48.38581812345755 9.56867
48.41022713920929 9.608419999999999
48.434829215320704 9.55752
48.45924292604658 9.57815
48.48365897780325 9.55195
48.50807737237308 9.501380000000001
48.532688907799276 9.50509
48.55711201168574 9.44767
48.581537463754074 9.4499
48.60615611725119 9.414810000000001
48.63058628942721 9.41261
48.65501881516546 9.42807
48.6794536962573 9.41155
48.70408185970339 9.39799
48.72852147531801 9.33637
48.75296345168211 9.307910000000001
48.77740779059232 9.32674
48.80204549302823 9.334389999999999
48.82649458091802 9.31051
48.85094603676547 9.28077
48.87539986237231 9.25114
48.90004713292306 9.25307
48.92450572200832 9.224910000000001
48.94896668628025 9.17764
48.97343002754588 9.19272
48.99808689542115 9.19228
49.02255501470614 9.17339
49.04702551642794 9.108889999999999
49.0714984023988 9.11364
49.096164896893235 9.10056
49.120642575466796 9.09859
49.145122643748394 9.07275
49.16960510355558 9.03744
49.19428125404938 9.01675
49.2187685210852 9.00179
49.243258185121555 9.015
49.26794160167084 8.98069
49.2924360839405 8.98437
49.31693296869764 8.94101
49.34143225776915 8.92817
49.36612538195438 8.873610000000001
49.39062950396021 8.85261
49.41513603578346 8.867189999999999
49.4396449792564 8.847430000000001
49.46434784069503 8.87284
49.488861631846454 8.83533
49.513377840166804 8.83078
49.537896467493745 8.77173
49.56260909589029 8.72467
49.587132585683285 8.76356
49.611658500018365 8.73617
49.636186840738596 8.71999
49.66090926588511 8.73859
49.685442483902584 8.71856
49.70997813385706 8.66575
49.734516217597076 8.62354
49.75924846937352 8.64403
49.7837914452858 8.631960000000001
49.80833686055187 8.62841
49.83288471702571 8.59228
49.85762682540054 8.60251
49.882179588965734 8.55226
49.9067347993235 8.52334
49.93129245833333 8.534289999999999
49.95604445336378 8.5361
49.98060703442832 8.49761
50.005172069746266 8.47758
50.02993150438364 8.45848
50.05450147301533 8.43407
50.07907390151433 8.43877
50.10364879174981 8.41576
50.12841816587289 8.39012
50.1529980044635 8.377880000000001
50.17758031042124 8.381960000000001
50.20216508562089 8.3362
50.22694442953363 8.337539999999999
50.25153416817468 8.32899
50.27612638170508 8.27075
50.300721072005196 8.24788
50.325510416102105 8.2337
50.350110084975064 8.22638
50.37471223628208 8.226280000000001
50.39931687190919 8.21692
50.424116246675766 8.228010000000001
50.44872587605249 8.16638
50.47333799543065 8.15855
50.49795260670191 8.15088
50.52276204271512 8.14052
50.54738166295838 8.16156
50.57200378079314 8.13555
50.596628398116835 8.0559
50.62144792604559 8.09736
50.646077567609396 8.08659
50.670709714377715 8.06604
50.69553683636198 8.048580000000001
50.72017401885922 8.018369999999999
50.7448137122895 8.00115
50.76945591856022 7.969310000000001
50.79429318636823 7.9974
50.818940443716784 7.963089999999999
50.84359021965163 7.9438
50.868242516085964 7.913410000000001
50.893089960641895 7.92355
50.917747323549435 7.889880000000001
50.94240721271973 7.89058
50.96706963007175 7.83467
50.99192728239342 7.85733
51.01659478166073 7.87511
51.04126481489051 7.8239399999999995
51.06593738400761 7.826860000000001
51.090805275207074 7.801139999999999
51.11548294172845 7.79541
51.14016314993547 7.7615
51.164845901758845 7.76807
51.18972406304274 7.7430699999999995
51.21441192780656 7.6954199999999995
51.23910234200271 7.69865
51.2637953075678 7.66538
51.288683770237945 7.6778699999999995
51.31338186432707 7.66155
51.33808251561888 7.62573
51.362978729967345 7.578410000000001
51.387684521509755 7.60505
51.41239287610203 7.58515
51.437103795691165 7.55832
51.46201036644977 7.55962
51.486726441956634 7.5143699999999995
51.51144508832545 7.53357
51.536166307509156 7.51761
51.56108326624387 7.46
51.58580965706056 7.46398
51.61053862657523 7.4412199999999995
51.635270176746864 7.43138
51.66019755512065 7.4245600000000005
51.68493429268881 7.3997
51.70967361681515 7.37714
51.73441552946465 7.386360000000001
51.759353359237934 7.3642
51.7841004750961 7.373139999999999
51.80885018539685 7.34382
51.833602492111254 7.297960000000001
51.8585508051424 7.33097
51.883308330926425 7.29736
51.90806845906181 7.2889100000000004
51.932831191525715 7.25197
51.95779001977161 7.215330000000001
51.98255798721516 7.232710000000001
52.00732856494335 7.217960000000001
52.03229530577543 7.17318
52.057071130455945 7.1601300000000005
52.081849571391054 7.17227
52.106630630568695 7.11412
52.13160794279417 7.0797
52.15639426492067 7.11763
52.18118321127822 7.11976
52.205974783860896 7.0972800000000005
52.23096269971011 7.09651
52.255759551287994 7.05174
52.280559035098186 7.0351300000000005
52.30536115314103 7.04387
52.33035970494467 7.01283
52.35516711807904 7.012460000000001
52.37997717147198 6.97388
52.40478986713005 6.97992
52.42979908731974 6.91409
52.454617094216 6.95326
52.47943774942214 6.96073
52.50426105495102 6.92599
52.529280976059844 6.87975
52.554109609024096 6.8748
52.57894089837482 6.85228
52.60377484613117 6.9005
52.62880550079408 6.84417
52.65364479223379 6.790539999999999
52.67848674816189 6.7965100000000005
52.70352547971946 6.801010000000001
52.72837279155837 6.83558
52.753222773982785 6.76017
52.778075429022984 6.74887
52.80312495150885 6.76699
52.827982978797436 6.68998
52.85284368481815 6.71558
52.87770707160767 6.697010000000001
52.90276741793998 6.68253
52.92763619336701 6.69987
52.952507655698504 6.68633
52.977381806977576 6.6327
53.00245301017842 6.67395
53.02733256653592 6.59767
53.052214817996074 6.63502
53.077099766608484 6.597389999999999
53.102181859804446 6.621180000000001
53.127072229988265 6.57075
53.15196530349892 6.577160000000001
53.17686108239249 6.5292
53.20195409881522 6.53305
53.22685531582556 6.5187
53.25175924441303 6.46901
53.27666588664027 6.50309
53.30176985962693 6.48445
53.3266819565689 6.4686699999999995
53.35159677336455 6.41637
53.376514312083096 6.41863
53.40162927507703 6.44658
53.42655228516116 6.410819999999999
53.45147802340193 6.38406
53.47660125628886 6.3577900000000005
53.50153247842639 6.37142
53.52646643496923 6.317830000000001
53.55140312799818 6.30676
53.576537409691696 6.27411
53.60147960336152 6.2695099999999995
53.626424539786164 6.31567
53.65137222105307 6.286919999999999
53.67651758529126 6.2517
53.70147078399681 6.23456
53.72642673383343 6.24878
53.75138543689533 6.25137
53.776541917524526 6.206840000000001
53.801506154876755 6.18527
53.826473151763246 6.1906
53.851442910284916 6.1674
53.87661054126026 6.14011
53.9015858509782 6.1592
53.92656392866066 6.14588
53.95154477641532 6.11384
53.976723591801296 6.09025
54.00171000771266 6.062530000000001
54.02669920004598 6.09106
54.051691170915745 6.05092
54.076881204886796 6.05028
54.101878760928514 6.0538099999999995
54.12687910187696 6.03298
54.152077577768296 5.99273
54.1770835166946 5.98364
54.20209224691339 5.9473
54.22710377055121 5.93926
54.25231352511594 5.93044
54.27733066384342 5.90808
54.30235060239643 5.90555
54.32737334290836 5.937819999999999
54.35259441062629 5.89279
54.377622783395324 5.842630000000001
54.40265396455061 5.87721
54.42768795623251 5.83964
54.45292037169559 5.8035
54.477960012857906 5.80312
54.50300247099511 5.786580000000001
54.52804774825457 5.786490000000001
54.55329154616743 5.75316
54.57834249018678 5.73381
54.6033962597977 5.73921
54.6284528571545 5.73499
54.653708072335164 5.68578
54.67877035378786 5.651669999999999
54.70383546947698 5.64485
54.72890342156389 5.65416
54.7541700889442 5.5859
54.77924374251975 5.60508
54.8043202390049 5.5526800000000005
54.82959552413022 5.54049
54.8546777351945 5.48865
54.87976279569621 5.48139
54.90485070780914 5.47944
54.930137506558005 5.44292
54.95523115074295 5.484369999999999
54.98032765308844 5.4274
55.005427015775496 5.435169999999999
55.03072536339621 5.36793
55.05583047570572 5.33358
55.080938454927676 5.33482
55.10604930325027 5.36915
55.131359235107396 5.3331599999999995
55.15647585066083 5.3053300000000005
55.181595341907496 5.31027
55.20671771104285 5.2899199999999995
55.232039262617704 5.2082
55.25716741665048 5.1776
55.28229845518636 5.2005
55.30743238042802 5.12662
55.33276558731939 5.11175
55.357905315183636 5.145
55.383047936390035 5.119280000000001
55.40819345314859 4.99673
55.433538351073295 5.06388
55.458689688238415 5.03644
55.483843927614096 5.00453
55.509197623043605 5.0362800000000005
55.53435769621134 4.97534
55.55952067826466 4.91246
55.5846865714265 4.889530000000001
55.61005202069737 4.86765
55.63522376553902 4.89154
55.66039842818645 4.85128
55.68557601087004 4.8286
55.7109532500271 4.751469999999999
55.73613670233794 4.804869999999999
