TT I
1.2716486653135266 6.88669
1.2939594142134223 7.0166
1.3162702121660406 6.02174
1.3385810600174564 6.04953
1.3608919586137629 5.9591
1.383202908801069 5.95863
1.405513911425503 5.6629
1.4278249673332093 5.84754
1.4501343378461518 6.02318
1.4724455028545926 5.69914
1.4947567236847858 5.32899
1.517068001182951 5.74786
1.5393793361953272 5.24014
1.5616907295681737 5.4261
1.5840021821477681 5.10141
1.60631369478041 5.200819999999999
1.6286252683124185 4.6805
1.6509369035901333 4.31441
1.6732468618895553 4.759530000000001
1.695558623192809 4.23674
1.7178704487808514 4.90103
1.7401823395001077 4.62324
1.7625012545597203 4.304209999999999
1.7848028405262486 4.12686
1.8071218901122095 4.208069999999999
1.8294236121921872 3.9966
1.8517427996910911 4.26958
1.8740620574440425 4.2816
1.8963639900671978 4.08369
1.9186833908139995 3.8117699999999997
1.9409854680117449 3.9780300000000004
1.9633050151394713 4.2403699999999995
1.9856246367570705 4.33293
2.0079269371922672 4.078869999999999
2.03024671027244 3.89834
2.0525491637446027 3.9020599999999996
2.074869091674931 4.00245
2.097171701569106 4.153980000000001
2.1194917877373847 4.21019
2.141811954326636 4.64152
2.164114805233074 4.28451
2.186435135143035 4.3605
2.208738150935709 5.014069999999999
2.231058647554722 6.7148
2.2533792288321184 6.30647
2.275682498336085 5.86072
2.298003251406138 5.28032
2.3203066942619714 5.2266900000000005
2.3426276225136022 4.48589
2.3649486396617507 5.24977
2.387252348930071 5.57555
2.4095735463442893 6.10695
2.4318774374315884 5.89145
2.4541988185014043 6.3057
2.476502894794693 6.91723
2.498824462909887 7.3975800000000005
2.521146125856138 7.22624
2.5434504863470337 7.4989300000000005
2.5657723414244717 7.76432
2.588076895590662 7.80437
2.610398946189713 9.13443
2.6327210958598384 8.458169999999999
2.6550259469304716 8.37771
2.6773482972090137 8.93106
2.6996533504259 8.34957
2.7219759047039602 8.46618
2.744298562293959 8.94994
2.7666039251246595 8.858089999999999
2.7889267918020164 8.8653
2.8112323652516555 8.367339999999999
2.833555444408179 8.3297
2.8558786311183852 8.67582
2.8781845268938557 9.14885
2.9005079311721484 9.07444
2.9228140460410397 9.24905
2.9451376712799635 8.97447
2.967444008632326 9.655380000000001
2.9897678582247247 10.1448
3.0120918213106695 9.74495
3.0343984987899373 9.71699
3.0567226913198637 10.9293
3.079029599759726 11.4226
3.101354025127254 12.2326
3.123678568232338 12.4367
3.145985829517914 12.8033
3.16831061055229 13.3763
3.1906181112775593 14.4198
3.212943133635653 14.4147
3.2352682779763207 14.4884
3.2575761442691227 15.2667
3.2799015350264273 15.4519
3.302209649240067 16.3217
3.3245352898092655 16.1562
3.3468436553365257 16.9189
3.369169549113219 17.2593
3.3914955708171384 18.0774
3.413804319727358 18.2795
3.4361305997334863 18.1337
3.4584396084414553 18.6145
3.4807661501462652 19.6659
3.503092824025881 20.084
3.5254022288463154 20.0513
3.5477291695206588 20.6008
3.5700388426251948 20.6149
3.5923660534916446 21.1949
3.6146934007816114 22.63
3.637003482731501 27.6487
3.6593311053109985 30.3273
3.681641464033634 26.9396
3.7039693653009733 24.0728
3.726297407241705 24.039
3.7486081875460804 23.8321
3.7709365132734978 24.5918
3.793247578841633 25.2051
3.8155761917550093 25.3102
3.8378875459837216 25.6198
3.8602164494827234 26.0448
3.882545499606844 26.9736
3.9048572932539183 27.625
3.9271866390645718 27.7646
3.9494987298666713 28.1609
3.971828374764527 29.0186
3.9941581705403255 29.1467
4.016470713506008 30.0831
4.038800813471445 30.5777
4.061113662089144 30.7316
4.0834440696459176 31.6164
4.105774632334751 31.7565
4.128087945865126 32.4971
4.150418821249301 32.7752
4.172732448931298 33.8408
4.195063640413578 34.4916
4.2173775856475215 35.6981
4.239709096631102 37.912
4.262040768704612 52.2003
4.284355196706267 63.8667
4.306687193387355 57.233000000000004
4.329001947444346 44.4161
4.35133427213731 40.9737
4.373666762177566 40.4249
4.395982011761091 40.8715
4.418314834921175 41.6963
4.44063041906622 43.308
4.4629635787515625 45.254
4.4852969080429785 46.0125
4.5076130004776225 46.5871
4.529946671403969 46.9357
4.552263106909177 47.4373
4.574597122877047 48.1721
4.596931312711224 49.8869
4.619248269273446 50.6999
4.6415828092605835 51.9165
4.663900117405352 52.1527
4.686235010953232 53.6113
4.708552674085913 55.1145
4.730887924602802 56.6002
4.753223354952695 57.9501
4.775541557023902 59.2885
4.797877349456786 60.6805
4.820195915032126 62.7156
4.842532072957498 63.9047
4.864868414979744 66.023
4.88718753227192 67.6841
4.909524244902505 69.7698
4.931843734218147 71.4468
4.954180820867835 73.7706
4.976518095879839 76.9937
4.998838149695359 79.3784
5.021175803844231 82.8934
5.043496238205739 85.7231
5.065834274903528 88.8263
5.088172504230693 93.3
5.1104935158799565 97.88600000000001
5.132832132875765 105.24600000000001
5.155153533596801 117.844
5.1774925416746225 137.374
5.199814334878411 232.266
5.2221537374521505 796.305
5.244493338631803 2487.63
5.266815727034316 7148.8
5.289155727832427 13457.8
5.311478517248165 9559.85
5.333818921080011 3287.06
5.356159527788849 686.97
5.3784829252032536 214.157
5.400823940070432 145.81
5.423147747031976 124.18299999999999
5.445489173474152 113.507
5.467830807066149 107.772
5.490155234831516 104.15700000000001
5.512497285125229 100.96600000000001
5.534822130975162 99.2715
5.557164601388673 97.3361
5.579489868738879 94.6809
5.601832762690846 93.0941
5.6241758697774475 91.2958
5.646501775867269 91.1675
5.668845311622074 90.5875
5.691171647754637 89.5122
5.713515615597765 88.338
5.735859800852677 87.7867
5.758186788542988 87.1793
5.780531411018185 86.7327
5.802858837297399 86.1863
5.825203900414495 85.9657
5.8475491852224 86.4626
5.869877275883075 86.7832
5.892223006467101 87.66
5.914551544266608 88.7168
5.936897724049891 90.7176
5.959244129804903 95.0178
5.981573344815301 106.478
6.0039202049061 162.63
6.026249875609095 392.12699999999995
6.04859719346037 889.36
6.070927323278297 2049.83
6.093275102315365 4597.5
6.115623113320588 5647.32
6.137953938319995 3581.22
6.160302415650845 1066.13
6.182633708324452 239.19400000000002
6.2049826554078376 109.355
6.227331838745022 87.4038
6.249663839443684 79.8117
6.27201349767565 75.8619
6.294345974611799 73.8313
6.316696111167083 72.7727
6.339046488263839 71.6109
6.361379686074702 68.5452
6.383730546639482 66.3185
6.406064229255215 64.705
6.428415576718203 64.4805
6.450749747566656 63.246
6.47310158535871 62.0847
6.495453669698332 61.6257
6.517788579421056 60.891999999999996
6.540141159237969 59.9718
6.562476565766648 59.2612
6.5848296444934045 58.7131
6.607182974060425 57.927
6.6295191323281015 57.8143
6.651872965955752 57.3349
6.6742096296068985 58.6301
6.6965639707294615 63.4785
6.71891856698715 64.3447
6.741255995248479 60.1998
6.763611104154477 56.6068
6.785949046381137 54.824
6.808304671371482 54.3852
6.8306605557940046 53.9103
6.852999275508618 53.8066
6.875355681171544 53.3752
6.897694923437771 53.1302
6.92005185377892 53.206
6.9423916220322655 53.2036
6.964749080490181 52.236000000000004
6.987106804399774 52.5209
7.009447368180821 52.5485
7.031805625367033 52.1457
7.054146723727803 52.4244
7.076505517631004 51.9789
7.098864581288365 51.9641
7.121206488070854 51.6566
7.143566093607822 51.0923
7.165908543567245 51.5681
7.188268694426048 51.408
7.2106291193438095 50.9336
7.232972390625943 51.2498
7.255333366030969 51.6108
7.277677189091925 55.4717
7.300038718428332 61.7646
7.322400526130865 61.1085
7.344745183422596 56.1749
7.367107550224791 52.3323
7.389452767901992 51.67
7.411815697249891 51.5984
7.434161478756298 51.1399
7.456524974096713 51.1446
7.478888753837185 51.6424
7.501235387657368 53.3334
7.523599738562711 59.2421
7.545946944825532 70.1933
7.568311870344528 74.5629
7.5906770845765665 65.8003
7.613025156078678 56.6994
7.635390950099687 53.4611
7.657739602662809 52.6088
7.680105979923558 52.4569
7.702472650212829 53.1329
7.724822180948224 53.0867
7.747189439655568 52.951
7.769539560075357 53.1005
7.791907410653562 53.3977
7.81425812420825 53.4118
7.836626570110925 53.8539
7.858995315087906 54.626000000000005
7.881346924933401 55.0652
7.903716270417482 55.2346
7.926068482028405 55.3058
7.948438431475253 55.9138
7.9708086843180235 56.573
7.993161805171116 57.1338
8.015532667162402 57.6793
8.037886398416653 58.5902
8.060257873014221 58.8872
8.082629655331942 59.2545
8.104984308787587 59.943999999999996
8.127356708900503 60.7823
8.149711981398308 62.2039
8.172085002766314 63.4145
8.194458336181368 63.5731
8.216814543847752 64.4672
8.23918850371002 65.7638
8.26154533906492 66.3359
8.283919928836452 68.0659
8.306277395339652 69.109
8.328652618483376 70.0413
8.351028159736202 72.4094
8.373386579575245 74.0313
8.395762759396959 75.1181
8.418121819038275 77.6421
8.440498640894003 80.8085
8.462875785192262 86.0337
8.485235811156207 94.2557
8.507613602688501 128.227
8.529974277114228 228.497
8.552352719347912 368.55
8.574731488360351 612.797
8.59709314210385 1082.73
8.619472567021075 1824.1
8.64183487789147 2248.99
8.664214962183097 1958.63
8.686577933647762 1089.73
8.708958680784317 410.884
8.731339760774953 174.702
8.753703729764451 109.499
8.77608547780821 94.74799999999999
8.798450116065078 90.8223
8.820832535634787 88.1159
8.843215292401656 86.6795
8.865580941199045 85.7694
8.887964374703538 84.0431
8.910330701447199 83.4541
8.932714815164482 83.1556
8.955099270424924 82.0632
8.977466620733543 81.4235
8.999851761421976 81.0298
9.022219798361645 80.1059
9.04460562795561 80.0504
9.066991803441677 79.3805
9.089360876979615 79.3859
9.111747746589993 79.2625
9.13411751544971 79.0282
9.156505082664324 78.8101
9.178875550323522 79.5896
9.20126381862328 81.7806
9.223652438908596 92.421
9.246023961427412 109.67200000000001
9.26841328802173 116.27799999999999
9.290785518039224 104.73299999999999
9.313175554425882 89.6828
9.335565947154315 81.579
9.357939245086508 80.1014
9.380330352834827 79.5996
9.40270436697103 79.9878
9.425096193225055 79.6607
9.447488380180165 80.4046
9.469863475295412 80.2841
9.492256385987508 80.7209
9.514632206018318 81.2705
9.537025843935714 81.4657
9.559402392368193 82.213
9.581796761000229 83.0283
9.604191496441521 83.5495
9.626569144158516 83.7663
9.648964615551032 85.1348
9.671343000390081 85.9007
9.693739211225699 86.9649
9.716135793237463 87.5276
9.738515290448102 88.2251
9.760912617143402 89.3066
9.783292860202891 90.5008
9.805690935076182 91.4431
9.828089385495742 91.979
9.850470754023561 93.5859
9.872869957865444 95.4136
9.89525208097539 98.8563
9.917652041736662 102.454
9.940052382417589 105.601
9.962435644102392 114.789
9.984836746950979 146.407
10.007220771957746 226.239
10.029622640473708 346.38800000000003
10.052007432299963 512.698
10.074410069984072 771.7769999999999
10.096813093716005 1192.23
10.119199042482517 1754.66
10.141602840636468 2080.67
10.163989564971628 1678.91
10.186394141051062 999.4689999999999
10.208799107559706 439.92699999999996
10.231187001965623 200.363
10.253592751657669 124.881
10.275981430388155 107.03
10.298387966769793 102.868
10.320794897965431 101.819
10.343184759907361 100.581
10.36559248305461 98.8379
10.387983138083852 97.615
10.410391656691655 98.7797
10.432800574501677 107.432
10.455192425893369 129.382
10.47760214443012 159.94299999999998
10.499994797678786 200.715
10.522405320453982 268.684
10.54479877906917 377.28
10.567210109595656 504.228
10.5896218454736 584.364
10.612016518879773 561.11
10.634429067781074 388.66
10.656824555333241 226.477
10.679237920773568 141.38
10.701651695961992 104.775
10.724048411481384 93.0827
10.746463008485165 86.6893
10.768860546937125 82.3338
10.791275969274796 79.8767
10.81369180576079 78.4492
10.836090585366925 77.5566
10.858507252467449 76.4346
10.88090686379991 75.5347
10.903324365036394 74.5014
10.925724811614439 73.4784
10.948143150509463 73.4675
10.970561909719066 72.5791
10.992963615930844 71.7073
11.015383218085756 70.5285
11.037785768347074 69.7619
11.06020621697282 69.0619
11.082627090322113 68.929
11.105030913430326 68.1629
11.12745263854165 67.5081
11.149857314510728 67.0149
11.172279894912576 67.8788
11.194702904450653 67.0796
11.217108866490921 66.1134
11.239532736615194 65.5731
11.26193956033512 65.2341
11.284364294577085 64.6346
11.306789462371718 64.0027
11.329197585398376 63.7286
11.351623622610898 63.4055
11.37403261614354 63.0503
11.396459526308487 62.9869
11.418869393879497 62.3583
11.441297180532617 61.9997
11.463725406927658 61.727
11.486136592353875 61.518
11.508565700543707 61.1801
11.530977768845315 61.3033
11.553407762368774 61.1358
11.575838200059769 60.9386
11.598251599479612 60.8252
11.620682927815501 60.5769
11.64309721895548 60.5686
11.665529441478206 60.3624
11.687962112597958 60.1712
11.710377748130886 60.2147
11.732811318753434 60.0168
11.755227854859067 59.8067
11.777662328529495 59.7271
11.800079768750786 59.888000000000005
11.822515149015453 59.5793
11.844950984084935 59.9815
11.867369787303163 59.8236
11.889806534289491 60.2442
11.912226250487029 62.0386
11.934663912939751 65.4569
11.9571020346363 68.7081
11.979523127133968 69.3379
12.001962169624331 66.9639
12.024384183972964 64.0625
12.046824150809913 64.1813
12.069264581333726 69.3883
12.091687985297767 76.6087
12.11412934550045 85.5365
12.136553680195208 98.5616
12.158995973632788 118.84299999999999
12.181438735204349 146.512
12.20386447284199 179.296
12.226308172985636 204.69799999999998
12.24873485024193 216.345
12.271179492516982 176.791
12.293607112949127 134.357
12.316052700916226 98.9626
12.338498763250042 73.8789
12.360927805303868 64.5752
12.383374818673879 62.1253
12.405804812803074 61.2911
12.428252780773262 61.1513
12.45070122756722 60.7686
12.473132656675375 60.9891
12.49558206341869 61.1404
12.518014453510101 61.073
12.540464823770117 61.424
12.562915677315177 61.413000000000004
12.58534951575545 61.9502
12.607801338171472 61.8351
12.630236146511358 62.3712
12.652688941369085 63.401
12.675124723177234 64.0365
12.697578494048786 64.3317
12.720032754458185 63.839
12.742470003354093 63.8787
12.764925245138771 64.4797
12.787363476431278 64.8314
12.809819703166806 65.0656
12.83227642391173 65.8561
12.854716135692716 66.2269
12.877173846755147 67.5081
12.899614549869717 67.4596
12.9220732548287 68.6028
12.94453245827299 68.9661
12.966974655289818 70.02199999999999
12.989434858002571 70.9201
13.011878055298721 71.5967
13.034339260862497 72.6517
13.056800969391883 74.0485
13.079245674017244 76.4505
13.101708390774869 78.29
13.12415410463411 82.4326
13.146617833206086 92.6858
13.169064559883248 107.25399999999999
13.191529303857127 125.14299999999999
13.213994557076367 147.125
13.236442809902437 178.519
13.258909083908291 226.84900000000002
13.28135835851934 290.008
13.30382565690295 362.906
13.326293469022952 428.749
13.348744283242008 442.43
13.371213125129904 381.14
13.39366497011003 280.278
13.416134845360597 184.418
13.438605238843131 126.988
13.46105863690397 102.556
13.483530069144786 98.8726
13.505984506951902 106.751
13.528456981549432 119.645
13.550929978879088 135.056
13.573385983253365 155.477
13.595860028340867 188.09
13.618317081455832 235.761
13.64079217790333 294.288
13.663250283359057 354.79699999999997
13.685726434770173 389.19
13.708203115221277 358.773
13.730662806148091 287.393
13.75314054697177 205.275
13.775601299246777 138.151
13.798080104050406 100.32
13.820559442405358 84.7901
13.843021793671388 79.3477
13.865502201420897 77.2156
13.887965623051947 76.9085
13.910447103807167 75.8387
13.932929122629764 74.5013
13.955394156785959 74.0362
13.977877254034569 73.0574
14.000343367582113 72.6898
14.022827546871707 71.9437
14.045294743423524 71.304
14.06778000837062 70.7448
14.090265817715476 70.9694
14.112734645763819 71.7232
14.13522154619454 73.67699999999999
14.157691466286913 75.6609
14.180179461423874 75.9799
14.202668005486178 73.6743
14.22513957064374 70.7493
14.247629214846473 68.8142
14.270101881097517 67.7352
14.29259262906496 67.3019
14.315083930490205 67.3702
14.337558255389705 67.145
14.360050666019726 67.2413
14.382526101071944 66.639
14.405019624534942 66.3748
14.427513705993134 66.2645
14.449990813291825 66.1139
14.47248601302899 66.0781
14.49496423954951 66.2043
14.517460561197822 66.1599
14.539939910570322 66.1393
14.562437357763558 66.1456
14.58493536931253 66.6019
14.607416409993311 66.7499
14.62991555254159 66.9555
14.652397725157423 66.9927
14.674898002342799 67.2677
14.697398848433282 67.1575
14.719882725991326 67.9557
14.74238471217934 68.4904
14.764869730765593 70.3906
14.787372860692983 74.2382
14.809876564079925 80.7824
14.83236330125751 88.4878
14.854868153850365 97.3841
14.877356041159485 109.118
14.899862046604186 124.81700000000001
14.922351087688757 147.33700000000002
14.944858249632887 177.94
14.967365991421232 207.778
14.989856770231246 226.778
15.012365673994204 227.908
15.03485761569738 199.96599999999998
15.05736768508665 161.181
15.07987833888692 122.214
15.102372032001655 93.52
15.124883856909658 77.0395
15.14737872204565 70.8256
15.169891721717274 68.5272
15.192405310371893 67.6372
15.214901940621196 66.964
15.237416709527137 66.4155
15.259914520936249 66.5647
15.282430473753607 65.6563
15.304947020131227 65.2042
15.327446610371178 64.7534
15.349964346154254 64.5103
15.372465126703139 64.3457
15.394984055556009 64.0383
15.417486030076159 63.9583
15.44000615566487 63.7201
15.462526881230803 63.4616
15.485030653812652 63.4886
15.507552581617434 63.2815
15.530057557334603 63.2582
15.55258069104857 63.253
15.575104429329837 63.4908
15.597611216864632 63.0494
15.620136166564563 63.5336
15.6426441664095 63.8862
15.665170331202765 65.10300000000001
15.687697105158826 68.4997
15.710206930593545 73.5372
15.732734925158933 79.2283
15.755245972089478 86.2988
15.77777519094324 93.9311
15.800287463046663 105.01799999999999
15.822817909869592 121.65799999999999
15.84534897229804 142.862
15.867863089299354 168.61700000000002
15.890395385222186 190.136
15.912910736597423 201.66400000000002
15.935444269699861 192.035
15.957978423016485 168.174
15.980495633101265 132.915
16.003031029129367 103.25399999999999
16.02554948280019 80.9783
16.048086125229432 69.4338
16.070623392487107 65.0861
16.09314371869582 63.056999999999995
16.11568223789321 61.4439
16.13820381691126 60.0133
16.160743591742527 58.9357
16.183283996022084 58.1389
16.205807461423195 57.4196
16.228349126881973 56.8702
16.25087385432698 56.7901
16.27341678466365 56.2225
16.29594277784926 55.8597
16.31848697676433 55.5778
16.341031811604868 55.1208
16.36355971058487 55.0032
16.3861058195587 54.9571
16.40863499352978 54.4155
16.431182380342005 54.0737
16.453730407713202 53.9623
16.476261501364792 53.6736
16.498810812136167 53.4561
16.52134319004079 53.4319
16.54389378792203 53.3055
16.566445031001553 53.0451
16.588979342490088 53.1137
16.61153187824822 52.9515
16.634067483263312 52.6769
16.656621315414416 52.7484
16.679175797408888 52.4718
16.701713349928728 52.6018
16.72426913389191 52.6295
16.74680798922351 52.6278
16.76936507887444 52.7535
16.791905240734874 52.7479
16.814463639794468 52.6514
16.837022695210294 52.7002
16.859564824093756 52.7324
16.882125194503903 52.9978
16.904668639217885 53.4042
16.927230328348003 53.8986
16.949792678493612 54.1372
16.972338104193863 54.1082
16.994901778652235 53.7955
17.017448529496576 53.8351
17.040013531998152 53.6128
17.06257920018044 54.1077
17.0851279459922 54.8698
17.107694947817667 55.8302
17.130245028099072 56.9877
17.15281336730298 58.1932
17.17536478578733 60.1081
17.19793446610687 61.92100000000001
17.220504818648422 64.6677
17.243058251703697 67.8082
17.265629950971032 72.2066
17.288184731571736 77.2727
17.310757781306908 81.7134
17.33333150794385 83.0239
17.355888317140174 82.57700000000001
17.37846339986244 78.6898
17.401021565958885 71.9655
17.42359800851343 65.6996
17.44617513265564 61.5444
17.468735341390783 58.6577
17.491261035594565 57.3415
17.51396340099364 57.0252
17.536490463869136 57.0298
17.559018209820174 57.0058
17.58154663977963 57.1634
17.604251766089718 57.2675
17.626781572227713 57.7081
17.64931206518155 57.7937
17.671843245885103 58.1937
17.69455114821572 58.2585
17.717083712612634 58.8432
17.739616967569667 59.3062
17.762150914021706 59.9797
17.78486160749854 60.3453
17.807396945166804 60.5577
17.829932977143503 60.9758
17.85246970436452 61.6521
17.875183204129467 63.2511
17.897721330097664 66.4048
17.920260154126645 69.6548
17.942799677153296 73.2148
17.9655159983646 76.9058
17.988056927677544 81.4995
18.010598558807683 88.37299999999999
18.033140892692916 97.5133
18.05586005052525 108.898
18.07840379824407 121.635
18.10094825154059 132.829
18.12366954819864 141.976
18.146215420998306 143.47899999999998
18.16876200220057 136.77200000000002
18.191309292745153 123.152
18.214033452627167 108.557
18.236582170236648 95.7889
18.259131600016456 88.0863
18.281681742907335 85.5613
18.304408781233683 88.8884
18.32696035875955 94.09700000000001
18.349512652227624 99.0659
18.372065662579683 104.99600000000001
18.394795594587553 107.23100000000001
18.41735004715306 104.559
18.43990521943684 98.3007
18.46246111238171 89.2585
18.485193953325208 79.2487
18.507751296070428 71.1551
18.530309362314178 65.8412
18.552868153000343 62.7933
18.57560391815056 61.2365
18.59816416623245 60.6077
18.620725141597372 60.1163
18.643286845190268 59.3388
18.666025549835414 58.6972
18.688588718427933 58.0253
18.711152618092243 58.0673
18.73389353884365 57.7187
18.75645890921984 57.3432
18.77902501351406 56.9922
18.801591852673102 56.9048
18.824335739722738 56.4898
18.846904057212626 56.3957
18.8694731124168 55.9757
18.89204290628315 55.9066
18.914789774966803 55.8604
18.937361054791623 55.4585
18.959933076131318 55.3496
18.982505839934877 55.24
19.00525570560582 55.2401
19.027829963004184 55.0655
19.05040496572238 55.0446
19.072980714710468 54.9448
19.095733592739563 55.1116
19.11831084296757 55.2147
19.140888842324735 55.6106
19.16346759176222 56.2403
19.18622349753803 57.0534
19.208803755869358 58.0115
19.231384767143577 59.1673
19.253966532312948 60.3598
19.276725481241822 62.6526
19.29930876296784 65.2735
19.3218928014549 68.91199999999999
19.34465404436217 71.8697
19.36723960516257 74.6477
19.389825925592426 76.1576
19.412413006605938 75.1899
19.43517731967805 72.3117
19.457765930683355 67.8978
19.48035530514408 63.3198
19.50294544401556 59.2694
19.525712842708348 56.0497
19.54830451925909 54.2994
19.570896963095727 53.0228
19.593490175174704 52.4865
19.616260674962184 52.3589
19.638855432416964 52.0367
19.661450960992624 52.1827
19.68404726164677 52.184
19.706820878021247 51.7923
19.729418731756834 52.0354
19.752017360452857 51.7133
19.77461676506804 51.9742
19.797393513540218 51.8696
19.819994478951667 52.0589
19.84259622316767 52.4525
19.8651987471481 53.0616
19.887978643247177 53.5429
19.91058273574792 54.0043
19.933187610901943 54.7592
19.955969879466828 56.1503
19.97857632894404 57.4212
20.00118356396599 58.9375
20.023791585494575 60.9014
20.046577028914875 63.5619
20.069186632506966 66.5418
20.091797025500632 69.1
20.114408208858933 70.2314
20.137196842715273 70.7263
20.159809615886765 69.1891
20.18242318232135 66.6781
20.20503754298326 64.1242
20.227829382875154 62.3426
20.250445341109344 61.8056
20.27306209647285 62.1201
20.29567964993108 63.4404
20.31847471147704 64.5225
20.34109387027612 65.5856
20.363713830075454 65.2708
20.386334591841646 63.8144
20.409132890679302 61.4256
20.431755265564437 58.0688
20.454378445325528 55.1354
20.477002430930366 52.873000000000005
20.499803982716553 51.1045
20.522429589228004 49.9648
20.54505600449589 49.2859
20.567683229489194 49.0762
20.590488049900088 49.0207
20.61311690359731 48.8574
20.63574656993626 48.5125
20.658553853717297 48.0726
20.681185154618298 48.155
20.703817271080066 48.1597
20.72645020407368 47.7728
20.749260783967177 47.9814
20.771895359337133 47.858000000000004
20.794530754161617 47.945
20.817166969412938 47.9953
20.83998086114876 47.9458
20.86261872660049 47.562
20.885257415405402 47.4312
20.90789692853701 47.1704
20.930714147864748 47.1004
20.953355319030678 47.2295
20.97599731745334 47.3075
20.99864014410749 47.2471
21.021460706796564 47.3461
21.044105199328826 47.6282
21.06675052302631 47.7029
21.089396678865015 47.9493
21.112220600704806 48.1579
21.134868430275347 48.3117
21.15751709492456 48.6328
21.180166595629693 48.8655
21.202993892429635 49.486999999999995
21.22564507473034 49.9411
21.24829709602816 50.4222
21.27112693608965 50.5917
21.293780644891275 50.6038
21.316435195634053 49.6662
21.339090589297417 49.0656
21.361923832041875 48.5444
21.384580921090404 47.8443
21.407238856007325 47.2727
21.429897637773326 47.3185
21.45273429906592 47.2667
21.475394784108598 47.1737
21.498056118951983 47.3652
21.520718304578022 47.4941
21.543558400304388 47.28
21.566222297108816 47.45
21.58888704765135 47.6245
21.61155265291521 47.8256
21.63439619898156 48.2292
21.657063523335786 48.7158
21.67973170537063 49.3697
21.7024007460706 49.9472
21.72524775840385 50.6657
21.747918526116475 51.601000000000006
21.770590155457388 52.6185
21.79326264741238 54.1949
21.816113141960237 56.0504
21.838787368860547 58.0552
21.861462461341976 60.4171
21.884315579735777 62.6305
21.90699241312273 64.5688
21.92967011506078 65.0754
21.95234868653799 65.1239
21.9752053151131 64.0037
21.997885635446785 62.0193
22.020566828293532 59.7833
22.04324889464272 57.7526
22.066109049404666 56.4228
22.088792872571794 55.782
22.111477572219204 55.8233
22.1341631493376 56.2723
22.157026846313123 56.1148
22.179714188221507 55.3983
22.202402410582668 54.2053
22.22509151438863 52.6666
22.24795876962584 51.1358
22.270649646204486 49.9082
22.293341407213727 49.1096
22.316034053646906 48.4357
22.338904883215342 48.0257
22.36159931041458 47.7689
22.38429462602756 47.5157
22.40699083104897 47.3311
22.429865251039757 47.489
22.452563244831367 47.4359
22.47526213102522 47.5155
22.49813925616515 47.452
22.520839937143307 47.235
22.543541513520587 47.4552
22.56624398629403 47.411
22.589124730075895 47.2462
22.611829005656723 47.5126
22.63453418063466 47.4326
22.657240256008077 47.6355
22.680124634582935 47.775
22.70283252079775 48.2257
22.725541310413075 48.636
22.74825100442868 49.0306
22.771139033969575 49.5462
22.79385054687155 49.8278
22.81656296718292 50.2996
22.83927629590484 51.0505
22.862167992606945 51.9157
22.88488314827121 53.2155
22.907599215359284 54.2952
22.93031619487366 55.7323
22.953211574954405 56.6222
22.975930389478226 57.4514
22.998650119445763 57.9111
23.02137076586092 57.2501
23.044269845560063 56.2273
23.06699233506288 54.8018
23.089715744034912 52.745
23.112617610931565 51.0635
23.135342869061212 49.5156
23.158069049684816 48.5729
23.1807961538087 47.8801
23.20370174880544 47.7534
23.226430710184808 47.6663
23.249160598093425 47.6355
23.271891413539002 47.5369
23.294800752937697 47.8262
23.31753343374794 48.1539
23.340267045128353 48.2866
23.36300158808808 48.8455
23.38591468821339 49.2596
23.408651104658304 49.8069
23.431388455719986 50.2579
23.454126742409 51.0236
23.4770436196085 52.0775
23.499783787914662 53.2109
23.522524894889884 54.533
23.54526694154616 55.8719
23.56818761219047 57.145
23.59093154860734 57.9067
23.613676427751283 58.3537
23.636422250635754 57.8844
23.659346731118656 56.3425
23.68209445191868 54.2816
23.704843119509587 51.9146
23.72759273490623 49.7816
23.750521041644767 48.1158
23.77327256312355 46.7366
23.796025035462787 45.9231
23.818956224555475 45.2113
23.841710609113413 45.0524
23.86446594758979 44.81100000000001
23.887222241002014 44.3999
23.910157285144578 44.0875
23.932915498962537 44.1718
23.955674670778713 44.0244
23.978434801611975 43.8698
24.001373717286125 43.7367
24.024135776723917 43.6405
24.046898798245582 43.5143
24.06966278287146 43.461999999999996
24.092605586582614 43.1989
24.115371508023642 43.1385
24.1381383956401 42.8446
24.16090625045381 42.6752
24.183852958731244 42.6593
24.206622758582608 42.5156
24.229393528706886 42.5558
24.252165270127392 42.6904
24.27511589952438 42.5382
24.297889594216997 42.4153
24.32066426328598 42.323
24.34343990775613 42.196999999999996
24.36639447485003 42.2158
24.38917208083877 42.0904
24.41195066531332 41.9541
24.43490819850244 41.9088
24.457688750692377 41.9236
24.48047028445616 41.9447
24.503252800821233 42.0762
24.526214300784112 42.2064
24.548998793132213 42.1254
24.57178427117417 41.8731
24.59457073593893 42.1112
24.617536219319863 42.0113
24.64032466834748 42.0597
24.663114107195035 41.7863
24.685904536893013 41.607
24.708874020360852 41.5985
24.731666442613744 41.4309
24.754459858818787 41.2951
24.777254270007962 41.3299
24.80022777025625 41.2664
24.82302418230472 41.1489
24.845821592443674 41.351000000000006
24.86862000170663 41.2111
24.891597535453727 41.0721
24.914397953892728 41.4748
24.93719937456671 41.3335
24.96000179851076 41.3258
24.98298338249997 41.5453
25.00578782394922 41.9304
25.028593271784167 41.9153
25.05157790644186 42.396
25.07438537804115 42.6106
25.097193859145293 42.8843
25.120003350792075 43.0279
25.142992065061257 43.4472
25.165803588823465 43.7769
25.18861612625217 44.0638
25.211429678386736 44.321999999999996
25.234422489079968 44.2903
25.257238081693636 44.292
25.280054692141732 44.479
25.3028723214652 44.4291
25.325869245420463 44.6088
25.348688923599397 44.5936
25.371509623787006 44.4703
25.394331347025812 44.2861
25.41733240110666 43.8847
25.440156181590016 43.1838
25.46298098826268 42.5157
25.48580682216873 41.9633
25.50881202326435 41.2671
25.53163992281684 40.8057
25.55446885274561 40.4531
25.577298814096377 40.0563
25.600308179121807 39.8543
25.623140214533745 39.9618
25.64597328451537 39.888000000000005
25.66898578564376 39.7564
25.691820936010206 39.7048
25.714657124097695 39.5631
25.737494350954734 39.6276
25.760511045684957 39.6334
25.783350361364224 39.7204
25.806190718969255 39.6199
25.82903211955018 39.7905
25.852053024868923 39.8426
25.874896522722523 39.9471
25.897741066713106 39.8424
25.920586657892454 39.907
25.943611790812668 40.1163
25.966459487728237 40.2155
25.989308234998564 40.1316
26.01215803367705 40.3916
26.03518741123814 40.6456
26.05803932412957 40.935
26.080892291600094 40.9316
26.10374631470478 41.0231
26.12677995397268 41.0965
26.14963609978026 41.1894
26.172493304397875 40.8711
26.19535156888223 40.7234
26.218389486949604 40.3001
26.241249882640123 39.9873
26.26411134137826 39.6257
26.28715248187403 39.5136
26.31001607820869 39.2687
26.3328807407756 39.2686
26.35574647063438 39.3276
26.37879191991473 39.3624
26.401659795896734 39.3455
26.424528742360263 39.4513
26.447398760366614 39.6601
26.470448535598294 39.7026
26.49332070826805 40.0034
26.516193955675355 40.2938
26.53906827888316 40.435
26.562122397260108 40.6569
26.584998883685063 41.0526
26.607876449110325 41.5256
26.63075509460056 41.6344
26.65381357334404 41.8954
26.67669439061878 41.8727
26.699576291163382 41.74100000000001
26.722459276044212 41.8064
26.745522132402975 41.3172
26.768407297649354 41.0634
26.791293550442003 40.7678
26.814180891848974 40.3567
26.837248143099337 40.1722
26.860137673466657 39.8471
26.88302829566349 39.6139
26.90592001075963 39.5941
26.92899167420566 39.4606
26.951885586870763 38.9933
26.974780595655517 38.7602
26.99785558178161 38.6196
27.020752794605112 38.4241
27.043651106772522 38.2341
27.06655051935668 38.0915
27.089629948036183 38.0671
27.112531573292053 38.0673
27.135434302194138 38.0887
27.158338135817015 37.7593
27.181422024430987 37.8889
27.204328079372566 37.8682
27.22723524226965 37.8914
27.250143514198573 37.9394
27.273231880156334 37.7903
27.296142382065014 37.7088
27.319053996245536 37.6203
27.341966723775965 37.7357
27.365059584515222 37.9103
27.38797455070062 37.7778
27.410890633481237 37.607
27.433807833936918 37.7209
27.456905206923906 37.8456
27.47982465472398 37.818000000000005
27.502745223449743 37.955
27.525666914182825 38.007
27.548768816912457 38.0881
27.571692763693633 37.8948
27.59461783573812 37.8676
27.617723149491244 37.6531
27.640650484125285 37.6599
27.66357894728264 37.5661
27.686508540048052 37.4665
27.709618414237887 37.3103
27.732550278321757 37.3144
27.755483275279115 37.1969
27.778417406196485 37.2562
27.801531858397514 37.2705
27.824468269376716 37.1401
27.847405817586786 37.1575
27.870344504116094 37.3921
27.893463551932008 37.3623
27.916404527281053 37.6663
27.93934664422563 37.6904
27.962289903855886 37.9996
27.98541356491974 38.2559
28.00835912214229 38.4194
28.03130582533231 38.7509
28.054253675581805 38.8657
28.077381967556104 38.801
28.100332124185126 38.7169
28.123283431160893 38.7507
28.146235889577238 38.5977
28.169368830154156 38.4946
28.192323603752033 38.2297
28.215279532083304 37.9682
28.238415973016764 37.6293
28.261374223145094 37.483000000000004
28.284333631303806 37.2618
28.307294198589954 37.1689
28.330435319167677 36.7912
28.353398217078915 36.4701
28.376362277420153 36.2622
28.39932750129032 36.07
28.422473319286713 35.8485
28.44544088262495 35.847
28.468409612800283 35.567
28.491379510913497 35.3113
28.51453004413313 35.2888
28.53750229057244 35.3329
28.56047570826344 35.1949
28.583450298308804 35.2122
28.606605564586562 35.0513
28.629582511831156 35.0234
28.65256063474956 34.9144
28.675539934446338 35.0164
28.698699951647605 35.1629
28.72168161743193 34.8694
28.74466446331978 34.8546
28.767648490417624 34.88
28.790813276438353 34.8345
28.813799678527303 34.7122
28.836787265157085 34.7813
28.859955641890075 34.809
28.882945610203045 34.8042
28.905936766392035 34.6584
28.928929111566863 34.7435
28.952102288520145 34.6738
28.975097024308607 34.5461
28.998092952423807 34.3866
29.021090073977508 34.3266
29.04426806913204 34.3113
29.067267590245258 34.1628
29.090268308143695 34.079
29.11327022394099 33.9447
29.13645305530891 33.8467
29.159457379627167 33.7983
29.18246290519685 33.6773
29.20546963313352 33.7595
29.22865731875826 33.6299
29.25166646419296 33.5846
29.27467681535305 33.6114
29.29768837335608 33.7118
29.320880931312562 33.6239
29.34389491580634 33.6032
29.366910110507334 33.5996
29.38992651653503 33.6301
29.41312396492981 33.6935
29.436142806456754 33.6032
29.45916286268059 33.5373
29.48236399319994 33.3428
29.50538649169417 33.2664
29.528410208259935 33.2201
29.55143514402014 33.0172
29.574641196749695 32.819
29.597668583816574 32.7222
29.6206971934585 32.5836
29.64372702680042 32.6102
29.666938019934474 32.4148
29.689970313635285 32.3787
29.713003834422636 32.3455
29.73603858342347 32.3915
29.759254535188578 32.2587
29.78229175361658 32.2073
29.80533020365064 32.051
29.82836988641968 32.1325
29.85159081507472 32.1521
29.874632976355343 32.0401
29.89767637376955 32.0658
29.920721008448314 31.9209
29.9439469322847 31.9372
29.96699405457564 32.0306
29.9900424175358 31.9129
30.013092022298157 31.8618
30.03632295963995 31.9042
30.059375061131373 31.9022
30.08242840783577 31.8758
30.105483000888153 31.9281
30.128718970092244 31.8028
30.151776069006917 31.8544
30.17483441768648 31.7831
30.198074175317235 31.8325
30.221135036724256 31.789
30.24419715131772 31.7745
30.267260520236203 31.7207
30.290505341942243 31.752
30.313571232750228 31.7265
30.336638381310948 31.7405
30.35970678876503 31.6197
30.38295669299435 31.5095
30.40602763151657 31.5674
30.429099832366074 31.6654
30.452173296685572 31.5649
30.47542830191959 31.5872
30.498504306502497 31.4365
30.521581577995562 31.5107
30.544660117543582 31.6631
30.56792024229725 31.662
30.59100133132069 31.6165
30.614083691845494 31.6554
30.637167325018545 31.7273
30.660432587840603 31.7174
30.683518779717886 31.7185
30.70660624769615 31.7965
30.729694992924372 31.7791
30.75296541239743 31.8126
30.77605672557558 31.7753
30.799149319462742 31.7069
30.8224236211637 31.6536
30.845518789950724 31.4655
30.868615242910597 31.4147
30.891712981195973 31.2465
30.91499247215866 31.1908
30.938092794619365 31.1914
30.96119440587579 31.1035
30.984297307082752 30.958000000000002
31.00758200598383 30.8991
31.030687500658694 30.7984
31.053794288760695 30.6822
31.076902371446767 30.6248
31.100192296997445 30.6552
31.12330298246119 30.4807
31.14641496599209 30.4484
31.169528248749216 30.4887
31.19282341969534 30.4464
31.215939314557186 30.3875
31.239056512134788 30.489
31.262175013589378 30.2487
31.28547544871168 30.4195
31.30859657161541 30.3686
31.331719001892175 30.4362
31.35484274070538 30.4092
31.378148458819545 30.4665
31.401274828443725 30.4374
31.424402510106933 30.4294
31.447712205419993 30.4616
31.470842524931633 30.2805
31.493974159989783 30.3463
31.51710711176168 30.3752
31.54042212308802 30.4495
31.563557722100917 30.3212
31.586694641341655 30.1024
31.609832881979628 30.0442
31.63315322823208 29.9971
31.656294125521327 29.9671
31.679436347728515 29.8665
31.70257989602529 29.7412
31.725905596152327 29.7454
31.74905181052835 29.6415
31.772199354521323 29.6832
31.79534822930507 29.7465
31.818679302290967 29.753
31.84183085259981 29.7261
31.864983737233473 29.7124
31.88813795736804 29.695999999999998
31.911474422233013 29.5888
31.934631327356435 29.6986
31.9577895715215 29.6163
31.980949155906522 29.6406
32.004291031706956 29.5866
32.027453310562606 29.5286
32.05061693318573 29.4629
32.07396288236386 29.3129
32.09712920658542 29.3169
32.12029687812702 29.1555
32.14346589817093 29.0075
32.166817291729984 29.109
32.18998902288583 29.0771
32.21316210610336 28.9991
32.23633654256711 28.7998
32.259693399663725 28.7754
32.282870556771144 28.6377
32.30604907069099 28.6593
32.329228942610065 28.6488
32.35259128243769 28.5466
32.375773884550505 28.5031
32.398957848235646 28.4515
32.422143174682176 28.287
32.445511016471215 28.2966
32.468699082679954 28.2654
32.49188851523011 28.230999999999998
32.51507931531304 28.1026
32.538452678331 28.0977
32.56164622776311 27.9886
32.58484114831493 27.9136
32.60803744118015 27.9979
32.631416344731896 28.0204
32.654615396551876 27.8804
32.67781582427913 27.965
32.701198898634416 27.901999999999997
32.72440209253756 27.7725
32.747606665947124 27.8522
32.77081262006088 27.6913
32.79420126883317 27.6359
32.81740999876112 27.5982
32.840620112999424 27.5913
32.86383161274818 27.5605
32.88722585534586 27.585
32.91044014056596 27.6175
32.933655814909734 27.6355
32.95687287957963 27.5093
32.98027273544904 27.4396
33.00349259526636 27.3782
33.026713849030116 27.4539
33.04993649794511 27.4503
33.073341986570746 27.3575
33.09656744032826 27.3579
33.11979429286444 27.3621
33.14302254538647 27.3702
33.166433686291185 27.3514
33.18966475336992 27.2629
33.212897224069096 27.1413
33.23613109959831 27.2206
33.259547912343415 27.1599
33.2827846121627 27.2468
33.306022720453775 27.1412
33.32926223842861 27.0138
33.352684742614166 27.0239
33.37592709463173 26.9514
33.399170859982064 26.8608
33.422597648419426 26.7107
33.44584425514446 26.6358
33.46909227885668 26.7167
33.4923417207723 26.5562
33.51577423505344 26.569000000000003
33.539026528130385 26.5556
33.56228024307245 26.4313
33.585535381098246 26.2767
33.60897364093058 26.2955
33.63223163992385 26.2308
33.6554910656699 26.3032
33.678751919389796 26.2029
33.702195944520106 26.1501
33.72545966903325 26.0783
33.74872482519663 26.0542
33.771991414233746 26.0929
33.79544122444841 26.0905
33.81871069412428 26.0258
33.84198160035767 25.9201
33.86525394437455 25.8997
33.88870955949969 25.8902
33.911984794020626 25.9037
33.93526147001624 25.8328
33.958539588715006 25.7529
33.98200102861669 25.6802
34.0052820477047 25.6573
34.02856451319451 25.6654
34.05203033759056 25.5321
34.07531571090147 25.5397
34.09860253431845 25.5006
34.121890809074316 25.4409
34.145362493118924 25.4508
34.16865368561615 25.4628
34.191946333164054 25.3634
34.21524043699793 25.3019
34.23871800066799 25.3165
34.26201503218366 25.2173
34.28531352370466 25.1456
34.30861347646881 25.0962
34.33209693978188 25.1145
34.3553998301885 25.0638
34.378704185565205 25.0092
34.402010007152356 24.9248
34.42549939016683 25.0201
34.44880815937748 24.8635
34.472118398533134 24.8872
34.49543010887669 24.8143
34.51892543169198 24.7214
34.54224009966052 24.693
34.56555624255917 24.7482
34.58887386163339 24.5862
34.61237514439016 24.4732
34.6356957311114 24.6111
34.65901779775809 24.5258
34.68252356662995 24.4738
34.705848608458616 24.4918
34.72917513396849 24.3855
34.75250314440949 24.3628
34.77601490857862 24.3087
34.799345904259795 24.2726
34.82267838863559 24.3076
34.846012362958525 24.2312
34.869530142679984 24.2147
34.89286711232212 24.1981
34.91620557568269 24.1581
34.93954553401677 24.1387
34.9630693495876 24.1031
34.986412313340814 24.0449
35.00975677584668 24.0319
35.033102738362956 24.0324
35.05663261012228 23.930999999999997
35.0799815881786 23.9637
35.10333207003229 23.9141
35.12668405694369 23.9097
35.150220005273056 23.8469
35.17357501786656 23.8557
35.19693153931268 23.7257
35.220289570874385 23.691999999999997
35.24383161619786 23.7603
35.267192683604904 23.7848
35.290555264930376 23.7577
35.314101899412165 23.7713
35.33746752422433 23.6469
35.36083466676374 23.7062
35.38420332829803 23.5897
35.407756095629054 23.6312
35.43112781085063 23.6394
35.45450104888391 23.5595
35.477875810999194 23.6235
35.50143473172161 23.4792
35.52481255774625 23.5812
35.54819191167777 23.4686
35.57157279478914 23.4533
35.595137889488406 23.4029
35.61852184675279 23.3569
35.641907337029984 23.2879
35.665294361595684 23.2809
35.68886565090076 23.2312
35.7122557598848 23.1848
35.73564740699838 23.1497
35.759040593519934 23.1369
35.78261809810353 23.0515
35.80601437933051 22.984
35.829412203814705 22.9574
35.85281157283719 22.8247
35.876395313415884 22.8732
35.8997977874528 22.7718
35.92320180988546 22.8078
35.946790244133936 22.7347
35.97019737933222 22.6862
35.993606066789866 22.6921
36.01701630779276 22.6519
36.04061101440684 22.6063
36.06402437852291 22.6289
36.08743930005611 22.5963
36.1108557802951 22.5547
36.13445678011326 22.5073
36.15787639383515 22.4613
36.18129757014299 22.4537
36.20472031032821 22.3709
36.22832762423364 22.3499
36.25175350829375 22.3702
36.275180960119776 22.3439
36.298609981005924 22.3147
36.32222362992669 22.2936
36.34565580510207 22.2823
36.36908955323448 22.1755
36.39252487562093 22.1203
36.416144880530226 22.0884
36.43958336764275 22.1195
36.463023432914625 22.0839
36.486465077645676 21.9798
36.51009145956204 22.1191
36.53353627947859 22.0145
36.55698268276811 21.9719
36.58043067073321 21.9273
36.60406345072071 21.8355
36.62751462435344 21.855
36.65096738658405 21.8078
36.67460498210655 21.8083
36.69806093788647 21.799
36.72151848619297 21.7185
36.744977628333636 21.7319
36.76862165890998 21.5672
36.79208400512205 21.6075
36.81554794910557 21.5976
36.83901349217101 21.5317
36.862663978991606 21.4921
36.88613273667352 21.4547
36.90960309738324 21.4131
36.933075062434064 21.4326
36.95673202673572 21.3723
36.98020721697122 21.2808
37.003684015502365 21.2612
37.027162423645365 21.2151
37.050825886711465 21.2083
37.07430753063053 21.2556
37.09779078812467 21.1704
37.121275660513014 21.136
37.144945643673694 21.0383
37.16843376245278 21.0505
37.19192350009803 21.0491
37.215414857931435 20.9863
37.239091382563885 20.9388
37.262585997426164 20.9997
37.28608223645736 20.9079
37.309763684451696 20.8551
37.33326318851098 20.7826
37.356764320726555 20.7438
37.380267082425526 20.7851
37.40395510942588 20.7464
37.42746114683234 20.7232
37.45096881771841 20.6585
37.474478123414166 20.6649
37.49817275092816 20.5746
37.52168534303452 20.5625
37.54519957395567 20.5245
37.568715445024665 20.5759
37.592416694607714 20.4566
37.61593586281424 20.5509
37.63945667518264 20.4723
37.66297913304891 20.4263
37.68668702630454 20.3712
37.710212792059274 20.2324
37.733740207334854 20.2905
37.757269273470364 20.2264
37.780983832050374 20.2206
37.80451621684926 20.2005
37.82805025654007 20.1614
37.851585952464795 20.1288
37.8753071980695 20.0001
37.89884622345676 19.949
37.92238690911902 20.0055
37.94611318753442 19.9174
37.969657210779765 19.9497
37.99320289834801 19.9641
38.016750251586465 19.8981
38.04048325513017 19.8529
38.06403395679343 19.7642
38.087586328183946 19.715999999999998
38.11114037065203 19.7793
38.13488012115898 19.7941
38.1584375229181 19.7377
38.181996599821 19.6214
38.205557353221124 19.6309
38.229303872575656 19.6178
38.2528679961576 19.6114
38.27643380031219 19.5797
38.30000128639589 19.4752
38.32375459653193 19.4565
38.34732546371299 19.4489
38.37089801690786 19.42
38.39447225747609 19.3391
38.418232380377425 19.3165
38.441810012983396 19.3004
38.46538933705673 19.2617
38.488970353960084 19.2692
38.51273731166058 19.2546
38.536321731567014 19.2151
38.55990784840681 19.1473
38.58367995004091 19.0969
38.60726947812959 19.1292
38.63086070726198 19.0632
38.654453638806274 19.1009
38.678232613930824 19.0353
38.70182896773327 18.9291
38.72542702806741 18.9991
38.7490267963045 18.9401
38.77281266709232 18.884
38.79641586862214 18.9157
38.8200207821842 18.8966
38.843627409152944 18.9055
38.86742019782782 18.8428
38.891030269149255 18.7716
38.914642058016156 18.7132
38.938255565806124 18.6986
38.96205529464307 18.6443
38.98567225787121 18.6283
39.00929094417078 18.6673
39.03291135492255 18.6145
39.05671804624804 18.5823
39.080341923549106 18.4918
39.103967529460334 18.4665
39.127594865365744 18.3931
39.15140854155791 18.3413
39.17503935514948 18.3796
39.19867190290282 18.3865
39.22249083587951 18.2984
39.24612686969409 18.3271
39.269764641845306 18.2469
39.293404153722804 18.2545
39.317230110864074 18.2088
39.34087311998506 18.1379
39.36451787301696 18.2127
39.388164371352595 18.0967
39.41199737518003 18.0191
39.43564738196752 18.0922
39.45929913825317 18.0525
39.48295264543308 17.9697
39.506792718520884 17.9173
39.530449745387216 17.935
39.55410852735203 17.9063
39.57776906581474 17.864
39.60161623079 17.8371
39.625280300200025 17.804000000000002
39.64894613032202 17.7913
39.67261372255866 17.8082
39.6964680021016 17.7577
39.72013913657293 17.7371
39.74381203738292 17.7468
39.76748670593756 17.6908
39.79134812278169 17.6196
39.81502634488497 17.6219
39.83870633896685 17.6045
39.862388106436654 17.57
39.88625668336918 17.5758
39.90994201572829 17.5878
39.933629125719285 17.5093
39.957503091207826 17.3963
39.9811937746168 17.4461
40.00488623990914 17.3588
40.02858048850006 17.3699
40.05246165409549 17.296
40.076159487492085 17.2412
40.099859108448875 17.3017
40.123560518384345 17.2632
40.1474489070226 17.2155
40.171153913178564 17.1694
40.194860712584955 17.1563
40.2185693066637 17.1562
40.242464941335314 17.1145
40.26617714307655 17.1146
40.289891143772046 17.1004
40.3136069448471 17.0487
40.33750984859743 17.0746
40.3612292688043 17.0438
40.3849504936829 16.9835
40.40867352466194 16.9048
40.43258372059144 16.9268
40.45631038219906 16.887999999999998
40.48003885420956 16.8107
40.503769138055105 16.8311
40.52768664931955 16.827
40.55142057531802 16.8143
40.57515631746428 16.7119
40.599079334038514 16.7098
40.62281872700477 16.6499
40.64655994043941 16.6629
40.67030297578061 16.727999999999998
40.69423334835778 16.6136
40.71798004609188 16.5854
40.74172857006355 16.5619
40.76547892171441 16.5928
40.7894166736039 16.4879
40.813170699248566 16.429000000000002
40.83692655691388 16.4398
40.86068424804498 16.4369
40.884629402612525 16.4047
40.908390779366385 16.4498
40.932153993938 16.3942
40.95591904777605 16.3261
40.979871628443995 16.3308
41.003640379561936 16.3262
41.02741097430883 16.2807
41.05118341413683 16.3193
41.075143444384416 16.1744
41.098919593177826 16.1525
41.1226975914255 16.1278
41.14647744058318 16.1383
41.170444943946755 16.1148
41.19422851378379 16.0454
41.218013938914645 16.0569
41.24198706625173 16.0115
41.26577622087193 15.9689
41.289567235177785 15.9687
41.31336011063129 15.9481
41.337340752422875 15.8858
41.361137369129835 15.8987
41.38493585138705 15.8724
41.40873620066004 15.8262
41.43272438060107 15.7977
41.45652848292052 15.7776
41.48033445666918 15.732000000000001
41.50414230331616 15.7101
41.528138045159764 15.6542
41.551949656675205 15.6325
41.575763145513235 15.6247
41.59957851314666 15.6218
41.62358184070442 15.5778
41.64740098505737 15.5685
41.6712220126409 15.491
41.69504492493139 15.4727
41.71905586207357 15.5014
41.74288256296395 15.4999
41.766711153007456 15.4309
41.79054163368412 15.4316
41.814560204340054 15.4129
41.838394485526365 15.3808
41.86223066180303 15.3118
41.88625497706819 15.3277
41.910094962812 15.3405
41.93393684811168 15.3248
41.95778063445365 15.2134
41.981812625263366 15.1808
42.00566023303407 15.1115
42.029509746323676 15.1345
42.05336116662236 15.12
42.077400857069705 15.0738
42.10125611078846 15.0536
42.12511327600405 15.0155
42.14897235421036 15.0087
42.173019768448455 15.0076
42.19688269209613 15.0024
42.22074753323349 14.9831
42.24461429335818 14.929
42.268669455600495 14.9161
42.292540073217886 14.8801
42.31641261433284 14.9002
42.34028708044675 14.8009
42.36435001496739 14.7921
42.38822835065557 14.821
42.41210861586426 14.7273
42.4359908120986 14.6981
42.46006154323262 14.7202
42.48394762115317 14.6615
42.507835634632315 14.6391
42.531912233047436 14.6361
42.55580413732265 14.5978
42.579697981698 14.5795
42.60359376768525 14.5285
42.62767820545945 14.4553
42.65157789440821 14.5069
42.67547952952185 14.4948
42.699383112316 14.5219
42.72347541395347 14.4242
42.74738291190531 14.3537
42.771292362102166 14.4001
42.795203766063516 14.4008
42.819303956130405 14.3806
42.843219287476536 14.2902
42.86713657716324 14.3313
42.89105582671383 14.2626
42.91516392983864 14.2555
42.939087119032166 14.1781
42.963012272677304 14.1838
42.98693939230129 14.1161
43.01105543317513 14.1047
43.034986504731386 14.1533
43.05891954686589 14.0589
43.08285456110972 14.0337
43.10697856448665 14.0526
43.130917542983475 14.0124
43.15485849820081 14.0378
43.17880143167367 13.979000000000001
43.20293342237094 13.9117
43.226880332449 13.9102
43.25082922540554 13.9112
43.27496722682525 13.8801
43.29892010567796 13.8
43.32287497204102 13.8302
43.34683182745632 13.7838
43.370977859791836 13.7437
43.39493871351105 13.7686
43.41890156092628 13.7782
43.44286640358341 13.7381
43.46702049182749 13.6805
43.49098934522816 13.6626
43.51496019852649 13.6168
43.5389330532723 13.6181
43.56309522248204 13.5948
43.58707210044314 13.5541
43.61105098451946 13.511
43.63503187626491 13.4877
43.659202151562134 13.4656
43.68318707902681 13.4738
43.70717401884041 13.491
43.731162972560874 13.4106
43.75534137913236 13.3924
43.779334381108384 13.3591
43.803329401683186 13.3941
43.82732644241872 13.3422
43.8515130055166 13.3189
43.87551410707659 13.2453
43.89951723350145 13.253
43.923709934595614 13.2381
43.94771713129917 13.2519
43.97172635758096 13.22
43.99573761501002 13.1898
44.0199385169922 13.1416
44.04395385732619 13.1461
44.067971233533086 13.0998
44.09199064718605 13.0748
44.11619977548961 13.0636
44.14022328470671 13.0177
44.16424883610785 13.0526
44.18827643127035 13.0132
44.21249381139513 12.9925
44.236525514814076 12.9236
44.26055926674478 12.940999999999999
44.28459506876863 12.9422
44.3088207262813 12.8425
44.33286064928722 12.8179
44.35690262714919 12.8272
44.38094666145278 12.7837
44.4051806219871 12.767000000000001
44.42922879003185 12.7262
44.45327901929361 12.7422
44.477331311362136 12.6992
44.501573600619416 12.6607
44.525630039221795 12.6252
44.54968854541895 12.6531
44.573937102200176 12.6376
44.5979997645541 12.5936
44.622064499300315 12.5985
44.64613130803592 12.5393
44.67038823869318 12.5445
44.69445921643748 12.5362
44.718532272981385 12.4796
44.742607409926194 12.4602
44.76687274034801 12.4725
44.79095205918753 12.405
44.81503346325094 12.415999999999999
44.839116954143876 12.3517
44.86339071028742 12.3798
44.88747839599524 12.3573
44.91156817336837 12.3082
44.93566004401666 12.3273
44.959942251908146 12.257
44.984038330325966 12.2488
45.00813650686762 12.2511
45.03223678314731 12.2315
45.05652746888232 12.1808
45.08063196592069 12.1459
45.104738567558705 12.1611
45.128847275414856 12.1286
45.15314646515866 12.0479
45.17725940679741 12.0535
45.20137445952892 12.0615
45.22568004865265 12.0574
45.24979934496396 12.0431
45.27392075725247 11.9629
45.29804428714431 11.9934
45.322358426247604 11.9709
45.346486212804315 11.9201
45.370616121861914 11.9423
45.39474815505086 11.9055
45.41907087049246 11.8587
45.4432071734666 11.8699
45.46734560548283 11.8615
45.49148616817604 11.8136
45.51581748638564 11.7713
45.5399623320197 11.7787
45.56410931325473 11.7401
45.58825843173002 11.714
45.61259837920865 11.7276
45.636751793816 11.7015
45.66090735060093 11.6402
45.68506505120716 11.6283
45.7094136545275 11.6067
45.73357566449271 11.595999999999998
45.75773982322992 11.562999999999999
45.78190613238733 11.5428
45.806263418194064 11.5011
45.83043404997326 11.5188
45.85460683713677 11.5079
45.87897065658495 11.4365
45.90314777634752 11.4515
45.92732705646868 11.4489
45.9515084986045 11.4328
45.97588104735473 11.4147
46.00006683541565 11.3587
46.02425479047904 11.3628
46.04844491420549 11.3247
46.0728262191024 11.3081
46.09702070211635 11.2912
46.12121735879483 11.3055
46.14541619080294 11.255
46.169806278764455 11.2606
46.194009483459034 11.24
46.21821486849841 11.1994
46.24242243555223 11.2142
46.266821333570014 11.1451
46.29103328674601 11.1358
46.31524742696538 11.1744
46.33946375590237 11.1004
46.36387149104216 11.0903
46.38809221957392 11.0491
46.41231514186606 11.0356
46.436540259597464 11.0133
46.460956858999374 10.9942
46.48518638983522 10.9698
46.509418121166966 10.995999999999999
46.533652054678114 10.9617
46.55807754555709 10.899000000000001
46.58231590571962 10.886
46.60655647313217 10.8346
46.630988654873654 10.8424
46.655233659129024 10.831
46.67948087571551 10.8327
46.70373030632484 10.7862
46.72817142736393 10.7544
46.752425308428684 10.7269
46.77668140861147 10.6949
46.80093972960865 10.6601
46.82538981736788 10.728
46.849652602470904 10.6842
46.87391761349769 10.6212
46.8981848521493 10.626
46.9226439341274 10.594000000000001
46.946915650573224 10.5474
46.97118959976749 10.5628
46.99546578341598 10.5498
47.019933887188216 10.4963
47.04421456235744 10.5191
47.06849747711879 10.5068
47.09278263318286 10.4502
47.11725978640143 10.427
47.14154944775105 10.4075
47.165841355555656 10.3914
47.1901355115306 10.3825
47.214621741924994 10.3962
47.23892041698887 10.3665
47.26322134538975 10.3385
47.28771440635075 10.3087
47.31201986422527 10.3478
47.33632758061436 10.2782
47.360637557241866 10.2763
47.38513974410611 10.2792
47.40945426407847 10.2024
47.43377104948137 10.2026
47.45809010204344 10.1732
47.48260144275502 10.1874
47.506925052572285 10.1546
47.53125093475548 10.1435
47.55557909103813 10.1106
47.58009961361992 10.0992
47.60443234110732 10.0533
47.62876734791564 10.049
47.65310463578333 10.0508
47.6776343683373 10.0404
47.7019762413987 9.9558
47.72632040075572 9.99248
47.75066684815169 10.003
47.77520581885936 9.96151
47.799556865477655 9.95551
47.823910205386 9.915569999999999
47.84826584033272 9.891739999999999
47.87281407745551 9.87411
47.89717432569297 9.87385
47.92153687423484 9.80599
47.94609208429692 9.795960000000001
47.97045925671401 9.808530000000001
47.99482873471275 9.76184
48.01920052005013 9.73568
48.04376504619224 9.72815
48.068141469543484 9.76403
48.09252020552573 9.72193
48.11690125590099 9.71568
48.1414751266064 9.663089999999999
48.16586082917454 9.657010000000001
48.19024885144316 9.63064
48.2146391951793 9.63345
48.239222439012764 9.61468
48.26361744916137 9.60864
48.28801478610016 9.59637
48.31241445160131 9.570689999999999
48.337007097209366 9.53308
48.36141144338331 9.50751
48.38581812345755 9.5319
48.41022713920929 9.51399
48.434829215320704 9.47664
48.45924292604658 9.45058
48.48365897780325 9.489989999999999
48.50807737237308 9.43564
48.532688907799276 9.45911
48.55711201168574 9.3837
48.581537463754074 9.35704
48.60615611725119 9.38043
48.63058628942721 9.35404
48.65501881516546 9.332939999999999
48.6794536962573 9.28938
48.70408185970339 9.274569999999999
48.72852147531801 9.26942
48.75296345168211 9.234110000000001
48.77740779059232 9.22909
48.80204549302823 9.20945
48.82649458091802 9.18683
48.85094603676547 9.19437
48.87539986237231 9.15339
48.90004713292306 9.12412
48.92450572200832 9.133189999999999
48.94896668628025 9.099160000000001
48.97343002754588 9.06747
48.99808689542115 9.10357
49.02255501470614 9.08103
49.04702551642794 9.08423
49.0714984023988 9.04599
49.096164896893235 8.99969
49.120642575466796 8.9748
49.145122643748394 8.98127
49.16960510355558 8.964839999999999
49.19428125404938 8.943489999999999
49.2187685210852 8.9366
49.243258185121555 8.89205
49.26794160167084 8.88054
49.2924360839405 8.83986
49.31693296869764 8.87617
49.34143225776915 8.847489999999999
49.36612538195438 8.81713
49.39062950396021 8.77469
49.41513603578346 8.7644
49.4396449792564 8.785
49.46434784069503 8.77389
49.488861631846454 8.73714
49.513377840166804 8.71124
49.537896467493745 8.68493
49.56260909589029 8.65157
49.587132585683285 8.683689999999999
49.611658500018365 8.60599
49.636186840738596 8.60721
49.66090926588511 8.6228
49.685442483902584 8.59255
49.70997813385706 8.576360000000001
49.734516217597076 8.56218
49.75924846937352 8.54947
49.7837914452858 8.55606
49.80833686055187 8.50045
49.83288471702571 8.5098
49.85762682540054 8.470419999999999
49.882179588965734 8.468760000000001
49.9067347993235 8.45572
49.93129245833333 8.43632
49.95604445336378 8.431610000000001
49.98060703442832 8.3829
50.005172069746266 8.389389999999999
50.02993150438364 8.37452
50.05450147301533 8.35677
50.07907390151433 8.34561
50.10364879174981 8.29819
50.12841816587289 8.316
50.1529980044635 8.28893
50.17758031042124 8.26678
50.20216508562089 8.28214
50.22694442953363 8.25024
50.25153416817468 8.25023
50.27612638170508 8.17651
50.300721072005196 8.16292
50.325510416102105 8.192919999999999
50.350110084975064 8.17913
50.37471223628208 8.17361
50.39931687190919 8.133239999999999
50.424116246675766 8.12082
50.44872587605249 8.09878
50.47333799543065 8.11819
50.49795260670191 8.089960000000001
50.52276204271512 8.053989999999999
50.54738166295838 8.04557
50.57200378079314 8.035
50.596628398116835 8.02234
50.62144792604559 8.01859
50.646077567609396 7.9612300000000005
50.670709714377715 7.98442
50.69553683636198 7.95793
50.72017401885922 7.940360000000001
50.7448137122895 7.93588
50.76945591856022 7.93195
50.79429318636823 7.87628
50.818940443716784 7.90441
50.84359021965163 7.85245
50.868242516085964 7.830439999999999
50.893089960641895 7.8609
50.917747323549435 7.779780000000001
50.94240721271973 7.775869999999999
50.96706963007175 7.783939999999999
50.99192728239342 7.74747
51.01659478166073 7.73406
51.04126481489051 7.72755
51.06593738400761 7.723660000000001
51.090805275207074 7.69906
51.11548294172845 7.705360000000001
51.14016314993547 7.693560000000001
51.164845901758845 7.66138
51.18972406304274 7.619839999999999
51.21441192780656 7.6457
51.23910234200271 7.6623600000000005
51.2637953075678 7.6021
51.288683770237945 7.57079
51.31338186432707 7.56363
51.33808251561888 7.55748
51.362978729967345 7.51513
51.387684521509755 7.497139999999999
51.41239287610203 7.52341
51.437103795691165 7.43743
51.46201036644977 7.43411
51.486726441956634 7.430610000000001
51.51144508832545 7.4196100000000005
51.536166307509156 7.426139999999999
51.56108326624387 7.4406300000000005
51.58580965706056 7.403810000000001
51.61053862657523 7.38425
51.635270176746864 7.349419999999999
51.66019755512065 7.3693100000000005
51.68493429268881 7.34709
51.70967361681515 7.307760000000001
51.73441552946465 7.29396
51.759353359237934 7.29983
51.7841004750961 7.28286
51.80885018539685 7.2773699999999995
51.833602492111254 7.238739999999999
51.8585508051424 7.2103399999999995
51.883308330926425 7.1821399999999995
51.90806845906181 7.15999
51.932831191525715 7.15455
51.95779001977161 7.15631
51.98255798721516 7.149360000000001
52.00732856494335 7.11735
52.03229530577543 7.13952
52.057071130455945 7.10491
52.081849571391054 7.10423
52.106630630568695 7.091139999999999
52.13160794279417 7.0521199999999995
52.15639426492067 7.0456
52.18118321127822 7.05237
52.205974783860896 7.00395
52.23096269971011 7.00913
52.255759551287994 7.00224
52.280559035098186 6.97633
52.30536115314103 6.987710000000001
52.33035970494467 6.91149
52.35516711807904 6.95682
52.37997717147198 6.92052
52.40478986713005 6.9233199999999995
52.42979908731974 6.87087
52.454617094216 6.87874
52.47943774942214 6.874689999999999
52.50426105495102 6.870610000000001
52.529280976059844 6.8164
52.554109609024096 6.79367
52.57894089837482 6.85805
52.60377484613117 6.824610000000001
52.62880550079408 6.772760000000001
52.65364479223379 6.758489999999999
52.67848674816189 6.76186
52.70352547971946 6.76412
52.72837279155837 6.7452
52.753222773982785 6.66092
52.778075429022984 6.706810000000001
52.80312495150885 6.697
52.827982978797436 6.6772
52.85284368481815 6.6402
52.87770707160767 6.62581
52.90276741793998 6.63524
52.92763619336701 6.6390899999999995
52.952507655698504 6.58569
52.977381806977576 6.5891399999999996
53.00245301017842 6.6322399999999995
53.02733256653592 6.56371
53.052214817996074 6.5669699999999995
53.077099766608484 6.5159
53.102181859804446 6.51334
53.127072229988265 6.54212
53.15196530349892 6.48691
53.17686108239249 6.48302
53.20195409881522 6.46462
53.22685531582556 6.43461
53.25175924441303 6.44024
53.27666588664027 6.399769999999999
53.30176985962693 6.39213
53.3266819565689 6.424930000000001
53.35159677336455 6.35595
53.376514312083096 6.34734
53.40162927507703 6.3603
53.42655228516116 6.3662
53.45147802340193 6.29381
53.47660125628886 6.29491
53.50153247842639 6.288819999999999
53.52646643496923 6.25875
53.55140312799818 6.29367
53.576537409691696 6.27607
53.60147960336152 6.22769
53.626424539786164 6.21805
53.65137222105307 6.25395
53.67651758529126 6.2150099999999995
53.70147078399681 6.16067
53.72642673383343 6.1730599999999995
53.75138543689533 6.19804
53.776541917524526 6.14839
53.801506154876755 6.11986
53.826473151763246 6.12665
53.851442910284916 6.110930000000001
53.87661054126026 6.0937
53.9015858509782 6.0611
53.92656392866066 6.05386
53.95154477641532 6.0553099999999995
53.976723591801296 6.0652099999999995
54.00171000771266 6.018330000000001
54.02669920004598 6.01011
54.051691170915745 5.95616
54.076881204886796 5.9976199999999995
54.101878760928514 5.97726
54.12687910187696 5.93658
54.152077577768296 5.93571
54.1770835166946 5.95512
54.20209224691339 5.90745
54.22710377055121 5.86878
54.25231352511594 5.91023
54.27733066384342 5.86139
54.30235060239643 5.84555
54.32737334290836 5.85087
54.35259441062629 5.80115
54.377622783395324 5.76583
54.40265396455061 5.78925
54.42768795623251 5.76926
54.45292037169559 5.75645
54.477960012857906 5.7689699999999995
54.50300247099511 5.74215
54.52804774825457 5.70063
54.55329154616743 5.6929
54.57834249018678 5.68034
54.6033962597977 5.62637
54.6284528571545 5.6671
54.653708072335164 5.653580000000001
54.67877035378786 5.61076
54.70383546947698 5.57304
54.72890342156389 5.58125
54.7541700889442 5.51001
54.77924374251975 5.47912
54.8043202390049 5.53224
54.82959552413022 5.48491
54.8546777351945 5.47651
54.87976279569621 5.40223
54.90485070780914 5.44681
54.930137506558005 5.40714
54.95523115074295 5.402909999999999
54.98032765308844 5.4288300000000005
55.005427015775496 5.36775
55.03072536339621 5.42333
55.05583047570572 5.32984
55.080938454927676 5.29595
55.10604930325027 5.278969999999999
55.131359235107396 5.260730000000001
55.15647585066083 5.24078
55.181595341907496 5.23295
55.20671771104285 5.2241
55.232039262617704 5.18835
55.25716741665048 5.1473
55.28229845518636 5.08133
55.30743238042802 5.0753
55.33276558731939 5.06883
55.357905315183636 5.05572
55.383047936390035 5.014530000000001
55.40819345314859 5.0332
55.433538351073295 4.97626
55.458689688238415 4.968430000000001
55.483843927614096 4.90575
55.509197623043605 4.93956
55.53435769621134 4.89999
55.55952067826466 4.87217
55.5846865714265 4.85931
55.61005202069737 4.79246
55.63522376553902 4.809
55.66039842818645 4.76086
55.68557601087004 4.77445
55.7109532500271 4.6722
55.73613670233794 4.76708
