TT I
1.2716486653135266 7.766839999999999
1.2939594142134223 7.7191
1.3162702121660406 6.97876
1.3385810600174564 6.3656
1.3608919586137629 6.5688
1.383202908801069 6.213019999999999
1.405513911425503 6.37144
1.4278249673332093 6.81659
1.4501343378461518 6.38331
1.4724455028545926 6.05626
1.4947567236847858 6.36523
1.517068001182951 6.50548
1.5393793361953272 6.0095
1.5616907295681737 6.33796
1.5840021821477681 5.13794
1.60631369478041 4.73921
1.6286252683124185 5.05955
1.6509369035901333 5.32386
1.6732468618895553 4.96013
1.695558623192809 4.58459
1.7178704487808514 5.79863
1.7401823395001077 4.91196
1.7625012545597203 4.92859
1.7848028405262486 4.90486
1.8071218901122095 5.61194
1.8294236121921872 4.88352
1.8517427996910911 4.55733
1.8740620574440425 5.12867
1.8963639900671978 4.44337
1.9186833908139995 4.6742099999999995
1.9409854680117449 4.66025
1.9633050151394713 5.20725
1.9856246367570705 4.838019999999999
2.0079269371922672 4.28704
2.03024671027244 4.18527
2.0525491637446027 4.74408
2.074869091674931 4.84438
2.097171701569106 4.05005
2.1194917877373847 5.16355
2.141811954326636 4.35297
2.164114805233074 4.48726
2.186435135143035 5.2815900000000005
2.208738150935709 8.58085
2.231058647554722 16.2097
2.2533792288321184 11.8806
2.275682498336085 6.8643600000000005
2.298003251406138 5.08899
2.3203066942619714 5.6795599999999995
2.3426276225136022 5.38654
2.3649486396617507 5.23315
2.387252348930071 5.72895
2.4095735463442893 5.83014
2.4318774374315884 5.66591
2.4541988185014043 5.59251
2.476502894794693 6.5067699999999995
2.498824462909887 6.50217
2.521146125856138 7.29051
2.5434504863470337 6.49611
2.5657723414244717 7.603960000000001
2.588076895590662 7.3185199999999995
2.610398946189713 7.22187
2.6327210958598384 7.187689999999999
2.6550259469304716 6.87414
2.6773482972090137 7.42095
2.6996533504259 7.52048
2.7219759047039602 7.7660100000000005
2.744298562293959 7.72848
2.7666039251246595 7.70719
2.7889267918020164 8.04567
2.8112323652516555 7.52345
2.833555444408179 7.9352100000000005
2.8558786311183852 8.09324
2.8781845268938557 8.78162
2.9005079311721484 8.39082
2.9228140460410397 8.84793
2.9451376712799635 9.33942
2.967444008632326 9.31334
2.9897678582247247 9.8476
3.0120918213106695 10.2786
3.0343984987899373 11.104000000000001
3.0567226913198637 11.4504
3.079029599759726 11.65
3.101354025127254 12.159
3.123678568232338 12.8461
3.145985829517914 12.7831
3.16831061055229 13.0856
3.1906181112775593 13.7865
3.212943133635653 14.575
3.2352682779763207 14.9083
3.2575761442691227 15.2974
3.2799015350264273 15.9782
3.302209649240067 16.0175
3.3245352898092655 17.4275
3.3468436553365257 17.5675
3.369169549113219 17.8354
3.3914955708171384 18.9625
3.413804319727358 18.9852
3.4361305997334863 18.9737
3.4584396084414553 19.3905
3.4807661501462652 20.1749
3.503092824025881 20.884
3.5254022288463154 21.1782
3.5477291695206588 21.8
3.5700388426251948 21.9127
3.5923660534916446 23.1651
3.6146934007816114 31.2012
3.637003482731501 54.6418
3.6593311053109985 58.9406
3.681641464033634 39.6266
3.7039693653009733 27.3347
3.726297407241705 25.8012
3.7486081875460804 25.6712
3.7709365132734978 26.0265
3.793247578841633 26.4809
3.8155761917550093 26.3469
3.8378875459837216 27.1502
3.8602164494827234 27.5129
3.882545499606844 28.2696
3.9048572932539183 28.6897
3.9271866390645718 29.1408
3.9494987298666713 29.96
3.971828374764527 30.7822
3.9941581705403255 31.2325
4.016470713506008 31.7632
4.038800813471445 32.3286
4.061113662089144 33.1518
4.0834440696459176 33.7132
4.105774632334751 34.0445
4.128087945865126 34.6653
4.150418821249301 35.4453
4.172732448931298 36.235
4.195063640413578 37.7207
4.2173775856475215 39.8537
4.239709096631102 57.4474
4.262040768704612 134.876
4.284355196706267 171.327
4.306687193387355 118.32799999999999
4.329001947444346 60.0853
4.35133427213731 45.2587
4.373666762177566 43.9529
4.395982011761091 44.3289
4.418314834921175 45.6184
4.44063041906622 49.4664
4.4629635787515625 55.0825
4.4852969080429785 55.8227
4.5076130004776225 52.5129
4.529946671403969 54.2981
4.552263106909177 54.9752
4.574597122877047 54.1493
4.596931312711224 54.0415
4.619248269273446 54.5031
4.6415828092605835 55.0076
4.663900117405352 56.5167
4.686235010953232 58.2594
4.708552674085913 59.5598
4.730887924602802 61.1904
4.753223354952695 62.5821
4.775541557023902 65.3127
4.797877349456786 67.1629
4.820195915032126 68.6722
4.842532072957498 69.2784
4.864868414979744 72.0362
4.88718753227192 75.0606
4.909524244902505 76.6627
4.931843734218147 77.3904
4.954180820867835 80.3044
4.976518095879839 83.4587
4.998838149695359 86.3899
5.021175803844231 89.7604
5.043496238205739 93.9791
5.065834274903528 98.8715
5.088172504230693 104.345
5.1104935158799565 111.884
5.132832132875765 131.921
5.155153533596801 165.048
5.1774925416746225 226.38
5.199814334878411 536.8380000000001
5.2221537374521505 1426.9
5.244493338631803 3524.25
5.266815727034316 7840.47
5.289155727832427 11709.2
5.311478517248165 8602.27
5.333818921080011 2872.48
5.356159527788849 586.7719999999999
5.3784829252032536 206.13
5.400823940070432 156.437
5.423147747031976 134.89600000000002
5.445489173474152 123.415
5.467830807066149 120.171
5.490155234831516 117.088
5.512497285125229 111.35700000000001
5.534822130975162 107.537
5.557164601388673 104.898
5.579489868738879 101.93
5.601832762690846 100.43700000000001
5.6241758697774475 99.3862
5.646501775867269 98.7819
5.668845311622074 97.5525
5.691171647754637 97.0359
5.713515615597765 96.1442
5.735859800852677 95.0711
5.758186788542988 94.8993
5.780531411018185 96.8465
5.802858837297399 95.8198
5.825203900414495 97.227
5.8475491852224 98.9128
5.869877275883075 98.6694
5.892223006467101 98.3972
5.914551544266608 98.8327
5.936897724049891 103.304
5.959244129804903 112.374
5.981573344815301 150.381
6.0039202049061 297.485
6.026249875609095 606.113
6.04859719346037 1188.5
6.070927323278297 2382.34
6.093275102315365 4285.01
6.115623113320588 5114.11
6.137953938319995 3293.69
6.160302415650845 1032.0
6.182633708324452 249.335
6.2049826554078376 119.195
6.227331838745022 95.845
6.249663839443684 87.5642
6.27201349767565 83.2501
6.294345974611799 84.8415
6.316696111167083 88.4354
6.339046488263839 85.012
6.361379686074702 76.8109
6.383730546639482 72.1582
6.406064229255215 70.54899999999999
6.428415576718203 70.4795
6.450749747566656 69.4321
6.47310158535871 67.7575
6.495453669698332 66.1296
6.517788579421056 65.5619
6.540141159237969 64.6144
6.562476565766648 63.9437
6.5848296444934045 63.7467
6.607182974060425 63.5397
6.6295191323281015 63.4172
6.651872965955752 64.4453
6.6742096296068985 76.4105
6.6965639707294615 98.305
6.71891856698715 97.3911
6.741255995248479 76.9659
6.763611104154477 64.0346
6.785949046381137 60.2198
6.808304671371482 59.5075
6.8306605557940046 59.937
6.852999275508618 59.0906
6.875355681171544 58.0133
6.897694923437771 57.5744
6.92005185377892 57.1173
6.9423916220322655 57.0693
6.964749080490181 56.338
6.987106804399774 56.5073
7.009447368180821 56.526
7.031805625367033 56.1316
7.054146723727803 55.9873
7.076505517631004 55.8682
7.098864581288365 55.6453
7.121206488070854 55.5323
7.143566093607822 55.5141
7.165908543567245 56.3137
7.188268694426048 55.9839
7.2106291193438095 55.8121
7.232972390625943 55.8417
7.255333366030969 61.7716
7.277677189091925 87.1099
7.300038718428332 108.897
7.322400526130865 96.8315
7.344745183422596 70.92699999999999
7.367107550224791 58.504
7.389452767901992 55.9367
7.411815697249891 55.1164
7.434161478756298 54.7234
7.456524974096713 54.8293
7.478888753837185 54.655
7.501235387657368 54.9717
7.523599738562711 54.9138
7.545946944825532 55.4885
7.568311870344528 55.7228
7.5906770845765665 55.9788
7.613025156078678 56.6098
7.635390950099687 57.3297
7.657739602662809 57.0011
7.680105979923558 56.8121
7.702472650212829 57.2966
7.724822180948224 57.3876
7.747189439655568 56.8976
7.769539560075357 56.8776
7.791907410653562 57.3908
7.81425812420825 57.4861
7.836626570110925 57.9279
7.858995315087906 58.3596
7.881346924933401 58.9364
7.903716270417482 59.2957
7.926068482028405 59.6762
7.948438431475253 60.1072
7.9708086843180235 60.8266
7.993161805171116 61.3818
8.015532667162402 61.7934
8.037886398416653 62.7894
8.060257873014221 63.3915
8.082629655331942 64.1101
8.104984308787587 64.885
8.127356708900503 67.1391
8.149711981398308 71.3639
8.172085002766314 72.923
8.194458336181368 71.1262
8.216814543847752 70.1866
8.23918850371002 70.6706
8.26154533906492 71.7981
8.283919928836452 73.2424
8.306277395339652 74.3435
8.328652618483376 75.8156
8.351028159736202 78.2099
8.373386579575245 80.5947
8.395762759396959 82.2437
8.418121819038275 86.4169
8.440498640894003 95.9088
8.462875785192262 109.693
8.485235811156207 140.89700000000002
8.507613602688501 210.75400000000002
8.529974277114228 316.092
8.552352719347912 467.358
8.574731488360351 750.02
8.59709314210385 1246.51
8.619472567021075 1839.56
8.64183487789147 2188.74
8.664214962183097 1795.24
8.686577933647762 963.957
8.708958680784317 371.798
8.731339760774953 166.313
8.753703729764451 113.88799999999999
8.77608547780821 101.45700000000001
8.798450116065078 97.7025
8.820832535634787 94.9101
8.843215292401656 93.4745
8.865580941199045 92.5795
8.887964374703538 91.9499
8.910330701447199 91.7528
8.932714815164482 92.1707
8.955099270424924 90.3016
8.977466620733543 88.443
8.999851761421976 86.5559
9.022219798361645 85.3606
9.04460562795561 85.4616
9.066991803441677 84.9771
9.089360876979615 85.1497
9.111747746589993 84.57700000000001
9.13411751544971 84.1767
9.156505082664324 83.6599
9.178875550323522 83.1996
9.20126381862328 83.66799999999999
9.223652438908596 84.3252
9.246023961427412 84.1202
9.26841328802173 83.7058
9.290785518039224 83.6874
9.313175554425882 85.1235
9.335565947154315 85.8156
9.357939245086508 85.9317
9.380330352834827 85.3937
9.40270436697103 85.6709
9.425096193225055 85.28200000000001
9.447488380180165 85.8147
9.469863475295412 85.8893
9.492256385987508 86.5561
9.514632206018318 86.9243
9.537025843935714 87.4125
9.559402392368193 88.4229
9.581796761000229 90.4061
9.604191496441521 91.699
9.626569144158516 93.3056
9.648964615551032 95.9556
9.671343000390081 96.38600000000001
9.693739211225699 95.6809
9.716135793237463 94.7409
9.738515290448102 94.9871
9.760912617143402 96.4748
9.783292860202891 98.1767
9.805690935076182 99.26700000000001
9.828089385495742 100.588
9.850470754023561 102.81200000000001
9.872869957865444 107.574
9.89525208097539 116.178
9.917652041736662 124.45200000000001
9.940052382417589 134.73
9.962435644102392 167.38400000000001
9.984836746950979 222.47400000000002
10.007220771957746 296.063
10.029622640473708 412.145
10.052007432299963 603.122
10.074410069984072 890.2769999999999
10.096813093716005 1289.65
10.119199042482517 1713.0
10.141602840636468 1927.91
10.163989564971628 1616.85
10.186394141051062 925.471
10.208799107559706 402.275
10.231187001965623 190.955
10.253592751657669 129.284
10.275981430388155 115.495
10.298387966769793 112.973
10.320794897965431 112.75200000000001
10.343184759907361 111.632
10.36559248305461 108.566
10.387983138083852 108.663
10.410391656691655 117.17399999999999
10.432800574501677 131.971
10.455192425893369 151.231
10.47760214443012 179.755
10.499994797678786 224.824
10.522405320453982 303.254
10.54479877906917 404.213
10.567210109595656 500.282
10.5896218454736 564.867
10.612016518879773 491.106
10.634429067781074 344.06699999999995
10.656824555333241 200.09400000000002
10.679237920773568 123.641
10.701651695961992 97.2635
10.724048411481384 90.98200000000001
10.746463008485165 87.9113
10.768860546937125 86.0499
10.791275969274796 84.6482
10.81369180576079 83.5707
10.836090585366925 82.6154
10.858507252467449 80.9875
10.88090686379991 80.1691
10.903324365036394 79.4958
10.925724811614439 78.7059
10.948143150509463 79.359
10.970561909719066 78.7252
10.992963615930844 77.5543
11.015383218085756 75.7333
11.037785768347074 74.4521
11.06020621697282 73.6606
11.082627090322113 73.0045
11.105030913430326 72.4117
11.12745263854165 72.4847
11.149857314510728 74.0198
11.172279894912576 76.6933
11.194702904450653 76.6062
11.217108866490921 74.3112
11.239532736615194 71.8572
11.26193956033512 70.8184
11.284364294577085 69.9387
11.306789462371718 68.4909
11.329197585398376 68.1412
11.351623622610898 67.6111
11.37403261614354 66.9718
11.396459526308487 66.8081
11.418869393879497 66.5205
11.441297180532617 66.1782
11.463725406927658 65.6807
11.486136592353875 65.4294
11.508565700543707 65.6178
11.530977768845315 66.6223
11.553407762368774 66.6921
11.575838200059769 66.3976
11.598251599479612 65.3266
11.620682927815501 64.6754
11.64309721895548 64.407
11.665529441478206 64.1339
11.687962112597958 63.9008
11.710377748130886 64.086
11.732811318753434 63.7586
11.755227854859067 63.678000000000004
11.777662328529495 63.5796
11.800079768750786 63.5631
11.822515149015453 63.5467
11.844950984084935 63.8361
11.867369787303163 63.5479
11.889806534289491 63.2862
11.912226250487029 63.9671
11.934663912939751 63.8143
11.9571020346363 64.089
11.979523127133968 64.3737
12.001962169624331 65.7625
12.024384183972964 68.1322
12.046824150809913 72.2731
12.069264581333726 77.6854
12.091687985297767 84.2545
12.11412934550045 94.0845
12.136553680195208 109.74799999999999
12.158995973632788 131.385
12.181438735204349 156.149
12.20386447284199 182.30200000000002
12.226308172985636 201.59
12.24873485024193 200.642
12.271179492516982 168.894
12.293607112949127 123.15700000000001
12.316052700916226 90.9638
12.338498763250042 75.5154
12.360927805303868 68.82300000000001
12.383374818673879 66.3153
12.405804812803074 65.2304
12.428252780773262 65.1364
12.45070122756722 65.35600000000001
12.473132656675375 65.1718
12.49558206341869 65.6626
12.518014453510101 65.773
12.540464823770117 65.5952
12.562915677315177 65.811
12.58534951575545 66.517
12.607801338171472 67.335
12.630236146511358 69.8027
12.652688941369085 72.4238
12.675124723177234 72.9584
12.697578494048786 71.539
12.720032754458185 69.3651
12.742470003354093 68.8033
12.764925245138771 68.7167
12.787363476431278 69.2156
12.809819703166806 69.3573
12.83227642391173 70.4234
12.854716135692716 70.7364
12.877173846755147 72.1961
12.899614549869717 72.6139
12.9220732548287 73.6202
12.94453245827299 74.1437
12.966974655289818 74.9217
12.989434858002571 75.5274
13.011878055298721 76.5846
13.034339260862497 77.7372
13.056800969391883 79.2623
13.079245674017244 82.064
13.101708390774869 87.3478
13.12415410463411 97.7204
13.146617833206086 110.20700000000001
13.169064559883248 122.635
13.191529303857127 138.441
13.213994557076367 163.453
13.236442809902437 200.734
13.258909083908291 252.08
13.28135835851934 306.862
13.30382565690295 369.56199999999995
13.326293469022952 418.70099999999996
13.348744283242008 421.853
13.371213125129904 353.444
13.39366497011003 260.467
13.416134845360597 170.368
13.438605238843131 124.757
13.46105863690397 111.916
13.483530069144786 114.117
13.505984506951902 120.24600000000001
13.528456981549432 131.042
13.550929978879088 147.5
13.573385983253365 172.30900000000003
13.595860028340867 208.888
13.618317081455832 254.597
13.64079217790333 302.051
13.663250283359057 341.798
13.685726434770173 371.13199999999995
13.708203115221277 342.292
13.730662806148091 267.731
13.75314054697177 187.618
13.775601299246777 128.504
13.798080104050406 97.5233
13.820559442405358 86.3604
13.843021793671388 83.2705
13.865502201420897 81.5271
13.887965623051947 81.2228
13.910447103807167 79.7674
13.932929122629764 78.3529
13.955394156785959 78.092
13.977877254034569 77.2531
14.000343367582113 76.4735
14.022827546871707 75.6505
14.045294743423524 74.9976
14.06778000837062 74.3626
14.090265817715476 74.33
14.112734645763819 73.6342
14.13522154619454 73.2153
14.157691466286913 73.2501
14.180179461423874 73.2097
14.202668005486178 72.5661
14.22513957064374 71.9916
14.247629214846473 71.6956
14.270101881097517 71.3117
14.29259262906496 71.2954
14.315083930490205 71.569
14.337558255389705 71.7997
14.360050666019726 71.5775
14.382526101071944 70.9408
14.405019624534942 70.4924
14.427513705993134 69.9742
14.449990813291825 70.209
14.47248601302899 69.8731
14.49496423954951 70.0241
14.517460561197822 70.2059
14.539939910570322 69.9078
14.562437357763558 70.069
14.58493536931253 71.0616
14.607416409993311 71.3686
14.62991555254159 72.1206
14.652397725157423 71.9357
14.674898002342799 71.6456
14.697398848433282 72.1048
14.719882725991326 73.6322
14.74238471217934 76.0993
14.764869730765593 80.438
14.787372860692983 84.1649
14.809876564079925 88.8721
14.83236330125751 95.2666
14.854868153850365 104.75
14.877356041159485 118.491
14.899862046604186 136.667
14.922351087688757 158.409
14.944858249632887 182.53099999999998
14.967365991421232 202.497
14.989856770231246 217.575
15.012365673994204 215.49200000000002
15.03485761569738 186.80200000000002
15.05736768508665 146.951
15.07987833888692 114.536
15.102372032001655 90.4163
15.124883856909658 77.5669
15.14737872204565 73.4023
15.169891721717274 71.9343
15.192405310371893 71.206
15.214901940621196 71.255
15.237416709527137 70.8872
15.259914520936249 70.767
15.282430473753607 69.9014
15.304947020131227 69.2242
15.327446610371178 68.79
15.349964346154254 68.0408
15.372465126703139 67.8239
15.394984055556009 67.507
15.417486030076159 67.5935
15.44000615566487 67.346
15.462526881230803 67.1925
15.485030653812652 67.2973
15.507552581617434 66.9413
15.530057557334603 67.3252
15.55258069104857 67.131
15.575104429329837 67.4476
15.597611216864632 67.4767
15.620136166564563 68.2428
15.6426441664095 70.2559
15.665170331202765 73.4353
15.687697105158826 76.5769
15.710206930593545 80.344
15.732734925158933 84.8957
15.755245972089478 91.7212
15.77777519094324 101.484
15.800287463046663 114.406
15.822817909869592 131.30700000000002
15.84534897229804 149.202
15.867863089299354 169.438
15.890395385222186 184.18200000000002
15.912910736597423 191.56900000000002
15.935444269699861 181.024
15.957978423016485 154.36
15.980495633101265 121.69200000000001
16.003031029129367 94.7643
16.02554948280019 76.4625
16.048086125229432 68.1465
16.070623392487107 65.4809
16.09314371869582 64.4401
16.11568223789321 63.4888
16.13820381691126 62.513000000000005
16.160743591742527 62.1761
16.183283996022084 61.2395
16.205807461423195 60.2302
16.228349126881973 59.6588
16.25087385432698 59.7818
16.27341678466365 59.1835
16.29594277784926 58.8726
16.31848697676433 58.8473
16.341031811604868 58.6552
16.36355971058487 58.7666
16.3861058195587 58.8551
16.40863499352978 57.92
16.431182380342005 57.2161
16.453730407713202 56.8783
16.476261501364792 56.7386
16.498810812136167 56.4882
16.52134319004079 56.4629
16.54389378792203 56.2282
16.566445031001553 55.9954
16.588979342490088 55.9164
16.61153187824822 55.8163
16.634067483263312 55.8158
16.656621315414416 55.6609
16.679175797408888 55.3405
16.701713349928728 55.3701
16.72426913389191 55.6341
16.74680798922351 55.8539
16.76936507887444 55.6603
16.791905240734874 55.5444
16.814463639794468 55.5273
16.837022695210294 55.7649
16.859564824093756 56.0237
16.882125194503903 56.2658
16.904668639217885 56.4952
16.927230328348003 56.5273
16.949792678493612 56.8096
16.972338104193863 56.6373
16.994901778652235 56.4358
17.017448529496576 56.7128
17.040013531998152 57.1891
17.06257920018044 57.8485
17.0851279459922 58.6046
17.107694947817667 59.4189
17.130245028099072 60.2718
17.15281336730298 61.6065
17.17536478578733 63.6362
17.19793446610687 66.0794
17.220504818648422 68.6694
17.243058251703697 71.3769
17.265629950971032 75.582
17.288184731571736 78.9533
17.310757781306908 82.4769
17.33333150794385 83.1713
17.355888317140174 81.9984
17.37846339986244 77.4621
17.401021565958885 71.4773
17.42359800851343 66.2903
17.44617513265564 62.9198
17.468735341390783 61.1542
17.491261035594565 60.0579
17.51396340099364 59.861000000000004
17.536490463869136 59.8283
17.559018209820174 60.0336
17.58154663977963 60.2978
17.604251766089718 60.4702
17.626781572227713 60.5022
17.64931206518155 60.8941
17.671843245885103 61.3779
17.69455114821572 61.3689
17.717083712612634 61.8075
17.739616967569667 62.0602
17.762150914021706 62.5097
17.78486160749854 62.797
17.807396945166804 63.6525
17.829932977143503 65.3446
17.85246970436452 67.419
17.875183204129467 69.0935
17.897721330097664 71.3465
17.920260154126645 73.9239
17.942799677153296 77.1025
17.9655159983646 81.2552
17.988056927677544 87.0857
18.010598558807683 94.4344
18.033140892692916 103.361
18.05586005052525 112.15100000000001
18.07840379824407 121.98899999999999
18.10094825154059 133.045
18.12366954819864 140.517
18.146215420998306 139.781
18.16876200220057 132.917
18.191309292745153 119.786
18.214033452627167 105.666
18.236582170236648 93.9605
18.259131600016456 88.8877
18.281681742907335 88.7904
18.304408781233683 92.2234
18.32696035875955 96.2121
18.349512652227624 100.536
18.372065662579683 105.545
18.394795594587553 106.801
18.41735004715306 103.551
18.43990521943684 97.2011
18.46246111238171 87.5622
18.485193953325208 78.5443
18.507751296070428 70.9856
18.530309362314178 66.7385
18.552868153000343 64.5362
18.57560391815056 63.0715
18.59816416623245 62.7886
18.620725141597372 62.2942
18.643286845190268 61.7284
18.666025549835414 61.3588
18.688588718427933 60.8757
18.711152618092243 60.5913
18.73389353884365 60.4399
18.75645890921984 59.9998
18.77902501351406 59.5527
18.801591852673102 59.7133
18.824335739722738 58.9696
18.846904057212626 58.7626
18.8694731124168 58.681000000000004
18.89204290628315 58.7089
18.914789774966803 58.4611
18.937361054791623 58.2943
18.959933076131318 57.9215
18.982505839934877 57.9382
19.00525570560582 58.0181
19.027829963004184 57.715
19.05040496572238 58.0889
19.072980714710468 58.2667
19.095733592739563 58.103
19.11831084296757 58.4548
19.140888842324735 59.0263
19.16346759176222 59.1652
19.18622349753803 59.9694
19.208803755869358 60.9023
19.231384767143577 62.1431
19.253966532312948 63.775
19.276725481241822 65.7053
19.29930876296784 67.9781
19.3218928014549 70.3767
19.34465404436217 72.9176
19.36723960516257 75.3285
19.389825925592426 76.5111
19.412413006605938 75.7108
19.43517731967805 72.8761
19.457765930683355 68.2955
19.48035530514408 63.5307
19.50294544401556 59.7659
19.525712842708348 57.1527
19.54830451925909 56.0027
19.570896963095727 55.0714
19.593490175174704 54.5782
19.616260674962184 54.8287
19.638855432416964 54.4256
19.661450960992624 54.5146
19.68404726164677 54.6119
19.706820878021247 54.3902
19.729418731756834 54.6169
19.752017360452857 54.1414
19.77461676506804 54.6077
19.797393513540218 54.6582
19.819994478951667 55.2112
19.84259622316767 55.5745
19.8651987471481 56.076
19.887978643247177 56.277
19.91058273574792 56.6926
19.933187610901943 57.805
19.955969879466828 58.8103
19.97857632894404 60.1471
20.00118356396599 61.8718
20.023791585494575 63.7662
20.046577028914875 65.9744
20.069186632506966 68.0617
20.091797025500632 69.7302
20.114408208858933 70.4732
20.137196842715273 70.5883
20.159809615886765 69.19800000000001
20.18242318232135 66.798
20.20503754298326 64.8141
20.227829382875154 63.4533
20.250445341109344 63.1235
20.27306209647285 63.537
20.29567964993108 64.4402
20.31847471147704 65.2462
20.34109387027612 65.9796
20.363713830075454 65.8669
20.386334591841646 64.6175
20.409132890679302 61.8436
20.431755265564437 58.7087
20.454378445325528 56.0652
20.477002430930366 54.1268
20.499803982716553 52.8941
20.522429589228004 52.04
20.54505600449589 51.4553
20.567683229489194 51.2987
20.590488049900088 51.2195
20.61311690359731 50.9143
20.63574656993626 50.7085
20.658553853717297 50.2562
20.681185154618298 50.5153
20.703817271080066 50.378
20.72645020407368 50.0569
20.749260783967177 49.813
20.771895359337133 49.7218
20.794530754161617 49.7246
20.817166969412938 49.7703
20.83998086114876 49.5524
20.86261872660049 49.5642
20.885257415405402 49.6194
20.90789692853701 49.5694
20.930714147864748 49.3966
20.953355319030678 49.5109
20.97599731745334 49.5784
20.99864014410749 49.2507
21.021460706796564 49.6188
21.044105199328826 49.6904
21.06675052302631 49.7463
21.089396678865015 50.0353
21.112220600704806 50.4969
21.134868430275347 50.6894
21.15751709492456 50.8342
21.180166595629693 50.9994
21.202993892429635 51.496
21.22564507473034 51.8872
21.24829709602816 52.129
21.27112693608965 52.295
21.293780644891275 52.2937
21.316435195634053 51.4045
21.339090589297417 50.7503
21.361923832041875 50.3017
21.384580921090404 49.8306
21.407238856007325 49.3172
21.429897637773326 49.176
21.45273429906592 49.1899
21.475394784108598 49.3904
21.498056118951983 49.2983
21.520718304578022 49.5117
21.543558400304388 49.6655
21.566222297108816 49.9318
21.58888704765135 50.0732
21.61155265291521 50.4739
21.63439619898156 50.8758
21.657063523335786 50.8768
21.67973170537063 51.3594
21.7024007460706 52.1581
21.72524775840385 53.071999999999996
21.747918526116475 54.141000000000005
21.770590155457388 55.3653
21.79326264741238 56.777
21.816113141960237 58.3904
21.838787368860547 60.0287
21.861462461341976 61.6325
21.884315579735777 63.3122
21.90699241312273 64.4654
21.92967011506078 65.5682
21.95234868653799 65.2667
21.9752053151131 63.9911
21.997885635446785 62.1717
22.020566828293532 60.0129
22.04324889464272 58.3102
22.066109049404666 56.8021
22.088792872571794 56.5578
22.111477572219204 56.6011
22.1341631493376 56.6944
22.157026846313123 56.5631
22.179714188221507 56.0348
22.202402410582668 54.9786
22.22509151438863 53.5081
22.24795876962584 52.062
22.270649646204486 51.1113
22.293341407213727 50.4968
22.316034053646906 49.9552
22.338904883215342 49.7812
22.36159931041458 49.8557
22.38429462602756 49.7373
22.40699083104897 49.449
22.429865251039757 49.5683
22.452563244831367 49.5013
22.47526213102522 49.4678
22.49813925616515 49.5116
22.520839937143307 49.3198
22.543541513520587 49.4785
22.56624398629403 49.3948
22.589124730075895 49.3586
22.611829005656723 49.6316
22.63453418063466 49.7108
22.657240256008077 49.7599
22.680124634582935 49.91
22.70283252079775 50.263999999999996
22.725541310413075 50.6646
22.74825100442868 50.7855
22.771139033969575 51.3001
22.79385054687155 51.5325
22.81656296718292 52.3748
22.83927629590484 53.1993
22.862167992606945 54.0117
22.88488314827121 54.8426
22.907599215359284 55.7267
22.93031619487366 56.8372
22.953211574954405 57.617
22.975930389478226 58.2857
22.998650119445763 58.7539
23.02137076586092 57.9143
23.044269845560063 56.528
23.06699233506288 54.9089
23.089715744034912 53.3259
23.112617610931565 51.7758
23.135342869061212 50.7135
23.158069049684816 49.9725
23.1807961538087 49.626000000000005
23.20370174880544 49.6929
23.226430710184808 49.7975
23.249160598093425 49.9833
23.271891413539002 49.7686
23.294800752937697 49.6023
23.31753343374794 49.9907
23.340267045128353 50.1426
23.36300158808808 50.613
23.38591468821339 50.8895
23.408651104658304 51.3912
23.431388455719986 51.9609
23.454126742409 52.6787
23.4770436196085 53.5752
23.499783787914662 54.6279
23.522524894889884 55.4099
23.54526694154616 56.2286
23.56818761219047 57.4626
23.59093154860734 58.0202
23.613676427751283 58.3178
23.636422250635754 57.663000000000004
23.659346731118656 56.0455
23.68209445191868 54.2906
23.704843119509587 52.4002
23.72759273490623 50.3348
23.750521041644767 48.8652
23.77327256312355 47.781000000000006
23.796025035462787 47.2574
23.818956224555475 46.7015
23.841710609113413 46.6278
23.86446594758979 46.4758
23.887222241002014 46.338
23.910157285144578 46.011
23.932915498962537 45.9402
23.955674670778713 45.6847
23.978434801611975 45.5385
24.001373717286125 45.4423
24.024135776723917 45.2748
24.046898798245582 45.2941
24.06966278287146 45.0287
24.092605586582614 44.9051
24.115371508023642 44.7284
24.1381383956401 44.7624
24.16090625045381 44.7315
24.183852958731244 44.7582
24.206622758582608 44.5392
24.229393528706886 44.2247
24.252165270127392 44.1386
24.27511589952438 44.1706
24.297889594216997 43.9969
24.32066426328598 43.8762
24.34343990775613 43.9645
24.36639447485003 43.781000000000006
24.38917208083877 43.8064
24.41195066531332 43.7237
24.43490819850244 43.8312
24.457688750692377 43.7062
24.48047028445616 43.498000000000005
24.503252800821233 43.6823
24.526214300784112 43.8016
24.548998793132213 43.7679
24.57178427117417 43.6057
24.59457073593893 43.7212
24.617536219319863 43.6129
24.64032466834748 43.6454
24.663114107195035 43.4817
24.685904536893013 43.17
24.708874020360852 43.0275
24.731666442613744 43.0961
24.754459858818787 43.0048
24.777254270007962 42.9541
24.80022777025625 42.9134
24.82302418230472 42.8734
24.845821592443674 42.861999999999995
24.86862000170663 42.9051
24.891597535453727 42.851000000000006
24.914397953892728 43.1405
24.93719937456671 43.0123
24.96000179851076 43.1473
24.98298338249997 43.3382
25.00578782394922 43.5003
25.028593271784167 43.5638
25.05157790644186 43.8175
25.07438537804115 44.001000000000005
25.097193859145293 44.2129
25.120003350792075 44.4733
25.142992065061257 44.788000000000004
25.165803588823465 45.0658
25.18861612625217 45.2423
25.211429678386736 45.3245
25.234422489079968 45.4209
25.257238081693636 45.3603
25.280054692141732 45.2906
25.3028723214652 45.3877
25.325869245420463 45.2926
25.348688923599397 45.4575
25.371509623787006 45.6257
25.394331347025812 45.2302
25.41733240110666 44.7132
25.440156181590016 43.9915
25.46298098826268 43.5767
25.48580682216873 42.9926
25.50881202326435 42.3704
25.53163992281684 42.0111
25.55446885274561 41.8324
25.577298814096377 41.6096
25.600308179121807 41.5924
25.623140214533745 41.4699
25.64597328451537 41.4533
25.66898578564376 41.1167
25.691820936010206 41.2865
25.714657124097695 41.2078
25.737494350954734 41.3161
25.760511045684957 41.102
25.783350361364224 41.099
25.806190718969255 40.9702
25.82903211955018 41.2334
25.852053024868923 41.1911
25.874896522722523 41.1707
25.897741066713106 41.3078
25.920586657892454 41.4783
25.943611790812668 41.6292
25.966459487728237 41.6909
25.989308234998564 41.631
26.01215803367705 41.9425
26.03518741123814 42.0825
26.05803932412957 42.239
26.080892291600094 42.1824
26.10374631470478 42.1534
26.12677995397268 42.3854
26.14963609978026 42.269
26.172493304397875 41.9328
26.19535156888223 41.8958
26.218389486949604 41.3802
26.241249882640123 41.2008
26.26411134137826 41.0556
26.28715248187403 40.9812
26.31001607820869 40.8286
26.3328807407756 40.5807
26.35574647063438 40.8567
26.37879191991473 40.8347
26.401659795896734 40.9286
26.424528742360263 40.9767
26.447398760366614 41.2037
26.470448535598294 41.3221
26.49332070826805 41.3734
26.516193955675355 41.7989
26.53906827888316 41.7258
26.562122397260108 41.8552
26.584998883685063 42.1909
26.607876449110325 42.416000000000004
26.63075509460056 42.7238
26.65381357334404 42.8124
26.67669439061878 42.8443
26.699576291163382 42.7031
26.722459276044212 42.5831
26.745522132402975 42.2473
26.768407297649354 42.0487
26.791293550442003 41.6327
26.814180891848974 41.3504
26.837248143099337 41.137
26.860137673466657 40.968999999999994
26.88302829566349 40.7125
26.90592001075963 40.5406
26.92899167420566 40.4254
26.951885586870763 40.1906
26.974780595655517 39.8686
26.99785558178161 39.7912
27.020752794605112 39.6444
27.043651106772522 39.6061
27.06655051935668 39.4956
27.089629948036183 39.5197
27.112531573292053 39.4527
27.135434302194138 39.4161
27.158338135817015 39.3684
27.181422024430987 39.1734
27.204328079372566 39.0721
27.22723524226965 39.1281
27.250143514198573 39.2873
27.273231880156334 39.3943
27.296142382065014 39.1307
27.319053996245536 38.8992
27.341966723775965 39.0121
27.365059584515222 39.0174
27.38797455070062 39.0543
27.410890633481237 38.9979
27.433807833936918 39.0566
27.456905206923906 39.1732
27.47982465472398 39.1565
27.502745223449743 39.1068
27.525666914182825 39.2629
27.548768816912457 39.2927
27.571692763693633 39.1801
27.59461783573812 38.989000000000004
27.617723149491244 38.8255
27.640650484125285 38.775
27.66357894728264 38.7201
27.686508540048052 38.6542
27.709618414237887 38.5814
27.732550278321757 38.4985
27.755483275279115 38.4357
27.778417406196485 38.4234
27.801531858397514 38.5832
27.824468269376716 38.4776
27.847405817586786 38.3939
27.870344504116094 38.6134
27.893463551932008 38.7911
27.916404527281053 38.9026
27.93934664422563 38.9216
27.962289903855886 38.9263
27.98541356491974 39.1701
28.00835912214229 39.265
28.03130582533231 39.5903
28.054253675581805 39.7387
28.077381967556104 39.6474
28.100332124185126 39.5212
28.123283431160893 39.4645
28.146235889577238 39.4228
28.169368830154156 39.2263
28.192323603752033 38.9977
28.215279532083304 38.6776
28.238415973016764 38.4444
28.261374223145094 38.4034
28.284333631303806 38.2747
28.307294198589954 37.9684
28.330435319167677 37.7581
28.353398217078915 37.5158
28.376362277420153 37.2224
28.39932750129032 37.1599
28.422473319286713 36.9478
28.44544088262495 36.8427
28.468409612800283 36.7754
28.491379510913497 36.5528
28.51453004413313 36.4726
28.53750229057244 36.4631
28.56047570826344 36.3705
28.583450298308804 36.3231
28.606605564586562 36.1383
28.629582511831156 36.2727
28.65256063474956 36.1663
28.675539934446338 36.1909
28.698699951647605 36.1241
28.72168161743193 36.0941
28.74466446331978 36.0797
28.767648490417624 35.9399
28.790813276438353 35.9926
28.813799678527303 35.9798
28.836787265157085 36.0204
28.859955641890075 36.0529
28.882945610203045 36.0861
28.905936766392035 35.8127
28.928929111566863 35.884
28.952102288520145 35.8036
28.975097024308607 35.7396
28.998092952423807 35.5089
29.021090073977508 35.6244
29.04426806913204 35.3883
29.067267590245258 35.2281
29.090268308143695 35.0775
29.11327022394099 35.1051
29.13645305530891 34.9477
29.159457379627167 34.9163
29.18246290519685 34.9179
29.20546963313352 34.9403
29.22865731875826 34.9666
29.25166646419296 34.7516
29.27467681535305 34.6962
29.29768837335608 34.6353
29.320880931312562 34.6947
29.34389491580634 34.7065
29.366910110507334 34.6862
29.38992651653503 34.8209
29.41312396492981 34.7491
29.436142806456754 34.6571
29.45916286268059 34.5748
29.48236399319994 34.4565
29.50538649169417 34.257
29.528410208259935 34.2773
29.55143514402014 34.0528
29.574641196749695 33.9583
29.597668583816574 33.8292
29.6206971934585 33.7137
29.64372702680042 33.6781
29.666938019934474 33.4529
29.689970313635285 33.4296
29.713003834422636 33.4745
29.73603858342347 33.4466
29.759254535188578 33.283
29.78229175361658 33.2384
29.80533020365064 33.2724
29.82836988641968 33.491
29.85159081507472 33.3164
29.874632976355343 33.2799
29.89767637376955 33.3318
29.920721008448314 33.0634
29.9439469322847 33.1002
29.96699405457564 33.0655
29.9900424175358 33.1345
30.013092022298157 33.14
30.03632295963995 33.0437
30.059375061131373 33.0421
30.08242840783577 32.9224
30.105483000888153 32.9186
30.128718970092244 32.9381
30.151776069006917 32.8358
30.17483441768648 32.8169
30.198074175317235 32.8938
30.221135036724256 32.9707
30.24419715131772 32.8445
30.267260520236203 32.7867
30.290505341942243 32.8163
30.313571232750228 32.836999999999996
30.336638381310948 32.8104
30.35970678876503 32.7198
30.38295669299435 32.6274
30.40602763151657 32.7022
30.429099832366074 32.6948
30.452173296685572 32.5606
30.47542830191959 32.5907
30.498504306502497 32.6151
30.521581577995562 32.7702
30.544660117543582 32.8222
30.56792024229725 32.8526
30.59100133132069 32.7263
30.614083691845494 32.7224
30.637167325018545 32.6957
30.660432587840603 32.7082
30.683518779717886 32.6367
30.70660624769615 32.6295
30.729694992924372 32.7351
30.75296541239743 32.7167
30.77605672557558 32.6077
30.799149319462742 32.5454
30.8224236211637 32.485
30.845518789950724 32.4156
30.868615242910597 32.3428
30.891712981195973 32.1875
30.91499247215866 32.214
30.938092794619365 32.0883
30.96119440587579 31.9273
30.984297307082752 31.8162
31.00758200598383 31.7445
31.030687500658694 31.7377
31.053794288760695 31.6066
31.076902371446767 31.5734
31.100192296997445 31.6735
31.12330298246119 31.4889
31.14641496599209 31.4807
31.169528248749216 31.4474
31.19282341969534 31.381999999999998
31.215939314557186 31.4218
31.239056512134788 31.4116
31.262175013589378 31.3817
31.28547544871168 31.338
31.30859657161541 31.3711
31.331719001892175 31.3266
31.35484274070538 31.4316
31.378148458819545 31.3813
31.401274828443725 31.3566
31.424402510106933 31.3642
31.447712205419993 31.444000000000003
31.470842524931633 31.2515
31.493974159989783 31.2453
31.51710711176168 31.3075
31.54042212308802 31.2706
31.563557722100917 31.2458
31.586694641341655 31.0921
31.609832881979628 30.9022
31.63315322823208 30.8795
31.656294125521327 30.7674
31.679436347728515 30.8
31.70257989602529 30.8082
31.725905596152327 30.5781
31.74905181052835 30.5871
31.772199354521323 30.7387
31.79534822930507 30.6303
31.818679302290967 30.6064
31.84183085259981 30.6471
31.864983737233473 30.5585
31.88813795736804 30.5059
31.911474422233013 30.4572
31.934631327356435 30.5301
31.9577895715215 30.5004
31.980949155906522 30.5042
32.004291031706956 30.4341
32.027453310562606 30.3401
32.05061693318573 30.2551
32.07396288236386 30.2403
32.09712920658542 30.1835
32.12029687812702 30.0756
32.14346589817093 29.9873
32.166817291729984 29.9387
32.18998902288583 29.8993
32.21316210610336 29.8073
32.23633654256711 29.6723
32.259693399663725 29.6539
32.282870556771144 29.5908
32.30604907069099 29.6157
32.329228942610065 29.6463
32.35259128243769 29.5532
32.375773884550505 29.4156
32.398957848235646 29.4332
32.422143174682176 29.3846
32.445511016471215 29.2166
32.468699082679954 29.206
32.49188851523011 29.2256
32.51507931531304 28.9942
32.538452678331 29.0854
32.56164622776311 28.8844
32.58484114831493 28.8658
32.60803744118015 28.9369
32.631416344731896 28.9368
32.654615396551876 28.8478
32.67781582427913 28.8326
32.701198898634416 28.8722
32.72440209253756 28.7138
32.747606665947124 28.6857
32.77081262006088 28.5925
32.79420126883317 28.5698
32.81740999876112 28.561999999999998
32.840620112999424 28.5115
32.86383161274818 28.4849
32.88722585534586 28.4728
32.91044014056596 28.4826
32.933655814909734 28.4138
32.95687287957963 28.5065
32.98027273544904 28.3557
33.00349259526636 28.3032
33.026713849030116 28.4035
33.04993649794511 28.2832
33.073341986570746 28.3077
33.09656744032826 28.1072
33.11979429286444 28.1169
33.14302254538647 28.2388
33.166433686291185 28.1246
33.18966475336992 28.1388
33.212897224069096 28.035999999999998
33.23613109959831 28.0368
33.259547912343415 27.9447
33.2827846121627 28.0578
33.306022720453775 27.8684
33.32926223842861 27.7883
33.352684742614166 27.8803
33.37592709463173 27.8408
33.399170859982064 27.7287
33.422597648419426 27.6234
33.44584425514446 27.4665
33.46909227885668 27.4756
33.4923417207723 27.4197
33.51577423505344 27.3459
33.539026528130385 27.2881
33.56228024307245 27.2298
33.585535381098246 27.1811
33.60897364093058 27.1902
33.63223163992385 27.0793
33.6554910656699 27.0674
33.678751919389796 27.0278
33.702195944520106 26.9716
33.72545966903325 27.1205
33.74872482519663 26.8886
33.771991414233746 26.9425
33.79544122444841 27.0082
33.81871069412428 26.8442
33.84198160035767 26.7898
33.86525394437455 26.814
33.88870955949969 26.7973
33.911984794020626 26.6733
33.93526147001624 26.6157
33.958539588715006 26.6929
33.98200102861669 26.6238
34.0052820477047 26.5088
34.02856451319451 26.5178
34.05203033759056 26.4619
34.07531571090147 26.4175
34.09860253431845 26.3142
34.121890809074316 26.2898
34.145362493118924 26.2464
34.16865368561615 26.1954
34.191946333164054 26.0522
34.21524043699793 26.1653
34.23871800066799 26.1216
34.26201503218366 25.9989
34.28531352370466 26.0381
34.30861347646881 25.9647
34.33209693978188 25.8395
34.3553998301885 25.891
34.378704185565205 25.7954
34.402010007152356 25.7127
34.42549939016683 25.7737
34.44880815937748 25.6992
34.472118398533134 25.601999999999997
34.49543010887669 25.6459
34.51892543169198 25.4515
34.54224009966052 25.592
34.56555624255917 25.5615
34.58887386163339 25.4298
34.61237514439016 25.455
34.6356957311114 25.3177
34.65901779775809 25.2855
34.68252356662995 25.3381
34.705848608458616 25.2538
34.72917513396849 25.1508
34.75250314440949 25.1131
34.77601490857862 25.1025
34.799345904259795 25.0359
34.82267838863559 25.0736
34.846012362958525 25.046999999999997
34.869530142679984 25.0619
34.89286711232212 24.9818
34.91620557568269 24.9273
34.93954553401677 24.9229
34.9630693495876 24.8374
34.986412313340814 24.8596
35.00975677584668 24.8306
35.033102738362956 24.8764
35.05663261012228 24.764
35.0799815881786 24.7295
35.10333207003229 24.6473
35.12668405694369 24.7006
35.150220005273056 24.6464
35.17357501786656 24.6305
35.19693153931268 24.6047
35.220289570874385 24.4936
35.24383161619786 24.4843
35.267192683604904 24.4742
35.290555264930376 24.4035
35.314101899412165 24.4546
35.33746752422433 24.4864
35.36083466676374 24.366
35.38420332829803 24.3364
35.407756095629054 24.4079
35.43112781085063 24.3704
35.45450104888391 24.3076
35.477875810999194 24.2364
35.50143473172161 24.221999999999998
35.52481255774625 24.2513
35.54819191167777 24.1678
35.57157279478914 24.1164
35.595137889488406 24.0745
35.61852184675279 23.9955
35.641907337029984 23.9856
35.665294361595684 23.916999999999998
35.68886565090076 23.8852
35.7122557598848 23.8618
35.73564740699838 23.9166
35.759040593519934 23.7426
35.78261809810353 23.718000000000004
35.80601437933051 23.7111
35.829412203814705 23.6727
35.85281157283719 23.5696
35.876395313415884 23.6841
35.8997977874528 23.5371
35.92320180988546 23.5859
35.946790244133936 23.4953
35.97019737933222 23.433000000000003
35.993606066789866 23.385
36.01701630779276 23.3685
36.04061101440684 23.3691
36.06402437852291 23.3774
36.08743930005611 23.355
36.1108557802951 23.3188
36.13445678011326 23.2108
36.15787639383515 23.2793
36.18129757014299 23.1635
36.20472031032821 23.125
36.22832762423364 22.9989
36.25175350829375 22.9959
36.275180960119776 22.9698
36.298609981005924 23.014
36.32222362992669 22.989
36.34565580510207 22.9142
36.36908955323448 22.9232
36.39252487562093 22.7951
36.416144880530226 22.775
36.43958336764275 22.7336
36.463023432914625 22.7937
36.486465077645676 22.6804
36.51009145956204 22.8444
36.53353627947859 22.7908
36.55698268276811 22.748
36.58043067073321 22.5998
36.60406345072071 22.4754
36.62751462435344 22.529
36.65096738658405 22.4921
36.67460498210655 22.4793
36.69806093788647 22.4096
36.72151848619297 22.316999999999997
36.744977628333636 22.4084
36.76862165890998 22.2847
36.79208400512205 22.2234
36.81554794910557 22.2529
36.83901349217101 22.1732
36.862663978991606 22.1056
36.88613273667352 22.09
36.90960309738324 22.0821
36.933075062434064 22.0445
36.95673202673572 22.03
36.98020721697122 22.0393
37.003684015502365 21.9505
37.027162423645365 21.8463
37.050825886711465 21.84
37.07430753063053 21.794
37.09779078812467 21.7748
37.121275660513014 21.7896
37.144945643673694 21.7457
37.16843376245278 21.7222
37.19192350009803 21.7429
37.215414857931435 21.6387
37.239091382563885 21.6221
37.262585997426164 21.5707
37.28608223645736 21.5558
37.309763684451696 21.5276
37.33326318851098 21.5388
37.356764320726555 21.4949
37.380267082425526 21.4415
37.40395510942588 21.3921
37.42746114683234 21.3522
37.45096881771841 21.2871
37.474478123414166 21.2683
37.49817275092816 21.2113
37.52168534303452 21.2147
37.54519957395567 21.1563
37.568715445024665 21.1692
37.592416694607714 21.116999999999997
37.61593586281424 21.1328
37.63945667518264 21.1447
37.66297913304891 21.0289
37.68668702630454 20.9851
37.710212792059274 20.9243
37.733740207334854 20.9043
37.757269273470364 20.9433
37.780983832050374 20.8844
37.80451621684926 20.8544
37.82805025654007 20.8086
37.851585952464795 20.73
37.8753071980695 20.6449
37.89884622345676 20.6397
37.92238690911902 20.7085
37.94611318753442 20.5712
37.969657210779765 20.6119
37.99320289834801 20.5539
38.016750251586465 20.517
38.04048325513017 20.5286
38.06403395679343 20.4352
38.087586328183946 20.3615
38.11114037065203 20.381
38.13488012115898 20.3887
38.1584375229181 20.2751
38.181996599821 20.2005
38.205557353221124 20.2099
38.229303872575656 20.227
38.2528679961576 20.1933
38.27643380031219 20.0983
38.30000128639589 20.0917
38.32375459653193 20.1308
38.34732546371299 20.1105
38.37089801690786 20.0165
38.39447225747609 19.9577
38.418232380377425 19.9494
38.441810012983396 19.9573
38.46538933705673 19.9274
38.488970353960084 19.9208
38.51273731166058 19.9004
38.536321731567014 19.7918
38.55990784840681 19.7852
38.58367995004091 19.6299
38.60726947812959 19.6301
38.63086070726198 19.674
38.654453638806274 19.6629
38.678232613930824 19.6859
38.70182896773327 19.6321
38.72542702806741 19.5629
38.7490267963045 19.5123
38.77281266709232 19.463
38.79641586862214 19.5194
38.8200207821842 19.4737
38.843627409152944 19.4634
38.86742019782782 19.4187
38.891030269149255 19.3323
38.914642058016156 19.2819
38.938255565806124 19.2825
38.96205529464307 19.2413
38.98567225787121 19.213
39.00929094417078 19.1986
39.03291135492255 19.215
39.05671804624804 19.1846
39.080341923549106 19.1606
39.103967529460334 19.1359
39.127594865365744 19.0629
39.15140854155791 18.9712
39.17503935514948 18.9527
39.19867190290282 18.8905
39.22249083587951 18.8899
39.24612686969409 18.9164
39.269764641845306 18.8499
39.293404153722804 18.8508
39.317230110864074 18.7485
39.34087311998506 18.7164
39.36451787301696 18.7714
39.388164371352595 18.7156
39.41199737518003 18.6343
39.43564738196752 18.6409
39.45929913825317 18.5805
39.48295264543308 18.5884
39.506792718520884 18.5378
39.530449745387216 18.5052
39.55410852735203 18.4676
39.57776906581474 18.4815
39.60161623079 18.402
39.625280300200025 18.3958
39.64894613032202 18.3575
39.67261372255866 18.3389
39.6964680021016 18.3705
39.72013913657293 18.3587
39.74381203738292 18.3333
39.76748670593756 18.3116
39.79134812278169 18.2262
39.81502634488497 18.2211
39.83870633896685 18.0864
39.862388106436654 18.0821
39.88625668336918 18.0983
39.90994201572829 18.070999999999998
39.933629125719285 18.0995
39.957503091207826 18.0411
39.9811937746168 18.0011
40.00488623990914 17.9653
40.02858048850006 17.9151
40.05246165409549 17.8658
40.076159487492085 17.8197
40.099859108448875 17.9035
40.123560518384345 17.7819
40.1474489070226 17.8047
40.171153913178564 17.7596
40.194860712584955 17.7425
40.2185693066637 17.7075
40.242464941335314 17.6719
40.26617714307655 17.6563
40.289891143772046 17.6287
40.3136069448471 17.5733
40.33750984859743 17.5651
40.3612292688043 17.5115
40.3849504936829 17.5142
40.40867352466194 17.4768
40.43258372059144 17.4041
40.45631038219906 17.4489
40.48003885420956 17.3466
40.503769138055105 17.3617
40.52768664931955 17.3535
40.55142057531802 17.3129
40.57515631746428 17.2938
40.599079334038514 17.2833
40.62281872700477 17.1376
40.64655994043941 17.1434
40.67030297578061 17.1817
40.69423334835778 17.1478
40.71798004609188 17.094
40.74172857006355 17.096
40.76547892171441 17.0931
40.7894166736039 17.0609
40.813170699248566 16.9599
40.83692655691388 16.9869
40.86068424804498 16.9548
40.884629402612525 16.9562
40.908390779366385 16.9271
40.932153993938 16.8845
40.95591904777605 16.8189
40.979871628443995 16.8543
41.003640379561936 16.7851
41.02741097430883 16.7916
41.05118341413683 16.7259
41.075143444384416 16.7103
41.098919593177826 16.7122
41.1226975914255 16.6258
41.14647744058318 16.6336
41.170444943946755 16.6418
41.19422851378379 16.5998
41.218013938914645 16.5352
41.24198706625173 16.5108
41.26577622087193 16.4368
41.289567235177785 16.4145
41.31336011063129 16.4426
41.337340752422875 16.4069
41.361137369129835 16.3842
41.38493585138705 16.3109
41.40873620066004 16.3059
41.43272438060107 16.3224
41.45652848292052 16.2355
41.48033445666918 16.2209
41.50414230331616 16.1792
41.528138045159764 16.1628
41.551949656675205 16.1451
41.575763145513235 16.0822
41.59957851314666 16.1062
41.62358184070442 16.0527
41.64740098505737 16.0465
41.6712220126409 15.9834
41.69504492493139 15.9414
41.71905586207357 15.9711
41.74288256296395 15.9395
41.766711153007456 15.8609
41.79054163368412 15.9018
41.814560204340054 15.8376
41.838394485526365 15.8269
41.86223066180303 15.7816
41.88625497706819 15.7767
41.910094962812 15.7693
41.93393684811168 15.7012
41.95778063445365 15.658
41.981812625263366 15.6781
42.00566023303407 15.6485
42.029509746323676 15.6278
42.05336116662236 15.6089
42.077400857069705 15.6045
42.10125611078846 15.568
42.12511327600405 15.4988
42.14897235421036 15.4453
42.173019768448455 15.4869
42.19688269209613 15.4605
42.22074753323349 15.4282
42.24461429335818 15.3915
42.268669455600495 15.4023
42.292540073217886 15.3406
42.31641261433284 15.3695
42.34028708044675 15.2577
42.36435001496739 15.2156
42.38822835065557 15.2616
42.41210861586426 15.2003
42.4359908120986 15.1933
42.46006154323262 15.100999999999999
42.48394762115317 15.0907
42.507835634632315 15.1011
42.531912233047436 15.0862
42.55580413732265 15.0785
42.579697981698 15.0181
42.60359376768525 15.0037
42.62767820545945 15.0061
42.65157789440821 14.8992
42.67547952952185 14.9368
42.699383112316 14.9546
42.72347541395347 14.8699
42.74738291190531 14.8199
42.771292362102166 14.8484
42.795203766063516 14.8041
42.819303956130405 14.7744
42.843219287476536 14.7333
42.86713657716324 14.7416
42.89105582671383 14.7171
42.91516392983864 14.6883
42.939087119032166 14.5723
42.963012272677304 14.6045
42.98693939230129 14.6025
43.01105543317513 14.5623
43.034986504731386 14.5504
43.05891954686589 14.5018
43.08285456110972 14.5063
43.10697856448665 14.4522
43.130917542983475 14.4091
43.15485849820081 14.4174
43.17880143167367 14.3556
43.20293342237094 14.387
43.226880332449 14.3166
43.25082922540554 14.3234
43.27496722682525 14.2878
43.29892010567796 14.2329
43.32287497204102 14.2393
43.34683182745632 14.2034
43.370977859791836 14.2075
43.39493871351105 14.1863
43.41890156092628 14.1736
43.44286640358341 14.1422
43.46702049182749 14.1083
43.49098934522816 14.0816
43.51496019852649 14.0271
43.5389330532723 13.9939
43.56309522248204 13.9933
43.58707210044314 13.9759
43.61105098451946 13.915
43.63503187626491 13.9428
43.659202151562134 13.9057
43.68318707902681 13.880999999999998
43.70717401884041 13.838
43.731162972560874 13.7677
43.75534137913236 13.7999
43.779334381108384 13.7623
43.803329401683186 13.7775
43.82732644241872 13.7811
43.8515130055166 13.7803
43.87551410707659 13.7249
43.89951723350145 13.7419
43.923709934595614 13.6714
43.94771713129917 13.6479
43.97172635758096 13.5594
43.99573761501002 13.5587
44.0199385169922 13.5622
44.04395385732619 13.5032
44.067971233533086 13.505
44.09199064718605 13.4916
44.11619977548961 13.4556
44.14022328470671 13.4421
44.16424883610785 13.3972
44.18827643127035 13.4258
44.21249381139513 13.3431
44.236525514814076 13.3294
44.26055926674478 13.3505
44.28459506876863 13.3447
44.3088207262813 13.2277
44.33286064928722 13.2096
44.35690262714919 13.2092
44.38094666145278 13.1619
44.4051806219871 13.1896
44.42922879003185 13.119000000000002
44.45327901929361 13.1351
44.477331311362136 13.1114
44.501573600619416 13.0273
44.525630039221795 13.0666
44.54968854541895 13.0626
44.573937102200176 13.0236
44.5979997645541 12.9957
44.622064499300315 13.0025
44.64613130803592 12.9454
44.67038823869318 12.9406
44.69445921643748 12.8936
44.718532272981385 12.8891
44.742607409926194 12.8395
44.76687274034801 12.8534
44.79095205918753 12.8124
44.81503346325094 12.8009
44.839116954143876 12.7882
44.86339071028742 12.7686
44.88747839599524 12.689
44.91156817336837 12.6756
44.93566004401666 12.6994
44.959942251908146 12.649000000000001
44.984038330325966 12.6217
45.00813650686762 12.5805
45.03223678314731 12.5815
45.05652746888232 12.5837
45.08063196592069 12.5137
45.104738567558705 12.5191
45.128847275414856 12.4806
45.15314646515866 12.4518
45.17725940679741 12.4459
45.20137445952892 12.4223
45.22568004865265 12.3998
45.24979934496396 12.3537
45.27392075725247 12.3624
45.29804428714431 12.3273
45.322358426247604 12.3402
45.346486212804315 12.3187
45.370616121861914 12.3009
45.39474815505086 12.2618
45.41907087049246 12.2112
45.4432071734666 12.2076
45.46734560548283 12.2293
45.49148616817604 12.2248
45.51581748638564 12.1806
45.5399623320197 12.1026
45.56410931325473 12.1141
45.58825843173002 12.0813
45.61259837920865 12.044
45.636751793816 12.0514
45.66090735060093 12.003
45.68506505120716 11.9487
45.7094136545275 11.9777
45.73357566449271 11.9404
45.75773982322992 11.9284
45.78190613238733 11.92
45.806263418194064 11.8688
45.83043404997326 11.8869
45.85460683713677 11.8638
45.87897065658495 11.8389
45.90314777634752 11.784
45.92732705646868 11.763
45.9515084986045 11.7989
45.97588104735473 11.7452
46.00006683541565 11.7104
46.02425479047904 11.6788
46.04844491420549 11.6862
46.0728262191024 11.686
46.09702070211635 11.6429
46.12121735879483 11.6152
46.14541619080294 11.6191
46.169806278764455 11.6133
46.194009483459034 11.625
46.21821486849841 11.5598
46.24242243555223 11.460999999999999
46.266821333570014 11.5068
46.29103328674601 11.475999999999999
46.31524742696538 11.4806
46.33946375590237 11.4223
46.36387149104216 11.4566
46.38809221957392 11.3683
46.41231514186606 11.3294
46.436540259597464 11.3705
46.460956858999374 11.3325
46.48518638983522 11.3194
46.509418121166966 11.2891
46.533652054678114 11.2756
46.55807754555709 11.2978
46.58231590571962 11.2314
46.60655647313217 11.2045
46.630988654873654 11.2004
46.655233659129024 11.1432
46.67948087571551 11.1861
46.70373030632484 11.1133
46.72817142736393 11.1093
46.752425308428684 11.0709
46.77668140861147 11.0397
46.80093972960865 11.052
46.82538981736788 10.9962
46.849652602470904 10.9704
46.87391761349769 10.977
46.8981848521493 10.9699
46.9226439341274 10.9397
46.946915650573224 10.9223
46.97118959976749 10.8866
46.99546578341598 10.8834
47.019933887188216 10.8227
47.04421456235744 10.8336
47.06849747711879 10.7721
47.09278263318286 10.8047
47.11725978640143 10.7935
47.14154944775105 10.7507
47.165841355555656 10.7115
47.1901355115306 10.6989
47.214621741924994 10.6835
47.23892041698887 10.6696
47.26322134538975 10.6209
47.28771440635075 10.629000000000001
47.31201986422527 10.6287
47.33632758061436 10.6081
47.360637557241866 10.5593
47.38513974410611 10.5673
47.40945426407847 10.5146
47.43377104948137 10.5282
47.45809010204344 10.4723
47.48260144275502 10.4567
47.506925052572285 10.4272
47.53125093475548 10.4102
47.55557909103813 10.4119
47.58009961361992 10.3701
47.60443234110732 10.3654
47.62876734791564 10.3652
47.65310463578333 10.3568
47.6776343683373 10.3453
47.7019762413987 10.2408
47.72632040075572 10.2398
47.75066684815169 10.2965
47.77520581885936 10.2431
47.799556865477655 10.2082
47.823910205386 10.2194
47.84826584033272 10.1537
47.87281407745551 10.1332
47.89717432569297 10.1562
47.92153687423484 10.1633
47.94609208429692 10.1209
47.97045925671401 10.0774
47.99482873471275 10.078
48.01920052005013 10.0552
48.04376504619224 10.0209
48.068141469543484 10.0586
48.09252020552573 10.0229
48.11690125590099 9.9498
48.1414751266064 9.9624
48.16586082917454 9.97085
48.19024885144316 9.91792
48.2146391951793 9.91555
48.239222439012764 9.93685
48.26361744916137 9.89896
48.28801478610016 9.866530000000001
48.31241445160131 9.88108
48.337007097209366 9.81436
48.36141144338331 9.79707
48.38581812345755 9.76954
48.41022713920929 9.772269999999999
48.434829215320704 9.77208
48.45924292604658 9.76167
48.48365897780325 9.75468
48.50807737237308 9.72943
48.532688907799276 9.7049
48.55711201168574 9.64354
48.581537463754074 9.66207
48.60615611725119 9.63906
48.63058628942721 9.65514
48.65501881516546 9.63593
48.6794536962573 9.63952
48.70408185970339 9.56967
48.72852147531801 9.55232
48.75296345168211 9.54628
48.77740779059232 9.52876
48.80204549302823 9.52946
48.82649458091802 9.51262
48.85094603676547 9.48157
48.87539986237231 9.42884
48.90004713292306 9.45354
48.92450572200832 9.427019999999999
48.94896668628025 9.38988
48.97343002754588 9.37775
48.99808689542115 9.37369
49.02255501470614 9.362639999999999
49.04702551642794 9.32975
49.0714984023988 9.2898
49.096164896893235 9.277999999999999
49.120642575466796 9.28875
49.145122643748394 9.250680000000001
49.16960510355558 9.249130000000001
49.19428125404938 9.21138
49.2187685210852 9.216380000000001
49.243258185121555 9.173580000000001
49.26794160167084 9.165
49.2924360839405 9.15174
49.31693296869764 9.14344
49.34143225776915 9.11855
49.36612538195438 9.05804
49.39062950396021 9.0802
49.41513603578346 9.07183
49.4396449792564 9.0067
49.46434784069503 9.02652
49.488861631846454 9.0112
49.513377840166804 9.02229
49.537896467493745 8.98371
49.56260909589029 8.95393
49.587132585683285 8.95474
49.611658500018365 8.94972
49.636186840738596 8.864339999999999
49.66090926588511 8.872010000000001
49.685442483902584 8.85902
49.70997813385706 8.84553
49.734516217597076 8.84137
49.75924846937352 8.826880000000001
49.7837914452858 8.80306
49.80833686055187 8.761610000000001
49.83288471702571 8.76618
49.85762682540054 8.70242
49.882179588965734 8.71112
49.9067347993235 8.692110000000001
49.93129245833333 8.71101
49.95604445336378 8.67712
49.98060703442832 8.63771
50.005172069746266 8.6186
50.02993150438364 8.6325
50.05450147301533 8.61176
50.07907390151433 8.62632
50.10364879174981 8.56353
50.12841816587289 8.567680000000001
50.1529980044635 8.56475
50.17758031042124 8.55082
50.20216508562089 8.551730000000001
50.22694442953363 8.51
50.25153416817468 8.465539999999999
50.27612638170508 8.44074
50.300721072005196 8.40635
50.325510416102105 8.42484
50.350110084975064 8.39627
50.37471223628208 8.38775
50.39931687190919 8.38475
50.424116246675766 8.39321
50.44872587605249 8.31869
50.47333799543065 8.321019999999999
50.49795260670191 8.307269999999999
50.52276204271512 8.31638
50.54738166295838 8.275210000000001
50.57200378079314 8.29707
50.596628398116835 8.284239999999999
50.62144792604559 8.2325
50.646077567609396 8.21015
50.670709714377715 8.2396
50.69553683636198 8.18627
50.72017401885922 8.13619
50.7448137122895 8.153260000000001
50.76945591856022 8.131639999999999
50.79429318636823 8.13446
50.818940443716784 8.11407
50.84359021965163 8.10736
50.868242516085964 8.09108
50.893089960641895 8.08192
50.917747323549435 8.02775
50.94240721271973 8.04299
50.96706963007175 7.98398
50.99192728239342 8.00998
51.01659478166073 7.99562
51.04126481489051 7.97875
51.06593738400761 7.94827
51.090805275207074 7.945239999999999
51.11548294172845 7.939889999999999
51.14016314993547 7.9269
51.164845901758845 7.88042
51.18972406304274 7.8547899999999995
51.21441192780656 7.83985
51.23910234200271 7.867439999999999
51.2637953075678 7.846369999999999
51.288683770237945 7.801830000000001
51.31338186432707 7.7884899999999995
51.33808251561888 7.75815
51.362978729967345 7.743410000000001
51.387684521509755 7.760560000000001
51.41239287610203 7.76081
51.437103795691165 7.701510000000001
51.46201036644977 7.69062
51.486726441956634 7.667269999999999
51.51144508832545 7.68772
51.536166307509156 7.65049
51.56108326624387 7.59945
51.58580965706056 7.57406
51.61053862657523 7.61325
51.635270176746864 7.57835
51.66019755512065 7.595210000000001
51.68493429268881 7.54208
51.70967361681515 7.5318
51.73441552946465 7.500319999999999
51.759353359237934 7.50829
51.7841004750961 7.458410000000001
51.80885018539685 7.4873899999999995
51.833602492111254 7.46479
51.8585508051424 7.458480000000001
51.883308330926425 7.4179
51.90806845906181 7.4149899999999995
51.932831191525715 7.39542
51.95779001977161 7.393619999999999
51.98255798721516 7.37688
52.00732856494335 7.33235
52.03229530577543 7.33615
52.057071130455945 7.327839999999999
52.081849571391054 7.31385
52.106630630568695 7.320530000000001
52.13160794279417 7.27548
52.15639426492067 7.2736600000000005
52.18118321127822 7.26651
52.205974783860896 7.2372
52.23096269971011 7.18823
52.255759551287994 7.1974
52.280559035098186 7.17869
52.30536115314103 7.151510000000001
52.33035970494467 7.15694
52.35516711807904 7.140160000000001
52.37997717147198 7.10705
52.40478986713005 7.128989999999999
52.42979908731974 7.07234
52.454617094216 7.061
52.47943774942214 7.06266
52.50426105495102 7.0445199999999994
52.529280976059844 7.038469999999999
52.554109609024096 7.04628
52.57894089837482 7.01348
52.60377484613117 6.995260000000001
52.62880550079408 6.9863800000000005
52.65364479223379 6.94004
52.67848674816189 6.93503
52.70352547971946 6.9129
52.72837279155837 6.94848
52.753222773982785 6.88828
52.778075429022984 6.89376
52.80312495150885 6.889760000000001
52.827982978797436 6.8439
52.85284368481815 6.834339999999999
52.87770707160767 6.81146
52.90276741793998 6.8136600000000005
52.92763619336701 6.809019999999999
52.952507655698504 6.79287
52.977381806977576 6.78607
53.00245301017842 6.76277
53.02733256653592 6.75508
53.052214817996074 6.74752
53.077099766608484 6.7004600000000005
53.102181859804446 6.718039999999999
53.127072229988265 6.72765
53.15196530349892 6.68748
53.17686108239249 6.65883
53.20195409881522 6.68271
53.22685531582556 6.6534699999999996
53.25175924441303 6.6135
53.27666588664027 6.610530000000001
53.30176985962693 6.54306
53.3266819565689 6.58085
53.35159677336455 6.565180000000001
53.376514312083096 6.54634
53.40162927507703 6.53845
53.42655228516116 6.5383
53.45147802340193 6.5237
53.47660125628886 6.5176300000000005
53.50153247842639 6.51122
53.52646643496923 6.445869999999999
53.55140312799818 6.45678
53.576537409691696 6.4549900000000004
53.60147960336152 6.403169999999999
53.626424539786164 6.40871
53.65137222105307 6.38762
53.67651758529126 6.4101
53.70147078399681 6.40578
53.72642673383343 6.34045
53.75138543689533 6.3440900000000005
53.776541917524526 6.326980000000001
53.801506154876755 6.32218
53.826473151763246 6.30995
53.851442910284916 6.27125
53.87661054126026 6.25926
53.9015858509782 6.24185
53.92656392866066 6.2569099999999995
53.95154477641532 6.24977
53.976723591801296 6.21199
54.00171000771266 6.16854
54.02669920004598 6.23923
54.051691170915745 6.2123
54.076881204886796 6.18748
54.101878760928514 6.175590000000001
54.12687910187696 6.16029
54.152077577768296 6.1534
54.1770835166946 6.101369999999999
54.20209224691339 6.074730000000001
54.22710377055121 6.11468
54.25231352511594 6.06626
54.27733066384342 6.0563
54.30235060239643 6.05921
54.32737334290836 6.0749699999999995
54.35259441062629 5.967980000000001
54.377622783395324 5.95644
54.40265396455061 5.96779
54.42768795623251 5.94212
54.45292037169559 5.95078
54.477960012857906 5.93993
54.50300247099511 5.8605
54.52804774825457 5.85238
54.55329154616743 5.80844
54.57834249018678 5.7823199999999995
54.6033962597977 5.77151
54.6284528571545 5.75424
54.653708072335164 5.755669999999999
54.67877035378786 5.8179
54.70383546947698 5.69338
54.72890342156389 5.69534
54.7541700889442 5.66073
54.77924374251975 5.66064
54.8043202390049 5.6323300000000005
54.82959552413022 5.62953
54.8546777351945 5.65741
54.87976279569621 5.60233
54.90485070780914 5.60208
54.930137506558005 5.59
54.95523115074295 5.58515
54.98032765308844 5.52222
55.005427015775496 5.51662
55.03072536339621 5.54858
55.05583047570572 5.4913099999999995
55.080938454927676 5.44871
55.10604930325027 5.3598099999999995
55.131359235107396 5.437119999999999
55.15647585066083 5.38964
55.181595341907496 5.35389
55.20671771104285 5.349130000000001
55.232039262617704 5.3512699999999995
55.25716741665048 5.28823
55.28229845518636 5.28528
55.30743238042802 5.2685
55.33276558731939 5.23136
55.357905315183636 5.2033
55.383047936390035 5.1881900000000005
55.40819345314859 5.09901
55.433538351073295 5.12268
55.458689688238415 5.07711
55.483843927614096 5.04819
55.509197623043605 5.01574
55.53435769621134 5.010759999999999
55.55952067826466 4.961530000000001
55.5846865714265 5.0031099999999995
55.61005202069737 4.98588
55.63522376553902 4.96056
55.66039842818645 4.902340000000001
55.68557601087004 4.92557
55.7109532500271 4.84483
55.73613670233794 4.8602300000000005
