TT I
1.2716486653135266 7.7904100000000005
1.2939594142134223 7.37972
1.3162702121660406 6.583660000000001
1.3385810600174564 7.003080000000001
1.3608919586137629 6.67749
1.383202908801069 6.0833699999999995
1.405513911425503 5.73206
1.4278249673332093 6.36789
1.4501343378461518 5.90816
1.4724455028545926 6.1135
1.4947567236847858 5.85504
1.517068001182951 5.84168
1.5393793361953272 5.49943
1.5616907295681737 5.77995
1.5840021821477681 5.07376
1.60631369478041 4.54833
1.6286252683124185 4.91935
1.6509369035901333 5.06299
1.6732468618895553 5.13865
1.695558623192809 4.87173
1.7178704487808514 4.52001
1.7401823395001077 4.5875900000000005
1.7625012545597203 4.7058
1.7848028405262486 4.88756
1.8071218901122095 4.7318
1.8294236121921872 4.1066
1.8517427996910911 4.56576
1.8740620574440425 4.55302
1.8963639900671978 4.47738
1.9186833908139995 4.78956
1.9409854680117449 4.96668
1.9633050151394713 4.7411
1.9856246367570705 5.0175
2.0079269371922672 4.60652
2.03024671027244 3.83409
2.0525491637446027 4.01928
2.074869091674931 4.20523
2.097171701569106 4.48729
2.1194917877373847 4.88169
2.141811954326636 5.407030000000001
2.164114805233074 4.98761
2.186435135143035 5.85847
2.208738150935709 12.8888
2.231058647554722 24.2936
2.2533792288321184 18.5327
2.275682498336085 9.24312
2.298003251406138 6.62107
2.3203066942619714 6.21109
2.3426276225136022 5.7146
2.3649486396617507 6.03043
2.387252348930071 6.29619
2.4095735463442893 5.87314
2.4318774374315884 6.15091
2.4541988185014043 6.643
2.476502894794693 7.24357
2.498824462909887 7.15146
2.521146125856138 7.7074
2.5434504863470337 7.28367
2.5657723414244717 7.44067
2.588076895590662 8.17373
2.610398946189713 8.737219999999999
2.6327210958598384 8.29924
2.6550259469304716 8.44541
2.6773482972090137 8.3746
2.6996533504259 8.38117
2.7219759047039602 8.81607
2.744298562293959 8.05366
2.7666039251246595 7.5633300000000006
2.7889267918020164 8.046
2.8112323652516555 8.0421
2.833555444408179 9.04804
2.8558786311183852 8.95331
2.8781845268938557 9.12167
2.9005079311721484 9.138539999999999
2.9228140460410397 9.664760000000001
2.9451376712799635 9.12153
2.967444008632326 9.61725
2.9897678582247247 9.78501
3.0120918213106695 10.2436
3.0343984987899373 11.0227
3.0567226913198637 11.4277
3.079029599759726 11.7327
3.101354025127254 12.1405
3.123678568232338 12.870999999999999
3.145985829517914 12.8195
3.16831061055229 13.7146
3.1906181112775593 14.2084
3.212943133635653 14.8701
3.2352682779763207 15.3196
3.2575761442691227 15.2083
3.2799015350264273 15.7632
3.302209649240067 16.1633
3.3245352898092655 16.5752
3.3468436553365257 17.2601
3.369169549113219 17.5007
3.3914955708171384 18.7412
3.413804319727358 18.9417
3.4361305997334863 18.685
3.4584396084414553 19.5391
3.4807661501462652 20.5916
3.503092824025881 21.2377
3.5254022288463154 21.1138
3.5477291695206588 21.7658
3.5700388426251948 22.2083
3.5923660534916446 23.645
3.6146934007816114 36.1589
3.637003482731501 76.0967
3.6593311053109985 84.2241
3.681641464033634 50.5956
3.7039693653009733 29.3476
3.726297407241705 25.8791
3.7486081875460804 25.938000000000002
3.7709365132734978 26.2534
3.793247578841633 26.3157
3.8155761917550093 26.8348
3.8378875459837216 27.1525
3.8602164494827234 27.2243
3.882545499606844 28.3765
3.9048572932539183 28.5638
3.9271866390645718 29.0861
3.9494987298666713 29.775
3.971828374764527 29.6385
3.9941581705403255 30.7972
4.016470713506008 31.585
4.038800813471445 32.1764
4.061113662089144 32.0904
4.0834440696459176 33.424
4.105774632334751 33.4564
4.128087945865126 34.305
4.150418821249301 35.059
4.172732448931298 36.2192
4.195063640413578 38.165
4.2173775856475215 41.7534
4.239709096631102 67.4131
4.262040768704612 199.03
4.284355196706267 265.348
4.306687193387355 172.457
4.329001947444346 71.9886
4.35133427213731 46.7951
4.373666762177566 43.8853
4.395982011761091 43.3808
4.418314834921175 45.0274
4.44063041906622 51.6419
4.4629635787515625 60.5471
4.4852969080429785 60.3569
4.5076130004776225 52.66
4.529946671403969 50.1527
4.552263106909177 50.2164
4.574597122877047 51.2895
4.596931312711224 51.9064
4.619248269273446 52.8069
4.6415828092605835 54.0646
4.663900117405352 54.8672
4.686235010953232 56.3426
4.708552674085913 57.4697
4.730887924602802 58.9739
4.753223354952695 60.2737
4.775541557023902 62.1503
4.797877349456786 63.0484
4.820195915032126 65.2058
4.842532072957498 66.6667
4.864868414979744 68.5439
4.88718753227192 71.0719
4.909524244902505 73.033
4.931843734218147 74.3387
4.954180820867835 76.8006
4.976518095879839 79.788
4.998838149695359 83.0603
5.021175803844231 86.3847
5.043496238205739 88.7646
5.065834274903528 93.5081
5.088172504230693 98.4576
5.1104935158799565 104.446
5.132832132875765 123.67200000000001
5.155153533596801 160.78
5.1774925416746225 193.31099999999998
5.199814334878411 339.97900000000004
5.2221537374521505 956.687
5.244493338631803 2791.92
5.266815727034316 7875.31
5.289155727832427 12807.3
5.311478517248165 8587.03
5.333818921080011 2633.69
5.356159527788849 499.028
5.3784829252032536 176.325
5.400823940070432 139.572
5.423147747031976 124.723
5.445489173474152 116.21
5.467830807066149 111.505
5.490155234831516 107.679
5.512497285125229 104.37700000000001
5.534822130975162 102.73299999999999
5.557164601388673 101.07799999999999
5.579489868738879 97.9724
5.601832762690846 97.478
5.6241758697774475 95.9328
5.646501775867269 95.2031
5.668845311622074 93.8633
5.691171647754637 93.4269
5.713515615597765 91.7715
5.735859800852677 91.3973
5.758186788542988 90.8451
5.780531411018185 90.7035
5.802858837297399 90.2854
5.825203900414495 90.0862
5.8475491852224 90.6735
5.869877275883075 90.8193
5.892223006467101 92.1492
5.914551544266608 92.8468
5.936897724049891 95.1817
5.959244129804903 101.63
5.981573344815301 119.95100000000001
6.0039202049061 206.813
6.026249875609095 441.82300000000004
6.04859719346037 946.813
6.070927323278297 2201.78
6.093275102315365 4537.17
6.115623113320588 5275.59
6.137953938319995 3240.18
6.160302415650845 913.059
6.182633708324452 209.25400000000002
6.2049826554078376 108.339
6.227331838745022 89.634
6.249663839443684 83.3875
6.27201349767565 80.9371
6.294345974611799 85.7341
6.316696111167083 94.5932
6.339046488263839 89.781
6.361379686074702 77.5964
6.383730546639482 70.6918
6.406064229255215 67.9267
6.428415576718203 67.4616
6.450749747566656 66.5216
6.47310158535871 65.5167
6.495453669698332 64.8301
6.517788579421056 63.8229
6.540141159237969 62.8436
6.562476565766648 62.3814
6.5848296444934045 61.9743
6.607182974060425 61.9351
6.6295191323281015 61.9107
6.651872965955752 64.3587
6.6742096296068985 86.1291
6.6965639707294615 123.184
6.71891856698715 122.28299999999999
6.741255995248479 87.6043
6.763611104154477 66.0
6.785949046381137 59.6239
6.808304671371482 57.883
6.8306605557940046 57.6577
6.852999275508618 56.9369
6.875355681171544 56.3523
6.897694923437771 56.1946
6.92005185377892 56.3673
6.9423916220322655 55.7464
6.964749080490181 54.9114
6.987106804399774 55.2006
7.009447368180821 54.9424
7.031805625367033 54.8123
7.054146723727803 54.6948
7.076505517631004 54.5305
7.098864581288365 54.5038
7.121206488070854 54.5753
7.143566093607822 54.6655
7.165908543567245 54.8999
7.188268694426048 54.2813
7.2106291193438095 54.8193
7.232972390625943 55.8137
7.255333366030969 66.9975
7.277677189091925 110.296
7.300038718428332 146.77100000000002
7.322400526130865 126.485
7.344745183422596 81.8067
7.367107550224791 59.8802
7.389452767901992 55.3424
7.411815697249891 54.2467
7.434161478756298 53.7606
7.456524974096713 53.9851
7.478888753837185 53.9578
7.501235387657368 54.1346
7.523599738562711 53.9276
7.545946944825532 54.3673
7.568311870344528 54.7594
7.5906770845765665 54.6329
7.613025156078678 55.5421
7.635390950099687 56.6051
7.657739602662809 55.9388
7.680105979923558 55.3044
7.702472650212829 55.6297
7.724822180948224 55.769
7.747189439655568 55.393
7.769539560075357 55.534
7.791907410653562 56.138000000000005
7.81425812420825 56.1352
7.836626570110925 56.1488
7.858995315087906 57.0116
7.881346924933401 57.3262
7.903716270417482 57.8989
7.926068482028405 57.9117
7.948438431475253 58.6997
7.9708086843180235 59.2538
7.993161805171116 59.6112
8.015532667162402 60.1672
8.037886398416653 61.2149
8.060257873014221 61.5699
8.082629655331942 62.4553
8.104984308787587 63.2777
8.127356708900503 65.986
8.149711981398308 70.8909
8.172085002766314 72.65100000000001
8.194458336181368 70.585
8.216814543847752 68.7502
8.23918850371002 68.3425
8.26154533906492 69.3823
8.283919928836452 71.3472
8.306277395339652 71.7969
8.328652618483376 73.3238
8.351028159736202 75.4506
8.373386579575245 77.3796
8.395762759396959 79.455
8.418121819038275 83.7443
8.440498640894003 95.2626
8.462875785192262 108.64
8.485235811156207 121.96600000000001
8.507613602688501 164.52
8.529974277114228 250.197
8.552352719347912 376.161
8.574731488360351 643.5740000000001
8.59709314210385 1209.23
8.619472567021075 1936.22
8.64183487789147 2220.22
8.664214962183097 1734.16
8.686577933647762 863.041
8.708958680784317 315.829
8.731339760774953 147.524
8.753703729764451 106.65100000000001
8.77608547780821 97.0044
8.798450116065078 93.8346
8.820832535634787 91.1874
8.843215292401656 89.7717
8.865580941199045 88.5308
8.887964374703538 87.3349
8.910330701447199 88.4637
8.932714815164482 89.896
8.955099270424924 89.0018
8.977466620733543 86.4631
8.999851761421976 84.2691
9.022219798361645 82.8835
9.04460562795561 82.4976
9.066991803441677 81.9829
9.089360876979615 81.9289
9.111747746589993 81.7008
9.13411751544971 81.0211
9.156505082664324 80.6326
9.178875550323522 81.0655
9.20126381862328 81.2641
9.223652438908596 81.5249
9.246023961427412 81.7492
9.26841328802173 80.9359
9.290785518039224 80.992
9.313175554425882 81.8829
9.335565947154315 81.8686
9.357939245086508 82.0049
9.380330352834827 82.1549
9.40270436697103 82.3871
9.425096193225055 82.5027
9.447488380180165 83.1443
9.469863475295412 83.4189
9.492256385987508 83.8311
9.514632206018318 84.2987
9.537025843935714 84.6346
9.559402392368193 85.4391
9.581796761000229 86.4602
9.604191496441521 87.3246
9.626569144158516 90.2241
9.648964615551032 94.2403
9.671343000390081 95.575
9.693739211225699 93.8873
9.716135793237463 92.1271
9.738515290448102 92.0233
9.760912617143402 92.666
9.783292860202891 93.9132
9.805690935076182 95.322
9.828089385495742 96.2664
9.850470754023561 98.5609
9.872869957865444 105.48299999999999
9.89525208097539 118.01299999999999
9.917652041736662 129.02200000000002
9.940052382417589 131.171
9.962435644102392 140.034
9.984836746950979 174.857
10.007220771957746 237.53599999999997
10.029622640473708 336.332
10.052007432299963 507.39099999999996
10.074410069984072 816.372
10.096813093716005 1291.14
10.119199042482517 1779.64
10.141602840636468 1980.65
10.163989564971628 1515.82
10.186394141051062 809.512
10.208799107559706 343.92900000000003
10.231187001965623 166.715
10.253592751657669 120.18799999999999
10.275981430388155 110.251
10.298387966769793 109.861
10.320794897965431 111.64299999999999
10.343184759907361 110.605
10.36559248305461 106.396
10.387983138083852 103.56
10.410391656691655 106.266
10.432800574501677 117.05799999999999
10.455192425893369 134.514
10.47760214443012 158.839
10.499994797678786 203.385
10.522405320453982 287.192
10.54479877906917 413.836
10.567210109595656 534.614
10.5896218454736 579.386
10.612016518879773 480.472
10.634429067781074 325.719
10.656824555333241 186.144
10.679237920773568 116.079
10.701651695961992 93.5013
10.724048411481384 87.9443
10.746463008485165 85.1916
10.768860546937125 83.7769
10.791275969274796 82.0944
10.81369180576079 81.1888
10.836090585366925 80.282
10.858507252467449 78.9665
10.88090686379991 77.8934
10.903324365036394 77.3173
10.925724811614439 77.2849
10.948143150509463 77.9833
10.970561909719066 77.2972
10.992963615930844 75.7951
11.015383218085756 73.8978
11.037785768347074 72.4261
11.06020621697282 71.7201
11.082627090322113 71.258
11.105030913430326 70.7879
11.12745263854165 71.1309
11.149857314510728 74.0159
11.172279894912576 78.9635
11.194702904450653 79.0291
11.217108866490921 75.61
11.239532736615194 72.2079
11.26193956033512 70.2895
11.284364294577085 68.7557
11.306789462371718 67.2268
11.329197585398376 66.29899999999999
11.351623622610898 66.0654
11.37403261614354 65.2987
11.396459526308487 65.1515
11.418869393879497 65.0033
11.441297180532617 64.1897
11.463725406927658 63.967
11.486136592353875 63.8982
11.508565700543707 64.3576
11.530977768845315 65.9478
11.553407762368774 66.6816
11.575838200059769 65.9838
11.598251599479612 64.5047
11.620682927815501 63.4118
11.64309721895548 63.0716
11.665529441478206 62.6389
11.687962112597958 62.2385
11.710377748130886 62.3377
11.732811318753434 62.0801
11.755227854859067 62.0073
11.777662328529495 62.0174
11.800079768750786 61.9586
11.822515149015453 61.5645
11.844950984084935 61.7242
11.867369787303163 61.6157
11.889806534289491 61.6269
11.912226250487029 61.8485
11.934663912939751 62.2089
11.9571020346363 62.0164
11.979523127133968 62.2015
12.001962169624331 63.2332
12.024384183972964 64.1491
12.046824150809913 67.1594
12.069264581333726 72.0989
12.091687985297767 77.5754
12.11412934550045 86.348
12.136553680195208 101.521
12.158995973632788 125.43799999999999
12.181438735204349 158.474
12.20386447284199 193.125
12.226308172985636 214.12900000000002
12.24873485024193 204.615
12.271179492516982 168.125
12.293607112949127 120.113
12.316052700916226 89.1893
12.338498763250042 74.6216
12.360927805303868 68.1644
12.383374818673879 65.1539
12.405804812803074 63.7682
12.428252780773262 63.5505
12.45070122756722 63.3942
12.473132656675375 63.2605
12.49558206341869 63.6497
12.518014453510101 63.7002
12.540464823770117 63.5677
12.562915677315177 63.7356
12.58534951575545 64.46300000000001
12.607801338171472 66.5683
12.630236146511358 70.4686
12.652688941369085 74.5678
12.675124723177234 74.8466
12.697578494048786 71.9832
12.720032754458185 68.5704
12.742470003354093 67.1882
12.764925245138771 67.0385
12.787363476431278 67.2444
12.809819703166806 67.6026
12.83227642391173 68.2978
12.854716135692716 68.8068
12.877173846755147 69.8312
12.899614549869717 70.1733
12.9220732548287 70.8887
12.94453245827299 71.641
12.966974655289818 72.359
12.989434858002571 73.4643
13.011878055298721 74.1122
13.034339260862497 74.9116
13.056800969391883 76.369
13.079245674017244 78.2697
13.101708390774869 80.7217
13.12415410463411 87.4459
13.146617833206086 98.8425
13.169064559883248 109.82799999999999
13.191529303857127 124.568
13.213994557076367 146.564
13.236442809902437 183.99200000000002
13.258909083908291 241.676
13.28135835851934 312.599
13.30382565690295 385.876
13.326293469022952 434.848
13.348744283242008 425.75699999999995
13.371213125129904 345.871
13.39366497011003 242.377
13.416134845360597 159.42600000000002
13.438605238843131 116.867
13.46105863690397 102.49799999999999
13.483530069144786 103.906
13.505984506951902 109.277
13.528456981549432 118.569
13.550929978879088 132.328
13.573385983253365 157.053
13.595860028340867 197.145
13.618317081455832 253.687
13.64079217790333 314.58
13.663250283359057 362.27
13.685726434770173 383.535
13.708203115221277 338.245
13.730662806148091 250.14
13.75314054697177 170.03400000000002
13.775601299246777 118.648
13.798080104050406 92.6831
13.820559442405358 83.3482
13.843021793671388 80.4797
13.865502201420897 78.9585
13.887965623051947 78.4447
13.910447103807167 77.1825
13.932929122629764 76.1136
13.955394156785959 75.5557
13.977877254034569 74.8437
14.000343367582113 74.0985
14.022827546871707 73.4132
14.045294743423524 72.8888
14.06778000837062 72.1895
14.090265817715476 72.1348
14.112734645763819 71.7512
14.13522154619454 71.4814
14.157691466286913 71.4384
14.180179461423874 71.0677
14.202668005486178 70.5202
14.22513957064374 69.7008
14.247629214846473 69.7512
14.270101881097517 69.2899
14.29259262906496 69.6868
14.315083930490205 70.0633
14.337558255389705 70.2019
14.360050666019726 70.0127
14.382526101071944 68.9998
14.405019624534942 68.331
14.427513705993134 67.9848
14.449990813291825 67.9102
14.47248601302899 67.6162
14.49496423954951 67.9821
14.517460561197822 67.9734
14.539939910570322 67.9485
14.562437357763558 68.1242
14.58493536931253 68.9767
14.607416409993311 69.8062
14.62991555254159 70.4606
14.652397725157423 70.4298
14.674898002342799 70.0021
14.697398848433282 69.7305
14.719882725991326 70.2174
14.74238471217934 71.2771
14.764869730765593 74.1864
14.787372860692983 77.9522
14.809876564079925 82.1382
14.83236330125751 87.98
14.854868153850365 96.0485
14.877356041159485 109.935
14.899862046604186 129.305
14.922351087688757 156.44899999999998
14.944858249632887 187.187
14.967365991421232 215.75900000000001
14.989856770231246 227.22799999999998
15.012365673994204 220.25599999999997
15.03485761569738 188.42700000000002
15.05736768508665 145.238
15.07987833888692 108.079
15.102372032001655 86.5213
15.124883856909658 75.2897
15.14737872204565 70.9327
15.169891721717274 69.6068
15.192405310371893 69.4758
15.214901940621196 69.7669
15.237416709527137 69.6586
15.259914520936249 69.7022
15.282430473753607 68.8153
15.304947020131227 67.90100000000001
15.327446610371178 67.1539
15.349964346154254 66.3829
15.372465126703139 65.9581
15.394984055556009 65.7052
15.417486030076159 65.6433
15.44000615566487 65.1729
15.462526881230803 65.3169
15.485030653812652 65.4514
15.507552581617434 65.2385
15.530057557334603 65.4683
15.55258069104857 65.4224
15.575104429329837 65.6102
15.597611216864632 65.1754
15.620136166564563 65.3669
15.6426441664095 66.166
15.665170331202765 68.2705
15.687697105158826 71.3948
15.710206930593545 74.73
15.732734925158933 78.7327
15.755245972089478 84.6351
15.77777519094324 93.7023
15.800287463046663 107.40100000000001
15.822817909869592 127.135
15.84534897229804 151.836
15.867863089299354 176.355
15.890395385222186 194.644
15.912910736597423 198.558
15.935444269699861 181.11599999999999
15.957978423016485 148.785
15.980495633101265 117.72200000000001
16.003031029129367 90.3291
16.02554948280019 73.2312
16.048086125229432 65.9505
16.070623392487107 63.8835
16.09314371869582 63.2859
16.11568223789321 62.2901
16.13820381691126 61.3047
16.160743591742527 60.3941
16.183283996022084 59.8228
16.205807461423195 58.9361
16.228349126881973 58.3426
16.25087385432698 58.0807
16.27341678466365 57.6154
16.29594277784926 57.4782
16.31848697676433 57.6861
16.341031811604868 58.0935
16.36355971058487 58.2231
16.3861058195587 57.8936
16.40863499352978 56.8091
16.431182380342005 56.0649
16.453730407713202 55.5863
16.476261501364792 55.2861
16.498810812136167 54.82
16.52134319004079 54.9016
16.54389378792203 54.8342
16.566445031001553 54.5443
16.588979342490088 54.336000000000006
16.61153187824822 54.1111
16.634067483263312 54.1717
16.656621315414416 54.3294
16.679175797408888 53.7483
16.701713349928728 54.0473
16.72426913389191 54.1046
16.74680798922351 54.1575
16.76936507887444 54.208
16.791905240734874 54.3992
16.814463639794468 54.1038
16.837022695210294 54.3143
16.859564824093756 54.4803
16.882125194503903 54.983999999999995
16.904668639217885 55.5526
16.927230328348003 55.9524
16.949792678493612 55.831
16.972338104193863 55.3523
16.994901778652235 54.8437
17.017448529496576 54.8337
17.040013531998152 55.1766
17.06257920018044 55.7617
17.0851279459922 56.3714
17.107694947817667 57.0588
17.130245028099072 57.9124
17.15281336730298 59.2443
17.17536478578733 60.906000000000006
17.19793446610687 63.376000000000005
17.220504818648422 66.2983
17.243058251703697 69.8158
17.265629950971032 75.1026
17.288184731571736 80.0052
17.310757781306908 83.4629
17.33333150794385 83.4977
17.355888317140174 81.2055
17.37846339986244 75.6519
17.401021565958885 68.5738
17.42359800851343 63.9876
17.44617513265564 60.54
17.468735341390783 59.2068
17.491261035594565 58.3012
17.51396340099364 58.0597
17.536490463869136 58.3143
17.559018209820174 58.4675
17.58154663977963 58.4595
17.604251766089718 58.7299
17.626781572227713 58.9386
17.64931206518155 59.1217
17.671843245885103 59.8235
17.69455114821572 59.8746
17.717083712612634 60.1861
17.739616967569667 60.3258
17.762150914021706 60.6688
17.78486160749854 60.6377
17.807396945166804 61.1863
17.829932977143503 62.0827
17.85246970436452 63.5855
17.875183204129467 65.4825
17.897721330097664 67.5397
17.920260154126645 69.7263
17.942799677153296 72.7647
17.9655159983646 76.4316
17.988056927677544 81.7046
18.010598558807683 89.704
18.033140892692916 100.45
18.05586005052525 112.583
18.07840379824407 125.111
18.10094825154059 135.07299999999998
18.12366954819864 141.545
18.146215420998306 138.638
18.16876200220057 127.38799999999999
18.191309292745153 112.906
18.214033452627167 99.24600000000001
18.236582170236648 88.2661
18.259131600016456 84.3198
18.281681742907335 85.3687
18.304408781233683 90.4803
18.32696035875955 96.4697
18.349512652227624 101.695
18.372065662579683 105.404
18.394795594587553 105.501
18.41735004715306 100.961
18.43990521943684 92.7631
18.46246111238171 83.2641
18.485193953325208 74.1725
18.507751296070428 67.6313
18.530309362314178 64.2013
18.552868153000343 62.4618
18.57560391815056 61.3346
18.59816416623245 60.8409
18.620725141597372 60.5723
18.643286845190268 59.8857
18.666025549835414 59.5668
18.688588718427933 59.0276
18.711152618092243 58.8729
18.73389353884365 58.6413
18.75645890921984 58.1065
18.77902501351406 57.857
18.801591852673102 57.8974
18.824335739722738 57.5527
18.846904057212626 57.3989
18.8694731124168 57.0603
18.89204290628315 56.9744
18.914789774966803 56.8742
18.937361054791623 56.5213
18.959933076131318 56.2786
18.982505839934877 56.266999999999996
19.00525570560582 56.49
19.027829963004184 56.2387
19.05040496572238 56.2215
19.072980714710468 56.2644
19.095733592739563 56.3408
19.11831084296757 56.6839
19.140888842324735 57.1884
19.16346759176222 57.3436
19.18622349753803 57.9715
19.208803755869358 58.88399999999999
19.231384767143577 59.7307
19.253966532312948 61.4458
19.276725481241822 63.7379
19.29930876296784 66.4121
19.3218928014549 69.58
19.34465404436217 72.7682
19.36723960516257 75.2995
19.389825925592426 76.0542
19.412413006605938 74.5941
19.43517731967805 70.5748
19.457765930683355 65.8204
19.48035530514408 61.4027
19.50294544401556 58.4284
19.525712842708348 55.7335
19.54830451925909 54.3919
19.570896963095727 53.5079
19.593490175174704 53.3068
19.616260674962184 53.4959
19.638855432416964 53.055
19.661450960992624 52.9299
19.68404726164677 52.9131
19.706820878021247 52.6842
19.729418731756834 53.0168
19.752017360452857 52.7379
19.77461676506804 52.92100000000001
19.797393513540218 52.7974
19.819994478951667 53.2268
19.84259622316767 53.7109
19.8651987471481 54.1612
19.887978643247177 54.3692
19.91058273574792 54.6936
19.933187610901943 55.558
19.955969879466828 56.7347
19.97857632894404 58.2978
20.00118356396599 60.0268
20.023791585494575 62.365
20.046577028914875 65.2237
20.069186632506966 67.7388
20.091797025500632 68.9103
20.114408208858933 69.3094
20.137196842715273 68.7143
20.159809615886765 67.053
20.18242318232135 64.3053
20.20503754298326 62.4723
20.227829382875154 61.2364
20.250445341109344 61.5095
20.27306209647285 62.3285
20.29567964993108 63.7275
20.31847471147704 64.9318
20.34109387027612 65.332
20.363713830075454 64.6242
20.386334591841646 62.8035
20.409132890679302 60.0364
20.431755265564437 56.785
20.454378445325528 54.0897
20.477002430930366 52.4456
20.499803982716553 51.2657
20.522429589228004 50.6511
20.54505600449589 50.273
20.567683229489194 50.1731
20.590488049900088 49.9147
20.61311690359731 49.5723
20.63574656993626 49.3889
20.658553853717297 49.1516
20.681185154618298 48.9517
20.703817271080066 49.0068
20.72645020407368 48.6771
20.749260783967177 48.3979
20.771895359337133 48.3296
20.794530754161617 48.4562
20.817166969412938 48.4166
20.83998086114876 48.2383
20.86261872660049 48.2247
20.885257415405402 48.2627
20.90789692853701 48.0664
20.930714147864748 48.0229
20.953355319030678 48.011
20.97599731745334 48.2267
20.99864014410749 48.0187
21.021460706796564 48.1072
21.044105199328826 48.3078
21.06675052302631 48.3788
21.089396678865015 48.5893
21.112220600704806 48.8457
21.134868430275347 49.2779
21.15751709492456 49.6937
21.180166595629693 49.8636
21.202993892429635 50.4154
21.22564507473034 50.8179
21.24829709602816 51.1393
21.27112693608965 50.9536
21.293780644891275 50.8811
21.316435195634053 50.0604
21.339090589297417 49.3068
21.361923832041875 48.8111
21.384580921090404 48.1307
21.407238856007325 47.8814
21.429897637773326 47.8122
21.45273429906592 47.7518
21.475394784108598 47.8157
21.498056118951983 47.7837
21.520718304578022 48.1138
21.543558400304388 48.0811
21.566222297108816 48.3261
21.58888704765135 48.4004
21.61155265291521 48.6577
21.63439619898156 49.1946
21.657063523335786 49.2095
21.67973170537063 49.8366
21.7024007460706 50.2226
21.72524775840385 50.9916
21.747918526116475 52.1121
21.770590155457388 53.413000000000004
21.79326264741238 55.0975
21.816113141960237 56.777
21.838787368860547 58.873000000000005
21.861462461341976 60.8702
21.884315579735777 62.7618
21.90699241312273 63.7893
21.92967011506078 64.0395
21.95234868653799 63.6681
21.9752053151131 61.9198
21.997885635446785 60.0051
22.020566828293532 58.1775
22.04324889464272 56.7715
22.066109049404666 55.7267
22.088792872571794 55.516999999999996
22.111477572219204 55.6063
22.1341631493376 55.7042
22.157026846313123 55.6015
22.179714188221507 54.5093
22.202402410582668 53.3104
22.22509151438863 51.795
22.24795876962584 50.5248
22.270649646204486 49.7184
22.293341407213727 49.1226
22.316034053646906 48.7181
22.338904883215342 48.4399
22.36159931041458 48.5181
22.38429462602756 48.385
22.40699083104897 48.2237
22.429865251039757 48.3553
22.452563244831367 48.3935
22.47526213102522 48.2785
22.49813925616515 48.1931
22.520839937143307 47.9602
22.543541513520587 47.9988
22.56624398629403 47.924
22.589124730075895 47.9727
22.611829005656723 48.1284
22.63453418063466 48.1225
22.657240256008077 48.3664
22.680124634582935 48.4871
22.70283252079775 48.619
22.725541310413075 48.958999999999996
22.74825100442868 49.2248
22.771139033969575 49.5201
22.79385054687155 49.9555
22.81656296718292 50.5017
22.83927629590484 51.4591
22.862167992606945 52.5018
22.88488314827121 53.8946
22.907599215359284 54.8707
22.93031619487366 56.0433
22.953211574954405 56.9162
22.975930389478226 57.5635
22.998650119445763 57.542
23.02137076586092 56.6896
23.044269845560063 55.2344
23.06699233506288 53.4903
23.089715744034912 51.6909
23.112617610931565 50.2995
23.135342869061212 49.2429
23.158069049684816 48.4677
23.1807961538087 48.1805
23.20370174880544 48.17
23.226430710184808 48.1213
23.249160598093425 48.1838
23.271891413539002 48.2913
23.294800752937697 48.1418
23.31753343374794 48.5083
23.340267045128353 48.5438
23.36300158808808 48.8852
23.38591468821339 49.1365
23.408651104658304 49.705
23.431388455719986 50.2607
23.454126742409 51.1078
23.4770436196085 52.2605
23.499783787914662 53.5543
23.522524894889884 54.6137
23.54526694154616 55.8165
23.56818761219047 56.9268
23.59093154860734 57.3665
23.613676427751283 57.4057
23.636422250635754 56.2915
23.659346731118656 54.4263
23.68209445191868 52.4014
23.704843119509587 50.5168
23.72759273490623 48.4111
23.750521041644767 47.3141
23.77327256312355 46.3303
23.796025035462787 45.9354
23.818956224555475 45.4915
23.841710609113413 45.4222
23.86446594758979 45.1221
23.887222241002014 44.9704
23.910157285144578 44.6603
23.932915498962537 44.7375
23.955674670778713 44.5094
23.978434801611975 44.3622
24.001373717286125 44.1899
24.024135776723917 44.2151
24.046898798245582 44.1398
24.06966278287146 43.9147
24.092605586582614 43.8398
24.115371508023642 43.5917
24.1381383956401 43.4376
24.16090625045381 43.5333
24.183852958731244 43.4571
24.206622758582608 43.2043
24.229393528706886 43.1367
24.252165270127392 43.2453
24.27511589952438 43.1067
24.297889594216997 42.9692
24.32066426328598 42.7163
24.34343990775613 42.8108
24.36639447485003 42.6781
24.38917208083877 42.692
24.41195066531332 42.5806
24.43490819850244 42.5853
24.457688750692377 42.5029
24.48047028445616 42.4409
24.503252800821233 42.4406
24.526214300784112 42.5799
24.548998793132213 42.6881
24.57178427117417 42.4892
24.59457073593893 42.423
24.617536219319863 42.3788
24.64032466834748 42.5023
24.663114107195035 42.2811
24.685904536893013 41.9219
24.708874020360852 41.9576
24.731666442613744 42.0083
24.754459858818787 42.1074
24.777254270007962 41.8017
24.80022777025625 41.8
24.82302418230472 41.7853
24.845821592443674 41.7161
24.86862000170663 41.7869
24.891597535453727 41.6061
24.914397953892728 41.8167
24.93719937456671 41.7944
24.96000179851076 41.8864
24.98298338249997 42.0512
25.00578782394922 42.2093
25.028593271784167 42.379
25.05157790644186 42.6982
25.07438537804115 42.9837
25.097193859145293 43.1651
25.120003350792075 43.3747
25.142992065061257 43.7416
25.165803588823465 43.931000000000004
25.18861612625217 44.1019
25.211429678386736 44.2455
25.234422489079968 44.2701
25.257238081693636 44.2961
25.280054692141732 44.4247
25.3028723214652 44.3951
25.325869245420463 44.376999999999995
25.348688923599397 44.5361
25.371509623787006 44.4645
25.394331347025812 44.1829
25.41733240110666 43.5135
25.440156181590016 42.9195
25.46298098826268 42.3123
25.48580682216873 41.8667
25.50881202326435 41.074
25.53163992281684 40.7824
25.55446885274561 40.6764
25.577298814096377 40.391999999999996
25.600308179121807 40.2965
25.623140214533745 40.3393
25.64597328451537 40.3601
25.66898578564376 40.0398
25.691820936010206 40.1788
25.714657124097695 39.9867
25.737494350954734 40.106
25.760511045684957 40.0721
25.783350361364224 40.064
25.806190718969255 40.0228
25.82903211955018 40.0259
25.852053024868923 40.2237
25.874896522722523 40.139
25.897741066713106 40.2187
25.920586657892454 40.258
25.943611790812668 40.3255
25.966459487728237 40.4684
25.989308234998564 40.6673
26.01215803367705 40.9449
26.03518741123814 41.1029
26.05803932412957 41.236999999999995
26.080892291600094 41.1517
26.10374631470478 41.3711
26.12677995397268 41.372
26.14963609978026 41.3801
26.172493304397875 40.9233
26.19535156888223 40.6558
26.218389486949604 40.1951
26.241249882640123 39.9752
26.26411134137826 39.8045
26.28715248187403 39.7377
26.31001607820869 39.5805
26.3328807407756 39.4841
26.35574647063438 39.7038
26.37879191991473 39.6121
26.401659795896734 39.7102
26.424528742360263 39.9181
26.447398760366614 39.9686
26.470448535598294 40.1609
26.49332070826805 40.2771
26.516193955675355 40.6347
26.53906827888316 40.8173
26.562122397260108 41.0321
26.584998883685063 41.3517
26.607876449110325 41.5339
26.63075509460056 41.7069
26.65381357334404 41.8319
26.67669439061878 41.8438
26.699576291163382 41.6326
26.722459276044212 41.5007
26.745522132402975 41.00899999999999
26.768407297649354 40.8044
26.791293550442003 40.3885
26.814180891848974 40.4006
26.837248143099337 40.0109
26.860137673466657 39.8424
26.88302829566349 39.6872
26.90592001075963 39.5552
26.92899167420566 39.4759
26.951885586870763 39.0288
26.974780595655517 38.808
26.99785558178161 38.7144
27.020752794605112 38.6102
27.043651106772522 38.3819
27.06655051935668 38.4514
27.089629948036183 38.2751
27.112531573292053 38.3
27.135434302194138 38.2827
27.158338135817015 37.9635
27.181422024430987 38.04
27.204328079372566 38.1242
27.22723524226965 38.1554
27.250143514198573 38.2423
27.273231880156334 38.1035
27.296142382065014 37.9844
27.319053996245536 37.8894
27.341966723775965 37.9487
27.365059584515222 38.047
27.38797455070062 38.089
27.410890633481237 38.0076
27.433807833936918 37.961999999999996
27.456905206923906 38.1509
27.47982465472398 38.1439
27.502745223449743 38.1588
27.525666914182825 38.1785
27.548768816912457 38.1223
27.571692763693633 38.010999999999996
27.59461783573812 37.9031
27.617723149491244 37.6265
27.640650484125285 37.6463
27.66357894728264 37.6658
27.686508540048052 37.5707
27.709618414237887 37.478
27.732550278321757 37.3966
27.755483275279115 37.4289
27.778417406196485 37.5062
27.801531858397514 37.519
27.824468269376716 37.4324
27.847405817586786 37.4353
27.870344504116094 37.6294
27.893463551932008 37.6337
27.916404527281053 37.7676
27.93934664422563 37.9391
27.962289903855886 38.0499
27.98541356491974 38.3617
28.00835912214229 38.4737
28.03130582533231 38.6836
28.054253675581805 38.7102
28.077381967556104 38.7658
28.100332124185126 38.7142
28.123283431160893 38.5537
28.146235889577238 38.4056
28.169368830154156 38.3129
28.192323603752033 37.869
28.215279532083304 37.6629
28.238415973016764 37.4668
28.261374223145094 37.4248
28.284333631303806 37.1589
28.307294198589954 37.022
28.330435319167677 36.619
28.353398217078915 36.4048
28.376362277420153 36.2101
28.39932750129032 36.1569
28.422473319286713 35.8805
28.44544088262495 36.025999999999996
28.468409612800283 35.8677
28.491379510913497 35.6279
28.51453004413313 35.4722
28.53750229057244 35.6012
28.56047570826344 35.4911
28.583450298308804 35.5481
28.606605564586562 35.2402
28.629582511831156 35.342
28.65256063474956 35.2329
28.675539934446338 35.321
28.698699951647605 35.3666
28.72168161743193 35.1161
28.74466446331978 35.1466
28.767648490417624 35.2233
28.790813276438353 35.0796
28.813799678527303 35.1165
28.836787265157085 35.1494
28.859955641890075 35.1544
28.882945610203045 35.0816
28.905936766392035 34.9207
28.928929111566863 35.022
28.952102288520145 34.8188
28.975097024308607 34.7907
28.998092952423807 34.5697
29.021090073977508 34.6284
29.04426806913204 34.4275
29.067267590245258 34.2513
29.090268308143695 34.2316
29.11327022394099 34.1673
29.13645305530891 34.0917
29.159457379627167 34.042
29.18246290519685 33.9983
29.20546963313352 33.9576
29.22865731875826 34.0784
29.25166646419296 33.9474
29.27467681535305 33.8251
29.29768837335608 33.9267
29.320880931312562 33.8865
29.34389491580634 33.9411
29.366910110507334 33.9132
29.38992651653503 33.8813
29.41312396492981 33.8626
29.436142806456754 33.7482
29.45916286268059 33.674
29.48236399319994 33.6072
29.50538649169417 33.3246
29.528410208259935 33.2824
29.55143514402014 33.1432
29.574641196749695 33.0263
29.597668583816574 32.8374
29.6206971934585 32.6962
29.64372702680042 32.8296
29.666938019934474 32.6764
29.689970313635285 32.5615
29.713003834422636 32.6661
29.73603858342347 32.573
29.759254535188578 32.4907
29.78229175361658 32.4652
29.80533020365064 32.5479
29.82836988641968 32.4098
29.85159081507472 32.4208
29.874632976355343 32.3914
29.89767637376955 32.4395
29.920721008448314 32.1572
29.9439469322847 32.277
29.96699405457564 32.1769
29.9900424175358 32.1175
30.013092022298157 32.1312
30.03632295963995 32.1177
30.059375061131373 32.1239
30.08242840783577 32.1092
30.105483000888153 32.1079
30.128718970092244 32.0373
30.151776069006917 32.0367
30.17483441768648 32.0954
30.198074175317235 32.0669
30.221135036724256 32.1735
30.24419715131772 31.956999999999997
30.267260520236203 31.927
30.290505341942243 31.9223
30.313571232750228 32.0103
30.336638381310948 31.9602
30.35970678876503 31.8685
30.38295669299435 31.8634
30.40602763151657 31.7617
30.429099832366074 31.8413
30.452173296685572 31.8048
30.47542830191959 31.7164
30.498504306502497 31.7578
30.521581577995562 31.835
30.544660117543582 31.7597
30.56792024229725 31.8501
30.59100133132069 31.7556
30.614083691845494 31.8588
30.637167325018545 31.8264
30.660432587840603 31.9083
30.683518779717886 31.9738
30.70660624769615 32.0151
30.729694992924372 31.9452
30.75296541239743 31.8906
30.77605672557558 31.9534
30.799149319462742 31.8161
30.8224236211637 31.6242
30.845518789950724 31.4864
30.868615242910597 31.4627
30.891712981195973 31.3922
30.91499247215866 31.326999999999998
30.938092794619365 31.3079
30.96119440587579 31.2433
30.984297307082752 31.0078
31.00758200598383 30.9184
31.030687500658694 30.9651
31.053794288760695 30.8966
31.076902371446767 30.726999999999997
31.100192296997445 30.7709
31.12330298246119 30.706
31.14641496599209 30.5772
31.169528248749216 30.677
31.19282341969534 30.6589
31.215939314557186 30.6984
31.239056512134788 30.6634
31.262175013589378 30.5363
31.28547544871168 30.4885
31.30859657161541 30.4899
31.331719001892175 30.5835
31.35484274070538 30.5238
31.378148458819545 30.6186
31.401274828443725 30.5293
31.424402510106933 30.4873
31.447712205419993 30.594
31.470842524931633 30.5219
31.493974159989783 30.5266
31.51710711176168 30.4578
31.54042212308802 30.401999999999997
31.563557722100917 30.4092
31.586694641341655 30.1672
31.609832881979628 30.1544
31.63315322823208 30.1244
31.656294125521327 30.0494
31.679436347728515 29.9599
31.70257989602529 29.8984
31.725905596152327 29.9294
31.74905181052835 29.747
31.772199354521323 29.8595
31.79534822930507 29.7544
31.818679302290967 29.8153
31.84183085259981 29.8139
31.864983737233473 29.7925
31.88813795736804 29.8894
31.911474422233013 29.8032
31.934631327356435 29.8409
31.9577895715215 29.6804
31.980949155906522 29.7013
32.004291031706956 29.647
32.027453310562606 29.5541
32.05061693318573 29.4455
32.07396288236386 29.4997
32.09712920658542 29.3781
32.12029687812702 29.2481
32.14346589817093 29.2208
32.166817291729984 29.1535
32.18998902288583 29.1811
32.21316210610336 29.0093
32.23633654256711 28.9526
32.259693399663725 28.9559
32.282870556771144 28.8
32.30604907069099 28.7885
32.329228942610065 28.7896
32.35259128243769 28.7131
32.375773884550505 28.656999999999996
32.398957848235646 28.6882
32.422143174682176 28.5244
32.445511016471215 28.4105
32.468699082679954 28.3483
32.49188851523011 28.3464
32.51507931531304 28.2972
32.538452678331 28.2483
32.56164622776311 28.2432
32.58484114831493 28.146
32.60803744118015 28.1012
32.631416344731896 28.188000000000002
32.654615396551876 28.1908
32.67781582427913 28.0755
32.701198898634416 27.96
32.72440209253756 27.8904
32.747606665947124 27.9493
32.77081262006088 27.7275
32.79420126883317 27.7346
32.81740999876112 27.8514
32.840620112999424 27.7506
32.86383161274818 27.6849
32.88722585534586 27.705
32.91044014056596 27.8228
32.933655814909734 27.773000000000003
32.95687287957963 27.7753
32.98027273544904 27.6154
33.00349259526636 27.601999999999997
33.026713849030116 27.5944
33.04993649794511 27.6235
33.073341986570746 27.5028
33.09656744032826 27.4955
33.11979429286444 27.4146
33.14302254538647 27.4423
33.166433686291185 27.4172
33.18966475336992 27.3743
33.212897224069096 27.2507
33.23613109959831 27.28
33.259547912343415 27.2161
33.2827846121627 27.2775
33.306022720453775 27.2079
33.32926223842861 27.006999999999998
33.352684742614166 27.1682
33.37592709463173 27.0773
33.399170859982064 26.9485
33.422597648419426 26.92
33.44584425514446 26.7995
33.46909227885668 26.8397
33.4923417207723 26.6802
33.51577423505344 26.781999999999996
33.539026528130385 26.6674
33.56228024307245 26.5864
33.585535381098246 26.4745
33.60897364093058 26.4144
33.63223163992385 26.4461
33.6554910656699 26.3406
33.678751919389796 26.4213
33.702195944520106 26.2842
33.72545966903325 26.2827
33.74872482519663 26.2457
33.771991414233746 26.3183
33.79544122444841 26.2462
33.81871069412428 26.1757
33.84198160035767 26.1219
33.86525394437455 26.0872
33.88870955949969 26.0115
33.911984794020626 26.0231
33.93526147001624 26.058000000000003
33.958539588715006 25.9621
33.98200102861669 25.8398
34.0052820477047 25.723000000000003
34.02856451319451 25.6982
34.05203033759056 25.6858
34.07531571090147 25.6923
34.09860253431845 25.6325
34.121890809074316 25.6206
34.145362493118924 25.6279
34.16865368561615 25.5507
34.191946333164054 25.5401
34.21524043699793 25.4623
34.23871800066799 25.4525
34.26201503218366 25.3425
34.28531352370466 25.2646
34.30861347646881 25.223000000000003
34.33209693978188 25.2146
34.3553998301885 25.2231
34.378704185565205 25.2144
34.402010007152356 25.0777
34.42549939016683 25.0534
34.44880815937748 25.0492
34.472118398533134 25.0151
34.49543010887669 24.9323
34.51892543169198 24.7919
34.54224009966052 24.8892
34.56555624255917 24.8643
34.58887386163339 24.8209
34.61237514439016 24.7434
34.6356957311114 24.6903
34.65901779775809 24.6415
34.68252356662995 24.6107
34.705848608458616 24.6179
34.72917513396849 24.6183
34.75250314440949 24.6099
34.77601490857862 24.4665
34.799345904259795 24.3638
34.82267838863559 24.3334
34.846012362958525 24.4677
34.869530142679984 24.4493
34.89286711232212 24.3495
34.91620557568269 24.326999999999998
34.93954553401677 24.3421
34.9630693495876 24.2423
34.986412313340814 24.2783
35.00975677584668 24.2259
35.033102738362956 24.1141
35.05663261012228 24.0711
35.0799815881786 24.1668
35.10333207003229 24.0406
35.12668405694369 24.044
35.150220005273056 23.9552
35.17357501786656 23.949
35.19693153931268 23.9352
35.220289570874385 23.9196
35.24383161619786 23.9124
35.267192683604904 23.8979
35.290555264930376 23.8491
35.314101899412165 23.8595
35.33746752422433 23.7916
35.36083466676374 23.776
35.38420332829803 23.7685
35.407756095629054 23.7515
35.43112781085063 23.7155
35.45450104888391 23.7332
35.477875810999194 23.756999999999998
35.50143473172161 23.6899
35.52481255774625 23.6528
35.54819191167777 23.6123
35.57157279478914 23.500999999999998
35.595137889488406 23.4881
35.61852184675279 23.3985
35.641907337029984 23.3618
35.665294361595684 23.3214
35.68886565090076 23.218000000000004
35.7122557598848 23.3041
35.73564740699838 23.256
35.759040593519934 23.1646
35.78261809810353 23.2003
35.80601437933051 23.1299
35.829412203814705 23.0586
35.85281157283719 22.9663
35.876395313415884 23.0544
35.8997977874528 22.9144
35.92320180988546 22.9078
35.946790244133936 22.8565
35.97019737933222 22.9043
35.993606066789866 22.8589
36.01701630779276 22.8395
36.04061101440684 22.7869
36.06402437852291 22.8052
36.08743930005611 22.7429
36.1108557802951 22.6632
36.13445678011326 22.6037
36.15787639383515 22.5848
36.18129757014299 22.6664
36.20472031032821 22.5288
36.22832762423364 22.3654
36.25175350829375 22.4548
36.275180960119776 22.4862
36.298609981005924 22.4848
36.32222362992669 22.4656
36.34565580510207 22.4515
36.36908955323448 22.3319
36.39252487562093 22.2209
36.416144880530226 22.2089
36.43958336764275 22.2101
36.463023432914625 22.2436
36.486465077645676 22.1306
36.51009145956204 22.1623
36.53353627947859 22.1352
36.55698268276811 22.1057
36.58043067073321 22.0276
36.60406345072071 21.9731
36.62751462435344 21.974
36.65096738658405 21.9127
36.67460498210655 21.8713
36.69806093788647 21.8434
36.72151848619297 21.8563
36.744977628333636 21.8074
36.76862165890998 21.7241
36.79208400512205 21.7108
36.81554794910557 21.7118
36.83901349217101 21.6402
36.862663978991606 21.5925
36.88613273667352 21.5664
36.90960309738324 21.6036
36.933075062434064 21.5017
36.95673202673572 21.5484
36.98020721697122 21.3859
37.003684015502365 21.3737
37.027162423645365 21.3874
37.050825886711465 21.3562
37.07430753063053 21.246
37.09779078812467 21.2808
37.121275660513014 21.2477
37.144945643673694 21.234
37.16843376245278 21.1824
37.19192350009803 21.1176
37.215414857931435 21.0777
37.239091382563885 21.0315
37.262585997426164 21.0149
37.28608223645736 21.0067
37.309763684451696 20.9727
37.33326318851098 20.945999999999998
37.356764320726555 20.8764
37.380267082425526 20.8841
37.40395510942588 20.8522
37.42746114683234 20.8508
37.45096881771841 20.7812
37.474478123414166 20.721999999999998
37.49817275092816 20.6907
37.52168534303452 20.7004
37.54519957395567 20.635
37.568715445024665 20.5644
37.592416694607714 20.5949
37.61593586281424 20.622
37.63945667518264 20.6168
37.66297913304891 20.4995
37.68668702630454 20.4417
37.710212792059274 20.4132
37.733740207334854 20.3799
37.757269273470364 20.3534
37.780983832050374 20.2434
37.80451621684926 20.3026
37.82805025654007 20.3098
37.851585952464795 20.2689
37.8753071980695 20.1545
37.89884622345676 20.0682
37.92238690911902 20.0824
37.94611318753442 20.0005
37.969657210779765 20.0656
37.99320289834801 20.0715
38.016750251586465 19.9658
38.04048325513017 19.9085
38.06403395679343 19.8576
38.087586328183946 19.8632
38.11114037065203 19.8651
38.13488012115898 19.9036
38.1584375229181 19.8053
38.181996599821 19.7236
38.205557353221124 19.7178
38.229303872575656 19.7591
38.2528679961576 19.6601
38.27643380031219 19.6671
38.30000128639589 19.6323
38.32375459653193 19.5923
38.34732546371299 19.6283
38.37089801690786 19.5554
38.39447225747609 19.4718
38.418232380377425 19.4564
38.441810012983396 19.4929
38.46538933705673 19.4092
38.488970353960084 19.3964
38.51273731166058 19.2838
38.536321731567014 19.3114
38.55990784840681 19.2805
38.58367995004091 19.2215
38.60726947812959 19.1582
38.63086070726198 19.1984
38.654453638806274 19.1772
38.678232613930824 19.1243
38.70182896773327 19.0111
38.72542702806741 19.0232
38.7490267963045 19.0606
38.77281266709232 19.0125
38.79641586862214 18.9312
38.8200207821842 18.8898
38.843627409152944 18.9363
38.86742019782782 18.9441
38.891030269149255 18.9272
38.914642058016156 18.8996
38.938255565806124 18.8369
38.96205529464307 18.7921
38.98567225787121 18.7864
39.00929094417078 18.7191
39.03291135492255 18.699
39.05671804624804 18.7039
39.080341923549106 18.5817
39.103967529460334 18.605
39.127594865365744 18.4803
39.15140854155791 18.512999999999998
39.17503935514948 18.4749
39.19867190290282 18.5021
39.22249083587951 18.4158
39.24612686969409 18.3983
39.269764641845306 18.4206
39.293404153722804 18.3635
39.317230110864074 18.2651
39.34087311998506 18.303
39.36451787301696 18.3158
39.388164371352595 18.2222
39.41199737518003 18.2242
39.43564738196752 18.207
39.45929913825317 18.1523
39.48295264543308 18.1156
39.506792718520884 18.0429
39.530449745387216 18.0309
39.55410852735203 18.0335
39.57776906581474 18.0317
39.60161623079 17.9574
39.625280300200025 17.9941
39.64894613032202 17.8771
39.67261372255866 17.8987
39.6964680021016 17.9
39.72013913657293 17.8879
39.74381203738292 17.8194
39.76748670593756 17.8279
39.79134812278169 17.8245
39.81502634488497 17.7528
39.83870633896685 17.7171
39.862388106436654 17.6441
39.88625668336918 17.6366
39.90994201572829 17.6498
39.933629125719285 17.5898
39.957503091207826 17.5004
39.9811937746168 17.5832
40.00488623990914 17.5029
40.02858048850006 17.5001
40.05246165409549 17.4204
40.076159487492085 17.3835
40.099859108448875 17.3738
40.123560518384345 17.3766
40.1474489070226 17.3587
40.171153913178564 17.3121
40.194860712584955 17.2789
40.2185693066637 17.2728
40.242464941335314 17.2325
40.26617714307655 17.159000000000002
40.289891143772046 17.1351
40.3136069448471 17.1418
40.33750984859743 17.1314
40.3612292688043 17.093
40.3849504936829 17.0587
40.40867352466194 17.0417
40.43258372059144 17.0015
40.45631038219906 17.0385
40.48003885420956 16.9358
40.503769138055105 16.9609
40.52768664931955 16.9131
40.55142057531802 16.9376
40.57515631746428 16.861
40.599079334038514 16.8306
40.62281872700477 16.7481
40.64655994043941 16.7804
40.67030297578061 16.7292
40.69423334835778 16.7812
40.71798004609188 16.6759
40.74172857006355 16.6624
40.76547892171441 16.7013
40.7894166736039 16.6425
40.813170699248566 16.5622
40.83692655691388 16.5185
40.86068424804498 16.5569
40.884629402612525 16.4643
40.908390779366385 16.4817
40.932153993938 16.4618
40.95591904777605 16.393
40.979871628443995 16.4543
41.003640379561936 16.3937
41.02741097430883 16.3241
41.05118341413683 16.441
41.075143444384416 16.28
41.098919593177826 16.2993
41.1226975914255 16.2549
41.14647744058318 16.1509
41.170444943946755 16.1672
41.19422851378379 16.2002
41.218013938914645 16.1028
41.24198706625173 16.0419
41.26577622087193 16.0933
41.289567235177785 16.0282
41.31336011063129 16.0119
41.337340752422875 16.0059
41.361137369129835 15.9759
41.38493585138705 15.9139
41.40873620066004 15.9101
41.43272438060107 15.9201
41.45652848292052 15.8214
41.48033445666918 15.8948
41.50414230331616 15.8341
41.528138045159764 15.7909
41.551949656675205 15.7129
41.575763145513235 15.6634
41.59957851314666 15.7364
41.62358184070442 15.6869
41.64740098505737 15.6698
41.6712220126409 15.6171
41.69504492493139 15.5764
41.71905586207357 15.5455
41.74288256296395 15.5408
41.766711153007456 15.4886
41.79054163368412 15.5052
41.814560204340054 15.4891
41.838394485526365 15.4958
41.86223066180303 15.4965
41.88625497706819 15.3559
41.910094962812 15.3659
41.93393684811168 15.307
41.95778063445365 15.2686
41.981812625263366 15.2475
42.00566023303407 15.3148
42.029509746323676 15.2436
42.05336116662236 15.2045
42.077400857069705 15.1776
42.10125611078846 15.2287
42.12511327600405 15.1059
42.14897235421036 15.1166
42.173019768448455 15.0951
42.19688269209613 15.0594
42.22074753323349 15.0651
42.24461429335818 15.0063
42.268669455600495 15.0002
42.292540073217886 14.9742
42.31641261433284 14.9374
42.34028708044675 14.8901
42.36435001496739 14.8938
42.38822835065557 14.8465
42.41210861586426 14.7919
42.4359908120986 14.7766
42.46006154323262 14.7278
42.48394762115317 14.7364
42.507835634632315 14.757
42.531912233047436 14.7211
42.55580413732265 14.732000000000001
42.579697981698 14.6849
42.60359376768525 14.6005
42.62767820545945 14.6008
42.65157789440821 14.55
42.67547952952185 14.5606
42.699383112316 14.5242
42.72347541395347 14.4709
42.74738291190531 14.4647
42.771292362102166 14.5117
42.795203766063516 14.4663
42.819303956130405 14.4547
42.843219287476536 14.3516
42.86713657716324 14.3475
42.89105582671383 14.3228
42.91516392983864 14.3435
42.939087119032166 14.2872
42.963012272677304 14.2735
42.98693939230129 14.257
43.01105543317513 14.2258
43.034986504731386 14.2099
43.05891954686589 14.1869
43.08285456110972 14.1385
43.10697856448665 14.110999999999999
43.130917542983475 14.1134
43.15485849820081 14.0628
43.17880143167367 14.0024
43.20293342237094 14.0382
43.226880332449 13.9925
43.25082922540554 14.0011
43.27496722682525 13.9415
43.29892010567796 13.9021
43.32287497204102 13.92
43.34683182745632 13.8856
43.370977859791836 13.8613
43.39493871351105 13.8119
43.41890156092628 13.8117
43.44286640358341 13.7399
43.46702049182749 13.7936
43.49098934522816 13.7865
43.51496019852649 13.6964
43.5389330532723 13.6777
43.56309522248204 13.6903
43.58707210044314 13.6146
43.61105098451946 13.6349
43.63503187626491 13.5978
43.659202151562134 13.6024
43.68318707902681 13.5476
43.70717401884041 13.5347
43.731162972560874 13.4837
43.75534137913236 13.5046
43.779334381108384 13.4617
43.803329401683186 13.4139
43.82732644241872 13.433
43.8515130055166 13.4224
43.87551410707659 13.3361
43.89951723350145 13.3504
43.923709934595614 13.2896
43.94771713129917 13.3138
43.97172635758096 13.2926
43.99573761501002 13.2895
44.0199385169922 13.2363
44.04395385732619 13.1647
44.067971233533086 13.1525
44.09199064718605 13.1316
44.11619977548961 13.1153
44.14022328470671 13.1103
44.16424883610785 13.1367
44.18827643127035 13.0487
44.21249381139513 13.0391
44.236525514814076 13.0142
44.26055926674478 13.0029
44.28459506876863 13.0046
44.3088207262813 12.9753
44.33286064928722 12.9494
44.35690262714919 12.9305
44.38094666145278 12.8785
44.4051806219871 12.8955
44.42922879003185 12.8797
44.45327901929361 12.8005
44.477331311362136 12.802
44.501573600619416 12.7532
44.525630039221795 12.7257
44.54968854541895 12.7753
44.573937102200176 12.6981
44.5979997645541 12.6911
44.622064499300315 12.6912
44.64613130803592 12.6913
44.67038823869318 12.6507
44.69445921643748 12.6016
44.718532272981385 12.5323
44.742607409926194 12.5895
44.76687274034801 12.5427
44.79095205918753 12.5234
44.81503346325094 12.5317
44.839116954143876 12.4916
44.86339071028742 12.4629
44.88747839599524 12.4274
44.91156817336837 12.417
44.93566004401666 12.4095
44.959942251908146 12.3731
44.984038330325966 12.32
45.00813650686762 12.3358
45.03223678314731 12.2903
45.05652746888232 12.2714
45.08063196592069 12.2688
45.104738567558705 12.1991
45.128847275414856 12.207
45.15314646515866 12.1698
45.17725940679741 12.1368
45.20137445952892 12.0887
45.22568004865265 12.1511
45.24979934496396 12.1139
45.27392075725247 12.0971
45.29804428714431 12.0407
45.322358426247604 12.0135
45.346486212804315 12.0124
45.370616121861914 12.0353
45.39474815505086 11.9737
45.41907087049246 11.9451
45.4432071734666 11.9322
45.46734560548283 11.905
45.49148616817604 11.9179
45.51581748638564 11.877
45.5399623320197 11.8416
45.56410931325473 11.7628
45.58825843173002 11.799000000000001
45.61259837920865 11.7706
45.636751793816 11.7391
45.66090735060093 11.6753
45.68506505120716 11.6983
45.7094136545275 11.6737
45.73357566449271 11.6324
45.75773982322992 11.6276
45.78190613238733 11.6483
45.806263418194064 11.5709
45.83043404997326 11.5646
45.85460683713677 11.5635
45.87897065658495 11.5295
45.90314777634752 11.4675
45.92732705646868 11.4616
45.9515084986045 11.4957
45.97588104735473 11.4581
46.00006683541565 11.4721
46.02425479047904 11.4094
46.04844491420549 11.4014
46.0728262191024 11.3869
46.09702070211635 11.4056
46.12121735879483 11.3588
46.14541619080294 11.3211
46.169806278764455 11.284
46.194009483459034 11.3152
46.21821486849841 11.2863
46.24242243555223 11.2389
46.266821333570014 11.1931
46.29103328674601 11.168
46.31524742696538 11.197000000000001
46.33946375590237 11.1045
46.36387149104216 11.1454
46.38809221957392 11.1088
46.41231514186606 11.1434
46.436540259597464 11.0715
46.460956858999374 11.0781
46.48518638983522 11.049000000000001
46.509418121166966 11.0334
46.533652054678114 11.0223
46.55807754555709 10.9566
46.58231590571962 10.9666
46.60655647313217 10.9268
46.630988654873654 10.9017
46.655233659129024 10.8992
46.67948087571551 10.8957
46.70373030632484 10.8495
46.72817142736393 10.8248
46.752425308428684 10.8119
46.77668140861147 10.8193
46.80093972960865 10.7715
46.82538981736788 10.7388
46.849652602470904 10.7601
46.87391761349769 10.7533
46.8981848521493 10.6877
46.9226439341274 10.6577
46.946915650573224 10.6423
46.97118959976749 10.6582
46.99546578341598 10.6265
47.019933887188216 10.5964
47.04421456235744 10.5585
47.06849747711879 10.5612
47.09278263318286 10.5077
47.11725978640143 10.5269
47.14154944775105 10.4583
47.165841355555656 10.4611
47.1901355115306 10.4346
47.214621741924994 10.4727
47.23892041698887 10.4149
47.26322134538975 10.4015
47.28771440635075 10.4182
47.31201986422527 10.3964
47.33632758061436 10.363
47.360637557241866 10.3387
47.38513974410611 10.300999999999998
47.40945426407847 10.2975
47.43377104948137 10.2722
47.45809010204344 10.2465
47.48260144275502 10.2138
47.506925052572285 10.1939
47.53125093475548 10.1403
47.55557909103813 10.135
47.58009961361992 10.1486
47.60443234110732 10.1339
47.62876734791564 10.089
47.65310463578333 10.0718
47.6776343683373 10.0813
47.7019762413987 10.0669
47.72632040075572 10.0556
47.75066684815169 10.015
47.77520581885936 9.96465
47.799556865477655 9.977039999999999
47.823910205386 10.0014
47.84826584033272 9.962660000000001
47.87281407745551 9.9199
47.89717432569297 9.93781
47.92153687423484 9.86112
47.94609208429692 9.891760000000001
47.97045925671401 9.85065
47.99482873471275 9.83148
48.01920052005013 9.84328
48.04376504619224 9.80107
48.068141469543484 9.79562
48.09252020552573 9.81633
48.11690125590099 9.77741
48.1414751266064 9.73576
48.16586082917454 9.71604
48.19024885144316 9.670160000000001
48.2146391951793 9.684330000000001
48.239222439012764 9.66863
48.26361744916137 9.67608
48.28801478610016 9.64969
48.31241445160131 9.643310000000001
48.337007097209366 9.63022
48.36141144338331 9.62846
48.38581812345755 9.57053
48.41022713920929 9.56985
48.434829215320704 9.55672
48.45924292604658 9.4934
48.48365897780325 9.525360000000001
48.50807737237308 9.48355
48.532688907799276 9.44417
48.55711201168574 9.46158
48.581537463754074 9.42788
48.60615611725119 9.46773
48.63058628942721 9.4325
48.65501881516546 9.374039999999999
48.6794536962573 9.3894
48.70408185970339 9.35524
48.72852147531801 9.35737
48.75296345168211 9.281789999999999
48.77740779059232 9.3087
48.80204549302823 9.3388
48.82649458091802 9.26976
48.85094603676547 9.23937
48.87539986237231 9.2202
48.90004713292306 9.22536
48.92450572200832 9.19445
48.94896668628025 9.160960000000001
48.97343002754588 9.16487
48.99808689542115 9.097760000000001
49.02255501470614 9.10116
49.04702551642794 9.142510000000001
49.0714984023988 9.0861
49.096164896893235 9.0616
49.120642575466796 9.04716
49.145122643748394 9.05212
49.16960510355558 9.02581
49.19428125404938 9.02697
49.2187685210852 8.97387
49.243258185121555 8.96645
49.26794160167084 8.93321
49.2924360839405 8.87668
49.31693296869764 8.89206
49.34143225776915 8.877089999999999
49.36612538195438 8.8764
49.39062950396021 8.85657
49.41513603578346 8.82286
49.4396449792564 8.84613
49.46434784069503 8.83418
49.488861631846454 8.79377
49.513377840166804 8.76008
49.537896467493745 8.74852
49.56260909589029 8.71862
49.587132585683285 8.75724
49.611658500018365 8.71686
49.636186840738596 8.70921
49.66090926588511 8.68946
49.685442483902584 8.64499
49.70997813385706 8.62657
49.734516217597076 8.60481
49.75924846937352 8.57771
49.7837914452858 8.58788
49.80833686055187 8.56288
49.83288471702571 8.54787
49.85762682540054 8.56185
49.882179588965734 8.54153
49.9067347993235 8.51742
49.93129245833333 8.51114
49.95604445336378 8.46117
49.98060703442832 8.44153
50.005172069746266 8.443999999999999
50.02993150438364 8.41417
50.05450147301533 8.40468
50.07907390151433 8.38713
50.10364879174981 8.36785
50.12841816587289 8.348939999999999
50.1529980044635 8.33186
50.17758031042124 8.34437
50.20216508562089 8.28617
50.22694442953363 8.26167
50.25153416817468 8.25403
50.27612638170508 8.282580000000001
50.300721072005196 8.2697
50.325510416102105 8.24067
50.350110084975064 8.23889
50.37471223628208 8.21612
50.39931687190919 8.16313
50.424116246675766 8.18348
50.44872587605249 8.145769999999999
50.47333799543065 8.11403
50.49795260670191 8.12467
50.52276204271512 8.087819999999999
50.54738166295838 8.08761
50.57200378079314 8.081560000000001
50.596628398116835 8.065489999999999
50.62144792604559 8.03815
50.646077567609396 8.064210000000001
50.670709714377715 8.0096
50.69553683636198 7.97929
50.72017401885922 7.960610000000001
50.7448137122895 7.991439999999999
50.76945591856022 7.976719999999999
50.79429318636823 7.92788
50.818940443716784 7.95038
50.84359021965163 7.91855
50.868242516085964 7.910419999999999
50.893089960641895 7.88075
50.917747323549435 7.83436
50.94240721271973 7.84155
50.96706963007175 7.84198
50.99192728239342 7.792330000000001
51.01659478166073 7.837739999999999
51.04126481489051 7.79385
51.06593738400761 7.80892
51.090805275207074 7.752669999999999
51.11548294172845 7.736330000000001
51.14016314993547 7.7210600000000005
51.164845901758845 7.70903
51.18972406304274 7.7123800000000005
51.21441192780656 7.64023
51.23910234200271 7.65538
51.2637953075678 7.65915
51.288683770237945 7.61005
51.31338186432707 7.58846
51.33808251561888 7.61468
51.362978729967345 7.58656
51.387684521509755 7.5975
51.41239287610203 7.55808
51.437103795691165 7.55438
51.46201036644977 7.54027
51.486726441956634 7.51501
51.51144508832545 7.50125
51.536166307509156 7.475810000000001
51.56108326624387 7.44154
51.58580965706056 7.42588
51.61053862657523 7.42201
51.635270176746864 7.41277
51.66019755512065 7.400989999999999
51.68493429268881 7.420139999999999
51.70967361681515 7.38667
51.73441552946465 7.357530000000001
51.759353359237934 7.31435
51.7841004750961 7.324160000000001
51.80885018539685 7.299410000000001
51.833602492111254 7.31668
51.8585508051424 7.296860000000001
51.883308330926425 7.269
51.90806845906181 7.2294
51.932831191525715 7.236739999999999
51.95779001977161 7.2408600000000005
51.98255798721516 7.1844399999999995
52.00732856494335 7.197830000000001
52.03229530577543 7.16397
52.057071130455945 7.16259
52.081849571391054 7.192239999999999
52.106630630568695 7.14003
52.13160794279417 7.086460000000001
52.15639426492067 7.1061
52.18118321127822 7.06071
52.205974783860896 7.06923
52.23096269971011 7.03043
52.255759551287994 7.04321
52.280559035098186 7.0118100000000005
52.30536115314103 7.016610000000001
52.33035970494467 6.982710000000001
52.35516711807904 6.95332
52.37997717147198 6.965310000000001
52.40478986713005 6.92214
52.42979908731974 6.8919
52.454617094216 6.89313
52.47943774942214 6.880660000000001
52.50426105495102 6.8737699999999995
52.529280976059844 6.85503
52.554109609024096 6.85987
52.57894089837482 6.84876
52.60377484613117 6.8385
52.62880550079408 6.82408
52.65364479223379 6.786739999999999
52.67848674816189 6.765639999999999
52.70352547971946 6.73883
52.72837279155837 6.7606
52.753222773982785 6.73807
52.778075429022984 6.74972
52.80312495150885 6.7191600000000005
52.827982978797436 6.73198
52.85284368481815 6.686780000000001
52.87770707160767 6.66467
52.90276741793998 6.660089999999999
52.92763619336701 6.653289999999999
52.952507655698504 6.6536100000000005
52.977381806977576 6.639639999999999
53.00245301017842 6.62153
53.02733256653592 6.55876
53.052214817996074 6.574160000000001
53.077099766608484 6.5349699999999995
53.102181859804446 6.53543
53.127072229988265 6.5616699999999994
53.15196530349892 6.55363
53.17686108239249 6.53174
53.20195409881522 6.47725
53.22685531582556 6.501580000000001
53.25175924441303 6.4488
53.27666588664027 6.462969999999999
53.30176985962693 6.4699800000000005
53.3266819565689 6.41695
53.35159677336455 6.4002300000000005
53.376514312083096 6.41012
53.40162927507703 6.39931
53.42655228516116 6.36156
53.45147802340193 6.35835
53.47660125628886 6.34716
53.50153247842639 6.33772
53.52646643496923 6.33132
53.55140312799818 6.3219199999999995
53.576537409691696 6.30989
53.60147960336152 6.2866599999999995
53.626424539786164 6.26987
53.65137222105307 6.2519599999999995
53.67651758529126 6.23675
53.70147078399681 6.20006
53.72642673383343 6.186719999999999
53.75138543689533 6.23506
53.776541917524526 6.19785
53.801506154876755 6.13975
53.826473151763246 6.11544
53.851442910284916 6.12704
53.87661054126026 6.101380000000001
53.9015858509782 6.14124
53.92656392866066 6.100569999999999
53.95154477641532 6.1137
53.976723591801296 6.042009999999999
54.00171000771266 6.074409999999999
54.02669920004598 6.04822
54.051691170915745 6.046880000000001
54.076881204886796 6.02074
54.101878760928514 6.02637
54.12687910187696 5.9938199999999995
54.152077577768296 5.95452
54.1770835166946 5.98457
54.20209224691339 5.95759
54.22710377055121 5.94104
54.25231352511594 5.93863
54.27733066384342 5.90152
54.30235060239643 5.9160699999999995
54.32737334290836 5.86338
54.35259441062629 5.817080000000001
54.377622783395324 5.821280000000001
54.40265396455061 5.8768
54.42768795623251 5.8384599999999995
54.45292037169559 5.76823
54.477960012857906 5.76618
54.50300247099511 5.72455
54.52804774825457 5.75641
54.55329154616743 5.7028099999999995
54.57834249018678 5.67506
54.6033962597977 5.672630000000001
54.6284528571545 5.64341
54.653708072335164 5.63125
54.67877035378786 5.6340699999999995
54.70383546947698 5.6235
54.72890342156389 5.57231
54.7541700889442 5.53045
54.77924374251975 5.5912
54.8043202390049 5.52473
54.82959552413022 5.46788
54.8546777351945 5.45985
54.87976279569621 5.41981
54.90485070780914 5.48766
54.930137506558005 5.38513
54.95523115074295 5.4029
54.98032765308844 5.39318
55.005427015775496 5.378419999999999
55.03072536339621 5.349019999999999
55.05583047570572 5.32616
55.080938454927676 5.29632
55.10604930325027 5.3574
55.131359235107396 5.36888
55.15647585066083 5.28333
55.181595341907496 5.23374
55.20671771104285 5.1597599999999995
55.232039262617704 5.16139
55.25716741665048 5.14262
55.28229845518636 5.16079
55.30743238042802 5.0825
55.33276558731939 5.10198
55.357905315183636 5.04756
55.383047936390035 5.06064
55.40819345314859 5.059830000000001
55.433538351073295 4.99006
55.458689688238415 4.96191
55.483843927614096 4.93628
55.509197623043605 4.897530000000001
55.53435769621134 4.86529
55.55952067826466 4.90292
55.5846865714265 4.84635
55.61005202069737 4.8731599999999995
55.63522376553902 4.8531
55.66039842818645 4.80044
55.68557601087004 4.7814
55.7109532500271 4.73347
55.73613670233794 4.73341
