TT I
1.2716486653135266 7.0631
1.2939594142134223 7.09158
1.3162702121660406 6.62458
1.3385810600174564 6.81866
1.3608919586137629 6.52342
1.383202908801069 6.47682
1.405513911425503 6.23692
1.4278249673332093 6.171209999999999
1.4501343378461518 6.2565800000000005
1.4724455028545926 6.2248
1.4947567236847858 6.16075
1.517068001182951 5.78225
1.5393793361953272 5.3529800000000005
1.5616907295681737 5.40731
1.5840021821477681 5.50931
1.60631369478041 4.36233
1.6286252683124185 4.78238
1.6509369035901333 4.6100699999999994
1.6732468618895553 5.118580000000001
1.695558623192809 5.228330000000001
1.7178704487808514 4.92018
1.7401823395001077 5.288869999999999
1.7625012545597203 5.17965
1.7848028405262486 4.94493
1.8071218901122095 4.51644
1.8294236121921872 4.70425
1.8517427996910911 4.98853
1.8740620574440425 4.92139
1.8963639900671978 5.18409
1.9186833908139995 4.75588
1.9409854680117449 4.4412400000000005
1.9633050151394713 4.65102
1.9856246367570705 4.9282
2.0079269371922672 4.8794699999999995
2.03024671027244 4.347230000000001
2.0525491637446027 4.826890000000001
2.074869091674931 4.27875
2.097171701569106 4.91446
2.1194917877373847 5.11275
2.141811954326636 5.59448
2.164114805233074 5.32733
2.186435135143035 5.85615
2.208738150935709 12.379000000000001
2.231058647554722 23.6471
2.2533792288321184 18.2163
2.275682498336085 9.095989999999999
2.298003251406138 5.8124
2.3203066942619714 5.79148
2.3426276225136022 5.68546
2.3649486396617507 6.50087
2.387252348930071 6.13389
2.4095735463442893 6.22114
2.4318774374315884 6.3143
2.4541988185014043 6.88618
2.476502894794693 7.291339999999999
2.498824462909887 6.7255
2.521146125856138 7.47728
2.5434504863470337 7.61976
2.5657723414244717 8.20706
2.588076895590662 8.90335
2.610398946189713 8.539819999999999
2.6327210958598384 8.53129
2.6550259469304716 8.28267
2.6773482972090137 8.45146
2.6996533504259 8.62757
2.7219759047039602 8.08531
2.744298562293959 8.31829
2.7666039251246595 8.186689999999999
2.7889267918020164 8.06473
2.8112323652516555 7.80325
2.833555444408179 9.0774
2.8558786311183852 8.717239999999999
2.8781845268938557 8.9157
2.9005079311721484 9.59164
2.9228140460410397 9.53384
2.9451376712799635 9.10951
2.967444008632326 9.78187
2.9897678582247247 10.1793
3.0120918213106695 11.0089
3.0343984987899373 11.2357
3.0567226913198637 11.5057
3.079029599759726 12.2526
3.101354025127254 12.694
3.123678568232338 12.5266
3.145985829517914 13.0852
3.16831061055229 13.6774
3.1906181112775593 14.6915
3.212943133635653 14.8087
3.2352682779763207 15.1496
3.2575761442691227 14.9814
3.2799015350264273 15.9139
3.302209649240067 16.2849
3.3245352898092655 16.7728
3.3468436553365257 17.3433
3.369169549113219 17.8603
3.3914955708171384 18.914
3.413804319727358 18.6468
3.4361305997334863 18.8945
3.4584396084414553 19.0942
3.4807661501462652 20.4102
3.503092824025881 20.6785
3.5254022288463154 21.0676
3.5477291695206588 21.6073
3.5700388426251948 22.4518
3.5923660534916446 23.4064
3.6146934007816114 35.9093
3.637003482731501 75.3884
3.6593311053109985 82.2439
3.681641464033634 49.8402
3.7039693653009733 29.1937
3.726297407241705 25.8064
3.7486081875460804 25.7616
3.7709365132734978 25.8332
3.793247578841633 25.8464
3.8155761917550093 26.7288
3.8378875459837216 26.623
3.8602164494827234 26.8199
3.882545499606844 28.1406
3.9048572932539183 28.5829
3.9271866390645718 28.6837
3.9494987298666713 29.4846
3.971828374764527 29.9867
3.9941581705403255 30.6548
4.016470713506008 31.1787
4.038800813471445 31.5282
4.061113662089144 31.9688
4.0834440696459176 33.5369
4.105774632334751 33.5684
4.128087945865126 34.2428
4.150418821249301 35.217
4.172732448931298 35.9744
4.195063640413578 37.7946
4.2173775856475215 40.6057
4.239709096631102 67.6841
4.262040768704612 196.364
4.284355196706267 258.652
4.306687193387355 171.729
4.329001947444346 71.9401
4.35133427213731 46.0037
4.373666762177566 43.4172
4.395982011761091 43.9027
4.418314834921175 45.1582
4.44063041906622 51.7882
4.4629635787515625 60.3382
4.4852969080429785 60.4617
4.5076130004776225 52.5769
4.529946671403969 50.0163
4.552263106909177 50.003
4.574597122877047 50.6464
4.596931312711224 51.6875
4.619248269273446 52.9923
4.6415828092605835 53.957
4.663900117405352 54.7822
4.686235010953232 56.1663
4.708552674085913 57.0485
4.730887924602802 58.7119
4.753223354952695 60.1466
4.775541557023902 61.6305
4.797877349456786 62.9427
4.820195915032126 64.9505
4.842532072957498 66.4891
4.864868414979744 68.6503
4.88718753227192 70.8287
4.909524244902505 72.6471
4.931843734218147 74.1636
4.954180820867835 76.7497
4.976518095879839 79.7191
4.998838149695359 82.132
5.021175803844231 85.7667
5.043496238205739 88.4793
5.065834274903528 93.0332
5.088172504230693 97.2403
5.1104935158799565 103.28200000000001
5.132832132875765 121.40899999999999
5.155153533596801 157.241
5.1774925416746225 190.793
5.199814334878411 320.893
5.2221537374521505 888.153
5.244493338631803 2639.42
5.266815727034316 7809.47
5.289155727832427 13626.7
5.311478517248165 9001.22
5.333818921080011 2539.2
5.356159527788849 447.163
5.3784829252032536 168.442
5.400823940070432 136.81799999999998
5.423147747031976 123.67200000000001
5.445489173474152 115.055
5.467830807066149 109.795
5.490155234831516 106.72399999999999
5.512497285125229 103.458
5.534822130975162 101.521
5.557164601388673 99.6029
5.579489868738879 97.6451
5.601832762690846 96.59700000000001
5.6241758697774475 95.4676
5.646501775867269 94.8709
5.668845311622074 93.4798
5.691171647754637 92.6914
5.713515615597765 91.6691
5.735859800852677 90.927
5.758186788542988 90.2654
5.780531411018185 90.5996
5.802858837297399 90.0188
5.825203900414495 89.7877
5.8475491852224 90.339
5.869877275883075 90.5608
5.892223006467101 91.415
5.914551544266608 92.2975
5.936897724049891 95.0034
5.959244129804903 100.37
5.981573344815301 117.94
6.0039202049061 195.55200000000002
6.026249875609095 415.87800000000004
6.04859719346037 897.658
6.070927323278297 2203.54
6.093275102315365 4545.74
6.115623113320588 5178.88
6.137953938319995 3011.64
6.160302415650845 813.2660000000001
6.182633708324452 194.245
6.2049826554078376 105.139
6.227331838745022 88.1358
6.249663839443684 82.0729
6.27201349767565 79.828
6.294345974611799 84.2055
6.316696111167083 92.5679
6.339046488263839 88.7841
6.361379686074702 76.8016
6.383730546639482 70.5168
6.406064229255215 67.51100000000001
6.428415576718203 67.1326
6.450749747566656 66.4943
6.47310158535871 65.3902
6.495453669698332 64.5618
6.517788579421056 63.4832
6.540141159237969 62.4615
6.562476565766648 62.3738
6.5848296444934045 62.0693
6.607182974060425 61.7006
6.6295191323281015 61.2634
6.651872965955752 64.3234
6.6742096296068985 85.1623
6.6965639707294615 120.708
6.71891856698715 119.62799999999999
6.741255995248479 85.66799999999999
6.763611104154477 65.0763
6.785949046381137 58.8511
6.808304671371482 57.3722
6.8306605557940046 57.6546
6.852999275508618 56.7108
6.875355681171544 56.1872
6.897694923437771 55.9015
6.92005185377892 55.7515
6.9423916220322655 55.3819
6.964749080490181 54.9073
6.987106804399774 54.8744
7.009447368180821 55.0401
7.031805625367033 54.4608
7.054146723727803 54.295
7.076505517631004 54.3762
7.098864581288365 54.4373
7.121206488070854 54.0471
7.143566093607822 54.1825
7.165908543567245 54.4516
7.188268694426048 54.3786
7.2106291193438095 54.5794
7.232972390625943 55.7367
7.255333366030969 66.2024
7.277677189091925 108.939
7.300038718428332 144.532
7.322400526130865 121.78
7.344745183422596 80.056
7.367107550224791 59.6062
7.389452767901992 54.9155
7.411815697249891 54.5028
7.434161478756298 53.7362
7.456524974096713 53.5989
7.478888753837185 53.5251
7.501235387657368 53.7864
7.523599738562711 54.0863
7.545946944825532 54.1598
7.568311870344528 54.4982
7.5906770845765665 54.506
7.613025156078678 55.648
7.635390950099687 56.5181
7.657739602662809 55.8674
7.680105979923558 55.1336
7.702472650212829 55.3455
7.724822180948224 55.4507
7.747189439655568 55.1956
7.769539560075357 55.2162
7.791907410653562 55.8938
7.81425812420825 55.43899999999999
7.836626570110925 55.8036
7.858995315087906 56.5767
7.881346924933401 57.108000000000004
7.903716270417482 57.1962
7.926068482028405 57.8211
7.948438431475253 58.5493
7.9708086843180235 58.9039
7.993161805171116 59.4197
8.015532667162402 59.5686
8.037886398416653 60.5861
8.060257873014221 60.9695
8.082629655331942 61.4541
8.104984308787587 62.5578
8.127356708900503 65.4438
8.149711981398308 70.4918
8.172085002766314 72.1271
8.194458336181368 69.9891
8.216814543847752 67.7076
8.23918850371002 68.1854
8.26154533906492 69.3009
8.283919928836452 70.8056
8.306277395339652 71.5826
8.328652618483376 73.1744
8.351028159736202 74.9959
8.373386579575245 77.0897
8.395762759396959 78.619
8.418121819038275 83.2056
8.440498640894003 94.5722
8.462875785192262 106.86
8.485235811156207 119.76899999999999
8.507613602688501 158.382
8.529974277114228 237.53799999999998
8.552352719347912 359.712
8.574731488360351 610.7769999999999
8.59709314210385 1185.73
8.619472567021075 1928.78
8.64183487789147 2269.11
8.664214962183097 1711.33
8.686577933647762 858.9639999999999
8.708958680784317 309.372
8.731339760774953 143.234
8.753703729764451 104.902
8.77608547780821 95.7852
8.798450116065078 92.984
8.820832535634787 90.1601
8.843215292401656 89.0939
8.865580941199045 87.5955
8.887964374703538 87.1621
8.910330701447199 87.8798
8.932714815164482 89.7946
8.955099270424924 88.6002
8.977466620733543 85.8749
8.999851761421976 83.3754
9.022219798361645 82.2278
9.04460562795561 81.694
9.066991803441677 81.5079
9.089360876979615 81.7942
9.111747746589993 81.3837
9.13411751544971 80.5394
9.156505082664324 80.2893
9.178875550323522 80.6175
9.20126381862328 80.608
9.223652438908596 81.3338
9.246023961427412 80.9196
9.26841328802173 80.6084
9.290785518039224 80.3757
9.313175554425882 81.2399
9.335565947154315 81.262
9.357939245086508 81.5599
9.380330352834827 81.7057
9.40270436697103 82.0219
9.425096193225055 81.7673
9.447488380180165 82.5594
9.469863475295412 82.7966
9.492256385987508 83.182
9.514632206018318 83.624
9.537025843935714 84.1572
9.559402392368193 84.4495
9.581796761000229 85.8458
9.604191496441521 86.881
9.626569144158516 90.0907
9.648964615551032 93.7657
9.671343000390081 95.1468
9.693739211225699 93.3401
9.716135793237463 91.8726
9.738515290448102 91.7095
9.760912617143402 92.1277
9.783292860202891 93.53
9.805690935076182 95.2495
9.828089385495742 96.3165
9.850470754023561 97.8286
9.872869957865444 104.836
9.89525208097539 117.166
9.917652041736662 127.876
9.940052382417589 129.725
9.962435644102392 137.903
9.984836746950979 170.31799999999998
10.007220771957746 228.97799999999998
10.029622640473708 321.882
10.052007432299963 492.657
10.074410069984072 798.846
10.096813093716005 1293.29
10.119199042482517 1846.96
10.141602840636468 1999.57
10.163989564971628 1473.29
10.186394141051062 808.454
10.208799107559706 329.0
10.231187001965623 159.899
10.253592751657669 117.77799999999999
10.275981430388155 109.289
10.298387966769793 109.007
10.320794897965431 111.04799999999999
10.343184759907361 109.531
10.36559248305461 105.35
10.387983138083852 102.75
10.410391656691655 105.512
10.432800574501677 115.93
10.455192425893369 131.202
10.47760214443012 155.921
10.499994797678786 198.264
10.522405320453982 283.085
10.54479877906917 411.309
10.567210109595656 537.325
10.5896218454736 599.087
10.612016518879773 491.63800000000003
10.634429067781074 314.30400000000003
10.656824555333241 179.611
10.679237920773568 114.12100000000001
10.701651695961992 92.2587
10.724048411481384 86.9398
10.746463008485165 84.6527
10.768860546937125 83.2995
10.791275969274796 81.4202
10.81369180576079 80.4469
10.836090585366925 79.3759
10.858507252467449 78.3126
10.88090686379991 77.6328
10.903324365036394 76.8132
10.925724811614439 76.5861
10.948143150509463 77.3914
10.970561909719066 76.7976
10.992963615930844 75.2607
11.015383218085756 73.6984
11.037785768347074 72.1728
11.06020621697282 71.2513
11.082627090322113 70.6772
11.105030913430326 70.3936
11.12745263854165 71.06
11.149857314510728 73.6752
11.172279894912576 78.0392
11.194702904450653 78.4116
11.217108866490921 74.9697
11.239532736615194 71.2961
11.26193956033512 69.6777
11.284364294577085 68.4984
11.306789462371718 66.9264
11.329197585398376 66.1987
11.351623622610898 65.6373
11.37403261614354 64.7232
11.396459526308487 64.6527
11.418869393879497 64.21300000000001
11.441297180532617 64.084
11.463725406927658 63.5554
11.486136592353875 63.3463
11.508565700543707 63.9486
11.530977768845315 65.472
11.553407762368774 65.85300000000001
11.575838200059769 65.4893
11.598251599479612 63.7995
11.620682927815501 62.7935
11.64309721895548 62.6239
11.665529441478206 62.1329
11.687962112597958 61.6785
11.710377748130886 62.1168
11.732811318753434 61.6834
11.755227854859067 61.782
11.777662328529495 61.5015
11.800079768750786 61.2916
11.822515149015453 61.4196
11.844950984084935 61.6706
11.867369787303163 61.0813
11.889806534289491 61.3205
11.912226250487029 61.4973
11.934663912939751 61.6264
11.9571020346363 61.7838
11.979523127133968 61.8532
12.001962169624331 62.6219
12.024384183972964 63.5318
12.046824150809913 66.3068
12.069264581333726 70.711
12.091687985297767 76.4755
12.11412934550045 85.4612
12.136553680195208 100.22200000000001
12.158995973632788 125.8
12.181438735204349 157.207
12.20386447284199 193.578
12.226308172985636 218.27
12.24873485024193 199.229
12.271179492516982 157.66899999999998
12.293607112949127 117.448
12.316052700916226 87.8953
12.338498763250042 73.4738
12.360927805303868 67.1944
12.383374818673879 64.7074
12.405804812803074 63.0989
12.428252780773262 63.0637
12.45070122756722 63.1265
12.473132656675375 62.8641
12.49558206341869 62.9761
12.518014453510101 63.2595
12.540464823770117 63.2349
12.562915677315177 63.4748
12.58534951575545 64.1844
12.607801338171472 65.9388
12.630236146511358 69.6371
12.652688941369085 73.5248
12.675124723177234 74.0156
12.697578494048786 71.0536
12.720032754458185 68.115
12.742470003354093 66.7416
12.764925245138771 66.5874
12.787363476431278 66.6554
12.809819703166806 66.9686
12.83227642391173 67.743
12.854716135692716 68.0484
12.877173846755147 69.6002
12.899614549869717 69.9099
12.9220732548287 70.7977
12.94453245827299 71.1369
12.966974655289818 71.8469
12.989434858002571 72.7998
13.011878055298721 73.4387
13.034339260862497 74.7352
13.056800969391883 75.842
13.079245674017244 77.8256
13.101708390774869 80.1003
13.12415410463411 86.7912
13.146617833206086 97.5884
13.169064559883248 107.98299999999999
13.191529303857127 121.59200000000001
13.213994557076367 143.509
13.236442809902437 180.613
13.258909083908291 238.988
13.28135835851934 312.683
13.30382565690295 391.459
13.326293469022952 442.14300000000003
13.348744283242008 423.20099999999996
13.371213125129904 336.39
13.39366497011003 234.58
13.416134845360597 153.39700000000002
13.438605238843131 114.385
13.46105863690397 100.81200000000001
13.483530069144786 102.08
13.505984506951902 107.29299999999999
13.528456981549432 115.917
13.550929978879088 129.752
13.573385983253365 153.635
13.595860028340867 193.74900000000002
13.618317081455832 254.916
13.64079217790333 318.992
13.663250283359057 369.49
13.685726434770173 380.542
13.708203115221277 328.944
13.730662806148091 238.918
13.75314054697177 164.893
13.775601299246777 115.193
13.798080104050406 91.0076
13.820559442405358 82.3982
13.843021793671388 79.8741
13.865502201420897 78.4506
13.887965623051947 77.8202
13.910447103807167 76.6579
13.932929122629764 75.4776
13.955394156785959 75.312
13.977877254034569 74.4246
14.000343367582113 73.6309
14.022827546871707 72.8188
14.045294743423524 72.1082
14.06778000837062 71.7112
14.090265817715476 71.4317
14.112734645763819 71.167
14.13522154619454 71.0447
14.157691466286913 70.9795
14.180179461423874 70.5955
14.202668005486178 69.9066
14.22513957064374 69.3362
14.247629214846473 69.1429
14.270101881097517 68.8161
14.29259262906496 68.9894
14.315083930490205 69.6513
14.337558255389705 69.6517
14.360050666019726 69.4934
14.382526101071944 68.9068
14.405019624534942 68.0631
14.427513705993134 67.5858
14.449990813291825 67.7687
14.47248601302899 67.4486
14.49496423954951 67.596
14.517460561197822 67.52
14.539939910570322 67.2139
14.562437357763558 67.6798
14.58493536931253 68.8266
14.607416409993311 69.4615
14.62991555254159 70.1662
14.652397725157423 69.6881
14.674898002342799 69.3109
14.697398848433282 69.058
14.719882725991326 69.8468
14.74238471217934 70.6707
14.764869730765593 73.7083
14.787372860692983 76.8961
14.809876564079925 81.289
14.83236330125751 86.3936
14.854868153850365 94.5653
14.877356041159485 108.631
14.899862046604186 128.357
14.922351087688757 156.186
14.944858249632887 191.315
14.967365991421232 219.856
14.989856770231246 232.44
15.012365673994204 215.743
15.03485761569738 177.856
15.05736768508665 135.747
15.07987833888692 104.154
15.102372032001655 84.0276
15.124883856909658 73.7539
15.14737872204565 70.1624
15.169891721717274 69.0842
15.192405310371893 68.8816
15.214901940621196 69.0007
15.237416709527137 69.1134
15.259914520936249 69.2962
15.282430473753607 68.39399999999999
15.304947020131227 67.1004
15.327446610371178 66.3902
15.349964346154254 65.7105
15.372465126703139 65.4771
15.394984055556009 65.1057
15.417486030076159 65.0495
15.44000615566487 64.6798
15.462526881230803 64.8171
15.485030653812652 64.9569
15.507552581617434 64.7608
15.530057557334603 64.8757
15.55258069104857 64.793
15.575104429329837 64.6197
15.597611216864632 64.4729
15.620136166564563 64.7686
15.6426441664095 65.6793
15.665170331202765 67.7489
15.687697105158826 70.6623
15.710206930593545 73.5835
15.732734925158933 77.4923
15.755245972089478 83.2029
15.77777519094324 92.0863
15.800287463046663 105.771
15.822817909869592 126.865
15.84534897229804 151.71200000000002
15.867863089299354 176.283
15.890395385222186 192.98
15.912910736597423 195.696
15.935444269699861 176.71400000000003
15.957978423016485 148.122
15.980495633101265 113.667
16.003031029129367 88.94
16.02554948280019 72.3559
16.048086125229432 65.3526
16.070623392487107 63.2022
16.09314371869582 62.6205
16.11568223789321 61.7773
16.13820381691126 60.986999999999995
16.160743591742527 59.9869
16.183283996022084 59.2919
16.205807461423195 58.218
16.228349126881973 57.7318
16.25087385432698 57.8226
16.27341678466365 57.1332
16.29594277784926 57.0242
16.31848697676433 57.3066
16.341031811604868 57.5528
16.36355971058487 57.6229
16.3861058195587 57.4356
16.40863499352978 56.1756
16.431182380342005 55.4898
16.453730407713202 55.0624
16.476261501364792 54.7618
16.498810812136167 54.2937
16.52134319004079 54.5047
16.54389378792203 54.5292
16.566445031001553 54.2167
16.588979342490088 54.0495
16.61153187824822 53.9857
16.634067483263312 53.9362
16.656621315414416 53.7723
16.679175797408888 53.4804
16.701713349928728 53.5009
16.72426913389191 53.799
16.74680798922351 53.6339
16.76936507887444 53.8329
16.791905240734874 53.7838
16.814463639794468 53.6495
16.837022695210294 53.9333
16.859564824093756 54.0845
16.882125194503903 54.6771
16.904668639217885 55.133
16.927230328348003 55.3305
16.949792678493612 55.4859
16.972338104193863 55.0053
16.994901778652235 54.6798
17.017448529496576 54.621
17.040013531998152 54.7953
17.06257920018044 55.2481
17.0851279459922 55.7907
17.107694947817667 56.7233
17.130245028099072 57.505
17.15281336730298 58.7705
17.17536478578733 60.4289
17.19793446610687 62.5756
17.220504818648422 65.8245
17.243058251703697 69.3847
17.265629950971032 74.2231
17.288184731571736 79.7513
17.310757781306908 83.4741
17.33333150794385 83.0873
17.355888317140174 80.8388
17.37846339986244 74.6943
17.401021565958885 67.7432
17.42359800851343 62.9368
17.44617513265564 59.9867
17.468735341390783 58.6105
17.491261035594565 57.8618
17.51396340099364 57.7119
17.536490463869136 57.7717
17.559018209820174 57.9896
17.58154663977963 57.9865
17.604251766089718 58.2017
17.626781572227713 58.3761
17.64931206518155 58.6665
17.671843245885103 59.2479
17.69455114821572 59.5518
17.717083712612634 59.5641
17.739616967569667 59.8147
17.762150914021706 60.3101
17.78486160749854 60.1074
17.807396945166804 60.6922
17.829932977143503 61.5063
17.85246970436452 63.0833
17.875183204129467 65.0011
17.897721330097664 66.5993
17.920260154126645 68.8216
17.942799677153296 71.8655
17.9655159983646 75.5148
17.988056927677544 80.81
18.010598558807683 88.7969
18.033140892692916 99.5949
18.05586005052525 112.103
18.07840379824407 124.934
18.10094825154059 134.806
18.12366954819864 139.356
18.146215420998306 136.49200000000002
18.16876200220057 125.104
18.191309292745153 110.684
18.214033452627167 96.1484
18.236582170236648 86.561
18.259131600016456 83.0049
18.281681742907335 84.5887
18.304408781233683 90.1229
18.32696035875955 96.2183
18.349512652227624 101.835
18.372065662579683 106.12299999999999
18.394795594587553 105.934
18.41735004715306 100.26899999999999
18.43990521943684 91.5743
18.46246111238171 81.9714
18.485193953325208 73.2646
18.507751296070428 66.9857
18.530309362314178 63.7163
18.552868153000343 62.0107
18.57560391815056 60.7864
18.59816416623245 60.4297
18.620725141597372 60.0181
18.643286845190268 59.5238
18.666025549835414 59.0739
18.688588718427933 58.5
18.711152618092243 58.5142
18.73389353884365 58.2463
18.75645890921984 57.6746
18.77902501351406 57.6392
18.801591852673102 57.3553
18.824335739722738 56.7768
18.846904057212626 56.8411
18.8694731124168 56.7061
18.89204290628315 56.6426
18.914789774966803 56.3691
18.937361054791623 56.1102
18.959933076131318 55.9748
18.982505839934877 55.9086
19.00525570560582 55.9189
19.027829963004184 55.7699
19.05040496572238 56.1111
19.072980714710468 55.9345
19.095733592739563 55.934
19.11831084296757 56.248000000000005
19.140888842324735 56.6545
19.16346759176222 56.7644
19.18622349753803 57.1291
19.208803755869358 58.282
19.231384767143577 59.1794
19.253966532312948 60.9752
19.276725481241822 63.2788
19.29930876296784 65.7784
19.3218928014549 69.3246
19.34465404436217 72.3461
19.36723960516257 75.572
19.389825925592426 75.7017
19.412413006605938 73.7403
19.43517731967805 69.4581
19.457765930683355 64.8948
19.48035530514408 60.4639
19.50294544401556 56.9201
19.525712842708348 55.0223
19.54830451925909 53.8726
19.570896963095727 53.0509
19.593490175174704 52.8988
19.616260674962184 52.9864
19.638855432416964 52.6306
19.661450960992624 52.6788
19.68404726164677 52.6579
19.706820878021247 52.3951
19.729418731756834 52.7632
19.752017360452857 52.3753
19.77461676506804 52.5763
19.797393513540218 52.519
19.819994478951667 52.8683
19.84259622316767 53.4361
19.8651987471481 53.8308
19.887978643247177 54.0532
19.91058273574792 54.3605
19.933187610901943 55.15
19.955969879466828 56.341
19.97857632894404 57.9289
20.00118356396599 59.7746
20.023791585494575 61.8593
20.046577028914875 64.7536
20.069186632506966 67.3309
20.091797025500632 68.8704
20.114408208858933 69.0721
20.137196842715273 68.1803
20.159809615886765 66.2823
20.18242318232135 63.1376
20.20503754298326 61.4359
20.227829382875154 60.6708
20.250445341109344 61.0951
20.27306209647285 62.4214
20.29567964993108 64.0145
20.31847471147704 65.0729
20.34109387027612 65.5759
20.363713830075454 64.765
20.386334591841646 62.5686
20.409132890679302 59.5583
20.431755265564437 56.2226
20.454378445325528 53.784
20.477002430930366 52.199
20.499803982716553 51.0759
20.522429589228004 50.2896
20.54505600449589 49.9847
20.567683229489194 49.8406
20.590488049900088 49.5319
20.61311690359731 49.3524
20.63574656993626 49.2525
20.658553853717297 48.9682
20.681185154618298 48.5013
20.703817271080066 48.6163
20.72645020407368 48.2511
20.749260783967177 48.0895
20.771895359337133 48.1313
20.794530754161617 48.113
20.817166969412938 47.9975
20.83998086114876 48.0425
20.86261872660049 47.7989
20.885257415405402 47.7291
20.90789692853701 47.6165
20.930714147864748 47.6248
20.953355319030678 47.8452
20.97599731745334 47.8492
20.99864014410749 47.6276
21.021460706796564 47.743
21.044105199328826 47.8415
21.06675052302631 48.1173
21.089396678865015 48.1587
21.112220600704806 48.4962
21.134868430275347 48.978
21.15751709492456 49.1744
21.180166595629693 49.4862
21.202993892429635 50.1639
21.22564507473034 50.5224
21.24829709602816 50.7477
21.27112693608965 50.7345
21.293780644891275 50.4208
21.316435195634053 49.6298
21.339090589297417 48.9064
21.361923832041875 48.3862
21.384580921090404 47.9179
21.407238856007325 47.4469
21.429897637773326 47.387
21.45273429906592 47.4341
21.475394784108598 47.4987
21.498056118951983 47.4609
21.520718304578022 47.6913
21.543558400304388 47.7588
21.566222297108816 47.867
21.58888704765135 48.0811
21.61155265291521 48.2862
21.63439619898156 48.7611
21.657063523335786 48.8161
21.67973170537063 49.4064
21.7024007460706 49.893
21.72524775840385 50.5682
21.747918526116475 51.6885
21.770590155457388 52.9431
21.79326264741238 54.6917
21.816113141960237 56.6775
21.838787368860547 58.9412
21.861462461341976 60.9821
21.884315579735777 62.9164
21.90699241312273 63.912
21.92967011506078 64.1304
21.95234868653799 63.251999999999995
21.9752053151131 61.3824
21.997885635446785 59.2163
22.020566828293532 57.699
22.04324889464272 56.115
22.066109049404666 55.201
22.088792872571794 55.2343
22.111477572219204 55.5905
22.1341631493376 55.4675
22.157026846313123 55.0528
22.179714188221507 53.9215
22.202402410582668 52.6365
22.22509151438863 51.2357
22.24795876962584 50.0544
22.270649646204486 49.2911
22.293341407213727 48.6168
22.316034053646906 48.3328
22.338904883215342 48.1943
22.36159931041458 48.0878
22.38429462602756 48.0202
22.40699083104897 47.8487
22.429865251039757 47.8658
22.452563244831367 48.0333
22.47526213102522 47.9958
22.49813925616515 47.7662
22.520839937143307 47.7765
22.543541513520587 47.8509
22.56624398629403 47.4877
22.589124730075895 47.4327
22.611829005656723 47.8267
22.63453418063466 47.9041
22.657240256008077 47.951
22.680124634582935 47.9765
22.70283252079775 48.3542
22.725541310413075 48.5537
22.74825100442868 48.7287
22.771139033969575 49.3956
22.79385054687155 49.4897
22.81656296718292 50.1788
22.83927629590484 51.1356
22.862167992606945 52.2093
22.88488314827121 53.4088
22.907599215359284 54.7356
22.93031619487366 56.0446
22.953211574954405 56.7839
22.975930389478226 57.521
22.998650119445763 57.3832
23.02137076586092 56.3563
23.044269845560063 54.7314
23.06699233506288 52.8546
23.089715744034912 51.1182
23.112617610931565 49.6829
23.135342869061212 48.7037
23.158069049684816 48.0009
23.1807961538087 47.8209
23.20370174880544 47.8786
23.226430710184808 47.7789
23.249160598093425 47.8967
23.271891413539002 47.9785
23.294800752937697 47.9762
23.31753343374794 48.2475
23.340267045128353 48.1761
23.36300158808808 48.5394
23.38591468821339 48.7563
23.408651104658304 49.2818
23.431388455719986 49.886
23.454126742409 50.6446
23.4770436196085 51.9021
23.499783787914662 53.483999999999995
23.522524894889884 54.6344
23.54526694154616 55.7515
23.56818761219047 56.9182
23.59093154860734 57.37
23.613676427751283 57.3183
23.636422250635754 56.0689
23.659346731118656 54.236000000000004
23.68209445191868 52.1816
23.704843119509587 49.968
23.72759273490623 48.1959
23.750521041644767 47.1175
23.77327256312355 46.2537
23.796025035462787 45.6538
23.818956224555475 45.2345
23.841710609113413 45.1659
23.86446594758979 44.864
23.887222241002014 44.5489
23.910157285144578 44.398
23.932915498962537 44.3759
23.955674670778713 44.0882
23.978434801611975 44.0479
24.001373717286125 43.8696
24.024135776723917 43.6423
24.046898798245582 43.6269
24.06966278287146 43.632
24.092605586582614 43.3817
24.115371508023642 43.3863
24.1381383956401 43.2911
24.16090625045381 43.18600000000001
24.183852958731244 43.1789
24.206622758582608 43.0821
24.229393528706886 42.8804
24.252165270127392 42.9679
24.27511589952438 42.8035
24.297889594216997 42.5761
24.32066426328598 42.3936
24.34343990775613 42.4823
24.36639447485003 42.4066
24.38917208083877 42.3782
24.41195066531332 42.1963
24.43490819850244 42.3392
24.457688750692377 42.2466
24.48047028445616 42.2073
24.503252800821233 42.4439
24.526214300784112 42.4228
24.548998793132213 42.2318
24.57178427117417 42.2802
24.59457073593893 42.3368
24.617536219319863 42.2605
24.64032466834748 42.1882
24.663114107195035 42.0034
24.685904536893013 41.7735
24.708874020360852 41.7522
24.731666442613744 41.6844
24.754459858818787 41.5048
24.777254270007962 41.574
24.80022777025625 41.473
24.82302418230472 41.4524
24.845821592443674 41.5737
24.86862000170663 41.5208
24.891597535453727 41.2938
24.914397953892728 41.5016
24.93719937456671 41.4516
24.96000179851076 41.5894
24.98298338249997 41.8038
25.00578782394922 42.0574
25.028593271784167 42.0671
25.05157790644186 42.4077
25.07438537804115 42.4844
25.097193859145293 42.9053
25.120003350792075 43.1934
25.142992065061257 43.4562
25.165803588823465 43.6011
25.18861612625217 43.8793
25.211429678386736 43.9569
25.234422489079968 44.0191
25.257238081693636 43.9982
25.280054692141732 44.1762
25.3028723214652 44.2288
25.325869245420463 44.1923
25.348688923599397 44.263999999999996
25.371509623787006 44.0783
25.394331347025812 43.8146
25.41733240110666 43.16
25.440156181590016 42.4115
25.46298098826268 42.0665
25.48580682216873 41.3708
25.50881202326435 41.0153
25.53163992281684 40.6063
25.55446885274561 40.3318
25.577298814096377 40.0646
25.600308179121807 40.0148
25.623140214533745 40.150999999999996
25.64597328451537 40.0226
25.66898578564376 39.7386
25.691820936010206 39.8405
25.714657124097695 39.7497
25.737494350954734 39.7852
25.760511045684957 39.5466
25.783350361364224 39.7879
25.806190718969255 39.7846
25.82903211955018 39.8082
25.852053024868923 39.8904
25.874896522722523 39.9364
25.897741066713106 39.7994
25.920586657892454 39.9567
25.943611790812668 40.1028
25.966459487728237 40.1625
25.989308234998564 40.2389
26.01215803367705 40.7684
26.03518741123814 40.8433
26.05803932412957 41.1113
26.080892291600094 41.081
26.10374631470478 40.9573
26.12677995397268 40.9649
26.14963609978026 40.9817
26.172493304397875 40.5525
26.19535156888223 40.2585
26.218389486949604 39.8875
26.241249882640123 39.624
26.26411134137826 39.4842
26.28715248187403 39.543
26.31001607820869 39.3493
26.3328807407756 39.2097
26.35574647063438 39.4605
26.37879191991473 39.3686
26.401659795896734 39.4332
26.424528742360263 39.5497
26.447398760366614 39.6703
26.470448535598294 39.7633
26.49332070826805 39.9534
26.516193955675355 40.4382
26.53906827888316 40.6998
26.562122397260108 40.7887
26.584998883685063 41.0773
26.607876449110325 41.3116
26.63075509460056 41.6061
26.65381357334404 41.667
26.67669439061878 41.5816
26.699576291163382 41.2565
26.722459276044212 41.074
26.745522132402975 41.0187
26.768407297649354 40.6544
26.791293550442003 40.2124
26.814180891848974 40.0523
26.837248143099337 39.7757
26.860137673466657 39.7309
26.88302829566349 39.4455
26.90592001075963 39.3019
26.92899167420566 39.036
26.951885586870763 38.6624
26.974780595655517 38.4751
26.99785558178161 38.4296
27.020752794605112 38.3738
27.043651106772522 38.2296
27.06655051935668 38.098
27.089629948036183 38.1038
27.112531573292053 38.0629
27.135434302194138 38.0562
27.158338135817015 37.8366
27.181422024430987 37.9227
27.204328079372566 37.8617
27.22723524226965 37.795
27.250143514198573 37.8139
27.273231880156334 37.8827
27.296142382065014 37.653
27.319053996245536 37.657
27.341966723775965 37.775999999999996
27.365059584515222 37.7431
27.38797455070062 37.7759
27.410890633481237 37.6708
27.433807833936918 37.9995
27.456905206923906 37.9688
27.47982465472398 37.936
27.502745223449743 37.9501
27.525666914182825 37.9971
27.548768816912457 37.9279
27.571692763693633 37.8064
27.59461783573812 37.6729
27.617723149491244 37.5335
27.640650484125285 37.3233
27.66357894728264 37.3143
27.686508540048052 37.3613
27.709618414237887 37.1894
27.732550278321757 37.0912
27.755483275279115 37.1551
27.778417406196485 37.1348
27.801531858397514 37.1829
27.824468269376716 37.2115
27.847405817586786 37.1418
27.870344504116094 37.3198
27.893463551932008 37.4553
27.916404527281053 37.6488
27.93934664422563 37.7247
27.962289903855886 37.9048
27.98541356491974 38.1257
28.00835912214229 38.3288
28.03130582533231 38.3874
28.054253675581805 38.4776
28.077381967556104 38.3618
28.100332124185126 38.2375
28.123283431160893 38.1738
28.146235889577238 38.1095
28.169368830154156 37.9131
28.192323603752033 37.7854
28.215279532083304 37.4555
28.238415973016764 37.3009
28.261374223145094 37.1047
28.284333631303806 36.7991
28.307294198589954 36.7964
28.330435319167677 36.5049
28.353398217078915 36.2096
28.376362277420153 35.9247
28.39932750129032 35.8593
28.422473319286713 35.7411
28.44544088262495 35.6651
28.468409612800283 35.5218
28.491379510913497 35.2633
28.51453004413313 35.3176
28.53750229057244 35.3467
28.56047570826344 35.3149
28.583450298308804 35.3503
28.606605564586562 35.0077
28.629582511831156 35.2252
28.65256063474956 34.9781
28.675539934446338 34.9878
28.698699951647605 34.9954
28.72168161743193 34.8875
28.74466446331978 34.7103
28.767648490417624 34.7441
28.790813276438353 34.8207
28.813799678527303 34.8838
28.836787265157085 34.781
28.859955641890075 34.8322
28.882945610203045 34.9331
28.905936766392035 34.7431
28.928929111566863 34.8131
28.952102288520145 34.6607
28.975097024308607 34.4196
28.998092952423807 34.2796
29.021090073977508 34.2443
29.04426806913204 34.1924
29.067267590245258 33.9911
29.090268308143695 33.9892
29.11327022394099 33.9242
29.13645305530891 33.6914
29.159457379627167 33.7848
29.18246290519685 33.6969
29.20546963313352 33.701
29.22865731875826 33.7604
29.25166646419296 33.6704
29.27467681535305 33.534
29.29768837335608 33.6283
29.320880931312562 33.6759
29.34389491580634 33.7472
29.366910110507334 33.5879
29.38992651653503 33.6664
29.41312396492981 33.6359
29.436142806456754 33.5162
29.45916286268059 33.4845
29.48236399319994 33.4478
29.50538649169417 33.1352
29.528410208259935 32.9866
29.55143514402014 32.8684
29.574641196749695 32.798
29.597668583816574 32.6532
29.6206971934585 32.5799
29.64372702680042 32.6811
29.666938019934474 32.5909
29.689970313635285 32.5146
29.713003834422636 32.3698
29.73603858342347 32.2975
29.759254535188578 32.3525
29.78229175361658 32.3053
29.80533020365064 32.4082
29.82836988641968 32.3302
29.85159081507472 32.1962
29.874632976355343 32.0918
29.89767637376955 32.1628
29.920721008448314 32.0989
29.9439469322847 32.1217
29.96699405457564 31.9339
29.9900424175358 32.0816
30.013092022298157 31.8703
30.03632295963995 31.872
30.059375061131373 31.9071
30.08242840783577 31.8825
30.105483000888153 31.8895
30.128718970092244 31.8966
30.151776069006917 31.7966
30.17483441768648 31.8602
30.198074175317235 31.8191
30.221135036724256 31.8311
30.24419715131772 31.7708
30.267260520236203 31.7271
30.290505341942243 31.7938
30.313571232750228 31.7887
30.336638381310948 31.7745
30.35970678876503 31.744
30.38295669299435 31.5572
30.40602763151657 31.6336
30.429099832366074 31.559
30.452173296685572 31.5129
30.47542830191959 31.3664
30.498504306502497 31.4237
30.521581577995562 31.6024
30.544660117543582 31.6968
30.56792024229725 31.5968
30.59100133132069 31.4956
30.614083691845494 31.5272
30.637167325018545 31.7141
30.660432587840603 31.7632
30.683518779717886 31.6705
30.70660624769615 31.7832
30.729694992924372 31.7181
30.75296541239743 31.6993
30.77605672557558 31.568
30.799149319462742 31.4809
30.8224236211637 31.5072
30.845518789950724 31.2645
30.868615242910597 31.2222
30.891712981195973 31.0804
30.91499247215866 31.0372
30.938092794619365 30.9451
30.96119440587579 30.9506
30.984297307082752 30.8434
31.00758200598383 30.7495
31.030687500658694 30.6556
31.053794288760695 30.6359
31.076902371446767 30.4722
31.100192296997445 30.6787
31.12330298246119 30.579
31.14641496599209 30.4335
31.169528248749216 30.4799
31.19282341969534 30.4286
31.215939314557186 30.4448
31.239056512134788 30.3402
31.262175013589378 30.2968
31.28547544871168 30.3345
31.30859657161541 30.2781
31.331719001892175 30.2926
31.35484274070538 30.465
31.378148458819545 30.4236
31.401274828443725 30.2998
31.424402510106933 30.4014
31.447712205419993 30.4398
31.470842524931633 30.2542
31.493974159989783 30.3093
31.51710711176168 30.2521
31.54042212308802 30.3216
31.563557722100917 30.2499
31.586694641341655 29.8923
31.609832881979628 29.9268
31.63315322823208 29.8953
31.656294125521327 29.8468
31.679436347728515 29.7314
31.70257989602529 29.6329
31.725905596152327 29.5971
31.74905181052835 29.5811
31.772199354521323 29.6393
31.79534822930507 29.5265
31.818679302290967 29.6198
31.84183085259981 29.6498
31.864983737233473 29.6277
31.88813795736804 29.7004
31.911474422233013 29.5521
31.934631327356435 29.5767
31.9577895715215 29.5561
31.980949155906522 29.479
32.004291031706956 29.4972
32.027453310562606 29.3715
32.05061693318573 29.344
32.07396288236386 29.3605
32.09712920658542 29.2573
32.12029687812702 29.0044
32.14346589817093 29.0075
32.166817291729984 28.9607
32.18998902288583 28.9828
32.21316210610336 28.9277
32.23633654256711 28.653000000000002
32.259693399663725 28.6537
32.282870556771144 28.7157
32.30604907069099 28.629
32.329228942610065 28.6806
32.35259128243769 28.5226
32.375773884550505 28.3992
32.398957848235646 28.2989
32.422143174682176 28.2733
32.445511016471215 28.2662
32.468699082679954 28.1444
32.49188851523011 28.1036
32.51507931531304 28.1285
32.538452678331 28.1996
32.56164622776311 28.092
32.58484114831493 27.9361
32.60803744118015 28.0223
32.631416344731896 28.0313
32.654615396551876 27.9977
32.67781582427913 27.9661
32.701198898634416 27.8175
32.72440209253756 27.8264
32.747606665947124 27.7707
32.77081262006088 27.7033
32.79420126883317 27.7166
32.81740999876112 27.6336
32.840620112999424 27.5803
32.86383161274818 27.5803
32.88722585534586 27.5338
32.91044014056596 27.5405
32.933655814909734 27.5538
32.95687287957963 27.4709
32.98027273544904 27.3693
33.00349259526636 27.3019
33.026713849030116 27.4025
33.04993649794511 27.3766
33.073341986570746 27.3505
33.09656744032826 27.3659
33.11979429286444 27.2885
33.14302254538647 27.3583
33.166433686291185 27.250999999999998
33.18966475336992 27.2312
33.212897224069096 27.1286
33.23613109959831 27.1847
33.259547912343415 27.0533
33.2827846121627 26.991999999999997
33.306022720453775 27.0159
33.32926223842861 26.9114
33.352684742614166 26.9862
33.37592709463173 26.9363
33.399170859982064 26.7235
33.422597648419426 26.746
33.44584425514446 26.6524
33.46909227885668 26.57
33.4923417207723 26.4873
33.51577423505344 26.4637
33.539026528130385 26.3852
33.56228024307245 26.3555
33.585535381098246 26.2635
33.60897364093058 26.2675
33.63223163992385 26.2304
33.6554910656699 26.211
33.678751919389796 26.2042
33.702195944520106 26.1186
33.72545966903325 26.1368
33.74872482519663 26.0452
33.771991414233746 26.0544
33.79544122444841 25.98
33.81871069412428 25.9886
33.84198160035767 25.9367
33.86525394437455 25.9501
33.88870955949969 25.9034
33.911984794020626 25.853
33.93526147001624 25.7566
33.958539588715006 25.6445
33.98200102861669 25.6899
34.0052820477047 25.6199
34.02856451319451 25.5943
34.05203033759056 25.5847
34.07531571090147 25.5344
34.09860253431845 25.4502
34.121890809074316 25.4124
34.145362493118924 25.4833
34.16865368561615 25.4396
34.191946333164054 25.408
34.21524043699793 25.3687
34.23871800066799 25.3247
34.26201503218366 25.2109
34.28531352370466 25.206
34.30861347646881 25.0554
34.33209693978188 25.0844
34.3553998301885 25.1068
34.378704185565205 24.9708
34.402010007152356 24.8993
34.42549939016683 24.9629
34.44880815937748 24.9211
34.472118398533134 24.7909
34.49543010887669 24.8019
34.51892543169198 24.6597
34.54224009966052 24.785
34.56555624255917 24.6745
34.58887386163339 24.528000000000002
34.61237514439016 24.4914
34.6356957311114 24.5062
34.65901779775809 24.5365
34.68252356662995 24.4367
34.705848608458616 24.3963
34.72917513396849 24.4218
34.75250314440949 24.4135
34.77601490857862 24.3262
34.799345904259795 24.2503
34.82267838863559 24.3132
34.846012362958525 24.2604
34.869530142679984 24.2094
34.89286711232212 24.1357
34.91620557568269 24.1813
34.93954553401677 24.0717
34.9630693495876 24.026
34.986412313340814 24.03
35.00975677584668 24.0995
35.033102738362956 23.9933
35.05663261012228 23.9352
35.0799815881786 23.9661
35.10333207003229 23.9391
35.12668405694369 23.9507
35.150220005273056 23.8845
35.17357501786656 23.7884
35.19693153931268 23.7277
35.220289570874385 23.715999999999998
35.24383161619786 23.8544
35.267192683604904 23.796
35.290555264930376 23.6558
35.314101899412165 23.688000000000002
35.33746752422433 23.6915
35.36083466676374 23.6715
35.38420332829803 23.4936
35.407756095629054 23.5587
35.43112781085063 23.5803
35.45450104888391 23.5101
35.477875810999194 23.5136
35.50143473172161 23.5092
35.52481255774625 23.4937
35.54819191167777 23.4409
35.57157279478914 23.3889
35.595137889488406 23.348000000000003
35.61852184675279 23.2515
35.641907337029984 23.1568
35.665294361595684 23.2654
35.68886565090076 23.1725
35.7122557598848 23.0814
35.73564740699838 23.0285
35.759040593519934 23.0789
35.78261809810353 22.984
35.80601437933051 22.9341
35.829412203814705 22.9021
35.85281157283719 22.7912
35.876395313415884 22.842
35.8997977874528 22.8671
35.92320180988546 22.7761
35.946790244133936 22.6875
35.97019737933222 22.7135
35.993606066789866 22.7494
36.01701630779276 22.7094
36.04061101440684 22.6157
36.06402437852291 22.6573
36.08743930005611 22.6085
36.1108557802951 22.4612
36.13445678011326 22.4973
36.15787639383515 22.4419
36.18129757014299 22.484
36.20472031032821 22.4085
36.22832762423364 22.3626
36.25175350829375 22.4228
36.275180960119776 22.2497
36.298609981005924 22.2942
36.32222362992669 22.2343
36.34565580510207 22.2046
36.36908955323448 22.1357
36.39252487562093 22.0355
36.416144880530226 22.0161
36.43958336764275 22.076
36.463023432914625 22.0836
36.486465077645676 21.9487
36.51009145956204 22.1082
36.53353627947859 22.0763
36.55698268276811 22.0401
36.58043067073321 21.9409
36.60406345072071 21.7458
36.62751462435344 21.8263
36.65096738658405 21.7885
36.67460498210655 21.7835
36.69806093788647 21.7209
36.72151848619297 21.6222
36.744977628333636 21.647
36.76862165890998 21.4696
36.79208400512205 21.5136
36.81554794910557 21.5745
36.83901349217101 21.5508
36.862663978991606 21.4851
36.88613273667352 21.4455
36.90960309738324 21.4356
36.933075062434064 21.3393
36.95673202673572 21.2809
36.98020721697122 21.3456
37.003684015502365 21.2318
37.027162423645365 21.2012
37.050825886711465 21.2098
37.07430753063053 21.1195
37.09779078812467 21.0941
37.121275660513014 21.0913
37.144945643673694 21.0782
37.16843376245278 21.0491
37.19192350009803 21.0212
37.215414857931435 21.0057
37.239091382563885 20.9101
37.262585997426164 20.9004
37.28608223645736 20.9031
37.309763684451696 20.9019
37.33326318851098 20.8399
37.356764320726555 20.8039
37.380267082425526 20.7711
37.40395510942588 20.7429
37.42746114683234 20.7309
37.45096881771841 20.6258
37.474478123414166 20.6448
37.49817275092816 20.6323
37.52168534303452 20.5768
37.54519957395567 20.5303
37.568715445024665 20.5024
37.592416694607714 20.4522
37.61593586281424 20.4525
37.63945667518264 20.4255
37.66297913304891 20.377
37.68668702630454 20.3301
37.710212792059274 20.2719
37.733740207334854 20.2394
37.757269273470364 20.2247
37.780983832050374 20.1559
37.80451621684926 20.2134
37.82805025654007 20.1513
37.851585952464795 20.1281
37.8753071980695 20.0375
37.89884622345676 19.948
37.92238690911902 19.9942
37.94611318753442 19.9482
37.969657210779765 19.8478
37.99320289834801 19.8983
38.016750251586465 19.843
38.04048325513017 19.8415
38.06403395679343 19.8274
38.087586328183946 19.7237
38.11114037065203 19.7586
38.13488012115898 19.7149
38.1584375229181 19.6034
38.181996599821 19.6139
38.205557353221124 19.5928
38.229303872575656 19.6127
38.2528679961576 19.5429
38.27643380031219 19.469
38.30000128639589 19.4244
38.32375459653193 19.4822
38.34732546371299 19.4831
38.37089801690786 19.3735
38.39447225747609 19.3771
38.418232380377425 19.3058
38.441810012983396 19.3687
38.46538933705673 19.363
38.488970353960084 19.2623
38.51273731166058 19.218
38.536321731567014 19.1493
38.55990784840681 19.1685
38.58367995004091 19.1501
38.60726947812959 19.0389
38.63086070726198 19.0464
38.654453638806274 19.0611
38.678232613930824 18.9185
38.70182896773327 18.9362
38.72542702806741 18.9068
38.7490267963045 18.8809
38.77281266709232 18.8553
38.79641586862214 18.861
38.8200207821842 18.7687
38.843627409152944 18.8022
38.86742019782782 18.7563
38.891030269149255 18.7294
38.914642058016156 18.6269
38.938255565806124 18.6622
38.96205529464307 18.6262
38.98567225787121 18.608
39.00929094417078 18.6102
39.03291135492255 18.5534
39.05671804624804 18.5443
39.080341923549106 18.4848
39.103967529460334 18.4747
39.127594865365744 18.4129
39.15140854155791 18.3738
39.17503935514948 18.3821
39.19867190290282 18.3331
39.22249083587951 18.3354
39.24612686969409 18.2976
39.269764641845306 18.2333
39.293404153722804 18.2147
39.317230110864074 18.147000000000002
39.34087311998506 18.1585
39.36451787301696 18.1519
39.388164371352595 18.1051
39.41199737518003 18.1129
39.43564738196752 18.098
39.45929913825317 18.0016
39.48295264543308 17.9956
39.506792718520884 17.9615
39.530449745387216 17.8919
39.55410852735203 17.9093
39.57776906581474 17.9038
39.60161623079 17.8437
39.625280300200025 17.8622
39.64894613032202 17.8478
39.67261372255866 17.7515
39.6964680021016 17.7683
39.72013913657293 17.7783
39.74381203738292 17.6658
39.76748670593756 17.6615
39.79134812278169 17.6364
39.81502634488497 17.575
39.83870633896685 17.5974
39.862388106436654 17.5319
39.88625668336918 17.5123
39.90994201572829 17.5477
39.933629125719285 17.494
39.957503091207826 17.4247
39.9811937746168 17.5004
40.00488623990914 17.3636
40.02858048850006 17.2828
40.05246165409549 17.2993
40.076159487492085 17.2679
40.099859108448875 17.2864
40.123560518384345 17.2787
40.1474489070226 17.1631
40.171153913178564 17.1677
40.194860712584955 17.1484
40.2185693066637 17.2017
40.242464941335314 17.1305
40.26617714307655 17.1093
40.289891143772046 17.0738
40.3136069448471 17.021
40.33750984859743 16.9994
40.3612292688043 16.9619
40.3849504936829 16.9472
40.40867352466194 16.9311
40.43258372059144 16.9251
40.45631038219906 16.9461
40.48003885420956 16.831
40.503769138055105 16.8123
40.52768664931955 16.7841
40.55142057531802 16.7837
40.57515631746428 16.7059
40.599079334038514 16.6866
40.62281872700477 16.6417
40.64655994043941 16.6523
40.67030297578061 16.6592
40.69423334835778 16.6126
40.71798004609188 16.5541
40.74172857006355 16.547
40.76547892171441 16.5834
40.7894166736039 16.5524
40.813170699248566 16.4539
40.83692655691388 16.4112
40.86068424804498 16.412
40.884629402612525 16.4057
40.908390779366385 16.4057
40.932153993938 16.3457
40.95591904777605 16.3566
40.979871628443995 16.3677
41.003640379561936 16.2814
41.02741097430883 16.2782
41.05118341413683 16.2492
41.075143444384416 16.21
41.098919593177826 16.2434
41.1226975914255 16.1706
41.14647744058318 16.1033
41.170444943946755 16.0771
41.19422851378379 16.0962
41.218013938914645 16.0175
41.24198706625173 15.9952
41.26577622087193 15.9954
41.289567235177785 16.0128
41.31336011063129 15.9468
41.337340752422875 15.8537
41.361137369129835 15.8747
41.38493585138705 15.8629
41.40873620066004 15.7664
41.43272438060107 15.7734
41.45652848292052 15.7333
41.48033445666918 15.6996
41.50414230331616 15.7325
41.528138045159764 15.695
41.551949656675205 15.6587
41.575763145513235 15.663
41.59957851314666 15.6213
41.62358184070442 15.5696
41.64740098505737 15.5545
41.6712220126409 15.4749
41.69504492493139 15.4659
41.71905586207357 15.452
41.74288256296395 15.4297
41.766711153007456 15.4317
41.79054163368412 15.3799
41.814560204340054 15.376
41.838394485526365 15.3402
41.86223066180303 15.3165
41.88625497706819 15.2844
41.910094962812 15.2771
41.93393684811168 15.2219
41.95778063445365 15.1718
41.981812625263366 15.1978
42.00566023303407 15.1683
42.029509746323676 15.113
42.05336116662236 15.0957
42.077400857069705 15.1359
42.10125611078846 15.0483
42.12511327600405 15.0512
42.14897235421036 14.9807
42.173019768448455 14.9661
42.19688269209613 14.9516
42.22074753323349 14.9234
42.24461429335818 14.8888
42.268669455600495 14.9041
42.292540073217886 14.9066
42.31641261433284 14.8783
42.34028708044675 14.8333
42.36435001496739 14.7793
42.38822835065557 14.765999999999998
42.41210861586426 14.7281
42.4359908120986 14.6925
42.46006154323262 14.7222
42.48394762115317 14.6279
42.507835634632315 14.6565
42.531912233047436 14.6398
42.55580413732265 14.6044
42.579697981698 14.588
42.60359376768525 14.5258
42.62767820545945 14.5288
42.65157789440821 14.5462
42.67547952952185 14.5213
42.699383112316 14.5029
42.72347541395347 14.3887
42.74738291190531 14.3552
42.771292362102166 14.349
42.795203766063516 14.3896
42.819303956130405 14.3807
42.843219287476536 14.2648
42.86713657716324 14.2634
42.89105582671383 14.2241
42.91516392983864 14.2329
42.939087119032166 14.2195
42.963012272677304 14.1912
42.98693939230129 14.1616
43.01105543317513 14.1528
43.034986504731386 14.1023
43.05891954686589 14.0753
43.08285456110972 14.0592
43.10697856448665 14.0468
43.130917542983475 14.0127
43.15485849820081 13.9887
43.17880143167367 14.002
43.20293342237094 13.9296
43.226880332449 13.9197
43.25082922540554 13.9038
43.27496722682525 13.8603
43.29892010567796 13.8799
43.32287497204102 13.8383
43.34683182745632 13.7838
43.370977859791836 13.725999999999999
43.39493871351105 13.7282
43.41890156092628 13.7203
43.44286640358341 13.7315
43.46702049182749 13.7037
43.49098934522816 13.6867
43.51496019852649 13.6194
43.5389330532723 13.5637
43.56309522248204 13.5514
43.58707210044314 13.578
43.61105098451946 13.4299
43.63503187626491 13.4431
43.659202151562134 13.4788
43.68318707902681 13.5122
43.70717401884041 13.4056
43.731162972560874 13.4078
43.75534137913236 13.4145
43.779334381108384 13.3502
43.803329401683186 13.3169
43.82732644241872 13.3114
43.8515130055166 13.2996
43.87551410707659 13.2507
43.89951723350145 13.2444
43.923709934595614 13.2191
43.94771713129917 13.2278
43.97172635758096 13.1782
43.99573761501002 13.1774
44.0199385169922 13.1477
44.04395385732619 13.0859
44.067971233533086 13.1262
44.09199064718605 13.0835
44.11619977548961 13.0329
44.14022328470671 13.0299
44.16424883610785 13.0136
44.18827643127035 13.0
44.21249381139513 12.982000000000001
44.236525514814076 12.9075
44.26055926674478 12.9027
44.28459506876863 12.9255
44.3088207262813 12.8645
44.33286064928722 12.8789
44.35690262714919 12.8359
44.38094666145278 12.7944
44.4051806219871 12.8171
44.42922879003185 12.7618
44.45327901929361 12.7106
44.477331311362136 12.7575
44.501573600619416 12.6987
44.525630039221795 12.644
44.54968854541895 12.6719
44.573937102200176 12.6381
44.5979997645541 12.6648
44.622064499300315 12.5794
44.64613130803592 12.5373
44.67038823869318 12.5434
44.69445921643748 12.5292
44.718532272981385 12.4786
44.742607409926194 12.4942
44.76687274034801 12.4411
44.79095205918753 12.3999
44.81503346325094 12.4202
44.839116954143876 12.3477
44.86339071028742 12.349
44.88747839599524 12.3242
44.91156817336837 12.3528
44.93566004401666 12.2756
44.959942251908146 12.287
44.984038330325966 12.2769
45.00813650686762 12.2479
45.03223678314731 12.2586
45.05652746888232 12.2001
45.08063196592069 12.1403
45.104738567558705 12.1318
45.128847275414856 12.1166
45.15314646515866 12.0743
45.17725940679741 12.0871
45.20137445952892 12.0356
45.22568004865265 12.0174
45.24979934496396 11.9845
45.27392075725247 11.957
45.29804428714431 11.9497
45.322358426247604 11.9265
45.346486212804315 11.9117
45.370616121861914 11.884
45.39474815505086 11.9216
45.41907087049246 11.857000000000001
45.4432071734666 11.7869
45.46734560548283 11.8214
45.49148616817604 11.8248
45.51581748638564 11.7798
45.5399623320197 11.7641
45.56410931325473 11.7673
45.58825843173002 11.7523
45.61259837920865 11.7064
45.636751793816 11.6692
45.66090735060093 11.6237
45.68506505120716 11.6336
45.7094136545275 11.5972
45.73357566449271 11.5796
45.75773982322992 11.5424
45.78190613238733 11.5382
45.806263418194064 11.5448
45.83043404997326 11.5005
45.85460683713677 11.4822
45.87897065658495 11.4865
45.90314777634752 11.4479
45.92732705646868 11.4039
45.9515084986045 11.4244
45.97588104735473 11.4183
46.00006683541565 11.3516
46.02425479047904 11.3547
46.04844491420549 11.3019
46.0728262191024 11.3547
46.09702070211635 11.3108
46.12121735879483 11.2965
46.14541619080294 11.2776
46.169806278764455 11.2469
46.194009483459034 11.1885
46.21821486849841 11.1802
46.24242243555223 11.1727
46.266821333570014 11.1597
46.29103328674601 11.1126
46.31524742696538 11.1234
46.33946375590237 11.0993
46.36387149104216 11.0774
46.38809221957392 10.9967
46.41231514186606 11.0444
46.436540259597464 11.0274
46.460956858999374 10.9775
46.48518638983522 10.9677
46.509418121166966 10.9274
46.533652054678114 10.9438
46.55807754555709 10.8934
46.58231590571962 10.8857
46.60655647313217 10.8941
46.630988654873654 10.8589
46.655233659129024 10.8102
46.67948087571551 10.759
46.70373030632484 10.7618
46.72817142736393 10.7771
46.752425308428684 10.7959
46.77668140861147 10.7088
46.80093972960865 10.7212
46.82538981736788 10.696
46.849652602470904 10.6827
46.87391761349769 10.6302
46.8981848521493 10.6211
46.9226439341274 10.5889
46.946915650573224 10.5716
46.97118959976749 10.5947
46.99546578341598 10.564
47.019933887188216 10.5255
47.04421456235744 10.5166
47.06849747711879 10.4959
47.09278263318286 10.4488
47.11725978640143 10.4515
47.14154944775105 10.4111
47.165841355555656 10.4169
47.1901355115306 10.3774
47.214621741924994 10.4091
47.23892041698887 10.3932
47.26322134538975 10.3352
47.28771440635075 10.3093
47.31201986422527 10.3152
47.33632758061436 10.2812
47.360637557241866 10.2387
47.38513974410611 10.2549
47.40945426407847 10.1873
47.43377104948137 10.1933
47.45809010204344 10.1681
47.48260144275502 10.1544
47.506925052572285 10.1475
47.53125093475548 10.1107
47.55557909103813 10.0829
47.58009961361992 10.0725
47.60443234110732 10.0893
47.62876734791564 10.0384
47.65310463578333 9.99012
47.6776343683373 9.967830000000001
47.7019762413987 9.99276
47.72632040075572 9.98681
47.75066684815169 9.9588
47.77520581885936 9.93334
47.799556865477655 9.92104
47.823910205386 9.8928
47.84826584033272 9.924619999999999
47.87281407745551 9.86774
47.89717432569297 9.864519999999999
47.92153687423484 9.82007
47.94609208429692 9.80391
47.97045925671401 9.8077
47.99482873471275 9.78364
48.01920052005013 9.77375
48.04376504619224 9.75888
48.068141469543484 9.74035
48.09252020552573 9.71733
48.11690125590099 9.66292
48.1414751266064 9.65961
48.16586082917454 9.66339
48.19024885144316 9.63899
48.2146391951793 9.6309
48.239222439012764 9.59848
48.26361744916137 9.60703
48.28801478610016 9.59153
48.31241445160131 9.58431
48.337007097209366 9.53636
48.36141144338331 9.51591
48.38581812345755 9.49518
48.41022713920929 9.506739999999999
48.434829215320704 9.455119999999999
48.45924292604658 9.455869999999999
48.48365897780325 9.50582
48.50807737237308 9.441180000000001
48.532688907799276 9.384830000000001
48.55711201168574 9.375960000000001
48.581537463754074 9.35365
48.60615611725119 9.3765
48.63058628942721 9.31029
48.65501881516546 9.31053
48.6794536962573 9.28561
48.70408185970339 9.27948
48.72852147531801 9.255239999999999
48.75296345168211 9.259310000000001
48.77740779059232 9.22098
48.80204549302823 9.22706
48.82649458091802 9.22517
48.85094603676547 9.14477
48.87539986237231 9.150739999999999
48.90004713292306 9.16197
48.92450572200832 9.16867
48.94896668628025 9.1168
48.97343002754588 9.08155
48.99808689542115 9.06129
49.02255501470614 9.09506
49.04702551642794 9.02859
49.0714984023988 9.028260000000001
49.096164896893235 9.01844
49.120642575466796 9.0094
49.145122643748394 8.98334
49.16960510355558 8.95166
49.19428125404938 8.93538
49.2187685210852 8.93609
49.243258185121555 8.903780000000001
49.26794160167084 8.89807
49.2924360839405 8.876330000000001
49.31693296869764 8.8366
49.34143225776915 8.82961
49.36612538195438 8.79782
49.39062950396021 8.81687
49.41513603578346 8.81038
49.4396449792564 8.75114
49.46434784069503 8.73473
49.488861631846454 8.75078
49.513377840166804 8.7328
49.537896467493745 8.71138
49.56260909589029 8.67157
49.587132585683285 8.65067
49.611658500018365 8.65586
49.636186840738596 8.59822
49.66090926588511 8.60546
49.685442483902584 8.60405
49.70997813385706 8.58025
49.734516217597076 8.54701
49.75924846937352 8.54059
49.7837914452858 8.51114
49.80833686055187 8.510760000000001
49.83288471702571 8.52872
49.85762682540054 8.50832
49.882179588965734 8.481689999999999
49.9067347993235 8.44711
49.93129245833333 8.41359
49.95604445336378 8.429110000000001
49.98060703442832 8.36987
50.005172069746266 8.36861
50.02993150438364 8.380180000000001
50.05450147301533 8.350719999999999
50.07907390151433 8.31589
50.10364879174981 8.31091
50.12841816587289 8.281369999999999
50.1529980044635 8.28403
50.17758031042124 8.281930000000001
50.20216508562089 8.27701
50.22694442953363 8.25889
50.25153416817468 8.21668
50.27612638170508 8.20604
50.300721072005196 8.17873
50.325510416102105 8.15756
50.350110084975064 8.16051
50.37471223628208 8.16031
50.39931687190919 8.13834
50.424116246675766 8.1208
50.44872587605249 8.09171
50.47333799543065 8.10769
50.49795260670191 8.03265
50.52276204271512 8.03606
50.54738166295838 8.049710000000001
50.57200378079314 8.02915
50.596628398116835 8.01083
50.62144792604559 7.9977
50.646077567609396 7.97675
50.670709714377715 7.94855
50.69553683636198 7.919739999999999
50.72017401885922 7.92864
50.7448137122895 7.920660000000001
50.76945591856022 7.931889999999999
50.79429318636823 7.8984
50.818940443716784 7.899789999999999
50.84359021965163 7.89889
50.868242516085964 7.8876800000000005
50.893089960641895 7.832269999999999
50.917747323549435 7.811039999999999
50.94240721271973 7.832489999999999
50.96706963007175 7.76863
50.99192728239342 7.7625399999999996
51.01659478166073 7.720610000000001
51.04126481489051 7.72501
51.06593738400761 7.72399
51.090805275207074 7.700410000000001
51.11548294172845 7.66396
51.14016314993547 7.68054
51.164845901758845 7.6502300000000005
51.18972406304274 7.615410000000001
51.21441192780656 7.6144300000000005
51.23910234200271 7.608460000000001
51.2637953075678 7.59938
51.288683770237945 7.58818
51.31338186432707 7.55368
51.33808251561888 7.534389999999999
51.362978729967345 7.52422
51.387684521509755 7.5351
51.41239287610203 7.51975
51.437103795691165 7.48453
51.46201036644977 7.4942899999999995
51.486726441956634 7.482069999999999
51.51144508832545 7.4718100000000005
51.536166307509156 7.44573
51.56108326624387 7.4223
51.58580965706056 7.403060000000001
51.61053862657523 7.380039999999999
51.635270176746864 7.355169999999999
51.66019755512065 7.357
51.68493429268881 7.32242
51.70967361681515 7.30527
51.73441552946465 7.31141
51.759353359237934 7.29357
51.7841004750961 7.277830000000001
51.80885018539685 7.28033
51.833602492111254 7.27946
51.8585508051424 7.24667
51.883308330926425 7.235410000000001
51.90806845906181 7.18152
51.932831191525715 7.17737
51.95779001977161 7.14845
51.98255798721516 7.1463399999999995
52.00732856494335 7.138999999999999
52.03229530577543 7.1327300000000005
52.057071130455945 7.103260000000001
52.081849571391054 7.0817
52.106630630568695 7.07919
52.13160794279417 7.042039999999999
52.15639426492067 7.063510000000001
52.18118321127822 7.05987
52.205974783860896 7.01743
52.23096269971011 6.97923
52.255759551287994 7.01693
52.280559035098186 7.0152
52.30536115314103 6.953010000000001
52.33035970494467 6.958489999999999
52.35516711807904 6.94452
52.37997717147198 6.90448
52.40478986713005 6.93805
52.42979908731974 6.883710000000001
52.454617094216 6.85522
52.47943774942214 6.8585
52.50426105495102 6.853110000000001
52.529280976059844 6.818510000000001
52.554109609024096 6.83473
52.57894089837482 6.818630000000001
52.60377484613117 6.83817
52.62880550079408 6.7968
52.65364479223379 6.75408
52.67848674816189 6.74615
52.70352547971946 6.72
52.72837279155837 6.7263399999999995
52.753222773982785 6.71546
52.778075429022984 6.739839999999999
52.80312495150885 6.69947
52.827982978797436 6.66825
52.85284368481815 6.69049
52.87770707160767 6.61269
52.90276741793998 6.58782
52.92763619336701 6.613289999999999
52.952507655698504 6.565989999999999
52.977381806977576 6.6253
53.00245301017842 6.6268
53.02733256653592 6.59115
53.052214817996074 6.52456
53.077099766608484 6.53415
53.102181859804446 6.51864
53.127072229988265 6.48347
53.15196530349892 6.47415
53.17686108239249 6.484319999999999
53.20195409881522 6.45712
53.22685531582556 6.477
53.25175924441303 6.40601
53.27666588664027 6.40265
53.30176985962693 6.40109
53.3266819565689 6.41584
53.35159677336455 6.4139
53.376514312083096 6.3611699999999995
53.40162927507703 6.34354
53.42655228516116 6.3499099999999995
53.45147802340193 6.29924
53.47660125628886 6.318
53.50153247842639 6.33495
53.52646643496923 6.29979
53.55140312799818 6.3047699999999995
53.576537409691696 6.283119999999999
53.60147960336152 6.24289
53.626424539786164 6.26545
53.65137222105307 6.21666
53.67651758529126 6.2156199999999995
53.70147078399681 6.17786
53.72642673383343 6.18795
53.75138543689533 6.19278
53.776541917524526 6.15484
53.801506154876755 6.1486
53.826473151763246 6.15412
53.851442910284916 6.09681
53.87661054126026 6.06909
53.9015858509782 6.07176
53.92656392866066 6.07704
53.95154477641532 6.0578
53.976723591801296 6.03752
54.00171000771266 6.02146
54.02669920004598 6.02003
54.051691170915745 6.06525
54.076881204886796 6.00783
54.101878760928514 6.0079
54.12687910187696 5.970330000000001
54.152077577768296 5.966819999999999
54.1770835166946 5.88847
54.20209224691339 5.91771
54.22710377055121 5.87584
54.25231352511594 5.89387
54.27733066384342 5.86496
54.30235060239643 5.84314
54.32737334290836 5.86604
54.35259441062629 5.80593
54.377622783395324 5.81388
54.40265396455061 5.79335
54.42768795623251 5.774030000000001
54.45292037169559 5.71884
54.477960012857906 5.76079
54.50300247099511 5.7363800000000005
54.52804774825457 5.696219999999999
54.55329154616743 5.7011
54.57834249018678 5.66945
54.6033962597977 5.6282
54.6284528571545 5.62075
54.653708072335164 5.5727
54.67877035378786 5.530130000000001
54.70383546947698 5.51843
54.72890342156389 5.54523
54.7541700889442 5.5085
54.77924374251975 5.50281
54.8043202390049 5.4895
54.82959552413022 5.439830000000001
54.8546777351945 5.45657
54.87976279569621 5.44825
54.90485070780914 5.438269999999999
54.930137506558005 5.37904
54.95523115074295 5.36344
54.98032765308844 5.34195
55.005427015775496 5.31581
55.03072536339621 5.32878
55.05583047570572 5.2853900000000005
55.080938454927676 5.30276
55.10604930325027 5.24777
55.131359235107396 5.30593
55.15647585066083 5.22452
55.181595341907496 5.1832
55.20671771104285 5.18653
55.232039262617704 5.14371
55.25716741665048 5.12557
55.28229845518636 5.12442
55.30743238042802 5.0637
55.33276558731939 5.05186
55.357905315183636 5.01081
55.383047936390035 4.9633400000000005
55.40819345314859 4.980980000000001
55.433538351073295 4.98906
55.458689688238415 4.9429
55.483843927614096 4.90984
55.509197623043605 4.89481
55.53435769621134 4.87046
55.55952067826466 4.80624
55.5846865714265 4.82372
55.61005202069737 4.8321
55.63522376553902 4.81703
55.66039842818645 4.75319
55.68557601087004 4.78073
55.7109532500271 4.7401
55.73613670233794 4.73928
