TT I
1.2716486653135266 7.19315
1.2939594142134223 7.56831
1.3162702121660406 6.93895
1.3385810600174564 6.246180000000001
1.3608919586137629 7.193810000000001
1.383202908801069 6.844869999999999
1.405513911425503 5.94367
1.4278249673332093 6.30604
1.4501343378461518 6.11506
1.4724455028545926 5.79542
1.4947567236847858 6.0868400000000005
1.517068001182951 5.91234
1.5393793361953272 5.99296
1.5616907295681737 5.05616
1.5840021821477681 5.27872
1.60631369478041 4.95341
1.6286252683124185 5.42278
1.6509369035901333 4.7472
1.6732468618895553 5.22359
1.695558623192809 4.97279
1.7178704487808514 4.86964
1.7401823395001077 5.39802
1.7625012545597203 5.1006
1.7848028405262486 5.21643
1.8071218901122095 5.19566
1.8294236121921872 4.585430000000001
1.8517427996910911 4.8026599999999995
1.8740620574440425 4.89135
1.8963639900671978 4.39858
1.9186833908139995 4.42205
1.9409854680117449 4.882630000000001
1.9633050151394713 5.35044
1.9856246367570705 4.93549
2.0079269371922672 5.158980000000001
2.03024671027244 4.90067
2.0525491637446027 4.88699
2.074869091674931 4.37324
2.097171701569106 5.19919
2.1194917877373847 5.5914
2.141811954326636 5.06813
2.164114805233074 5.26551
2.186435135143035 6.3049
2.208738150935709 12.8679
2.231058647554722 25.3971
2.2533792288321184 20.1255
2.275682498336085 10.0451
2.298003251406138 6.18578
2.3203066942619714 5.47668
2.3426276225136022 5.44966
2.3649486396617507 4.75114
2.387252348930071 5.317740000000001
2.4095735463442893 5.4952
2.4318774374315884 5.80799
2.4541988185014043 5.91078
2.476502894794693 6.1534
2.498824462909887 6.91211
2.521146125856138 6.37858
2.5434504863470337 7.05428
2.5657723414244717 7.346539999999999
2.588076895590662 8.16291
2.610398946189713 7.52354
2.6327210958598384 7.5908
2.6550259469304716 7.2443100000000005
2.6773482972090137 8.05444
2.6996533504259 8.04154
2.7219759047039602 8.04834
2.744298562293959 8.13753
2.7666039251246595 7.229019999999999
2.7889267918020164 8.09539
2.8112323652516555 7.692589999999999
2.833555444408179 8.26707
2.8558786311183852 8.1696
2.8781845268938557 8.42185
2.9005079311721484 8.98066
2.9228140460410397 8.77213
2.9451376712799635 9.14599
2.967444008632326 9.76329
2.9897678582247247 9.833730000000001
3.0120918213106695 10.3371
3.0343984987899373 10.6864
3.0567226913198637 11.333
3.079029599759726 11.6474
3.101354025127254 12.505999999999998
3.123678568232338 12.323
3.145985829517914 12.5584
3.16831061055229 13.3739
3.1906181112775593 13.9317
3.212943133635653 14.4984
3.2352682779763207 14.6523
3.2575761442691227 15.132
3.2799015350264273 15.6905
3.302209649240067 16.21
3.3245352898092655 16.7913
3.3468436553365257 17.4168
3.369169549113219 17.6869
3.3914955708171384 18.4421
3.413804319727358 19.0386
3.4361305997334863 19.095
3.4584396084414553 19.67
3.4807661501462652 20.5822
3.503092824025881 21.0673
3.5254022288463154 21.1239
3.5477291695206588 21.791999999999998
3.5700388426251948 22.4448
3.5923660534916446 23.8975
3.6146934007816114 37.76
3.637003482731501 83.0752
3.6593311053109985 92.0699
3.681641464033634 54.2366
3.7039693653009733 30.1702
3.726297407241705 25.9152
3.7486081875460804 25.5544
3.7709365132734978 26.1189
3.793247578841633 26.3278
3.8155761917550093 26.5884
3.8378875459837216 27.1025
3.8602164494827234 27.5531
3.882545499606844 28.3539
3.9048572932539183 29.2789
3.9271866390645718 29.4788
3.9494987298666713 30.225
3.971828374764527 30.6181
3.9941581705403255 30.5322
4.016470713506008 31.2561
4.038800813471445 32.0315
4.061113662089144 32.8213
4.0834440696459176 33.7553
4.105774632334751 33.988
4.128087945865126 34.8819
4.150418821249301 35.9092
4.172732448931298 36.846
4.195063640413578 38.631
4.2173775856475215 42.2011
4.239709096631102 71.8561
4.262040768704612 217.998
4.284355196706267 290.684
4.306687193387355 187.653
4.329001947444346 77.085
4.35133427213731 48.2363
4.373666762177566 44.4922
4.395982011761091 44.6368
4.418314834921175 45.6898
4.44063041906622 52.6386
4.4629635787515625 63.286
4.4852969080429785 62.6342
4.5076130004776225 53.6317
4.529946671403969 50.5407
4.552263106909177 50.3831
4.574597122877047 51.5731
4.596931312711224 52.7436
4.619248269273446 53.5999
4.6415828092605835 54.6834
4.663900117405352 55.7403
4.686235010953232 57.3587
4.708552674085913 58.6622
4.730887924602802 59.9455
4.753223354952695 61.293
4.775541557023902 62.5511
4.797877349456786 64.1718
4.820195915032126 65.8919
4.842532072957498 67.7505
4.864868414979744 69.6522
4.88718753227192 71.9345
4.909524244902505 73.6514
4.931843734218147 75.763
4.954180820867835 78.4514
4.976518095879839 81.2664
4.998838149695359 84.1739
5.021175803844231 87.8482
5.043496238205739 91.4731
5.065834274903528 95.7963
5.088172504230693 101.59299999999999
5.1104935158799565 108.22399999999999
5.132832132875765 130.283
5.155153533596801 173.17
5.1774925416746225 210.614
5.199814334878411 390.014
5.2221537374521505 1129.78
5.244493338631803 3044.65
5.266815727034316 7671.65
5.289155727832427 12177.3
5.311478517248165 8900.37
5.333818921080011 3114.74
5.356159527788849 634.681
5.3784829252032536 196.014
5.400823940070432 146.69
5.423147747031976 130.059
5.445489173474152 120.215
5.467830807066149 114.04700000000001
5.490155234831516 110.41
5.512497285125229 106.891
5.534822130975162 104.885
5.557164601388673 102.491
5.579489868738879 99.7002
5.601832762690846 98.8344
5.6241758697774475 98.1685
5.646501775867269 97.1122
5.668845311622074 95.73200000000001
5.691171647754637 94.9623
5.713515615597765 93.8923
5.735859800852677 92.6758
5.758186788542988 92.2681
5.780531411018185 92.7732
5.802858837297399 91.8024
5.825203900414495 91.8428
5.8475491852224 92.12700000000001
5.869877275883075 92.7751
5.892223006467101 94.4326
5.914551544266608 96.2333
5.936897724049891 99.5935
5.959244129804903 105.441
5.981573344815301 127.165
6.0039202049061 229.078
6.026249875609095 501.353
6.04859719346037 1046.27
6.070927323278297 2262.84
6.093275102315365 4391.94
6.115623113320588 5464.4
6.137953938319995 3390.58
6.160302415650845 1115.5
6.182633708324452 263.874
6.2049826554078376 117.685
6.227331838745022 94.5481
6.249663839443684 86.4201
6.27201349767565 83.70100000000001
6.294345974611799 88.4198
6.316696111167083 98.5947
6.339046488263839 94.044
6.361379686074702 79.8706
6.383730546639482 72.4331
6.406064229255215 69.4745
6.428415576718203 68.4327
6.450749747566656 67.3977
6.47310158535871 66.6433
6.495453669698332 65.72800000000001
6.517788579421056 64.9521
6.540141159237969 64.38600000000001
6.562476565766648 63.8017
6.5848296444934045 63.0442
6.607182974060425 62.6294
6.6295191323281015 63.202
6.651872965955752 65.7834
6.6742096296068985 89.016
6.6965639707294615 131.01
6.71891856698715 131.54
6.741255995248479 91.7723
6.763611104154477 67.4709
6.785949046381137 60.5786
6.808304671371482 58.6388
6.8306605557940046 58.25
6.852999275508618 57.4663
6.875355681171544 57.328
6.897694923437771 57.2198
6.92005185377892 57.2244
6.9423916220322655 56.918
6.964749080490181 56.1156
6.987106804399774 55.9509
7.009447368180821 56.0556
7.031805625367033 55.8922
7.054146723727803 55.5481
7.076505517631004 55.7783
7.098864581288365 55.7753
7.121206488070854 55.5138
7.143566093607822 55.4966
7.165908543567245 55.5029
7.188268694426048 55.1057
7.2106291193438095 55.6189
7.232972390625943 57.071999999999996
7.255333366030969 67.5783
7.277677189091925 116.831
7.300038718428332 159.904
7.322400526130865 137.066
7.344745183422596 86.7392
7.367107550224791 61.4481
7.389452767901992 56.3945
7.411815697249891 55.5062
7.434161478756298 54.8859
7.456524974096713 54.6274
7.478888753837185 54.7325
7.501235387657368 55.042
7.523599738562711 55.1602
7.545946944825532 55.1923
7.568311870344528 55.7688
7.5906770845765665 56.0365
7.613025156078678 57.0637
7.635390950099687 58.3625
7.657739602662809 57.3275
7.680105979923558 56.2463
7.702472650212829 56.4963
7.724822180948224 56.0134
7.747189439655568 56.4158
7.769539560075357 56.6724
7.791907410653562 57.0103
7.81425812420825 57.0177
7.836626570110925 57.2909
7.858995315087906 57.998999999999995
7.881346924933401 57.9186
7.903716270417482 58.85
7.926068482028405 59.1358
7.948438431475253 59.7186
7.9708086843180235 59.9145
7.993161805171116 60.9407
8.015532667162402 60.9188
8.037886398416653 62.1036
8.060257873014221 62.8296
8.082629655331942 62.8535
8.104984308787587 64.3433
8.127356708900503 67.203
8.149711981398308 72.666
8.172085002766314 74.6133
8.194458336181368 71.8471
8.216814543847752 69.6289
8.23918850371002 69.8652
8.26154533906492 70.8206
8.283919928836452 72.3276
8.306277395339652 73.0468
8.328652618483376 74.4961
8.351028159736202 76.6664
8.373386579575245 79.2475
8.395762759396959 80.8003
8.418121819038275 85.8953
8.440498640894003 98.6168
8.462875785192262 113.15100000000001
8.485235811156207 127.11200000000001
8.507613602688501 173.648
8.529974277114228 271.186
8.552352719347912 418.56800000000004
8.574731488360351 688.793
8.59709314210385 1215.88
8.619472567021075 1889.33
8.64183487789147 2221.02
8.664214962183097 1812.56
8.686577933647762 952.467
8.708958680784317 382.101
8.731339760774953 170.206
8.753703729764451 113.087
8.77608547780821 100.301
8.798450116065078 96.3099
8.820832535634787 93.0543
8.843215292401656 91.5205
8.865580941199045 90.2256
8.887964374703538 89.3365
8.910330701447199 90.0599
8.932714815164482 92.1169
8.955099270424924 91.1414
8.977466620733543 87.7693
8.999851761421976 85.6753
9.022219798361645 84.1931
9.04460562795561 83.7689
9.066991803441677 83.2341
9.089360876979615 83.1255
9.111747746589993 82.7096
9.13411751544971 81.9625
9.156505082664324 82.12200000000001
9.178875550323522 82.4554
9.20126381862328 82.8728
9.223652438908596 83.2235
9.246023961427412 82.9646
9.26841328802173 82.6173
9.290785518039224 82.2693
9.313175554425882 83.0198
9.335565947154315 82.79799999999999
9.357939245086508 83.1897
9.380330352834827 83.4303
9.40270436697103 83.3888
9.425096193225055 83.495
9.447488380180165 84.6035
9.469863475295412 84.4571
9.492256385987508 85.0166
9.514632206018318 85.4797
9.537025843935714 85.8779
9.559402392368193 86.7806
9.581796761000229 87.92399999999999
9.604191496441521 88.6224
9.626569144158516 91.9764
9.648964615551032 96.0839
9.671343000390081 97.7796
9.693739211225699 96.1547
9.716135793237463 94.1808
9.738515290448102 93.6437
9.760912617143402 94.5798
9.783292860202891 95.7907
9.805690935076182 96.9641
9.828089385495742 98.2511
9.850470754023561 100.6
9.872869957865444 107.696
9.89525208097539 121.63
9.917652041736662 133.893
9.940052382417589 135.486
9.962435644102392 145.886
9.984836746950979 186.947
10.007220771957746 257.165
10.029622640473708 363.851
10.052007432299963 543.805
10.074410069984072 826.1669999999999
10.096813093716005 1257.85
10.119199042482517 1709.11
10.141602840636468 1902.57
10.163989564971628 1588.54
10.186394141051062 898.8380000000001
10.208799107559706 395.95099999999996
10.231187001965623 185.178
10.253592751657669 125.899
10.275981430388155 113.56299999999999
10.298387966769793 112.434
10.320794897965431 114.874
10.343184759907361 114.103
10.36559248305461 109.086
10.387983138083852 105.374
10.410391656691655 108.979
10.432800574501677 121.32600000000001
10.455192425893369 139.276
10.47760214443012 166.3
10.499994797678786 209.91299999999998
10.522405320453982 289.846
10.54479877906917 403.93199999999996
10.567210109595656 511.07599999999996
10.5896218454736 559.337
10.612016518879773 501.592
10.634429067781074 343.155
10.656824555333241 193.56
10.679237920773568 120.31
10.701651695961992 95.5447
10.724048411481384 89.7212
10.746463008485165 86.4895
10.768860546937125 84.9768
10.791275969274796 83.2249
10.81369180576079 82.4744
10.836090585366925 81.5327
10.858507252467449 80.1617
10.88090686379991 79.2653
10.903324365036394 78.9656
10.925724811614439 78.3892
10.948143150509463 79.2047
10.970561909719066 78.8186
10.992963615930844 77.0379
11.015383218085756 74.8545
11.037785768347074 73.4984
11.06020621697282 72.9389
11.082627090322113 72.5542
11.105030913430326 72.1975
11.12745263854165 72.6798
11.149857314510728 75.73
11.172279894912576 80.9547
11.194702904450653 81.4753
11.217108866490921 77.9345
11.239532736615194 74.0603
11.26193956033512 71.688
11.284364294577085 70.5018
11.306789462371718 68.6509
11.329197585398376 67.6158
11.351623622610898 67.4022
11.37403261614354 66.3818
11.396459526308487 66.3765
11.418869393879497 65.9031
11.441297180532617 65.5063
11.463725406927658 65.4619
11.486136592353875 65.0813
11.508565700543707 65.6546
11.530977768845315 67.2963
11.553407762368774 67.8889
11.575838200059769 67.572
11.598251599479612 65.7361
11.620682927815501 64.0428
11.64309721895548 63.7103
11.665529441478206 63.5294
11.687962112597958 63.0183
11.710377748130886 63.4349
11.732811318753434 62.9823
11.755227854859067 63.137
11.777662328529495 62.9374
11.800079768750786 62.8971
11.822515149015453 62.7502
11.844950984084935 63.0481
11.867369787303163 62.6151
11.889806534289491 62.6711
11.912226250487029 63.1493
11.934663912939751 63.2594
11.9571020346363 63.2178
11.979523127133968 63.1677
12.001962169624331 64.1783
12.024384183972964 65.1428
12.046824150809913 68.8459
12.069264581333726 74.5169
12.091687985297767 80.6721
12.11412934550045 90.5709
12.136553680195208 104.895
12.158995973632788 127.509
12.181438735204349 153.407
12.20386447284199 183.7
12.226308172985636 205.136
12.24873485024193 200.87900000000002
12.271179492516982 165.502
12.293607112949127 126.462
12.316052700916226 93.7925
12.338498763250042 77.8291
12.360927805303868 70.1304
12.383374818673879 66.6699
12.405804812803074 64.9365
12.428252780773262 64.5813
12.45070122756722 64.6672
12.473132656675375 64.44
12.49558206341869 64.7422
12.518014453510101 64.5121
12.540464823770117 64.8662
12.562915677315177 65.0492
12.58534951575545 65.8228
12.607801338171472 67.5143
12.630236146511358 72.3532
12.652688941369085 76.9846
12.675124723177234 77.4112
12.697578494048786 74.3559
12.720032754458185 70.2628
12.742470003354093 68.4747
12.764925245138771 68.0216
12.787363476431278 68.4268
12.809819703166806 68.7817
12.83227642391173 69.4315
12.854716135692716 69.9499
12.877173846755147 71.1871
12.899614549869717 71.3927
12.9220732548287 72.2839
12.94453245827299 72.8669
12.966974655289818 73.8714
12.989434858002571 74.4443
13.011878055298721 75.4012
13.034339260862497 76.0626
13.056800969391883 77.3904
13.079245674017244 79.6031
13.101708390774869 81.8584
13.12415410463411 89.1777
13.146617833206086 102.381
13.169064559883248 115.225
13.191529303857127 130.72799999999998
13.213994557076367 153.707
13.236442809902437 190.52
13.258909083908291 244.079
13.28135835851934 305.17400000000004
13.30382565690295 373.728
13.326293469022952 427.351
13.348744283242008 434.25699999999995
13.371213125129904 363.473
13.39366497011003 263.285
13.416134845360597 172.852
13.438605238843131 122.363
13.46105863690397 106.64
13.483530069144786 107.36399999999999
13.505984506951902 113.40700000000001
13.528456981549432 123.686
13.550929978879088 139.774
13.573385983253365 163.416
13.595860028340867 201.543
13.618317081455832 251.85
13.64079217790333 304.39099999999996
13.663250283359057 349.912
13.685726434770173 370.536
13.708203115221277 344.327
13.730662806148091 260.394
13.75314054697177 184.831
13.775601299246777 128.614
13.798080104050406 97.0961
13.820559442405358 85.5522
13.843021793671388 82.2724
13.865502201420897 80.6851
13.887965623051947 80.0671
13.910447103807167 78.9343
13.932929122629764 77.5201
13.955394156785959 77.3242
13.977877254034569 76.2216
14.000343367582113 75.4542
14.022827546871707 74.6385
14.045294743423524 74.232
14.06778000837062 73.3812
14.090265817715476 73.4167
14.112734645763819 72.8828
14.13522154619454 72.8278
14.157691466286913 72.7966
14.180179461423874 72.5527
14.202668005486178 71.6373
14.22513957064374 71.0185
14.247629214846473 70.6981
14.270101881097517 70.4782
14.29259262906496 70.7314
14.315083930490205 71.4053
14.337558255389705 71.7217
14.360050666019726 71.3866
14.382526101071944 70.4617
14.405019624534942 69.6755
14.427513705993134 69.1843
14.449990813291825 69.2665
14.47248601302899 69.0848
14.49496423954951 69.1772
14.517460561197822 69.39399999999999
14.539939910570322 68.9441
14.562437357763558 69.5842
14.58493536931253 70.485
14.607416409993311 71.3209
14.62991555254159 72.1202
14.652397725157423 72.007
14.674898002342799 71.3104
14.697398848433282 70.8731
14.719882725991326 71.6789
14.74238471217934 72.7518
14.764869730765593 76.0983
14.787372860692983 80.3514
14.809876564079925 84.9
14.83236330125751 91.04700000000001
14.854868153850365 99.7612
14.877356041159485 112.79799999999999
14.899862046604186 131.477
14.922351087688757 155.726
14.944858249632887 183.05599999999998
14.967365991421232 209.215
14.989856770231246 223.175
15.012365673994204 220.68400000000003
15.03485761569738 188.87
15.05736768508665 148.666
15.07987833888692 113.243
15.102372032001655 89.6232
15.124883856909658 76.8551
15.14737872204565 72.3765
15.169891721717274 70.793
15.192405310371893 70.6427
15.214901940621196 70.8242
15.237416709527137 71.1648
15.259914520936249 71.3178
15.282430473753607 70.2773
15.304947020131227 69.09899999999999
15.327446610371178 68.5302
15.349964346154254 67.7825
15.372465126703139 67.1114
15.394984055556009 66.8867
15.417486030076159 66.8728
15.44000615566487 66.5532
15.462526881230803 66.395
15.485030653812652 66.5247
15.507552581617434 66.5033
15.530057557334603 66.8043
15.55258069104857 66.6263
15.575104429329837 66.8745
15.597611216864632 66.2739
15.620136166564563 66.2962
15.6426441664095 67.5687
15.665170331202765 69.9449
15.687697105158826 73.3489
15.710206930593545 77.1171
15.732734925158933 81.4508
15.755245972089478 87.8795
15.77777519094324 97.3713
15.800287463046663 110.167
15.822817909869592 128.385
15.84534897229804 148.755
15.867863089299354 172.419
15.890395385222186 188.394
15.912910736597423 195.396
15.935444269699861 181.53400000000002
15.957978423016485 155.53
15.980495633101265 122.867
16.003031029129367 95.51100000000001
16.02554948280019 76.2027
16.048086125229432 67.7508
16.070623392487107 65.36399999999999
16.09314371869582 64.5307
16.11568223789321 63.8116
16.13820381691126 62.9102
16.160743591742527 61.9356
16.183283996022084 60.8883
16.205807461423195 59.6857
16.228349126881973 59.1641
16.25087385432698 59.1311
16.27341678466365 58.4428
16.29594277784926 58.5059
16.31848697676433 58.8921
16.341031811604868 59.1445
16.36355971058487 59.3427
16.3861058195587 58.9094
16.40863499352978 57.9327
16.431182380342005 56.9165
16.453730407713202 56.5575
16.476261501364792 56.3043
16.498810812136167 55.8656
16.52134319004079 56.0706
16.54389378792203 55.653999999999996
16.566445031001553 55.638000000000005
16.588979342490088 55.5348
16.61153187824822 55.3552
16.634067483263312 55.3257
16.656621315414416 55.3139
16.679175797408888 54.9681
16.701713349928728 54.8168
16.72426913389191 55.2538
16.74680798922351 55.3772
16.76936507887444 55.4356
16.791905240734874 55.5082
16.814463639794468 55.315
16.837022695210294 55.2681
16.859564824093756 55.6558
16.882125194503903 56.2695
16.904668639217885 56.773
16.927230328348003 56.8596
16.949792678493612 56.9218
16.972338104193863 56.4413
16.994901778652235 56.0244
17.017448529496576 55.9605
17.040013531998152 56.0889
17.06257920018044 56.7294
17.0851279459922 57.5711
17.107694947817667 58.3355
17.130245028099072 59.282
17.15281336730298 60.5861
17.17536478578733 62.2922
17.19793446610687 64.5601
17.220504818648422 67.548
17.243058251703697 70.4947
17.265629950971032 74.9412
17.288184731571736 78.7191
17.310757781306908 82.5444
17.33333150794385 83.9134
17.355888317140174 82.1541
17.37846339986244 77.7457
17.401021565958885 71.5135
17.42359800851343 66.3249
17.44617513265564 62.1865
17.468735341390783 60.1586
17.491261035594565 59.409
17.51396340099364 59.4187
17.536490463869136 59.5388
17.559018209820174 59.4512
17.58154663977963 59.5283
17.604251766089718 59.5221
17.626781572227713 59.9539
17.64931206518155 60.1243
17.671843245885103 60.7573
17.69455114821572 61.0236
17.717083712612634 61.3457
17.739616967569667 61.3469
17.762150914021706 61.6737
17.78486160749854 61.7261
17.807396945166804 62.3257
17.829932977143503 63.2332
17.85246970436452 64.8425
17.875183204129467 67.1777
17.897721330097664 69.5091
17.920260154126645 71.5702
17.942799677153296 74.9606
17.9655159983646 78.9059
17.988056927677544 83.8672
18.010598558807683 91.5241
18.033140892692916 101.09200000000001
18.05586005052525 111.182
18.07840379824407 122.557
18.10094825154059 133.757
18.12366954819864 141.534
18.146215420998306 141.94899999999998
18.16876200220057 132.22299999999998
18.191309292745153 117.728
18.214033452627167 103.605
18.236582170236648 91.7054
18.259131600016456 86.6444
18.281681742907335 86.8951
18.304408781233683 90.9751
18.32696035875955 96.4153
18.349512652227624 101.204
18.372065662579683 105.78299999999999
18.394795594587553 107.23200000000001
18.41735004715306 103.89399999999999
18.43990521943684 96.5351
18.46246111238171 87.2077
18.485193953325208 77.6214
18.507751296070428 70.3357
18.530309362314178 66.1711
18.552868153000343 63.7791
18.57560391815056 62.5871
18.59816416623245 62.1855
18.620725141597372 61.6074
18.643286845190268 61.3969
18.666025549835414 60.8511
18.688588718427933 60.1873
18.711152618092243 60.0738
18.73389353884365 59.7674
18.75645890921984 59.3586
18.77902501351406 58.9626
18.801591852673102 59.0513
18.824335739722738 58.5617
18.846904057212626 58.4111
18.8694731124168 58.0571
18.89204290628315 58.0695
18.914789774966803 57.9171
18.937361054791623 57.6205
18.959933076131318 57.4771
18.982505839934877 57.3061
19.00525570560582 57.4409
19.027829963004184 57.0745
19.05040496572238 57.2739
19.072980714710468 57.4033
19.095733592739563 57.5473
19.11831084296757 57.8739
19.140888842324735 58.5458
19.16346759176222 58.5283
19.18622349753803 59.1284
19.208803755869358 59.9233
19.231384767143577 61.3102
19.253966532312948 62.8122
19.276725481241822 64.7107
19.29930876296784 66.9598
19.3218928014549 70.1736
19.34465404436217 73.0162
19.36723960516257 75.7316
19.389825925592426 77.2501
19.412413006605938 76.0049
19.43517731967805 72.3476
19.457765930683355 68.0656
19.48035530514408 63.1012
19.50294544401556 59.5643
19.525712842708348 56.9608
19.54830451925909 55.5005
19.570896963095727 54.5027
19.593490175174704 54.316
19.616260674962184 54.2481
19.638855432416964 53.8917
19.661450960992624 53.8546
19.68404726164677 53.7645
19.706820878021247 53.7262
19.729418731756834 53.9079
19.752017360452857 53.6018
19.77461676506804 53.8626
19.797393513540218 53.9492
19.819994478951667 54.3942
19.84259622316767 54.9563
19.8651987471481 55.1873
19.887978643247177 55.457
19.91058273574792 56.1207
19.933187610901943 56.7296
19.955969879466828 57.9038
19.97857632894404 59.3933
20.00118356396599 61.0335
20.023791585494575 63.0353
20.046577028914875 65.525
20.069186632506966 67.7556
20.091797025500632 69.7749
20.114408208858933 70.743
20.137196842715273 70.3422
20.159809615886765 68.4961
20.18242318232135 65.8536
20.20503754298326 63.7591
20.227829382875154 62.5175
20.250445341109344 62.6055
20.27306209647285 63.1264
20.29567964993108 64.4799
20.31847471147704 65.2165
20.34109387027612 66.3314
20.363713830075454 65.855
20.386334591841646 64.4794
20.409132890679302 61.8411
20.431755265564437 58.5075
20.454378445325528 55.7732
20.477002430930366 53.7338
20.499803982716553 52.5171
20.522429589228004 51.7108
20.54505600449589 51.3655
20.567683229489194 51.3027
20.590488049900088 50.9429
20.61311690359731 50.4481
20.63574656993626 50.4097
20.658553853717297 49.9996
20.681185154618298 49.8652
20.703817271080066 49.7471
20.72645020407368 49.6154
20.749260783967177 49.3586
20.771895359337133 49.119
20.794530754161617 49.3091
20.817166969412938 49.2306
20.83998086114876 49.1305
20.86261872660049 48.93899999999999
20.885257415405402 48.988
20.90789692853701 48.848
20.930714147864748 48.9465
20.953355319030678 48.8572
20.97599731745334 49.0063
20.99864014410749 48.8758
21.021460706796564 48.8922
21.044105199328826 49.2021
21.06675052302631 49.4409
21.089396678865015 49.7525
21.112220600704806 49.8671
21.134868430275347 50.0653
21.15751709492456 50.4189
21.180166595629693 50.8495
21.202993892429635 51.2487
21.22564507473034 51.7041
21.24829709602816 51.7064
21.27112693608965 51.8725
21.293780644891275 51.9012
21.316435195634053 51.1206
21.339090589297417 50.3502
21.361923832041875 50.1151
21.384580921090404 49.1519
21.407238856007325 48.6279
21.429897637773326 48.5939
21.45273429906592 48.8276
21.475394784108598 48.7108
21.498056118951983 48.6277
21.520718304578022 48.9506
21.543558400304388 48.9338
21.566222297108816 49.0592
21.58888704765135 49.2491
21.61155265291521 49.743
21.63439619898156 50.1439
21.657063523335786 50.303000000000004
21.67973170537063 50.8908
21.7024007460706 51.352
21.72524775840385 52.0132
21.747918526116475 53.1427
21.770590155457388 54.2055
21.79326264741238 55.869
21.816113141960237 57.618
21.838787368860547 59.3644
21.861462461341976 61.3062
21.884315579735777 63.2439
21.90699241312273 64.5359
21.92967011506078 65.1985
21.95234868653799 64.8767
21.9752053151131 63.5908
21.997885635446785 62.0717
22.020566828293532 60.0285
22.04324889464272 58.0487
22.066109049404666 56.9055
22.088792872571794 56.3548
22.111477572219204 56.3581
22.1341631493376 56.5262
22.157026846313123 56.2149
22.179714188221507 55.5928
22.202402410582668 54.3218
22.22509151438863 53.0022
22.24795876962584 51.747
22.270649646204486 50.8648
22.293341407213727 50.2091
22.316034053646906 49.6766
22.338904883215342 49.4013
22.36159931041458 49.381
22.38429462602756 49.2507
22.40699083104897 49.0849
22.429865251039757 49.1317
22.452563244831367 49.2792
22.47526213102522 49.2706
22.49813925616515 49.0615
22.520839937143307 48.8246
22.543541513520587 48.8182
22.56624398629403 48.7022
22.589124730075895 48.5915
22.611829005656723 49.0615
22.63453418063466 48.9004
22.657240256008077 49.1301
22.680124634582935 49.2515
22.70283252079775 49.6211
22.725541310413075 49.9771
22.74825100442868 50.1052
22.771139033969575 50.5533
22.79385054687155 50.7977
22.81656296718292 51.4342
22.83927629590484 52.3902
22.862167992606945 53.5019
22.88488314827121 54.5714
22.907599215359284 55.4934
22.93031619487366 56.5508
22.953211574954405 57.4047
22.975930389478226 58.2682
22.998650119445763 58.5794
23.02137076586092 57.6065
23.044269845560063 56.43
23.06699233506288 54.7346
23.089715744034912 52.8546
23.112617610931565 51.4131
23.135342869061212 50.2218
23.158069049684816 49.4526
23.1807961538087 49.1342
23.20370174880544 49.0183
23.226430710184808 49.1551
23.249160598093425 49.1617
23.271891413539002 49.1873
23.294800752937697 49.1987
23.31753343374794 49.3537
23.340267045128353 49.3967
23.36300158808808 49.8763
23.38591468821339 50.2236
23.408651104658304 50.6262
23.431388455719986 51.2398
23.454126742409 52.0842
23.4770436196085 53.1389
23.499783787914662 54.3849
23.522524894889884 55.2347
23.54526694154616 56.2199
23.56818761219047 57.3955
23.59093154860734 57.9197
23.613676427751283 58.4373
23.636422250635754 57.5215
23.659346731118656 56.0297
23.68209445191868 53.8178
23.704843119509587 51.8253
23.72759273490623 49.7154
23.750521041644767 48.4265
23.77327256312355 47.4156
23.796025035462787 46.7956
23.818956224555475 46.3406
23.841710609113413 46.1828
23.86446594758979 46.0377
23.887222241002014 45.7553
23.910157285144578 45.4819
23.932915498962537 45.4506
23.955674670778713 45.3594
23.978434801611975 45.055
24.001373717286125 44.9831
24.024135776723917 44.8645
24.046898798245582 44.8651
24.06966278287146 44.8245
24.092605586582614 44.5952
24.115371508023642 44.3961
24.1381383956401 44.2562
24.16090625045381 44.2696
24.183852958731244 44.3261
24.206622758582608 44.066
24.229393528706886 44.0415
24.252165270127392 44.0679
24.27511589952438 43.8085
24.297889594216997 43.8069
24.32066426328598 43.6211
24.34343990775613 43.4887
24.36639447485003 43.2892
24.38917208083877 43.403
24.41195066531332 43.2449
24.43490819850244 43.4012
24.457688750692377 43.321000000000005
24.48047028445616 43.1533
24.503252800821233 43.3915
24.526214300784112 43.4546
24.548998793132213 43.3494
24.57178427117417 43.2251
24.59457073593893 43.3321
24.617536219319863 43.1619
24.64032466834748 43.2725
24.663114107195035 43.06100000000001
24.685904536893013 42.8543
24.708874020360852 42.6649
24.731666442613744 42.7232
24.754459858818787 42.6545
24.777254270007962 42.4908
24.80022777025625 42.535
24.82302418230472 42.4017
24.845821592443674 42.4583
24.86862000170663 42.4066
24.891597535453727 42.4015
24.914397953892728 42.598
24.93719937456671 42.5478
24.96000179851076 42.7268
24.98298338249997 42.8017
25.00578782394922 43.086999999999996
25.028593271784167 43.1514
25.05157790644186 43.4637
25.07438537804115 43.6001
25.097193859145293 44.0105
25.120003350792075 44.1504
25.142992065061257 44.3363
25.165803588823465 44.6684
25.18861612625217 44.8901
25.211429678386736 44.9179
25.234422489079968 44.9974
25.257238081693636 45.0556
25.280054692141732 45.1614
25.3028723214652 45.0666
25.325869245420463 45.3088
25.348688923599397 45.2043
25.371509623787006 45.0871
25.394331347025812 44.8705
25.41733240110666 44.4312
25.440156181590016 43.8374
25.46298098826268 43.3253
25.48580682216873 42.6441
25.50881202326435 42.0834
25.53163992281684 41.7262
25.55446885274561 41.4451
25.577298814096377 41.1773
25.600308179121807 41.059
25.623140214533745 41.1836
25.64597328451537 40.9722
25.66898578564376 40.7281
25.691820936010206 40.8292
25.714657124097695 40.7953
25.737494350954734 40.9623
25.760511045684957 40.7648
25.783350361364224 40.8354
25.806190718969255 40.8471
25.82903211955018 40.9056
25.852053024868923 40.9374
25.874896522722523 40.913000000000004
25.897741066713106 40.8993
25.920586657892454 41.0132
25.943611790812668 41.2062
25.966459487728237 41.2949
25.989308234998564 41.2046
26.01215803367705 41.6421
26.03518741123814 41.9608
26.05803932412957 41.9412
26.080892291600094 41.9174
26.10374631470478 41.9035
26.12677995397268 42.1001
26.14963609978026 41.8896
26.172493304397875 41.7439
26.19535156888223 41.4752
26.218389486949604 41.0027
26.241249882640123 40.8103
26.26411134137826 40.5549
26.28715248187403 40.599000000000004
26.31001607820869 40.4719
26.3328807407756 40.2998
26.35574647063438 40.4423
26.37879191991473 40.2999
26.401659795896734 40.5834
26.424528742360263 40.3784
26.447398760366614 40.8135
26.470448535598294 40.9261
26.49332070826805 40.9434
26.516193955675355 41.3121
26.53906827888316 41.628
26.562122397260108 41.7117
26.584998883685063 42.0068
26.607876449110325 42.2505
26.63075509460056 42.4256
26.65381357334404 42.4479
26.67669439061878 42.4948
26.699576291163382 42.3559
26.722459276044212 42.3361
26.745522132402975 41.9588
26.768407297649354 41.68
26.791293550442003 41.2788
26.814180891848974 41.1532
26.837248143099337 40.7152
26.860137673466657 40.7432
26.88302829566349 40.3896
26.90592001075963 40.3376
26.92899167420566 40.2558
26.951885586870763 39.7577
26.974780595655517 39.6393
26.99785558178161 39.5324
27.020752794605112 39.2768
27.043651106772522 39.1124
27.06655051935668 39.0995
27.089629948036183 38.9935
27.112531573292053 39.0567
27.135434302194138 39.0132
27.158338135817015 38.8662
27.181422024430987 38.9524
27.204328079372566 38.8422
27.22723524226965 38.7244
27.250143514198573 38.73
27.273231880156334 38.802
27.296142382065014 38.6466
27.319053996245536 38.6436
27.341966723775965 38.7469
27.365059584515222 38.8896
27.38797455070062 38.847
27.410890633481237 38.6929
27.433807833936918 38.6458
27.456905206923906 38.7314
27.47982465472398 38.7567
27.502745223449743 38.832
27.525666914182825 38.8301
27.548768816912457 38.9089
27.571692763693633 38.7816
27.59461783573812 38.603
27.617723149491244 38.4224
27.640650484125285 38.4888
27.66357894728264 38.3266
27.686508540048052 38.4185
27.709618414237887 38.283
27.732550278321757 38.113
27.755483275279115 38.1326
27.778417406196485 38.1454
27.801531858397514 38.0133
27.824468269376716 38.0456
27.847405817586786 38.1106
27.870344504116094 38.2771
27.893463551932008 38.3813
27.916404527281053 38.6002
27.93934664422563 38.6809
27.962289903855886 38.8165
27.98541356491974 39.0336
28.00835912214229 38.9787
28.03130582533231 39.2685
28.054253675581805 39.3131
28.077381967556104 39.3737
28.100332124185126 39.3066
28.123283431160893 39.2374
28.146235889577238 39.1423
28.169368830154156 38.8708
28.192323603752033 38.7035
28.215279532083304 38.3869
28.238415973016764 38.2211
28.261374223145094 38.0728
28.284333631303806 37.7514
28.307294198589954 37.7939
28.330435319167677 37.4538
28.353398217078915 37.2461
28.376362277420153 36.8984
28.39932750129032 36.7347
28.422473319286713 36.6086
28.44544088262495 36.6972
28.468409612800283 36.5952
28.491379510913497 36.372
28.51453004413313 36.2317
28.53750229057244 36.1878
28.56047570826344 36.2065
28.583450298308804 36.1707
28.606605564586562 35.9325
28.629582511831156 35.9243
28.65256063474956 35.8448
28.675539934446338 35.9069
28.698699951647605 35.8785
28.72168161743193 35.6652
28.74466446331978 35.6459
28.767648490417624 35.606
28.790813276438353 35.6818
28.813799678527303 35.6792
28.836787265157085 35.6393
28.859955641890075 35.8348
28.882945610203045 35.6555
28.905936766392035 35.5524
28.928929111566863 35.646
28.952102288520145 35.5023
28.975097024308607 35.3728
28.998092952423807 35.2254
29.021090073977508 35.1036
29.04426806913204 35.0326
29.067267590245258 34.971
29.090268308143695 34.8858
29.11327022394099 34.7581
29.13645305530891 34.7257
29.159457379627167 34.6893
29.18246290519685 34.6372
29.20546963313352 34.6146
29.22865731875826 34.5391
29.25166646419296 34.5745
29.27467681535305 34.4019
29.29768837335608 34.4668
29.320880931312562 34.4784
29.34389491580634 34.5337
29.366910110507334 34.4985
29.38992651653503 34.5278
29.41312396492981 34.4647
29.436142806456754 34.3638
29.45916286268059 34.2484
29.48236399319994 34.1865
29.50538649169417 34.0995
29.528410208259935 34.1124
29.55143514402014 33.7876
29.574641196749695 33.6055
29.597668583816574 33.5961
29.6206971934585 33.4606
29.64372702680042 33.4165
29.666938019934474 33.2356
29.689970313635285 33.2466
29.713003834422636 33.0881
29.73603858342347 33.1817
29.759254535188578 32.9506
29.78229175361658 32.9451
29.80533020365064 33.1079
29.82836988641968 33.0233
29.85159081507472 32.9898
29.874632976355343 32.9499
29.89767637376955 32.9196
29.920721008448314 32.8246
29.9439469322847 32.7781
29.96699405457564 32.8288
29.9900424175358 32.7861
30.013092022298157 32.7884
30.03632295963995 32.7501
30.059375061131373 32.6955
30.08242840783577 32.7163
30.105483000888153 32.6546
30.128718970092244 32.6588
30.151776069006917 32.6291
30.17483441768648 32.5369
30.198074175317235 32.6346
30.221135036724256 32.7265
30.24419715131772 32.6172
30.267260520236203 32.4744
30.290505341942243 32.5681
30.313571232750228 32.6488
30.336638381310948 32.5253
30.35970678876503 32.446
30.38295669299435 32.5343
30.40602763151657 32.4727
30.429099832366074 32.3983
30.452173296685572 32.2695
30.47542830191959 32.3203
30.498504306502497 32.3015
30.521581577995562 32.3541
30.544660117543582 32.3395
30.56792024229725 32.5128
30.59100133132069 32.3926
30.614083691845494 32.4055
30.637167325018545 32.3749
30.660432587840603 32.403
30.683518779717886 32.3586
30.70660624769615 32.5366
30.729694992924372 32.3698
30.75296541239743 32.4144
30.77605672557558 32.3514
30.799149319462742 32.334
30.8224236211637 32.1568
30.845518789950724 32.1441
30.868615242910597 32.0592
30.891712981195973 31.9315
30.91499247215866 31.8873
30.938092794619365 31.9549
30.96119440587579 31.7917
30.984297307082752 31.6749
31.00758200598383 31.5434
31.030687500658694 31.4571
31.053794288760695 31.3683
31.076902371446767 31.244
31.100192296997445 31.2866
31.12330298246119 31.3156
31.14641496599209 31.2285
31.169528248749216 31.1766
31.19282341969534 31.1228
31.215939314557186 31.2196
31.239056512134788 31.1722
31.262175013589378 31.0853
31.28547544871168 31.0806
31.30859657161541 31.0405
31.331719001892175 31.1414
31.35484274070538 31.1813
31.378148458819545 31.1717
31.401274828443725 31.1659
31.424402510106933 31.21
31.447712205419993 31.2889
31.470842524931633 31.0935
31.493974159989783 31.0589
31.51710711176168 31.0099
31.54042212308802 30.9894
31.563557722100917 30.9671
31.586694641341655 30.8096
31.609832881979628 30.6513
31.63315322823208 30.6763
31.656294125521327 30.551
31.679436347728515 30.5696
31.70257989602529 30.4561
31.725905596152327 30.4404
31.74905181052835 30.3131
31.772199354521323 30.4603
31.79534822930507 30.3071
31.818679302290967 30.3199
31.84183085259981 30.3811
31.864983737233473 30.3568
31.88813795736804 30.3176
31.911474422233013 30.1974
31.934631327356435 30.3182
31.9577895715215 30.2812
31.980949155906522 30.2545
32.004291031706956 30.1789
32.027453310562606 30.1686
32.05061693318573 30.0273
32.07396288236386 30.009
32.09712920658542 29.9387
32.12029687812702 29.875999999999998
32.14346589817093 29.7322
32.166817291729984 29.7398
32.18998902288583 29.7054
32.21316210610336 29.6826
32.23633654256711 29.5149
32.259693399663725 29.4681
32.282870556771144 29.3637
32.30604907069099 29.3714
32.329228942610065 29.3975
32.35259128243769 29.2638
32.375773884550505 29.2595
32.398957848235646 29.0564
32.422143174682176 29.0583
32.445511016471215 29.0327
32.468699082679954 28.9226
32.49188851523011 28.8663
32.51507931531304 28.8132
32.538452678331 28.8329
32.56164622776311 28.6983
32.58484114831493 28.6756
32.60803744118015 28.6615
32.631416344731896 28.7058
32.654615396551876 28.7222
32.67781582427913 28.7025
32.701198898634416 28.5043
32.72440209253756 28.4769
32.747606665947124 28.5897
32.77081262006088 28.3823
32.79420126883317 28.3773
32.81740999876112 28.3381
32.840620112999424 28.2645
32.86383161274818 28.2237
32.88722585534586 28.2024
32.91044014056596 28.2616
32.933655814909734 28.1799
32.95687287957963 28.2742
32.98027273544904 28.0988
33.00349259526636 28.1454
33.026713849030116 28.0885
33.04993649794511 28.1067
33.073341986570746 28.0632
33.09656744032826 27.9496
33.11979429286444 27.993000000000002
33.14302254538647 28.0302
33.166433686291185 27.8833
33.18966475336992 27.9361
33.212897224069096 27.8213
33.23613109959831 27.8255
33.259547912343415 27.7781
33.2827846121627 27.7251
33.306022720453775 27.6754
33.32926223842861 27.5345
33.352684742614166 27.609
33.37592709463173 27.6051
33.399170859982064 27.5278
33.422597648419426 27.4502
33.44584425514446 27.3017
33.46909227885668 27.3174
33.4923417207723 27.1683
33.51577423505344 27.2344
33.539026528130385 27.1461
33.56228024307245 27.1547
33.585535381098246 26.9856
33.60897364093058 26.9919
33.63223163992385 26.9862
33.6554910656699 26.933000000000003
33.678751919389796 26.7999
33.702195944520106 26.7702
33.72545966903325 26.8021
33.74872482519663 26.7118
33.771991414233746 26.7302
33.79544122444841 26.7032
33.81871069412428 26.5693
33.84198160035767 26.5974
33.86525394437455 26.526
33.88870955949969 26.4968
33.911984794020626 26.5021
33.93526147001624 26.418000000000003
33.958539588715006 26.4071
33.98200102861669 26.383000000000003
34.0052820477047 26.3487
34.02856451319451 26.244
34.05203033759056 26.0872
34.07531571090147 26.2123
34.09860253431845 26.0953
34.121890809074316 26.041
34.145362493118924 26.0637
34.16865368561615 26.0851
34.191946333164054 25.9878
34.21524043699793 25.9449
34.23871800066799 25.9
34.26201503218366 25.8494
34.28531352370466 25.7825
34.30861347646881 25.686
34.33209693978188 25.6724
34.3553998301885 25.6982
34.378704185565205 25.5854
34.402010007152356 25.5549
34.42549939016683 25.6686
34.44880815937748 25.4735
34.472118398533134 25.4377
34.49543010887669 25.4378
34.51892543169198 25.3769
34.54224009966052 25.3979
34.56555624255917 25.3081
34.58887386163339 25.2382
34.61237514439016 25.1644
34.6356957311114 25.1606
34.65901779775809 25.2082
34.68252356662995 25.0333
34.705848608458616 25.0994
34.72917513396849 25.0429
34.75250314440949 24.9537
34.77601490857862 24.9489
34.799345904259795 24.9018
34.82267838863559 24.8826
34.846012362958525 24.8295
34.869530142679984 24.8661
34.89286711232212 24.7763
34.91620557568269 24.6916
34.93954553401677 24.749000000000002
34.9630693495876 24.6754
34.986412313340814 24.6324
35.00975677584668 24.6946
35.033102738362956 24.5814
35.05663261012228 24.4531
35.0799815881786 24.5364
35.10333207003229 24.4365
35.12668405694369 24.4744
35.150220005273056 24.3994
35.17357501786656 24.4525
35.19693153931268 24.3563
35.220289570874385 24.2786
35.24383161619786 24.2718
35.267192683604904 24.2643
35.290555264930376 24.1933
35.314101899412165 24.174
35.33746752422433 24.1904
35.36083466676374 24.2604
35.38420332829803 24.1295
35.407756095629054 24.1836
35.43112781085063 24.2071
35.45450104888391 24.0076
35.477875810999194 24.1129
35.50143473172161 24.02
35.52481255774625 24.0478
35.54819191167777 23.9793
35.57157279478914 23.9549
35.595137889488406 23.9566
35.61852184675279 23.9303
35.641907337029984 23.8103
35.665294361595684 23.7189
35.68886565090076 23.7074
35.7122557598848 23.7273
35.73564740699838 23.7505
35.759040593519934 23.625
35.78261809810353 23.6136
35.80601437933051 23.5576
35.829412203814705 23.4635
35.85281157283719 23.3657
35.876395313415884 23.4287
35.8997977874528 23.3328
35.92320180988546 23.3012
35.946790244133936 23.2472
35.97019737933222 23.2996
35.993606066789866 23.2247
36.01701630779276 23.1892
36.04061101440684 23.1111
36.06402437852291 23.147
36.08743930005611 23.1073
36.1108557802951 22.9776
36.13445678011326 23.0421
36.15787639383515 23.0251
36.18129757014299 22.9484
36.20472031032821 22.8574
36.22832762423364 22.8969
36.25175350829375 22.8453
36.275180960119776 22.7121
36.298609981005924 22.8142
36.32222362992669 22.7982
36.34565580510207 22.7759
36.36908955323448 22.7002
36.39252487562093 22.654
36.416144880530226 22.5876
36.43958336764275 22.6303
36.463023432914625 22.5239
36.486465077645676 22.4758
36.51009145956204 22.5577
36.53353627947859 22.5587
36.55698268276811 22.5063
36.58043067073321 22.371
36.60406345072071 22.3025
36.62751462435344 22.357
36.65096738658405 22.3355
36.67460498210655 22.2768
36.69806093788647 22.2937
36.72151848619297 22.2454
36.744977628333636 22.2307
36.76862165890998 22.0708
36.79208400512205 22.1606
36.81554794910557 22.1144
36.83901349217101 22.0429
36.862663978991606 22.0172
36.88613273667352 21.9765
36.90960309738324 22.0137
36.933075062434064 21.8882
36.95673202673572 21.86
36.98020721697122 21.8654
37.003684015502365 21.7391
37.027162423645365 21.6946
37.050825886711465 21.7486
37.07430753063053 21.6928
37.09779078812467 21.6397
37.121275660513014 21.605999999999998
37.144945643673694 21.5954
37.16843376245278 21.5422
37.19192350009803 21.6044
37.215414857931435 21.541
37.239091382563885 21.3772
37.262585997426164 21.4197
37.28608223645736 21.4631
37.309763684451696 21.3619
37.33326318851098 21.2707
37.356764320726555 21.2946
37.380267082425526 21.2719
37.40395510942588 21.2293
37.42746114683234 21.2056
37.45096881771841 21.1374
37.474478123414166 21.1247
37.49817275092816 21.1164
37.52168534303452 21.0663
37.54519957395567 20.953000000000003
37.568715445024665 21.0395
37.592416694607714 20.9881
37.61593586281424 20.9426
37.63945667518264 20.9969
37.66297913304891 20.8974
37.68668702630454 20.8525
37.710212792059274 20.774
37.733740207334854 20.8078
37.757269273470364 20.6646
37.780983832050374 20.6831
37.80451621684926 20.6929
37.82805025654007 20.6577
37.851585952464795 20.5955
37.8753071980695 20.5079
37.89884622345676 20.4903
37.92238690911902 20.4562
37.94611318753442 20.4381
37.969657210779765 20.4209
37.99320289834801 20.445999999999998
38.016750251586465 20.3942
38.04048325513017 20.3565
38.06403395679343 20.285999999999998
38.087586328183946 20.2196
38.11114037065203 20.2613
38.13488012115898 20.2997
38.1584375229181 20.1719
38.181996599821 20.1307
38.205557353221124 20.0588
38.229303872575656 20.0504
38.2528679961576 20.0548
38.27643380031219 20.0032
38.30000128639589 20.0132
38.32375459653193 19.9334
38.34732546371299 19.9695
38.37089801690786 19.8538
38.39447225747609 19.8616
38.418232380377425 19.7882
38.441810012983396 19.7728
38.46538933705673 19.714000000000002
38.488970353960084 19.7074
38.51273731166058 19.6781
38.536321731567014 19.5835
38.55990784840681 19.6199
38.58367995004091 19.5815
38.60726947812959 19.5106
38.63086070726198 19.558
38.654453638806274 19.5359
38.678232613930824 19.4676
38.70182896773327 19.428
38.72542702806741 19.4204
38.7490267963045 19.3982
38.77281266709232 19.3205
38.79641586862214 19.2854
38.8200207821842 19.2493
38.843627409152944 19.2669
38.86742019782782 19.1705
38.891030269149255 19.0981
38.914642058016156 19.215
38.938255565806124 19.1709
38.96205529464307 19.0807
38.98567225787121 19.098
39.00929094417078 19.0495
39.03291135492255 19.0626
39.05671804624804 19.0558
39.080341923549106 18.9439
39.103967529460334 18.8798
39.127594865365744 18.8111
39.15140854155791 18.8677
39.17503935514948 18.9018
39.19867190290282 18.7743
39.22249083587951 18.7865
39.24612686969409 18.7575
39.269764641845306 18.7349
39.293404153722804 18.7084
39.317230110864074 18.6595
39.34087311998506 18.5741
39.36451787301696 18.6077
39.388164371352595 18.5097
39.41199737518003 18.4722
39.43564738196752 18.46
39.45929913825317 18.4562
39.48295264543308 18.409000000000002
39.506792718520884 18.4004
39.530449745387216 18.3972
39.55410852735203 18.3539
39.57776906581474 18.3076
39.60161623079 18.2906
39.625280300200025 18.2561
39.64894613032202 18.1936
39.67261372255866 18.1912
39.6964680021016 18.2498
39.72013913657293 18.1778
39.74381203738292 18.1518
39.76748670593756 18.0969
39.79134812278169 18.0645
39.81502634488497 18.0728
39.83870633896685 18.002
39.862388106436654 17.9294
39.88625668336918 17.9845
39.90994201572829 17.9768
39.933629125719285 17.8649
39.957503091207826 17.8338
39.9811937746168 17.8438
40.00488623990914 17.7849
40.02858048850006 17.6984
40.05246165409549 17.7312
40.076159487492085 17.6896
40.099859108448875 17.6379
40.123560518384345 17.6406
40.1474489070226 17.646
40.171153913178564 17.5728
40.194860712584955 17.5862
40.2185693066637 17.5515
40.242464941335314 17.5047
40.26617714307655 17.4875
40.289891143772046 17.4935
40.3136069448471 17.4208
40.33750984859743 17.396
40.3612292688043 17.3566
40.3849504936829 17.3129
40.40867352466194 17.3247
40.43258372059144 17.3208
40.45631038219906 17.3508
40.48003885420956 17.2472
40.503769138055105 17.253
40.52768664931955 17.2054
40.55142057531802 17.2081
40.57515631746428 17.1204
40.599079334038514 17.1365
40.62281872700477 17.0423
40.64655994043941 17.0218
40.67030297578061 17.0266
40.69423334835778 16.9734
40.71798004609188 17.0461
40.74172857006355 17.0022
40.76547892171441 16.9266
40.7894166736039 16.9141
40.813170699248566 16.8578
40.83692655691388 16.8237
40.86068424804498 16.842
40.884629402612525 16.798
40.908390779366385 16.8275
40.932153993938 16.7254
40.95591904777605 16.6741
40.979871628443995 16.741
41.003640379561936 16.7008
41.02741097430883 16.6146
41.05118341413683 16.6376
41.075143444384416 16.6045
41.098919593177826 16.5754
41.1226975914255 16.5552
41.14647744058318 16.5031
41.170444943946755 16.4476
41.19422851378379 16.458
41.218013938914645 16.4278
41.24198706625173 16.3816
41.26577622087193 16.3316
41.289567235177785 16.3145
41.31336011063129 16.351
41.337340752422875 16.2813
41.361137369129835 16.2901
41.38493585138705 16.2258
41.40873620066004 16.1307
41.43272438060107 16.1704
41.45652848292052 16.1086
41.48033445666918 16.0572
41.50414230331616 16.0229
41.528138045159764 16.0112
41.551949656675205 15.9785
41.575763145513235 15.9754
41.59957851314666 16.0092
41.62358184070442 15.9541
41.64740098505737 15.9691
41.6712220126409 15.885
41.69504492493139 15.9036
41.71905586207357 15.8584
41.74288256296395 15.868
41.766711153007456 15.7783
41.79054163368412 15.7768
41.814560204340054 15.814
41.838394485526365 15.7305
41.86223066180303 15.6867
41.88625497706819 15.5806
41.910094962812 15.6192
41.93393684811168 15.5882
41.95778063445365 15.5543
41.981812625263366 15.507
42.00566023303407 15.4938
42.029509746323676 15.5135
42.05336116662236 15.525
42.077400857069705 15.4802
42.10125611078846 15.4619
42.12511327600405 15.3774
42.14897235421036 15.3372
42.173019768448455 15.365
42.19688269209613 15.3339
42.22074753323349 15.3488
42.24461429335818 15.2931
42.268669455600495 15.2612
42.292540073217886 15.2224
42.31641261433284 15.1756
42.34028708044675 15.2177
42.36435001496739 15.1489
42.38822835065557 15.1304
42.41210861586426 15.1027
42.4359908120986 15.1726
42.46006154323262 15.1004
42.48394762115317 14.9987
42.507835634632315 15.0464
42.531912233047436 14.9973
42.55580413732265 14.9741
42.579697981698 14.9679
42.60359376768525 14.9407
42.62767820545945 14.8467
42.65157789440821 14.8363
42.67547952952185 14.8049
42.699383112316 14.8252
42.72347541395347 14.8188
42.74738291190531 14.7706
42.771292362102166 14.7413
42.795203766063516 14.7061
42.819303956130405 14.6504
42.843219287476536 14.6402
42.86713657716324 14.6623
42.89105582671383 14.5901
42.91516392983864 14.5667
42.939087119032166 14.5521
42.963012272677304 14.512
42.98693939230129 14.514000000000001
43.01105543317513 14.4762
43.034986504731386 14.4614
43.05891954686589 14.4328
43.08285456110972 14.4349
43.10697856448665 14.3352
43.130917542983475 14.3203
43.15485849820081 14.2865
43.17880143167367 14.287
43.20293342237094 14.3098
43.226880332449 14.2357
43.25082922540554 14.2604
43.27496722682525 14.1831
43.29892010567796 14.1686
43.32287497204102 14.1559
43.34683182745632 14.1128
43.370977859791836 14.0396
43.39493871351105 14.0053
43.41890156092628 14.1082
43.44286640358341 14.0317
43.46702049182749 14.068
43.49098934522816 13.9767
43.51496019852649 13.9474
43.5389330532723 13.9262
43.56309522248204 13.9127
43.58707210044314 13.927
43.61105098451946 13.9056
43.63503187626491 13.8423
43.659202151562134 13.7766
43.68318707902681 13.7263
43.70717401884041 13.7581
43.731162972560874 13.7383
43.75534137913236 13.7274
43.779334381108384 13.7055
43.803329401683186 13.6852
43.82732644241872 13.6724
43.8515130055166 13.6482
43.87551410707659 13.604000000000001
43.89951723350145 13.5841
43.923709934595614 13.6087
43.94771713129917 13.5354
43.97172635758096 13.5317
43.99573761501002 13.5104
44.0199385169922 13.4685
44.04395385732619 13.4223
44.067971233533086 13.4513
44.09199064718605 13.4026
44.11619977548961 13.3657
44.14022328470671 13.3279
44.16424883610785 13.3638
44.18827643127035 13.3125
44.21249381139513 13.2471
44.236525514814076 13.2274
44.26055926674478 13.2236
44.28459506876863 13.2638
44.3088207262813 13.1195
44.33286064928722 13.1275
44.35690262714919 13.1292
44.38094666145278 13.0607
44.4051806219871 13.0822
44.42922879003185 13.0425
44.45327901929361 13.0619
44.477331311362136 13.0506
44.501573600619416 12.9624
44.525630039221795 12.9767
44.54968854541895 12.9807
44.573937102200176 12.97
44.5979997645541 12.9274
44.622064499300315 12.9038
44.64613130803592 12.8725
44.67038823869318 12.8736
44.69445921643748 12.808
44.718532272981385 12.7747
44.742607409926194 12.739
44.76687274034801 12.7562
44.79095205918753 12.7478
44.81503346325094 12.713
44.839116954143876 12.7002
44.86339071028742 12.7143
44.88747839599524 12.6354
44.91156817336837 12.5655
44.93566004401666 12.6292
44.959942251908146 12.5805
44.984038330325966 12.5484
45.00813650686762 12.4992
45.03223678314731 12.4728
45.05652746888232 12.4271
45.08063196592069 12.5009
45.104738567558705 12.4424
45.128847275414856 12.4004
45.15314646515866 12.3434
45.17725940679741 12.3697
45.20137445952892 12.3605
45.22568004865265 12.3575
45.24979934496396 12.2397
45.27392075725247 12.2281
45.29804428714431 12.2447
45.322358426247604 12.2336
45.346486212804315 12.2364
45.370616121861914 12.2158
45.39474815505086 12.1652
45.41907087049246 12.1152
45.4432071734666 12.0999
45.46734560548283 12.1344
45.49148616817604 12.1143
45.51581748638564 12.0949
45.5399623320197 12.02
45.56410931325473 12.0048
45.58825843173002 12.0221
45.61259837920865 11.9773
45.636751793816 12.001
45.66090735060093 11.9164
45.68506505120716 11.8891
45.7094136545275 11.8964
45.73357566449271 11.8851
45.75773982322992 11.8497
45.78190613238733 11.8549
45.806263418194064 11.8257
45.83043404997326 11.8077
45.85460683713677 11.7859
45.87897065658495 11.745
45.90314777634752 11.7302
45.92732705646868 11.7117
45.9515084986045 11.7194
45.97588104735473 11.6915
46.00006683541565 11.6367
46.02425479047904 11.6367
46.04844491420549 11.6083
46.0728262191024 11.5981
46.09702070211635 11.6031
46.12121735879483 11.5286
46.14541619080294 11.5213
46.169806278764455 11.525
46.194009483459034 11.4553
46.21821486849841 11.4251
46.24242243555223 11.3954
46.266821333570014 11.3977
46.29103328674601 11.3777
46.31524742696538 11.350999999999999
46.33946375590237 11.3364
46.36387149104216 11.3146
46.38809221957392 11.3155
46.41231514186606 11.3185
46.436540259597464 11.3086
46.460956858999374 11.2392
46.48518638983522 11.253
46.509418121166966 11.2368
46.533652054678114 11.2497
46.55807754555709 11.1986
46.58231590571962 11.1825
46.60655647313217 11.1548
46.630988654873654 11.1161
46.655233659129024 11.071
46.67948087571551 11.0537
46.70373030632484 11.0026
46.72817142736393 11.0568
46.752425308428684 11.0156
46.77668140861147 11.001
46.80093972960865 10.967
46.82538981736788 10.9245
46.849652602470904 10.9058
46.87391761349769 10.8897
46.8981848521493 10.8919
46.9226439341274 10.8988
46.946915650573224 10.8197
46.97118959976749 10.8483
46.99546578341598 10.7818
47.019933887188216 10.7689
47.04421456235744 10.7943
47.06849747711879 10.7349
47.09278263318286 10.738
47.11725978640143 10.6956
47.14154944775105 10.6612
47.165841355555656 10.6976
47.1901355115306 10.642999999999999
47.214621741924994 10.6374
47.23892041698887 10.5976
47.26322134538975 10.5744
47.28771440635075 10.5489
47.31201986422527 10.5376
47.33632758061436 10.5219
47.360637557241866 10.5015
47.38513974410611 10.4994
47.40945426407847 10.4434
47.43377104948137 10.4482
47.45809010204344 10.4585
47.48260144275502 10.3786
47.506925052572285 10.4082
47.53125093475548 10.386
47.55557909103813 10.3471
47.58009961361992 10.2881
47.60443234110732 10.2978
47.62876734791564 10.2854
47.65310463578333 10.2834
47.6776343683373 10.2715
47.7019762413987 10.2282
47.72632040075572 10.1639
47.75066684815169 10.1887
47.77520581885936 10.2073
47.799556865477655 10.1652
47.823910205386 10.1574
47.84826584033272 10.1046
47.87281407745551 10.0942
47.89717432569297 10.0861
47.92153687423484 10.0992
47.94609208429692 10.0411
47.97045925671401 10.0421
47.99482873471275 9.9654
48.01920052005013 9.98189
48.04376504619224 9.98056
48.068141469543484 9.99194
48.09252020552573 9.97435
48.11690125590099 9.95067
48.1414751266064 9.903260000000001
48.16586082917454 9.91461
48.19024885144316 9.857439999999999
48.2146391951793 9.84192
48.239222439012764 9.8495
48.26361744916137 9.81708
48.28801478610016 9.79674
48.31241445160131 9.78324
48.337007097209366 9.74775
48.36141144338331 9.76672
48.38581812345755 9.73189
48.41022713920929 9.74213
48.434829215320704 9.71086
48.45924292604658 9.68714
48.48365897780325 9.696060000000001
48.50807737237308 9.66439
48.532688907799276 9.636619999999999
48.55711201168574 9.589939999999999
48.581537463754074 9.545010000000001
48.60615611725119 9.56686
48.63058628942721 9.58493
48.65501881516546 9.55109
48.6794536962573 9.54223
48.70408185970339 9.5096
48.72852147531801 9.49061
48.75296345168211 9.47137
48.77740779059232 9.46158
48.80204549302823 9.43725
48.82649458091802 9.416739999999999
48.85094603676547 9.430639999999999
48.87539986237231 9.38903
48.90004713292306 9.357460000000001
48.92450572200832 9.3697
48.94896668628025 9.35544
48.97343002754588 9.31381
48.99808689542115 9.2784
49.02255501470614 9.31737
49.04702551642794 9.24497
49.0714984023988 9.25188
49.096164896893235 9.21186
49.120642575466796 9.20953
49.145122643748394 9.19007
49.16960510355558 9.15268
49.19428125404938 9.16278
49.2187685210852 9.12866
49.243258185121555 9.10513
49.26794160167084 9.09609
49.2924360839405 9.08872
49.31693296869764 9.0622
49.34143225776915 9.06677
49.36612538195438 9.05166
49.39062950396021 9.00463
49.41513603578346 8.971630000000001
49.4396449792564 8.99081
49.46434784069503 8.97688
49.488861631846454 8.95336
49.513377840166804 8.92901
49.537896467493745 8.90983
49.56260909589029 8.86858
49.587132585683285 8.862260000000001
49.611658500018365 8.88843
49.636186840738596 8.83756
49.66090926588511 8.833210000000001
49.685442483902584 8.7998
49.70997813385706 8.76322
49.734516217597076 8.74628
49.75924846937352 8.752
49.7837914452858 8.73087
49.80833686055187 8.70027
49.83288471702571 8.702689999999999
49.85762682540054 8.67933
49.882179588965734 8.667119999999999
49.9067347993235 8.659939999999999
49.93129245833333 8.60478
49.95604445336378 8.606860000000001
49.98060703442832 8.624889999999999
50.005172069746266 8.603019999999999
50.02993150438364 8.54705
50.05450147301533 8.575439999999999
50.07907390151433 8.58775
50.10364879174981 8.52207
50.12841816587289 8.500739999999999
50.1529980044635 8.493219999999999
50.17758031042124 8.48591
50.20216508562089 8.4383
50.22694442953363 8.435089999999999
50.25153416817468 8.415389999999999
50.27612638170508 8.40804
50.300721072005196 8.34088
50.325510416102105 8.33595
50.350110084975064 8.34901
50.37471223628208 8.35426
50.39931687190919 8.31551
50.424116246675766 8.2715
50.44872587605249 8.26099
50.47333799543065 8.2624
50.49795260670191 8.2694
50.52276204271512 8.21505
50.54738166295838 8.223130000000001
50.57200378079314 8.25135
50.596628398116835 8.19866
50.62144792604559 8.17042
50.646077567609396 8.16126
50.670709714377715 8.13981
50.69553683636198 8.12791
50.72017401885922 8.14915
50.7448137122895 8.12763
50.76945591856022 8.10732
50.79429318636823 8.07606
50.818940443716784 8.05905
50.84359021965163 8.048160000000001
50.868242516085964 8.02559
50.893089960641895 8.00939
50.917747323549435 7.99097
50.94240721271973 7.971710000000001
50.96706963007175 7.9691600000000005
50.99192728239342 7.95172
51.01659478166073 7.96537
51.04126481489051 7.9361
51.06593738400761 7.926769999999999
51.090805275207074 7.877460000000001
51.11548294172845 7.87177
51.14016314993547 7.842339999999999
51.164845901758845 7.8444199999999995
51.18972406304274 7.78995
51.21441192780656 7.7817
51.23910234200271 7.78855
51.2637953075678 7.7770600000000005
51.288683770237945 7.77565
51.31338186432707 7.74273
51.33808251561888 7.75668
51.362978729967345 7.709280000000001
51.387684521509755 7.723039999999999
51.41239287610203 7.68387
51.437103795691165 7.665789999999999
51.46201036644977 7.65205
51.486726441956634 7.64228
51.51144508832545 7.63547
51.536166307509156 7.60335
51.56108326624387 7.599139999999999
51.58580965706056 7.576039999999999
51.61053862657523 7.553789999999999
51.635270176746864 7.5457399999999994
51.66019755512065 7.51986
51.68493429268881 7.53653
51.70967361681515 7.49235
51.73441552946465 7.4736
51.759353359237934 7.51007
51.7841004750961 7.45445
51.80885018539685 7.44332
51.833602492111254 7.410139999999999
51.8585508051424 7.388789999999999
51.883308330926425 7.354480000000001
51.90806845906181 7.395519999999999
51.932831191525715 7.3607
51.95779001977161 7.36693
51.98255798721516 7.36486
52.00732856494335 7.33565
52.03229530577543 7.2991
52.057071130455945 7.29218
52.081849571391054 7.274260000000001
52.106630630568695 7.26237
52.13160794279417 7.19619
52.15639426492067 7.22465
52.18118321127822 7.213080000000001
52.205974783860896 7.219339999999999
52.23096269971011 7.182460000000001
52.255759551287994 7.1684600000000005
52.280559035098186 7.14951
52.30536115314103 7.1382699999999994
52.33035970494467 7.12052
52.35516711807904 7.09978
52.37997717147198 7.08925
52.40478986713005 7.07015
52.42979908731974 7.0694
52.454617094216 7.03875
52.47943774942214 7.03362
52.50426105495102 7.0143
52.529280976059844 7.013439999999999
52.554109609024096 6.98672
52.57894089837482 6.964519999999999
52.60377484613117 6.968710000000001
52.62880550079408 6.945189999999999
52.65364479223379 6.88472
52.67848674816189 6.915789999999999
52.70352547971946 6.893910000000001
52.72837279155837 6.87033
52.753222773982785 6.85009
52.778075429022984 6.85555
52.80312495150885 6.85935
52.827982978797436 6.8696600000000005
52.85284368481815 6.81862
52.87770707160767 6.77711
52.90276741793998 6.80463
52.92763619336701 6.759410000000001
52.952507655698504 6.7311
52.977381806977576 6.7474300000000005
53.00245301017842 6.76933
53.02733256653592 6.71477
53.052214817996074 6.68578
53.077099766608484 6.6716
53.102181859804446 6.683089999999999
53.127072229988265 6.68624
53.15196530349892 6.62592
53.17686108239249 6.62598
53.20195409881522 6.641360000000001
53.22685531582556 6.621980000000001
53.25175924441303 6.59864
53.27666588664027 6.58943
53.30176985962693 6.54179
53.3266819565689 6.53907
53.35159677336455 6.51729
53.376514312083096 6.5295
53.40162927507703 6.5092300000000005
53.42655228516116 6.49324
53.45147802340193 6.45916
53.47660125628886 6.48006
53.50153247842639 6.4314
53.52646643496923 6.3888
53.55140312799818 6.42145
53.576537409691696 6.39784
53.60147960336152 6.3836900000000005
53.626424539786164 6.371169999999999
53.65137222105307 6.3510599999999995
53.67651758529126 6.3659
53.70147078399681 6.34556
53.72642673383343 6.37625
53.75138543689533 6.334219999999999
53.776541917524526 6.29007
53.801506154876755 6.28927
53.826473151763246 6.26694
53.851442910284916 6.23701
53.87661054126026 6.2361699999999995
53.9015858509782 6.20345
53.92656392866066 6.21333
53.95154477641532 6.21967
53.976723591801296 6.1866900000000005
54.00171000771266 6.1908900000000004
54.02669920004598 6.16538
54.051691170915745 6.13018
54.076881204886796 6.1197
54.101878760928514 6.14158
54.12687910187696 6.05322
54.152077577768296 6.08185
54.1770835166946 6.08065
54.20209224691339 6.07636
54.22710377055121 6.0262400000000005
54.25231352511594 6.04369
54.27733066384342 5.98048
54.30235060239643 5.99784
54.32737334290836 5.97941
54.35259441062629 5.95306
54.377622783395324 5.95104
54.40265396455061 5.9366900000000005
54.42768795623251 5.91493
54.45292037169559 5.90799
54.477960012857906 5.89002
54.50300247099511 5.8947199999999995
54.52804774825457 5.8349
54.55329154616743 5.795780000000001
54.57834249018678 5.8269400000000005
54.6033962597977 5.81032
54.6284528571545 5.78037
54.653708072335164 5.7319
54.67877035378786 5.70903
54.70383546947698 5.71472
54.72890342156389 5.69221
54.7541700889442 5.67439
54.77924374251975 5.68311
54.8043202390049 5.63853
54.82959552413022 5.58432
54.8546777351945 5.57177
54.87976279569621 5.55295
54.90485070780914 5.52749
54.930137506558005 5.51998
54.95523115074295 5.5146
54.98032765308844 5.5172300000000005
55.005427015775496 5.47061
55.03072536339621 5.4817800000000005
55.05583047570572 5.3852199999999995
55.080938454927676 5.388330000000001
55.10604930325027 5.3947199999999995
55.131359235107396 5.374219999999999
55.15647585066083 5.31146
55.181595341907496 5.340319999999999
55.20671771104285 5.26566
55.232039262617704 5.32483
55.25716741665048 5.31126
55.28229845518636 5.29804
55.30743238042802 5.2394300000000005
55.33276558731939 5.22006
55.357905315183636 5.20935
55.383047936390035 5.14289
55.40819345314859 5.11892
55.433538351073295 5.09068
55.458689688238415 5.15405
55.483843927614096 5.01704
55.509197623043605 5.045730000000001
55.53435769621134 4.98447
55.55952067826466 4.99654
55.5846865714265 4.98874
55.61005202069737 4.9473400000000005
55.63522376553902 4.95747
55.66039842818645 4.90188
55.68557601087004 4.8425400000000005
55.7109532500271 4.80768
55.73613670233794 4.90426
