TT I
1.2716486653135266 7.77492
1.2939594142134223 7.7695
1.3162702121660406 7.07357
1.3385810600174564 7.66085
1.3608919586137629 7.06458
1.383202908801069 6.7267600000000005
1.405513911425503 7.353
1.4278249673332093 7.19642
1.4501343378461518 6.4801400000000005
1.4724455028545926 6.33429
1.4947567236847858 6.73163
1.517068001182951 6.78268
1.5393793361953272 6.5850100000000005
1.5616907295681737 6.50649
1.5840021821477681 5.74556
1.60631369478041 5.86293
1.6286252683124185 5.817159999999999
1.6509369035901333 5.29978
1.6732468618895553 5.8266
1.695558623192809 5.34725
1.7178704487808514 5.61031
1.7401823395001077 5.97375
1.7625012545597203 5.74439
1.7848028405262486 5.68233
1.8071218901122095 5.6363900000000005
1.8294236121921872 5.07063
1.8517427996910911 4.95796
1.8740620574440425 4.78613
1.8963639900671978 5.42389
1.9186833908139995 5.6257
1.9409854680117449 5.8198099999999995
1.9633050151394713 5.1763
1.9856246367570705 5.33706
2.0079269371922672 5.45099
2.03024671027244 4.70463
2.0525491637446027 4.75879
2.074869091674931 4.59103
2.097171701569106 5.30835
2.1194917877373847 5.11025
2.141811954326636 4.97788
2.164114805233074 4.46606
2.186435135143035 4.19489
2.208738150935709 4.835369999999999
2.231058647554722 4.60994
2.2533792288321184 4.46948
2.275682498336085 4.83566
2.298003251406138 4.08812
2.3203066942619714 4.2410000000000005
2.3426276225136022 4.39189
2.3649486396617507 4.74873
2.387252348930071 5.2194
2.4095735463442893 4.9406300000000005
2.4318774374315884 4.50707
2.4541988185014043 4.79544
2.476502894794693 4.73515
2.498824462909887 4.21092
2.521146125856138 4.9631099999999995
2.5434504863470337 5.02935
2.5657723414244717 5.206259999999999
2.588076895590662 5.19955
2.610398946189713 5.77378
2.6327210958598384 5.55336
2.6550259469304716 5.11369
2.6773482972090137 6.069030000000001
2.6996533504259 6.28127
2.7219759047039602 6.24812
2.744298562293959 5.85773
2.7666039251246595 6.44707
2.7889267918020164 6.53385
2.8112323652516555 6.92077
2.833555444408179 7.16972
2.8558786311183852 7.33173
2.8781845268938557 7.8463899999999995
2.9005079311721484 8.097560000000001
2.9228140460410397 8.820739999999999
2.9451376712799635 8.48605
2.967444008632326 9.02239
2.9897678582247247 9.89817
3.0120918213106695 10.4163
3.0343984987899373 10.6656
3.0567226913198637 10.8117
3.079029599759726 11.4113
3.101354025127254 12.279000000000002
3.123678568232338 12.7278
3.145985829517914 12.6808
3.16831061055229 13.1848
3.1906181112775593 13.8562
3.212943133635653 14.5178
3.2352682779763207 15.2812
3.2575761442691227 15.6861
3.2799015350264273 15.5981
3.302209649240067 16.6709
3.3245352898092655 17.0064
3.3468436553365257 17.5651
3.369169549113219 17.8861
3.3914955708171384 18.7714
3.413804319727358 19.0995
3.4361305997334863 19.2623
3.4584396084414553 19.4107
3.4807661501462652 20.6306
3.503092824025881 21.3221
3.5254022288463154 21.2565
3.5477291695206588 21.2466
3.5700388426251948 22.000999999999998
3.5923660534916446 22.2215
3.6146934007816114 22.6225
3.637003482731501 23.3278
3.6593311053109985 23.6428
3.681641464033634 24.1413
3.7039693653009733 24.7248
3.726297407241705 25.6365
3.7486081875460804 25.3677
3.7709365132734978 25.9299
3.793247578841633 26.4624
3.8155761917550093 27.176
3.8378875459837216 27.31
3.8602164494827234 27.9308
3.882545499606844 28.4852
3.9048572932539183 29.2383
3.9271866390645718 29.5875
3.9494987298666713 30.3206
3.971828374764527 31.1503
3.9941581705403255 30.9658
4.016470713506008 31.7279
4.038800813471445 32.3717
4.061113662089144 33.0302
4.0834440696459176 33.852
4.105774632334751 34.3044
4.128087945865126 35.0711
4.150418821249301 35.634
4.172732448931298 36.5587
4.195063640413578 37.3714
4.2173775856475215 37.9761
4.239709096631102 38.9055
4.262040768704612 39.3111
4.284355196706267 40.3847
4.306687193387355 40.9362
4.329001947444346 42.2123
4.35133427213731 43.0279
4.373666762177566 43.9016
4.395982011761091 44.4499
4.418314834921175 45.5442
4.44063041906622 46.6118
4.4629635787515625 47.5286
4.4852969080429785 48.8148
4.5076130004776225 50.2339
4.529946671403969 52.735
4.552263106909177 53.4062
4.574597122877047 54.1931
4.596931312711224 55.0842
4.619248269273446 56.052
4.6415828092605835 57.8167
4.663900117405352 58.6852
4.686235010953232 60.0164
4.708552674085913 61.153
4.730887924602802 62.7449
4.753223354952695 65.1428
4.775541557023902 66.7953
4.797877349456786 68.2264
4.820195915032126 70.1497
4.842532072957498 72.0054
4.864868414979744 74.1967
4.88718753227192 77.6294
4.909524244902505 79.7631
4.931843734218147 81.72399999999999
4.954180820867835 84.6562
4.976518095879839 89.1509
4.998838149695359 93.0217
5.021175803844231 97.3484
5.043496238205739 102.00399999999999
5.065834274903528 107.665
5.088172504230693 114.883
5.1104935158799565 125.104
5.132832132875765 141.89600000000002
5.155153533596801 170.044
5.1774925416746225 286.69599999999997
5.199814334878411 900.117
5.2221537374521505 2232.91
5.244493338631803 3974.14
5.266815727034316 6700.27
5.289155727832427 10603.4
5.311478517248165 9398.72
5.333818921080011 4270.76
5.356159527788849 1006.44
5.3784829252032536 278.144
5.400823940070432 185.592
5.423147747031976 154.94
5.445489173474152 138.666
5.467830807066149 129.93200000000002
5.490155234831516 124.475
5.512497285125229 118.666
5.534822130975162 116.031
5.557164601388673 112.993
5.579489868738879 109.654
5.601832762690846 107.619
5.6241758697774475 105.74
5.646501775867269 105.056
5.668845311622074 104.603
5.691171647754637 103.99799999999999
5.713515615597765 102.09
5.735859800852677 101.779
5.758186788542988 101.553
5.780531411018185 102.993
5.802858837297399 101.848
5.825203900414495 102.285
5.8475491852224 104.05
5.869877275883075 105.23299999999999
5.892223006467101 107.583
5.914551544266608 111.29299999999999
5.936897724049891 118.24799999999999
5.959244129804903 134.44799999999998
5.981573344815301 198.27200000000002
6.0039202049061 450.119
6.026249875609095 911.191
6.04859719346037 1431.2
6.070927323278297 2213.51
6.093275102315365 3591.37
6.115623113320588 4603.31
6.137953938319995 3715.1
6.160302415650845 1469.79
6.182633708324452 384.634
6.2049826554078376 152.19899999999998
6.227331838745022 110.78
6.249663839443684 97.3489
6.27201349767565 89.9204
6.294345974611799 85.4701
6.316696111167083 81.703
6.339046488263839 78.6642
6.361379686074702 76.1485
6.383730546639482 74.6433
6.406064229255215 73.4876
6.428415576718203 72.6687
6.450749747566656 71.2046
6.47310158535871 69.6713
6.495453669698332 68.8021
6.517788579421056 68.0904
6.540141159237969 66.9796
6.562476565766648 66.2317
6.5848296444934045 65.4319
6.607182974060425 64.8759
6.6295191323281015 64.5482
6.651872965955752 63.4521
6.6742096296068985 62.4689
6.6965639707294615 62.6729
6.71891856698715 61.9526
6.741255995248479 61.5139
6.763611104154477 60.9641
6.785949046381137 60.5512
6.808304671371482 60.0865
6.8306605557940046 59.9717
6.852999275508618 59.4217
6.875355681171544 59.4482
6.897694923437771 58.9915
6.92005185377892 58.8584
6.9423916220322655 58.2948
6.964749080490181 57.4186
6.987106804399774 57.706
7.009447368180821 58.2456
7.031805625367033 57.2094
7.054146723727803 57.3262
7.076505517631004 57.041000000000004
7.098864581288365 57.1494
7.121206488070854 56.7624
7.143566093607822 56.4821
7.165908543567245 56.6633
7.188268694426048 57.0022
7.2106291193438095 56.3143
7.232972390625943 56.1008
7.255333366030969 55.9052
7.277677189091925 55.652
7.300038718428332 55.8034
7.322400526130865 55.9052
7.344745183422596 56.1006
7.367107550224791 56.1729
7.389452767901992 55.9975
7.411815697249891 56.1668
7.434161478756298 55.6707
7.456524974096713 55.8408
7.478888753837185 55.6077
7.501235387657368 56.0053
7.523599738562711 56.768
7.545946944825532 57.0431
7.568311870344528 57.7109
7.5906770845765665 57.2614
7.613025156078678 57.5184
7.635390950099687 57.8988
7.657739602662809 57.4763
7.680105979923558 57.748999999999995
7.702472650212829 58.3788
7.724822180948224 58.1347
7.747189439655568 58.543
7.769539560075357 58.6731
7.791907410653562 59.3545
7.81425812420825 59.3622
7.836626570110925 59.403
7.858995315087906 60.1896
7.881346924933401 60.7385
7.903716270417482 61.2226
7.926068482028405 61.8306
7.948438431475253 62.4942
7.9708086843180235 62.73
7.993161805171116 63.1972
8.015532667162402 64.116
8.037886398416653 65.3578
8.060257873014221 65.6638
8.082629655331942 66.4546
8.104984308787587 67.1154
8.127356708900503 67.8937
8.149711981398308 69.1502
8.172085002766314 70.2533
8.194458336181368 70.9291
8.216814543847752 72.2321
8.23918850371002 73.1416
8.26154533906492 74.7367
8.283919928836452 76.8008
8.306277395339652 77.8515
8.328652618483376 79.2476
8.351028159736202 81.5765
8.373386579575245 84.1809
8.395762759396959 86.9221
8.418121819038275 91.0132
8.440498640894003 97.098
8.462875785192262 111.094
8.485235811156207 163.12
8.507613602688501 293.774
8.529974277114228 457.19
8.552352719347912 592.335
8.574731488360351 758.048
8.59709314210385 1059.55
8.619472567021075 1513.9
8.64183487789147 1967.01
8.664214962183097 1945.11
8.686577933647762 1245.53
8.708958680784317 536.6030000000001
8.731339760774953 227.437
8.753703729764451 133.175
8.77608547780821 111.694
8.798450116065078 105.12899999999999
8.820832535634787 100.671
8.843215292401656 98.6098
8.865580941199045 96.584
8.887964374703538 95.2116
8.910330701447199 94.31299999999999
8.932714815164482 92.5508
8.955099270424924 91.0328
8.977466620733543 90.0841
8.999851761421976 89.9151
9.022219798361645 88.831
9.04460562795561 88.6299
9.066991803441677 88.3005
9.089360876979615 88.5171
9.111747746589993 88.2363
9.13411751544971 87.3149
9.156505082664324 87.0069
9.178875550323522 87.1032
9.20126381862328 86.785
9.223652438908596 87.0689
9.246023961427412 87.6781
9.26841328802173 87.4565
9.290785518039224 87.4336
9.313175554425882 88.3162
9.335565947154315 88.4909
9.357939245086508 88.5049
9.380330352834827 88.8049
9.40270436697103 88.9439
9.425096193225055 88.4919
9.447488380180165 89.2932
9.469863475295412 89.3863
9.492256385987508 89.95299999999999
9.514632206018318 90.8509
9.537025843935714 91.5202
9.559402392368193 92.2395
9.581796761000229 93.3584
9.604191496441521 93.9362
9.626569144158516 94.3697
9.648964615551032 95.0862
9.671343000390081 95.9918
9.693739211225699 96.42399999999999
9.716135793237463 97.6977
9.738515290448102 98.9944
9.760912617143402 100.538
9.783292860202891 102.145
9.805690935076182 103.319
9.828089385495742 104.977
9.850470754023561 107.26
9.872869957865444 109.803
9.89525208097539 112.92399999999999
9.917652041736662 119.288
9.940052382417589 136.555
9.962435644102392 198.667
9.984836746950979 305.295
10.007220771957746 424.405
10.029622640473708 524.961
10.052007432299963 635.0880000000001
10.074410069984072 801.11
10.096813093716005 1062.81
10.119199042482517 1443.82
10.141602840636468 1784.14
10.163989564971628 1725.5
10.186394141051062 1162.37
10.208799107559706 564.47
10.231187001965623 257.54200000000003
10.253592751657669 150.25799999999998
10.275981430388155 124.833
10.298387966769793 118.664
10.320794897965431 115.758
10.343184759907361 113.603
10.36559248305461 112.10799999999999
10.387983138083852 115.148
10.410391656691655 131.195
10.432800574501677 159.944
10.455192425893369 189.708
10.47760214443012 213.25400000000002
10.499994797678786 238.78799999999998
10.522405320453982 281.914
10.54479877906917 350.351
10.567210109595656 436.894
10.5896218454736 535.4830000000001
10.612016518879773 528.727
10.634429067781074 426.025
10.656824555333241 256.74
10.679237920773568 153.316
10.701651695961992 109.546
10.724048411481384 97.016
10.746463008485165 92.7965
10.768860546937125 90.2402
10.791275969274796 88.1015
10.81369180576079 86.8924
10.836090585366925 85.7413
10.858507252467449 84.6168
10.88090686379991 83.41
10.903324365036394 82.3853
10.925724811614439 81.0612
10.948143150509463 80.7971
10.970561909719066 79.6426
10.992963615930844 78.7965
11.015383218085756 78.0113
11.037785768347074 76.8004
11.06020621697282 76.4323
11.082627090322113 75.67
11.105030913430326 75.2598
11.12745263854165 74.5169
11.149857314510728 73.5071
11.172279894912576 73.6869
11.194702904450653 72.6492
11.217108866490921 71.8862
11.239532736615194 71.3148
11.26193956033512 71.4309
11.284364294577085 71.1987
11.306789462371718 70.5237
11.329197585398376 70.2832
11.351623622610898 70.3081
11.37403261614354 69.4582
11.396459526308487 69.2795
11.418869393879497 68.7775
11.441297180532617 68.3583
11.463725406927658 67.9668
11.486136592353875 67.4339
11.508565700543707 66.9334
11.530977768845315 67.5895
11.553407762368774 67.027
11.575838200059769 66.9728
11.598251599479612 66.5537
11.620682927815501 66.5141
11.64309721895548 66.7975
11.665529441478206 66.3208
11.687962112597958 66.2509
11.710377748130886 66.0943
11.732811318753434 65.6789
11.755227854859067 65.6595
11.777662328529495 65.9401
11.800079768750786 65.5977
11.822515149015453 65.7302
11.844950984084935 66.0904
11.867369787303163 65.5564
11.889806534289491 65.9682
11.912226250487029 66.2269
11.934663912939751 66.6052
11.9571020346363 66.8473
11.979523127133968 67.1468
12.001962169624331 68.8303
12.024384183972964 72.8502
12.046824150809913 80.1263
12.069264581333726 88.8302
12.091687985297767 95.0717
12.11412934550045 100.789
12.136553680195208 109.01799999999999
12.158995973632788 121.89200000000001
12.181438735204349 139.567
12.20386447284199 164.03400000000002
12.226308172985636 190.882
12.24873485024193 204.17700000000002
12.271179492516982 186.21400000000003
12.293607112949127 143.994
12.316052700916226 104.94
12.338498763250042 80.2524
12.360927805303868 70.648
12.383374818673879 68.2671
12.405804812803074 67.4278
12.428252780773262 67.4257
12.45070122756722 67.2262
12.473132656675375 67.2484
12.49558206341869 67.619
12.518014453510101 67.3627
12.540464823770117 67.5216
12.562915677315177 67.6683
12.58534951575545 68.002
12.607801338171472 67.811
12.630236146511358 68.2672
12.652688941369085 68.6736
12.675124723177234 69.1126
12.697578494048786 69.8954
12.720032754458185 70.0409
12.742470003354093 70.4808
12.764925245138771 71.0025
12.787363476431278 71.3286
12.809819703166806 72.1597
12.83227642391173 72.887
12.854716135692716 73.3493
12.877173846755147 74.7368
12.899614549869717 75.3392
12.9220732548287 75.8829
12.94453245827299 76.5052
12.966974655289818 77.8653
12.989434858002571 78.9174
13.011878055298721 80.061
13.034339260862497 80.9653
13.056800969391883 82.8526
13.079245674017244 86.5879
13.101708390774869 93.6655
13.12415410463411 110.87200000000001
13.146617833206086 132.072
13.169064559883248 148.827
13.191529303857127 161.775
13.213994557076367 175.31799999999998
13.236442809902437 195.988
13.258909083908291 227.46200000000002
13.28135835851934 266.02299999999997
13.30382565690295 317.291
13.326293469022952 379.76
13.348744283242008 416.284
13.371213125129904 392.214
13.39366497011003 312.259
13.416134845360597 217.627
13.438605238843131 151.653
13.46105863690397 130.789
13.483530069144786 134.83
13.505984506951902 144.995
13.528456981549432 154.535
13.550929978879088 162.472
13.573385983253365 174.422
13.595860028340867 194.8
13.618317081455832 223.889
13.64079217790333 260.52
13.663250283359057 307.909
13.685726434770173 347.967
13.708203115221277 355.486
13.730662806148091 305.997
13.75314054697177 228.787
13.775601299246777 158.498
13.798080104050406 113.43799999999999
13.820559442405358 93.4538
13.843021793671388 87.5225
13.865502201420897 85.4303
13.887965623051947 84.4802
13.910447103807167 83.23299999999999
13.932929122629764 81.6623
13.955394156785959 81.3015
13.977877254034569 80.2833
14.000343367582113 79.3755
14.022827546871707 78.9235
14.045294743423524 78.0337
14.06778000837062 77.4271
14.090265817715476 77.0857
14.112734645763819 76.5788
14.13522154619454 75.8782
14.157691466286913 75.5894
14.180179461423874 75.327
14.202668005486178 75.153
14.22513957064374 74.607
14.247629214846473 74.384
14.270101881097517 74.055
14.29259262906496 73.7385
14.315083930490205 73.5278
14.337558255389705 73.2731
14.360050666019726 73.2993
14.382526101071944 73.1586
14.405019624534942 72.7586
14.427513705993134 72.7407
14.449990813291825 72.8163
14.47248601302899 72.9469
14.49496423954951 73.1253
14.517460561197822 72.8268
14.539939910570322 72.48100000000001
14.562437357763558 72.8739
14.58493536931253 72.9964
14.607416409993311 73.2465
14.62991555254159 73.577
14.652397725157423 73.8823
14.674898002342799 74.2001
14.697398848433282 74.9034
14.719882725991326 76.984
14.74238471217934 81.11399999999999
14.764869730765593 89.0118
14.787372860692983 95.8788
14.809876564079925 102.544
14.83236330125751 107.266
14.854868153850365 112.05799999999999
14.877356041159485 119.584
14.899862046604186 129.81
14.922351087688757 144.267
14.944858249632887 162.379
14.967365991421232 185.537
14.989856770231246 207.455
15.012365673994204 222.082
15.03485761569738 207.77
15.05736768508665 173.262
15.07987833888692 135.209
15.102372032001655 104.45700000000001
15.124883856909658 85.1959
15.14737872204565 77.5183
15.169891721717274 74.6813
15.192405310371893 74.0384
15.214901940621196 73.5496
15.237416709527137 72.8273
15.259914520936249 72.4747
15.282430473753607 71.8146
15.304947020131227 70.9848
15.327446610371178 70.6589
15.349964346154254 70.5842
15.372465126703139 70.5597
15.394984055556009 70.1592
15.417486030076159 70.2132
15.44000615566487 69.6841
15.462526881230803 69.7653
15.485030653812652 69.624
15.507552581617434 69.2365
15.530057557334603 69.2731
15.55258069104857 69.5565
15.575104429329837 69.9014
15.597611216864632 69.8389
15.620136166564563 71.2515
15.6426441664095 75.0592
15.665170331202765 80.9206
15.687697105158826 87.0222
15.710206930593545 92.2389
15.732734925158933 95.7807
15.755245972089478 98.7802
15.77777519094324 103.695
15.800287463046663 111.32600000000001
15.822817909869592 121.99700000000001
15.84534897229804 134.582
15.867863089299354 151.842
15.890395385222186 171.903
15.912910736597423 188.769
15.935444269699861 193.205
15.957978423016485 178.141
15.980495633101265 146.028
16.003031029129367 113.884
16.02554948280019 87.6214
16.048086125229432 73.8668
16.070623392487107 68.2635
16.09314371869582 66.3393
16.11568223789321 65.0045
16.13820381691126 64.1559
16.160743591742527 63.6256
16.183283996022084 63.1966
16.205807461423195 62.3416
16.228349126881973 61.9604
16.25087385432698 61.9722
16.27341678466365 61.093
16.29594277784926 60.6001
16.31848697676433 60.4463
16.341031811604868 59.9141
16.36355971058487 59.9
16.3861058195587 59.4602
16.40863499352978 58.828
16.431182380342005 58.8424
16.453730407713202 58.7271
16.476261501364792 58.5582
16.498810812136167 58.4055
16.52134319004079 58.3523
16.54389378792203 58.1924
16.566445031001553 58.0001
16.588979342490088 57.7437
16.61153187824822 57.7835
16.634067483263312 57.6274
16.656621315414416 57.5456
16.679175797408888 57.0535
16.701713349928728 57.3939
16.72426913389191 57.6044
16.74680798922351 57.4288
16.76936507887444 57.3976
16.791905240734874 57.4548
16.814463639794468 57.3145
16.837022695210294 57.4333
16.859564824093756 57.4305
16.882125194503903 57.5976
16.904668639217885 57.85
16.927230328348003 57.6574
16.949792678493612 57.9509
16.972338104193863 57.9247
16.994901778652235 58.0305
17.017448529496576 58.2964
17.040013531998152 59.3672
17.06257920018044 60.7657
17.0851279459922 62.0971
17.107694947817667 63.3735
17.130245028099072 63.9149
17.15281336730298 64.7756
17.17536478578733 65.7982
17.19793446610687 67.2386
17.220504818648422 68.8801
17.243058251703697 70.6146
17.265629950971032 73.8497
17.288184731571736 77.1518
17.310757781306908 81.9199
17.33333150794385 84.65100000000001
17.355888317140174 85.9127
17.37846339986244 82.8644
17.401021565958885 77.6858
17.42359800851343 71.6743
17.44617513265564 67.0878
17.468735341390783 64.2036
17.491261035594565 62.6783
17.51396340099364 62.0991
17.536490463869136 62.0549
17.559018209820174 62.3167
17.58154663977963 62.3968
17.604251766089718 62.6646
17.626781572227713 62.9407
17.64931206518155 62.8708
17.671843245885103 63.411
17.69455114821572 63.2801
17.717083712612634 63.9046
17.739616967569667 64.0964
17.762150914021706 64.8046
17.78486160749854 65.2714
17.807396945166804 66.5114
17.829932977143503 68.8121
17.85246970436452 72.5621
17.875183204129467 75.7469
17.897721330097664 78.6216
17.920260154126645 81.2329
17.942799677153296 83.0559
17.9655159983646 85.0082
17.988056927677544 88.2063
18.010598558807683 93.1104
18.033140892692916 98.8832
18.05586005052525 105.676
18.07840379824407 114.58200000000001
18.10094825154059 126.17
18.12366954819864 138.092
18.146215420998306 145.998
18.16876200220057 145.814
18.191309292745153 134.849
18.214033452627167 120.059
18.236582170236648 104.573
18.259131600016456 94.225
18.281681742907335 89.7225
18.304408781233683 90.1461
18.32696035875955 92.5677
18.349512652227624 96.4559
18.372065662579683 102.331
18.394795594587553 106.281
18.41735004715306 107.16
18.43990521943684 102.602
18.46246111238171 95.0326
18.485193953325208 84.5409
18.507751296070428 75.7261
18.530309362314178 70.4226
18.552868153000343 67.5045
18.57560391815056 65.7997
18.59816416623245 65.1935
18.620725141597372 64.4809
18.643286845190268 64.1772
18.666025549835414 63.5872
18.688588718427933 63.0325
18.711152618092243 62.7924
18.73389353884365 62.5773
18.75645890921984 62.146
18.77902501351406 61.7489
18.801591852673102 61.7969
18.824335739722738 61.2366
18.846904057212626 61.0683
18.8694731124168 60.7753
18.89204290628315 60.8941
18.914789774966803 60.6628
18.937361054791623 60.38
18.959933076131318 60.0116
18.982505839934877 59.9007
19.00525570560582 60.1037
19.027829963004184 59.9475
19.05040496572238 60.2339
19.072980714710468 60.5519
19.095733592739563 61.1208
19.11831084296757 61.6884
19.140888842324735 62.2283
19.16346759176222 62.2027
19.18622349753803 62.6486
19.208803755869358 63.1443
19.231384767143577 63.6518
19.253966532312948 64.8122
19.276725481241822 65.9395
19.29930876296784 67.215
19.3218928014549 68.9018
19.34465404436217 71.3026
19.36723960516257 73.8168
19.389825925592426 76.3779
19.412413006605938 77.5088
19.43517731967805 76.2281
19.457765930683355 73.3217
19.48035530514408 69.0113
19.50294544401556 64.7779
19.525712842708348 60.9471
19.54830451925909 58.684
19.570896963095727 57.3784
19.593490175174704 56.9096
19.616260674962184 56.7667
19.638855432416964 56.402
19.661450960992624 56.6501
19.68404726164677 56.4634
19.706820878021247 56.0898
19.729418731756834 56.3783
19.752017360452857 56.0875
19.77461676506804 56.6342
19.797393513540218 57.283
19.819994478951667 57.8356
19.84259622316767 58.5135
19.8651987471481 58.9352
19.887978643247177 58.7483
19.91058273574792 59.1963
19.933187610901943 59.8881
19.955969879466828 60.6542
19.97857632894404 61.5835
20.00118356396599 62.4914
20.023791585494575 64.1921
20.046577028914875 66.2947
20.069186632506966 68.1327
20.091797025500632 70.7118
20.114408208858933 72.5074
20.137196842715273 73.7938
20.159809615886765 73.1861
20.18242318232135 70.8277
20.20503754298326 68.192
20.227829382875154 65.9619
20.250445341109344 64.4629
20.27306209647285 63.925
20.29567964993108 64.5312
20.31847471147704 65.315
20.34109387027612 66.7326
20.363713830075454 67.6368
20.386334591841646 67.4812
20.409132890679302 65.6966
20.431755265564437 62.8308
20.454378445325528 59.6027
20.477002430930366 56.7841
20.499803982716553 54.9534
20.522429589228004 53.7371
20.54505600449589 53.2002
20.567683229489194 53.083
20.590488049900088 52.8356
20.61311690359731 52.7746
20.63574656993626 52.6971
20.658553853717297 52.1657
20.681185154618298 52.0205
20.703817271080066 52.0836
20.72645020407368 51.663000000000004
20.749260783967177 51.6323
20.771895359337133 51.6869
20.794530754161617 51.6416
20.817166969412938 51.4498
20.83998086114876 51.4321
20.86261872660049 51.1962
20.885257415405402 51.2034
20.90789692853701 51.1227
20.930714147864748 51.3008
20.953355319030678 51.3464
20.97599731745334 51.3939
20.99864014410749 51.2791
21.021460706796564 51.235
21.044105199328826 51.4675
21.06675052302631 51.678000000000004
21.089396678865015 51.6641
21.112220600704806 51.821000000000005
21.134868430275347 52.2123
21.15751709492456 52.2978
21.180166595629693 52.3708
21.202993892429635 52.6737
21.22564507473034 52.949
21.24829709602816 53.3713
21.27112693608965 53.9341
21.293780644891275 54.108000000000004
21.316435195634053 53.6197
21.339090589297417 53.0071
21.361923832041875 52.7211
21.384580921090404 51.7805
21.407238856007325 51.3075
21.429897637773326 51.1755
21.45273429906592 51.0553
21.475394784108598 50.9602
21.498056118951983 51.0567
21.520718304578022 51.3962
21.543558400304388 51.5462
21.566222297108816 51.805
21.58888704765135 52.4011
21.61155265291521 52.8805
21.63439619898156 53.532
21.657063523335786 53.8108
21.67973170537063 54.0639
21.7024007460706 54.3729
21.72524775840385 54.8864
21.747918526116475 55.6262
21.770590155457388 56.5613
21.79326264741238 57.5057
21.816113141960237 58.7367
21.838787368860547 60.2006
21.861462461341976 61.5207
21.884315579735777 63.4626
21.90699241312273 65.081
21.92967011506078 66.5861
21.95234868653799 67.3519
21.9752053151131 66.8311
21.997885635446785 65.4814
22.020566828293532 63.5136
22.04324889464272 60.8052
22.066109049404666 59.0816
22.088792872571794 57.8752
22.111477572219204 57.7774
22.1341631493376 58.0717
22.157026846313123 58.2892
22.179714188221507 58.2111
22.202402410582668 57.5895
22.22509151438863 56.1209
22.24795876962584 54.716
22.270649646204486 53.547
22.293341407213727 52.7701
22.316034053646906 51.8888
22.338904883215342 51.5084
22.36159931041458 51.3807
22.38429462602756 51.2523
22.40699083104897 51.102
22.429865251039757 51.0315
22.452563244831367 50.9138
22.47526213102522 51.1467
22.49813925616515 51.1638
22.520839937143307 51.1385
22.543541513520587 51.2876
22.56624398629403 51.1682
22.589124730075895 51.1316
22.611829005656723 51.396
22.63453418063466 51.5598
22.657240256008077 51.9679
22.680124634582935 52.2892
22.70283252079775 52.6461
22.725541310413075 52.8163
22.74825100442868 52.9668
22.771139033969575 53.3274
22.79385054687155 53.2378
22.81656296718292 53.708999999999996
22.83927629590484 54.4472
22.862167992606945 54.743
22.88488314827121 55.6108
22.907599215359284 56.3724
22.93031619487366 57.1179
22.953211574954405 58.0775
22.975930389478226 59.1858
22.998650119445763 59.9521
23.02137076586092 60.1193
23.044269845560063 59.5353
23.06699233506288 58.2215
23.089715744034912 56.4074
23.112617610931565 54.6587
23.135342869061212 53.2381
23.158069049684816 52.262
23.1807961538087 51.7213
23.20370174880544 51.4356
23.226430710184808 51.6507
23.249160598093425 52.0328
23.271891413539002 52.1961
23.294800752937697 52.176
23.31753343374794 52.4203
23.340267045128353 52.5678
23.36300158808808 52.6255
23.38591468821339 52.8081
23.408651104658304 52.9357
23.431388455719986 53.2433
23.454126742409 53.7564
23.4770436196085 54.2142
23.499783787914662 55.1258
23.522524894889884 55.5337
23.54526694154616 56.3174
23.56818761219047 57.5495
23.59093154860734 58.5242
23.613676427751283 59.6549
23.636422250635754 59.6481
23.659346731118656 58.8575
23.68209445191868 57.3953
23.704843119509587 55.4026
23.72759273490623 53.3391
23.750521041644767 51.4095
23.77327256312355 50.0387
23.796025035462787 49.2334
23.818956224555475 48.5296
23.841710609113413 48.3265
23.86446594758979 48.1116
23.887222241002014 47.8714
23.910157285144578 47.4603
23.932915498962537 47.4971
23.955674670778713 47.3778
23.978434801611975 47.2306
24.001373717286125 47.1026
24.024135776723917 46.7783
24.046898798245582 46.7775
24.06966278287146 46.7385
24.092605586582614 46.3466
24.115371508023642 46.1145
24.1381383956401 46.2077
24.16090625045381 46.1518
24.183852958731244 46.0856
24.206622758582608 45.9907
24.229393528706886 45.8242
24.252165270127392 46.0278
24.27511589952438 45.8903
24.297889594216997 45.6704
24.32066426328598 45.4425
24.34343990775613 45.456
24.36639447485003 45.355
24.38917208083877 45.2548
24.41195066531332 45.0681
24.43490819850244 45.19
24.457688750692377 45.1684
24.48047028445616 45.196999999999996
24.503252800821233 45.083
24.526214300784112 45.146
24.548998793132213 45.0333
24.57178427117417 44.9441
24.59457073593893 45.1657
24.617536219319863 44.9432
24.64032466834748 44.9574
24.663114107195035 44.8658
24.685904536893013 44.7201
24.708874020360852 44.6054
24.731666442613744 44.5901
24.754459858818787 44.5589
24.777254270007962 44.5653
24.80022777025625 44.4902
24.82302418230472 44.3917
24.845821592443674 44.6042
24.86862000170663 44.583
24.891597535453727 44.346000000000004
24.914397953892728 44.5553
24.93719937456671 44.4769
24.96000179851076 44.5951
24.98298338249997 44.8617
25.00578782394922 45.1781
25.028593271784167 45.2185
25.05157790644186 45.3641
25.07438537804115 45.2993
25.097193859145293 45.6339
25.120003350792075 45.7775
25.142992065061257 45.998999999999995
25.165803588823465 46.2529
25.18861612625217 46.5916
25.211429678386736 46.6743
25.234422489079968 46.6917
25.257238081693636 46.6661
25.280054692141732 46.6518
25.3028723214652 46.5933
25.325869245420463 46.6857
25.348688923599397 46.7744
25.371509623787006 46.7659
25.394331347025812 46.8053
25.41733240110666 46.518
25.440156181590016 46.0492
25.46298098826268 45.4348
25.48580682216873 44.9298
25.50881202326435 44.2194
25.53163992281684 43.733000000000004
25.55446885274561 43.4674
25.577298814096377 43.1646
25.600308179121807 42.9617
25.623140214533745 42.9358
25.64597328451537 42.8159
25.66898578564376 42.5431
25.691820936010206 42.7588
25.714657124097695 42.7597
25.737494350954734 42.8039
25.760511045684957 42.5775
25.783350361364224 42.6628
25.806190718969255 42.5727
25.82903211955018 42.7489
25.852053024868923 42.732
25.874896522722523 42.6559
25.897741066713106 42.5848
25.920586657892454 42.5165
25.943611790812668 42.7166
25.966459487728237 42.8047
25.989308234998564 42.8038
26.01215803367705 42.9571
26.03518741123814 43.0683
26.05803932412957 43.1942
26.080892291600094 43.1732
26.10374631470478 43.4445
26.12677995397268 43.553000000000004
26.14963609978026 43.7845
26.172493304397875 43.5602
26.19535156888223 43.5054
26.218389486949604 43.0724
26.241249882640123 42.8369
26.26411134137826 42.6312
26.28715248187403 42.6383
26.31001607820869 42.2218
26.3328807407756 42.049
26.35574647063438 42.1935
26.37879191991473 42.2127
26.401659795896734 42.1538
26.424528742360263 42.3476
26.447398760366614 42.5103
26.470448535598294 42.4429
26.49332070826805 42.6322
26.516193955675355 42.8354
26.53906827888316 42.9218
26.562122397260108 43.0137
26.584998883685063 43.2054
26.607876449110325 43.568999999999996
26.63075509460056 43.7446
26.65381357334404 43.8844
26.67669439061878 43.978
26.699576291163382 44.1276
26.722459276044212 43.9756
26.745522132402975 43.9152
26.768407297649354 43.6335
26.791293550442003 43.1724
26.814180891848974 42.8454
26.837248143099337 42.4888
26.860137673466657 42.4489
26.88302829566349 42.107
26.90592001075963 42.118
26.92899167420566 42.0543
26.951885586870763 41.6152
26.974780595655517 41.4148
26.99785558178161 41.2767
27.020752794605112 41.1358
27.043651106772522 41.0158
27.06655051935668 40.829
27.089629948036183 40.7457
27.112531573292053 40.6398
27.135434302194138 40.6843
27.158338135817015 40.7363
27.181422024430987 40.5053
27.204328079372566 40.3245
27.22723524226965 40.4293
27.250143514198573 40.6221
27.273231880156334 40.4984
27.296142382065014 40.4013
27.319053996245536 40.1444
27.341966723775965 40.3168
27.365059584515222 40.3387
27.38797455070062 40.3866
27.410890633481237 40.3069
27.433807833936918 40.2695
27.456905206923906 40.2375
27.47982465472398 40.2388
27.502745223449743 40.2275
27.525666914182825 40.4842
27.548768816912457 40.4077
27.571692763693633 40.3039
27.59461783573812 40.3361
27.617723149491244 40.089
27.640650484125285 40.0544
27.66357894728264 40.0832
27.686508540048052 40.1103
27.709618414237887 40.0734
27.732550278321757 39.7233
27.755483275279115 39.8394
27.778417406196485 39.902
27.801531858397514 39.8838
27.824468269376716 39.753
27.847405817586786 39.6494
27.870344504116094 39.8051
27.893463551932008 39.938
27.916404527281053 40.0868
27.93934664422563 40.1412
27.962289903855886 40.0393
27.98541356491974 40.2376
28.00835912214229 40.4632
28.03130582533231 40.6453
28.054253675581805 40.7986
28.077381967556104 40.7619
28.100332124185126 40.8011
28.123283431160893 40.6874
28.146235889577238 40.5487
28.169368830154156 40.4887
28.192323603752033 40.3298
28.215279532083304 39.9902
28.238415973016764 39.8528
28.261374223145094 39.781
28.284333631303806 39.4526
28.307294198589954 39.2745
28.330435319167677 39.1687
28.353398217078915 38.9268
28.376362277420153 38.5078
28.39932750129032 38.441
28.422473319286713 38.2678
28.44544088262495 38.1548
28.468409612800283 38.0211
28.491379510913497 37.814
28.51453004413313 37.6972
28.53750229057244 37.7622
28.56047570826344 37.5553
28.583450298308804 37.6102
28.606605564586562 37.4287
28.629582511831156 37.5227
28.65256063474956 37.3355
28.675539934446338 37.3537
28.698699951647605 37.2409
28.72168161743193 37.2006
28.74466446331978 37.1451
28.767648490417624 37.1611
28.790813276438353 37.2187
28.813799678527303 37.1283
28.836787265157085 37.0206
28.859955641890075 37.0918
28.882945610203045 36.9212
28.905936766392035 36.8821
28.928929111566863 36.9076
28.952102288520145 37.054
28.975097024308607 36.9696
28.998092952423807 36.7854
29.021090073977508 36.7123
29.04426806913204 36.6216
29.067267590245258 36.3403
29.090268308143695 36.2977
29.11327022394099 36.203
29.13645305530891 36.1575
29.159457379627167 36.1221
29.18246290519685 36.0827
29.20546963313352 35.9777
29.22865731875826 36.0811
29.25166646419296 36.0102
29.27467681535305 35.9221
29.29768837335608 35.8572
29.320880931312562 35.7975
29.34389491580634 35.7667
29.366910110507334 35.7395
29.38992651653503 35.8414
29.41312396492981 35.8071
29.436142806456754 35.7229
29.45916286268059 35.6693
29.48236399319994 35.5695
29.50538649169417 35.491
29.528410208259935 35.4231
29.55143514402014 35.1857
29.574641196749695 35.0421
29.597668583816574 34.8996
29.6206971934585 34.8307
29.64372702680042 34.7648
29.666938019934474 34.7054
29.689970313635285 34.6854
29.713003834422636 34.6541
29.73603858342347 34.6209
29.759254535188578 34.4696
29.78229175361658 34.5024
29.80533020365064 34.5719
29.82836988641968 34.4566
29.85159081507472 34.3292
29.874632976355343 34.3283
29.89767637376955 34.2465
29.920721008448314 34.0718
29.9439469322847 34.2193
29.96699405457564 34.2386
29.9900424175358 34.1177
30.013092022298157 34.0898
30.03632295963995 33.9758
30.059375061131373 34.0771
30.08242840783577 34.1085
30.105483000888153 34.0935
30.128718970092244 33.989000000000004
30.151776069006917 33.9785
30.17483441768648 33.955
30.198074175317235 33.898
30.221135036724256 33.9543
30.24419715131772 34.0114
30.267260520236203 33.9061
30.290505341942243 33.9197
30.313571232750228 33.882
30.336638381310948 33.9458
30.35970678876503 33.8094
30.38295669299435 33.78
30.40602763151657 33.7483
30.429099832366074 33.6386
30.452173296685572 33.615
30.47542830191959 33.7131
30.498504306502497 33.648
30.521581577995562 33.7216
30.544660117543582 33.6819
30.56792024229725 33.6036
30.59100133132069 33.5341
30.614083691845494 33.5434
30.637167325018545 33.705999999999996
30.660432587840603 33.6403
30.683518779717886 33.6951
30.70660624769615 33.6144
30.729694992924372 33.7701
30.75296541239743 33.7337
30.77605672557558 33.653
30.799149319462742 33.7467
30.8224236211637 33.5676
30.845518789950724 33.4137
30.868615242910597 33.3111
30.891712981195973 33.2624
30.91499247215866 33.181
30.938092794619365 33.2126
30.96119440587579 33.0772
30.984297307082752 32.9441
31.00758200598383 32.9766
31.030687500658694 32.8999
31.053794288760695 32.6974
31.076902371446767 32.5897
31.100192296997445 32.681999999999995
31.12330298246119 32.5991
31.14641496599209 32.3834
31.169528248749216 32.5252
31.19282341969534 32.4764
31.215939314557186 32.4453
31.239056512134788 32.469
31.262175013589378 32.4281
31.28547544871168 32.4612
31.30859657161541 32.2557
31.331719001892175 32.3426
31.35484274070538 32.3547
31.378148458819545 32.4562
31.401274828443725 32.2879
31.424402510106933 32.3125
31.447712205419993 32.3364
31.470842524931633 32.2787
31.493974159989783 32.3883
31.51710711176168 32.2334
31.54042212308802 32.2908
31.563557722100917 32.349000000000004
31.586694641341655 32.1867
31.609832881979628 32.1195
31.63315322823208 32.0724
31.656294125521327 31.9032
31.679436347728515 31.8246
31.70257989602529 31.6578
31.725905596152327 31.6843
31.74905181052835 31.6078
31.772199354521323 31.6746
31.79534822930507 31.6687
31.818679302290967 31.6076
31.84183085259981 31.4699
31.864983737233473 31.4204
31.88813795736804 31.5426
31.911474422233013 31.4526
31.934631327356435 31.49
31.9577895715215 31.4801
31.980949155906522 31.493000000000002
32.004291031706956 31.45
32.027453310562606 31.3401
32.05061693318573 31.2555
32.07396288236386 31.2714
32.09712920658542 31.2033
32.12029687812702 31.0352
32.14346589817093 30.9235
32.166817291729984 30.9603
32.18998902288583 30.8268
32.21316210610336 30.8534
32.23633654256711 30.835
32.259693399663725 30.6971
32.282870556771144 30.6007
32.30604907069099 30.6123
32.329228942610065 30.5315
32.35259128243769 30.3602
32.375773884550505 30.3342
32.398957848235646 30.3727
32.422143174682176 30.2697
32.445511016471215 30.1679
32.468699082679954 30.1798
32.49188851523011 30.023000000000003
32.51507931531304 30.0686
32.538452678331 30.095
32.56164622776311 29.9266
32.58484114831493 29.932
32.60803744118015 29.9521
32.631416344731896 29.8902
32.654615396551876 29.9013
32.67781582427913 29.8203
32.701198898634416 29.8249
32.72440209253756 29.7374
32.747606665947124 29.7174
32.77081262006088 29.4964
32.79420126883317 29.6221
32.81740999876112 29.5703
32.840620112999424 29.429000000000002
32.86383161274818 29.4296
32.88722585534586 29.4826
32.91044014056596 29.4716
32.933655814909734 29.3723
32.95687287957963 29.4385
32.98027273544904 29.2553
33.00349259526636 29.2464
33.026713849030116 29.3146
33.04993649794511 29.235
33.073341986570746 29.2155
33.09656744032826 29.1162
33.11979429286444 29.1151
33.14302254538647 29.0895
33.166433686291185 29.1028
33.18966475336992 28.971999999999998
33.212897224069096 28.9752
33.23613109959831 28.9319
33.259547912343415 28.8787
33.2827846121627 28.8225
33.306022720453775 28.8244
33.32926223842861 28.624000000000002
33.352684742614166 28.6919
33.37592709463173 28.6436
33.399170859982064 28.6573
33.422597648419426 28.5873
33.44584425514446 28.4892
33.46909227885668 28.3858
33.4923417207723 28.2723
33.51577423505344 28.3322
33.539026528130385 28.2154
33.56228024307245 28.2186
33.585535381098246 28.1026
33.60897364093058 28.0314
33.63223163992385 27.9732
33.6554910656699 28.0122
33.678751919389796 27.9326
33.702195944520106 27.8876
33.72545966903325 27.895
33.74872482519663 27.7938
33.771991414233746 27.8937
33.79544122444841 27.7741
33.81871069412428 27.6604
33.84198160035767 27.6181
33.86525394437455 27.6943
33.88870955949969 27.5285
33.911984794020626 27.5494
33.93526147001624 27.4983
33.958539588715006 27.4281
33.98200102861669 27.4942
34.0052820477047 27.3897
34.02856451319451 27.2869
34.05203033759056 27.2888
34.07531571090147 27.2888
34.09860253431845 27.1941
34.121890809074316 27.1246
34.145362493118924 27.1218
34.16865368561615 27.1118
34.191946333164054 27.0915
34.21524043699793 27.011999999999997
34.23871800066799 26.973000000000003
34.26201503218366 26.8505
34.28531352370466 26.8897
34.30861347646881 26.8677
34.33209693978188 26.7884
34.3553998301885 26.820999999999998
34.378704185565205 26.662
34.402010007152356 26.6116
34.42549939016683 26.6379
34.44880815937748 26.503
34.472118398533134 26.5143
34.49543010887669 26.5998
34.51892543169198 26.3622
34.54224009966052 26.4409
34.56555624255917 26.4319
34.58887386163339 26.2373
34.61237514439016 26.1355
34.6356957311114 26.1715
34.65901779775809 26.1065
34.68252356662995 26.1165
34.705848608458616 26.1367
34.72917513396849 26.0464
34.75250314440949 26.0233
34.77601490857862 25.9408
34.799345904259795 25.9048
34.82267838863559 25.836
34.846012362958525 25.8639
34.869530142679984 25.7011
34.89286711232212 25.7738
34.91620557568269 25.8329
34.93954553401677 25.6973
34.9630693495876 25.5989
34.986412313340814 25.7204
35.00975677584668 25.7276
35.033102738362956 25.5562
35.05663261012228 25.4545
35.0799815881786 25.5921
35.10333207003229 25.5088
35.12668405694369 25.4862
35.150220005273056 25.4026
35.17357501786656 25.3715
35.19693153931268 25.3673
35.220289570874385 25.3266
35.24383161619786 25.2875
35.267192683604904 25.3443
35.290555264930376 25.2559
35.314101899412165 25.1912
35.33746752422433 25.2231
35.36083466676374 25.1945
35.38420332829803 25.0827
35.407756095629054 25.1098
35.43112781085063 25.0062
35.45450104888391 25.0674
35.477875810999194 25.0719
35.50143473172161 24.9289
35.52481255774625 25.0405
35.54819191167777 24.9699
35.57157279478914 24.9221
35.595137889488406 24.8212
35.61852184675279 24.8647
35.641907337029984 24.7833
35.665294361595684 24.7833
35.68886565090076 24.6723
35.7122557598848 24.6237
35.73564740699838 24.6139
35.759040593519934 24.5697
35.78261809810353 24.6217
35.80601437933051 24.449
35.829412203814705 24.5017
35.85281157283719 24.4067
35.876395313415884 24.4604
35.8997977874528 24.3554
35.92320180988546 24.3138
35.946790244133936 24.2284
35.97019737933222 24.2384
35.993606066789866 24.1732
36.01701630779276 24.1495
36.04061101440684 24.0938
36.06402437852291 24.1563
36.08743930005611 24.1767
36.1108557802951 24.0283
36.13445678011326 23.999000000000002
36.15787639383515 23.9367
36.18129757014299 23.8678
36.20472031032821 23.9215
36.22832762423364 23.8402
36.25175350829375 23.8999
36.275180960119776 23.7205
36.298609981005924 23.7701
36.32222362992669 23.8139
36.34565580510207 23.7081
36.36908955323448 23.6721
36.39252487562093 23.5059
36.416144880530226 23.4766
36.43958336764275 23.4183
36.463023432914625 23.4957
36.486465077645676 23.435
36.51009145956204 23.5152
36.53353627947859 23.5441
36.55698268276811 23.4178
36.58043067073321 23.3439
36.60406345072071 23.1847
36.62751462435344 23.2614
36.65096738658405 23.2059
36.67460498210655 23.2256
36.69806093788647 23.131999999999998
36.72151848619297 23.0688
36.744977628333636 23.058000000000003
36.76862165890998 23.0106
36.79208400512205 23.1109
36.81554794910557 22.9947
36.83901349217101 22.9083
36.862663978991606 22.9
36.88613273667352 22.8448
36.90960309738324 22.8799
36.933075062434064 22.8111
36.95673202673572 22.7832
36.98020721697122 22.7111
37.003684015502365 22.6646
37.027162423645365 22.676
37.050825886711465 22.6234
37.07430753063053 22.5446
37.09779078812467 22.5516
37.121275660513014 22.5598
37.144945643673694 22.4274
37.16843376245278 22.4278
37.19192350009803 22.4013
37.215414857931435 22.3915
37.239091382563885 22.3267
37.262585997426164 22.3069
37.28608223645736 22.3141
37.309763684451696 22.217
37.33326318851098 22.1917
37.356764320726555 22.1064
37.380267082425526 22.184
37.40395510942588 22.0997
37.42746114683234 22.0208
37.45096881771841 22.0369
37.474478123414166 22.0
37.49817275092816 21.9589
37.52168534303452 21.891
37.54519957395567 21.8043
37.568715445024665 21.8256
37.592416694607714 21.7575
37.61593586281424 21.7976
37.63945667518264 21.8118
37.66297913304891 21.6913
37.68668702630454 21.7369
37.710212792059274 21.6487
37.733740207334854 21.5584
37.757269273470364 21.5538
37.780983832050374 21.5145
37.80451621684926 21.4971
37.82805025654007 21.4804
37.851585952464795 21.406999999999996
37.8753071980695 21.3673
37.89884622345676 21.3184
37.92238690911902 21.2574
37.94611318753442 21.1951
37.969657210779765 21.189
37.99320289834801 21.2236
38.016750251586465 21.1611
38.04048325513017 21.0537
38.06403395679343 21.0748
38.087586328183946 21.0364
38.11114037065203 21.0983
38.13488012115898 21.058000000000003
38.1584375229181 20.9421
38.181996599821 20.9594
38.205557353221124 20.9085
38.229303872575656 20.8672
38.2528679961576 20.8807
38.27643380031219 20.8585
38.30000128639589 20.7528
38.32375459653193 20.8371
38.34732546371299 20.7759
38.37089801690786 20.7044
38.39447225747609 20.6147
38.418232380377425 20.6223
38.441810012983396 20.6474
38.46538933705673 20.5543
38.488970353960084 20.5686
38.51273731166058 20.4899
38.536321731567014 20.4366
38.55990784840681 20.42
38.58367995004091 20.4146
38.60726947812959 20.3018
38.63086070726198 20.3868
38.654453638806274 20.352999999999998
38.678232613930824 20.2574
38.70182896773327 20.2253
38.72542702806741 20.1876
38.7490267963045 20.1661
38.77281266709232 20.144000000000002
38.79641586862214 20.1164
38.8200207821842 19.9803
38.843627409152944 19.9858
38.86742019782782 19.9859
38.891030269149255 19.9111
38.914642058016156 19.9119
38.938255565806124 19.9072
38.96205529464307 19.8932
38.98567225787121 19.8949
39.00929094417078 19.7961
39.03291135492255 19.7776
39.05671804624804 19.7026
39.080341923549106 19.7256
39.103967529460334 19.691
39.127594865365744 19.6103
39.15140854155791 19.5997
39.17503935514948 19.6161
39.19867190290282 19.5712
39.22249083587951 19.5208
39.24612686969409 19.471
39.269764641845306 19.4917
39.293404153722804 19.5181
39.317230110864074 19.3892
39.34087311998506 19.3474
39.36451787301696 19.3577
39.388164371352595 19.294
39.41199737518003 19.3141
39.43564738196752 19.2022
39.45929913825317 19.1868
39.48295264543308 19.15
39.506792718520884 19.0819
39.530449745387216 19.0504
39.55410852735203 19.1524
39.57776906581474 19.113
39.60161623079 19.0043
39.625280300200025 18.9742
39.64894613032202 18.9521
39.67261372255866 18.9202
39.6964680021016 18.9851
39.72013913657293 18.9387
39.74381203738292 18.9246
39.76748670593756 18.8238
39.79134812278169 18.8268
39.81502634488497 18.8446
39.83870633896685 18.7357
39.862388106436654 18.7305
39.88625668336918 18.6691
39.90994201572829 18.6292
39.933629125719285 18.5694
39.957503091207826 18.5309
39.9811937746168 18.5658
40.00488623990914 18.5158
40.02858048850006 18.4609
40.05246165409549 18.4508
40.076159487492085 18.371
40.099859108448875 18.4677
40.123560518384345 18.4223
40.1474489070226 18.3738
40.171153913178564 18.2918
40.194860712584955 18.3096
40.2185693066637 18.2688
40.242464941335314 18.2048
40.26617714307655 18.172
40.289891143772046 18.1538
40.3136069448471 18.1493
40.33750984859743 18.1483
40.3612292688043 18.0768
40.3849504936829 18.0377
40.40867352466194 18.0675
40.43258372059144 18.0173
40.45631038219906 17.9784
40.48003885420956 17.8983
40.503769138055105 17.9031
40.52768664931955 17.9289
40.55142057531802 17.8752
40.57515631746428 17.8433
40.599079334038514 17.8459
40.62281872700477 17.7408
40.64655994043941 17.7537
40.67030297578061 17.7111
40.69423334835778 17.7219
40.71798004609188 17.6608
40.74172857006355 17.6058
40.76547892171441 17.6241
40.7894166736039 17.608
40.813170699248566 17.4876
40.83692655691388 17.4796
40.86068424804498 17.5368
40.884629402612525 17.4906
40.908390779366385 17.4455
40.932153993938 17.397000000000002
40.95591904777605 17.3903
40.979871628443995 17.3726
41.003640379561936 17.2996
41.02741097430883 17.3247
41.05118341413683 17.2638
41.075143444384416 17.2375
41.098919593177826 17.2665
41.1226975914255 17.2242
41.14647744058318 17.2221
41.170444943946755 17.1107
41.19422851378379 17.0895
41.218013938914645 17.0088
41.24198706625173 17.0524
41.26577622087193 17.011
41.289567235177785 17.0147
41.31336011063129 16.9752
41.337340752422875 16.9234
41.361137369129835 16.9218
41.38493585138705 16.9146
41.40873620066004 16.8635
41.43272438060107 16.7978
41.45652848292052 16.778
41.48033445666918 16.7185
41.50414230331616 16.6906
41.528138045159764 16.6627
41.551949656675205 16.6202
41.575763145513235 16.6161
41.59957851314666 16.6387
41.62358184070442 16.5772
41.64740098505737 16.5101
41.6712220126409 16.5181
41.69504492493139 16.4691
41.71905586207357 16.4357
41.74288256296395 16.4656
41.766711153007456 16.3831
41.79054163368412 16.3853
41.814560204340054 16.3818
41.838394485526365 16.3967
41.86223066180303 16.2886
41.88625497706819 16.2762
41.910094962812 16.2434
41.93393684811168 16.1863
41.95778063445365 16.1674
41.981812625263366 16.1409
42.00566023303407 16.2082
42.029509746323676 16.0976
42.05336116662236 16.0283
42.077400857069705 16.07
42.10125611078846 16.0557
42.12511327600405 16.0245
42.14897235421036 16.0048
42.173019768448455 15.9739
42.19688269209613 15.9206
42.22074753323349 15.9154
42.24461429335818 15.9046
42.268669455600495 15.8249
42.292540073217886 15.8687
42.31641261433284 15.799000000000001
42.34028708044675 15.7242
42.36435001496739 15.7723
42.38822835065557 15.7819
42.41210861586426 15.7123
42.4359908120986 15.6508
42.46006154323262 15.6625
42.48394762115317 15.6328
42.507835634632315 15.66
42.531912233047436 15.5673
42.55580413732265 15.5386
42.579697981698 15.4769
42.60359376768525 15.4387
42.62767820545945 15.4685
42.65157789440821 15.4705
42.67547952952185 15.392999999999999
42.699383112316 15.3903
42.72347541395347 15.3527
42.74738291190531 15.3062
42.771292362102166 15.3429
42.795203766063516 15.2653
42.819303956130405 15.237
42.843219287476536 15.1832
42.86713657716324 15.2111
42.89105582671383 15.2222
42.91516392983864 15.1955
42.939087119032166 15.1384
42.963012272677304 15.0832
42.98693939230129 15.1079
43.01105543317513 15.0327
43.034986504731386 15.0127
43.05891954686589 14.968
43.08285456110972 14.9588
43.10697856448665 14.9193
43.130917542983475 14.9292
43.15485849820081 14.9671
43.17880143167367 14.8735
43.20293342237094 14.8228
43.226880332449 14.8301
43.25082922540554 14.8135
43.27496722682525 14.7872
43.29892010567796 14.7153
43.32287497204102 14.6849
43.34683182745632 14.6752
43.370977859791836 14.6876
43.39493871351105 14.6322
43.41890156092628 14.5726
43.44286640358341 14.5552
43.46702049182749 14.5262
43.49098934522816 14.5357
43.51496019852649 14.504000000000001
43.5389330532723 14.4703
43.56309522248204 14.4773
43.58707210044314 14.405
43.61105098451946 14.3439
43.63503187626491 14.3311
43.659202151562134 14.3464
43.68318707902681 14.3418
43.70717401884041 14.2491
43.731162972560874 14.2455
43.75534137913236 14.241
43.779334381108384 14.2145
43.803329401683186 14.1671
43.82732644241872 14.165999999999999
43.8515130055166 14.1708
43.87551410707659 14.0663
43.89951723350145 14.1508
43.923709934595614 14.1178
43.94771713129917 14.0844
43.97172635758096 14.0288
43.99573761501002 14.0027
44.0199385169922 13.992
44.04395385732619 13.9572
44.067971233533086 13.9602
44.09199064718605 13.8825
44.11619977548961 13.9087
44.14022328470671 13.8489
44.16424883610785 13.8468
44.18827643127035 13.8305
44.21249381139513 13.8028
44.236525514814076 13.7531
44.26055926674478 13.7596
44.28459506876863 13.7688
44.3088207262813 13.735
44.33286064928722 13.6886
44.35690262714919 13.658
44.38094666145278 13.6126
44.4051806219871 13.6154
44.42922879003185 13.5931
44.45327901929361 13.5921
44.477331311362136 13.5023
44.501573600619416 13.5049
44.525630039221795 13.4809
44.54968854541895 13.4532
44.573937102200176 13.4232
44.5979997645541 13.3943
44.622064499300315 13.4232
44.64613130803592 13.3773
44.67038823869318 13.3518
44.69445921643748 13.3336
44.718532272981385 13.2493
44.742607409926194 13.2798
44.76687274034801 13.2686
44.79095205918753 13.1903
44.81503346325094 13.2028
44.839116954143876 13.1865
44.86339071028742 13.1934
44.88747839599524 13.1101
44.91156817336837 13.1242
44.93566004401666 13.1235
44.959942251908146 13.095
44.984038330325966 13.0783
45.00813650686762 12.9844
45.03223678314731 12.9728
45.05652746888232 12.9392
45.08063196592069 12.9409
45.104738567558705 12.9132
45.128847275414856 12.899000000000001
45.15314646515866 12.864
45.17725940679741 12.8847
45.20137445952892 12.8393
45.22568004865265 12.8211
45.24979934496396 12.8081
45.27392075725247 12.7893
45.29804428714431 12.7208
45.322358426247604 12.6692
45.346486212804315 12.6988
45.370616121861914 12.7181
45.39474815505086 12.6775
45.41907087049246 12.6215
45.4432071734666 12.5961
45.46734560548283 12.5768
45.49148616817604 12.5736
45.51581748638564 12.5323
45.5399623320197 12.5326
45.56410931325473 12.4945
45.58825843173002 12.5038
45.61259837920865 12.4434
45.636751793816 12.4334
45.66090735060093 12.3931
45.68506505120716 12.3683
45.7094136545275 12.3373
45.73357566449271 12.3243
45.75773982322992 12.3165
45.78190613238733 12.2795
45.806263418194064 12.2204
45.83043404997326 12.25
45.85460683713677 12.2418
45.87897065658495 12.1998
45.90314777634752 12.1924
45.92732705646868 12.1723
45.9515084986045 12.167
45.97588104735473 12.107000000000001
46.00006683541565 12.1105
46.02425479047904 12.0854
46.04844491420549 12.0591
46.0728262191024 12.0226
46.09702070211635 12.0254
46.12121735879483 11.989
46.14541619080294 11.9658
46.169806278764455 11.9686
46.194009483459034 11.9385
46.21821486849841 11.8902
46.24242243555223 11.9097
46.266821333570014 11.8686
46.29103328674601 11.832
46.31524742696538 11.8016
46.33946375590237 11.8116
46.36387149104216 11.7867
46.38809221957392 11.7425
46.41231514186606 11.7165
46.436540259597464 11.7439
46.460956858999374 11.6858
46.48518638983522 11.7053
46.509418121166966 11.6501
46.533652054678114 11.6234
46.55807754555709 11.5875
46.58231590571962 11.5821
46.60655647313217 11.5589
46.630988654873654 11.5397
46.655233659129024 11.495999999999999
46.67948087571551 11.5176
46.70373030632484 11.4525
46.72817142736393 11.4565
46.752425308428684 11.4031
46.77668140861147 11.4199
46.80093972960865 11.3894
46.82538981736788 11.3339
46.849652602470904 11.3618
46.87391761349769 11.3097
46.8981848521493 11.318
46.9226439341274 11.2582
46.946915650573224 11.2494
46.97118959976749 11.2189
46.99546578341598 11.2163
47.019933887188216 11.2128
47.04421456235744 11.175999999999998
47.06849747711879 11.1624
47.09278263318286 11.1333
47.11725978640143 11.1451
47.14154944775105 11.0847
47.165841355555656 11.1057
47.1901355115306 11.0458
47.214621741924994 11.0714
47.23892041698887 11.0577
47.26322134538975 10.9666
47.28771440635075 10.9321
47.31201986422527 10.9821
47.33632758061436 10.9507
47.360637557241866 10.9174
47.38513974410611 10.8983
47.40945426407847 10.8575
47.43377104948137 10.8259
47.45809010204344 10.800999999999998
47.48260144275502 10.8105
47.506925052572285 10.8076
47.53125093475548 10.7428
47.55557909103813 10.7157
47.58009961361992 10.6837
47.60443234110732 10.6655
47.62876734791564 10.7015
47.65310463578333 10.6889
47.6776343683373 10.6605
47.7019762413987 10.6174
47.72632040075572 10.5793
47.75066684815169 10.5304
47.77520581885936 10.5385
47.799556865477655 10.5291
47.823910205386 10.5238
47.84826584033272 10.5077
47.87281407745551 10.4914
47.89717432569297 10.4878
47.92153687423484 10.414000000000001
47.94609208429692 10.4168
47.97045925671401 10.4203
47.99482873471275 10.4121
48.01920052005013 10.3878
48.04376504619224 10.3293
48.068141469543484 10.3631
48.09252020552573 10.3369
48.11690125590099 10.311
48.1414751266064 10.3045
48.16586082917454 10.2787
48.19024885144316 10.254000000000001
48.2146391951793 10.2546
48.239222439012764 10.2321
48.26361744916137 10.2008
48.28801478610016 10.1887
48.31241445160131 10.1668
48.337007097209366 10.1579
48.36141144338331 10.1316
48.38581812345755 10.0867
48.41022713920929 10.085
48.434829215320704 10.0723
48.45924292604658 10.0337
48.48365897780325 10.0528
48.50807737237308 10.0373
48.532688907799276 10.0075
48.55711201168574 9.94014
48.581537463754074 9.9184
48.60615611725119 9.976569999999999
48.63058628942721 9.94289
48.65501881516546 9.91045
48.6794536962573 9.872869999999999
48.70408185970339 9.8616
48.72852147531801 9.853580000000001
48.75296345168211 9.808530000000001
48.77740779059232 9.800880000000001
48.80204549302823 9.80913
48.82649458091802 9.7811
48.85094603676547 9.78379
48.87539986237231 9.74935
48.90004713292306 9.7324
48.92450572200832 9.73156
48.94896668628025 9.66425
48.97343002754588 9.6509
48.99808689542115 9.67352
49.02255501470614 9.66985
49.04702551642794 9.64109
49.0714984023988 9.606819999999999
49.096164896893235 9.57949
49.120642575466796 9.59015
49.145122643748394 9.53796
49.16960510355558 9.52937
49.19428125404938 9.51113
49.2187685210852 9.50105
49.243258185121555 9.465069999999999
49.26794160167084 9.45807
49.2924360839405 9.42734
49.31693296869764 9.41306
49.34143225776915 9.39783
49.36612538195438 9.3716
49.39062950396021 9.347999999999999
49.41513603578346 9.33407
49.4396449792564 9.31743
49.46434784069503 9.34315
49.488861631846454 9.27537
49.513377840166804 9.29885
49.537896467493745 9.22533
49.56260909589029 9.22172
49.587132585683285 9.239180000000001
49.611658500018365 9.18711
49.636186840738596 9.15488
49.66090926588511 9.144630000000001
49.685442483902584 9.16469
49.70997813385706 9.10855
49.734516217597076 9.12707
49.75924846937352 9.09116
49.7837914452858 9.07444
49.80833686055187 9.03766
49.83288471702571 9.02159
49.85762682540054 9.04685
49.882179588965734 8.98553
49.9067347993235 8.94023
49.93129245833333 8.94288
49.95604445336378 8.948160000000001
49.98060703442832 8.93915
50.005172069746266 8.91108
50.02993150438364 8.88636
50.05450147301533 8.89684
50.07907390151433 8.846160000000001
50.10364879174981 8.83147
50.12841816587289 8.81372
50.1529980044635 8.80737
50.17758031042124 8.77186
50.20216508562089 8.770610000000001
50.22694442953363 8.76545
50.25153416817468 8.74057
50.27612638170508 8.74127
50.300721072005196 8.70767
50.325510416102105 8.71695
50.350110084975064 8.68177
50.37471223628208 8.68872
50.39931687190919 8.6252
50.424116246675766 8.619439999999999
50.44872587605249 8.64976
50.47333799543065 8.602260000000001
50.49795260670191 8.56435
50.52276204271512 8.5333
50.54738166295838 8.5371
50.57200378079314 8.53856
50.596628398116835 8.53151
50.62144792604559 8.49212
50.646077567609396 8.50344
50.670709714377715 8.48121
50.69553683636198 8.45439
50.72017401885922 8.4341
50.7448137122895 8.43361
50.76945591856022 8.412
50.79429318636823 8.41206
50.818940443716784 8.36326
50.84359021965163 8.36839
50.868242516085964 8.38738
50.893089960641895 8.36218
50.917747323549435 8.29238
50.94240721271973 8.2847
50.96706963007175 8.2696
50.99192728239342 8.25423
51.01659478166073 8.253210000000001
51.04126481489051 8.22171
51.06593738400761 8.16057
51.090805275207074 8.14752
51.11548294172845 8.17384
51.14016314993547 8.20911
51.164845901758845 8.14817
51.18972406304274 8.10786
51.21441192780656 8.11077
51.23910234200271 8.096910000000001
51.2637953075678 8.10495
51.288683770237945 8.08628
51.31338186432707 8.02534
51.33808251561888 8.04071
51.362978729967345 8.03558
51.387684521509755 7.99165
51.41239287610203 7.986089999999999
51.437103795691165 7.956860000000001
51.46201036644977 7.911519999999999
51.486726441956634 7.9099699999999995
51.51144508832545 7.9191
51.536166307509156 7.892060000000001
51.56108326624387 7.82539
51.58580965706056 7.85446
51.61053862657523 7.87149
51.635270176746864 7.85208
51.66019755512065 7.82038
51.68493429268881 7.798769999999999
51.70967361681515 7.76963
51.73441552946465 7.738919999999999
51.759353359237934 7.75904
51.7841004750961 7.7316899999999995
51.80885018539685 7.73123
51.833602492111254 7.684830000000001
51.8585508051424 7.6729899999999995
51.883308330926425 7.68319
51.90806845906181 7.6600399999999995
51.932831191525715 7.62858
51.95779001977161 7.63805
51.98255798721516 7.5758
52.00732856494335 7.560039999999999
52.03229530577543 7.60493
52.057071130455945 7.59789
52.081849571391054 7.54299
52.106630630568695 7.540889999999999
52.13160794279417 7.4879999999999995
52.15639426492067 7.51226
52.18118321127822 7.4815
52.205974783860896 7.4495
52.23096269971011 7.46546
52.255759551287994 7.432339999999999
52.280559035098186 7.4146
52.30536115314103 7.3846
52.33035970494467 7.355060000000001
52.35516711807904 7.36228
52.37997717147198 7.350789999999999
52.40478986713005 7.337839999999999
52.42979908731974 7.31922
52.454617094216 7.37373
52.47943774942214 7.306719999999999
52.50426105495102 7.30652
52.529280976059844 7.2666
52.554109609024096 7.230339999999999
52.57894089837482 7.1992199999999995
52.60377484613117 7.218380000000001
52.62880550079408 7.212210000000001
52.65364479223379 7.164910000000001
52.67848674816189 7.156569999999999
52.70352547971946 7.15905
52.72837279155837 7.168989999999999
52.753222773982785 7.1424
52.778075429022984 7.157260000000001
52.80312495150885 7.1120600000000005
52.827982978797436 7.09185
52.85284368481815 7.0683300000000004
52.87770707160767 7.060630000000001
52.90276741793998 7.057510000000001
52.92763619336701 7.0253
52.952507655698504 6.99742
52.977381806977576 7.00545
53.00245301017842 6.99898
53.02733256653592 6.9538199999999994
53.052214817996074 6.98647
53.077099766608484 6.92254
53.102181859804446 6.91183
53.127072229988265 6.9455800000000005
53.15196530349892 6.88782
53.17686108239249 6.88848
53.20195409881522 6.89265
53.22685531582556 6.886830000000001
53.25175924441303 6.84858
53.27666588664027 6.864269999999999
53.30176985962693 6.7979
53.3266819565689 6.777589999999999
53.35159677336455 6.74005
53.376514312083096 6.74522
53.40162927507703 6.7751
53.42655228516116 6.7045
53.45147802340193 6.7049
53.47660125628886 6.68542
53.50153247842639 6.6909
53.52646643496923 6.68785
53.55140312799818 6.66505
53.576537409691696 6.6856
53.60147960336152 6.70144
53.626424539786164 6.627330000000001
53.65137222105307 6.60573
53.67651758529126 6.58453
53.70147078399681 6.56623
53.72642673383343 6.60601
53.75138543689533 6.58086
53.776541917524526 6.53198
53.801506154876755 6.50331
53.826473151763246 6.46369
53.851442910284916 6.46263
53.87661054126026 6.51005
53.9015858509782 6.48689
53.92656392866066 6.44198
53.95154477641532 6.41066
53.976723591801296 6.44055
54.00171000771266 6.41831
54.02669920004598 6.39422
54.051691170915745 6.3514800000000005
54.076881204886796 6.34317
54.101878760928514 6.35085
54.12687910187696 6.30885
54.152077577768296 6.29851
54.1770835166946 6.28378
54.20209224691339 6.28298
54.22710377055121 6.26155
54.25231352511594 6.22483
54.27733066384342 6.18228
54.30235060239643 6.2420800000000005
54.32737334290836 6.22337
54.35259441062629 6.11756
54.377622783395324 6.1084
54.40265396455061 6.16322
54.42768795623251 6.119190000000001
54.45292037169559 6.052630000000001
54.477960012857906 6.07186
54.50300247099511 6.06576
54.52804774825457 5.9968900000000005
54.55329154616743 5.97979
54.57834249018678 5.95465
54.6033962597977 5.9663
54.6284528571545 5.9509300000000005
54.653708072335164 5.945530000000001
54.67877035378786 5.88353
54.70383546947698 5.86599
54.72890342156389 5.865880000000001
54.7541700889442 5.8003599999999995
54.77924374251975 5.8186
54.8043202390049 5.7476400000000005
54.82959552413022 5.79847
54.8546777351945 5.7640199999999995
54.87976279569621 5.6944
54.90485070780914 5.7495
54.930137506558005 5.669230000000001
54.95523115074295 5.73899
54.98032765308844 5.67943
55.005427015775496 5.64927
55.03072536339621 5.69626
55.05583047570572 5.5845199999999995
55.080938454927676 5.5469599999999994
55.10604930325027 5.51222
55.131359235107396 5.55042
55.15647585066083 5.47492
55.181595341907496 5.42972
55.20671771104285 5.43745
55.232039262617704 5.38478
55.25716741665048 5.350230000000001
55.28229845518636 5.35949
55.30743238042802 5.26532
55.33276558731939 5.3131
55.357905315183636 5.2973099999999995
55.383047936390035 5.27894
55.40819345314859 5.26706
55.433538351073295 5.26621
55.458689688238415 5.20939
55.483843927614096 5.1567099999999995
55.509197623043605 5.15928
55.53435769621134 5.14355
55.55952067826466 5.15188
55.5846865714265 5.08775
55.61005202069737 5.07941
55.63522376553902 5.03419
55.66039842818645 5.05627
55.68557601087004 5.02988
55.7109532500271 4.902909999999999
55.73613670233794 4.97981
