TT I
1.2716486653135266 8.29831
1.2939594142134223 8.247810000000001
1.3162702121660406 7.26099
1.3385810600174564 7.892010000000001
1.3608919586137629 7.39445
1.383202908801069 6.9892
1.405513911425503 6.37638
1.4278249673332093 7.06699
1.4501343378461518 6.563039999999999
1.4724455028545926 6.59287
1.4947567236847858 7.143260000000001
1.517068001182951 6.36843
1.5393793361953272 6.563910000000001
1.5616907295681737 6.3060599999999996
1.5840021821477681 5.8244
1.60631369478041 6.02781
1.6286252683124185 5.91084
1.6509369035901333 5.3482199999999995
1.6732468618895553 5.71858
1.695558623192809 5.1015
1.7178704487808514 5.47361
1.7401823395001077 5.7253
1.7625012545597203 5.014069999999999
1.7848028405262486 5.01467
1.8071218901122095 5.34473
1.8294236121921872 5.42788
1.8517427996910911 5.62559
1.8740620574440425 6.0477300000000005
1.8963639900671978 5.48635
1.9186833908139995 5.203530000000001
1.9409854680117449 5.79505
1.9633050151394713 5.74862
1.9856246367570705 5.34793
2.0079269371922672 5.13589
2.03024671027244 5.45529
2.0525491637446027 5.07231
2.074869091674931 5.01957
2.097171701569106 5.06573
2.1194917877373847 5.17312
2.141811954326636 4.922969999999999
2.164114805233074 4.80884
2.186435135143035 4.623530000000001
2.208738150935709 5.02301
2.231058647554722 4.73752
2.2533792288321184 4.33399
2.275682498336085 4.47726
2.298003251406138 4.84352
2.3203066942619714 4.44957
2.3426276225136022 4.18083
2.3649486396617507 4.53677
2.387252348930071 3.9014900000000003
2.4095735463442893 3.84513
2.4318774374315884 3.8357699999999997
2.4541988185014043 4.04435
2.476502894794693 4.63344
2.498824462909887 4.48869
2.521146125856138 4.47832
2.5434504863470337 4.41946
2.5657723414244717 5.64195
2.588076895590662 5.892440000000001
2.610398946189713 5.99107
2.6327210958598384 5.577030000000001
2.6550259469304716 5.0624199999999995
2.6773482972090137 5.65574
2.6996533504259 5.94939
2.7219759047039602 6.13319
2.744298562293959 6.2529900000000005
2.7666039251246595 6.1013
2.7889267918020164 6.86193
2.8112323652516555 7.145519999999999
2.833555444408179 7.170780000000001
2.8558786311183852 7.274780000000001
2.8781845268938557 7.992030000000001
2.9005079311721484 8.401819999999999
2.9228140460410397 8.65672
2.9451376712799635 9.40938
2.967444008632326 9.40081
2.9897678582247247 9.79502
3.0120918213106695 9.98473
3.0343984987899373 10.8466
3.0567226913198637 10.9551
3.079029599759726 11.3645
3.101354025127254 12.0266
3.123678568232338 12.6173
3.145985829517914 12.8619
3.16831061055229 13.5165
3.1906181112775593 14.2912
3.212943133635653 14.4321
3.2352682779763207 14.3129
3.2575761442691227 15.4773
3.2799015350264273 15.9344
3.302209649240067 16.589000000000002
3.3245352898092655 17.1006
3.3468436553365257 17.3873
3.369169549113219 18.0162
3.3914955708171384 19.0944
3.413804319727358 19.031
3.4361305997334863 19.2271
3.4584396084414553 19.2814
3.4807661501462652 20.2515
3.503092824025881 20.9437
3.5254022288463154 20.9495
3.5477291695206588 21.7859
3.5700388426251948 21.9558
3.5923660534916446 22.5216
3.6146934007816114 22.8162
3.637003482731501 23.5076
3.6593311053109985 24.3235
3.681641464033634 24.0319
3.7039693653009733 24.6725
3.726297407241705 25.6284
3.7486081875460804 25.5939
3.7709365132734978 26.1113
3.793247578841633 26.8619
3.8155761917550093 27.2356
3.8378875459837216 27.2869
3.8602164494827234 27.9612
3.882545499606844 28.4221
3.9048572932539183 29.1202
3.9271866390645718 29.8705
3.9494987298666713 30.4239
3.971828374764527 30.9297
3.9941581705403255 31.1478
4.016470713506008 31.8781
4.038800813471445 32.6825
4.061113662089144 33.2597
4.0834440696459176 34.2707
4.105774632334751 34.6098
4.128087945865126 35.2361
4.150418821249301 35.5667
4.172732448931298 36.4348
4.195063640413578 37.2364
4.2173775856475215 38.4175
4.239709096631102 38.8428
4.262040768704612 39.4953
4.284355196706267 40.0183
4.306687193387355 40.4874
4.329001947444346 42.0165
4.35133427213731 42.8526
4.373666762177566 43.7756
4.395982011761091 44.3155
4.418314834921175 45.3926
4.44063041906622 46.4555
4.4629635787515625 47.7996
4.4852969080429785 48.8081
4.5076130004776225 50.4004
4.529946671403969 51.8416
4.552263106909177 52.4072
4.574597122877047 53.7822
4.596931312711224 54.8338
4.619248269273446 55.7949
4.6415828092605835 57.0551
4.663900117405352 58.402
4.686235010953232 59.8843
4.708552674085913 61.5576
4.730887924602802 63.1855
4.753223354952695 64.4953
4.775541557023902 65.8521
4.797877349456786 67.811
4.820195915032126 70.1446
4.842532072957498 72.0497
4.864868414979744 74.4566
4.88718753227192 76.6486
4.909524244902505 79.2206
4.931843734218147 82.0289
4.954180820867835 85.2441
4.976518095879839 89.4192
4.998838149695359 92.9435
5.021175803844231 97.8313
5.043496238205739 101.81200000000001
5.065834274903528 108.23299999999999
5.088172504230693 115.705
5.1104935158799565 125.82
5.132832132875765 142.026
5.155153533596801 170.03799999999998
5.1774925416746225 280.545
5.199814334878411 888.066
5.2221537374521505 2263.99
5.244493338631803 3946.41
5.266815727034316 6567.83
5.289155727832427 10235.3
5.311478517248165 9576.36
5.333818921080011 4535.97
5.356159527788849 1113.98
5.3784829252032536 296.639
5.400823940070432 189.143
5.423147747031976 157.16
5.445489173474152 139.9
5.467830807066149 130.64700000000002
5.490155234831516 123.70100000000001
5.512497285125229 118.72399999999999
5.534822130975162 116.41799999999999
5.557164601388673 113.444
5.579489868738879 109.84
5.601832762690846 107.929
5.6241758697774475 105.83200000000001
5.646501775867269 105.277
5.668845311622074 104.914
5.691171647754637 103.944
5.713515615597765 102.62
5.735859800852677 101.691
5.758186788542988 101.23700000000001
5.780531411018185 101.63
5.802858837297399 101.62899999999999
5.825203900414495 102.32799999999999
5.8475491852224 103.71799999999999
5.869877275883075 105.095
5.892223006467101 108.087
5.914551544266608 112.18700000000001
5.936897724049891 119.68299999999999
5.959244129804903 135.54399999999998
5.981573344815301 194.78799999999998
6.0039202049061 441.97900000000004
6.026249875609095 917.597
6.04859719346037 1440.09
6.070927323278297 2165.2
6.093275102315365 3482.69
6.115623113320588 4502.98
6.137953938319995 3779.51
6.160302415650845 1531.61
6.182633708324452 403.785
6.2049826554078376 156.86
6.227331838745022 112.508
6.249663839443684 98.1725
6.27201349767565 90.3129
6.294345974611799 86.0993
6.316696111167083 81.7027
6.339046488263839 79.4023
6.361379686074702 76.7156
6.383730546639482 75.193
6.406064229255215 72.7065
6.428415576718203 72.36
6.450749747566656 71.0579
6.47310158535871 70.1366
6.495453669698332 69.0345
6.517788579421056 68.17
6.540141159237969 67.2719
6.562476565766648 66.2852
6.5848296444934045 65.89399999999999
6.607182974060425 65.0798
6.6295191323281015 64.428
6.651872965955752 63.5644
6.6742096296068985 62.7372
6.6965639707294615 62.5526
6.71891856698715 61.6408
6.741255995248479 61.3952
6.763611104154477 60.8428
6.785949046381137 60.6286
6.808304671371482 60.0504
6.8306605557940046 59.9436
6.852999275508618 59.231
6.875355681171544 59.3919
6.897694923437771 58.4705
6.92005185377892 58.5894
6.9423916220322655 58.62
6.964749080490181 57.8231
6.987106804399774 57.5419
7.009447368180821 57.7206
7.031805625367033 57.5984
7.054146723727803 57.4194
7.076505517631004 57.2524
7.098864581288365 57.0873
7.121206488070854 56.7906
7.143566093607822 56.3898
7.165908543567245 56.9372
7.188268694426048 56.185
7.2106291193438095 55.8435
7.232972390625943 55.9484
7.255333366030969 55.9792
7.277677189091925 55.7671
7.300038718428332 56.1065
7.322400526130865 55.736000000000004
7.344745183422596 56.1895
7.367107550224791 56.2853
7.389452767901992 56.3657
7.411815697249891 56.3273
7.434161478756298 55.8191
7.456524974096713 55.7298
7.478888753837185 55.5344
7.501235387657368 56.6746
7.523599738562711 57.5504
7.545946944825532 59.3959
7.568311870344528 59.7703
7.5906770845765665 58.5181
7.613025156078678 57.7539
7.635390950099687 57.6711
7.657739602662809 57.3808
7.680105979923558 57.5338
7.702472650212829 58.2128
7.724822180948224 58.1111
7.747189439655568 58.4329
7.769539560075357 58.7193
7.791907410653562 58.8257
7.81425812420825 59.2053
7.836626570110925 59.518
7.858995315087906 60.3397
7.881346924933401 60.3634
7.903716270417482 61.0393
7.926068482028405 61.578
7.948438431475253 62.2301
7.9708086843180235 62.4667
7.993161805171116 63.7471
8.015532667162402 64.0995
8.037886398416653 64.9903
8.060257873014221 65.7464
8.082629655331942 66.1196
8.104984308787587 67.0629
8.127356708900503 67.9065
8.149711981398308 68.8837
8.172085002766314 69.7477
8.194458336181368 70.7999
8.216814543847752 72.1925
8.23918850371002 73.6418
8.26154533906492 74.8553
8.283919928836452 76.5222
8.306277395339652 77.8523
8.328652618483376 79.4059
8.351028159736202 82.0843
8.373386579575245 85.0074
8.395762759396959 87.0995
8.418121819038275 90.9561
8.440498640894003 97.1687
8.462875785192262 109.574
8.485235811156207 156.41
8.507613602688501 287.121
8.529974277114228 463.19599999999997
8.552352719347912 602.451
8.574731488360351 755.0219999999999
8.59709314210385 1031.38
8.619472567021075 1455.68
8.64183487789147 1906.39
8.664214962183097 1974.91
8.686577933647762 1296.92
8.708958680784317 592.6569999999999
8.731339760774953 248.078
8.753703729764451 138.266
8.77608547780821 113.311
8.798450116065078 105.586
8.820832535634787 101.11200000000001
8.843215292401656 98.635
8.865580941199045 96.4156
8.887964374703538 94.7456
8.910330701447199 93.7214
8.932714815164482 92.4444
8.955099270424924 90.9991
8.977466620733543 90.2503
8.999851761421976 89.9366
9.022219798361645 89.3197
9.04460562795561 89.0166
9.066991803441677 88.3591
9.089360876979615 88.1782
9.111747746589993 87.8407
9.13411751544971 87.4422
9.156505082664324 87.1116
9.178875550323522 86.8472
9.20126381862328 87.5138
9.223652438908596 89.1388
9.246023961427412 90.853
9.26841328802173 90.7022
9.290785518039224 89.4969
9.313175554425882 89.0229
9.335565947154315 88.4778
9.357939245086508 88.3717
9.380330352834827 88.2336
9.40270436697103 88.5332
9.425096193225055 88.4355
9.447488380180165 89.3515
9.469863475295412 89.2158
9.492256385987508 89.9914
9.514632206018318 90.6604
9.537025843935714 90.5683
9.559402392368193 91.6421
9.581796761000229 92.9989
9.604191496441521 93.3089
9.626569144158516 93.8304
9.648964615551032 94.9442
9.671343000390081 95.3897
9.693739211225699 97.0777
9.716135793237463 97.865
9.738515290448102 98.8616
9.760912617143402 100.77600000000001
9.783292860202891 102.277
9.805690935076182 103.48299999999999
9.828089385495742 104.535
9.850470754023561 107.07600000000001
9.872869957865444 109.695
9.89525208097539 113.48100000000001
9.917652041736662 118.96700000000001
9.940052382417589 134.19
9.962435644102392 192.09099999999998
9.984836746950979 302.032
10.007220771957746 430.406
10.029622640473708 531.259
10.052007432299963 631.464
10.074410069984072 777.32
10.096813093716005 1026.65
10.119199042482517 1400.04
10.141602840636468 1748.97
10.163989564971628 1733.04
10.186394141051062 1229.63
10.208799107559706 628.22
10.231187001965623 281.41900000000004
10.253592751657669 156.634
10.275981430388155 126.492
10.298387966769793 119.22200000000001
10.320794897965431 116.22200000000001
10.343184759907361 113.413
10.36559248305461 112.391
10.387983138083852 114.484
10.410391656691655 128.963
10.432800574501677 158.951
10.455192425893369 191.86900000000003
10.47760214443012 215.481
10.499994797678786 237.56599999999997
10.522405320453982 275.776
10.54479877906917 339.905
10.567210109595656 429.35400000000004
10.5896218454736 521.302
10.612016518879773 537.969
10.634429067781074 439.129
10.656824555333241 269.54200000000003
10.679237920773568 159.763
10.701651695961992 111.07
10.724048411481384 97.5599
10.746463008485165 93.1765
10.768860546937125 90.9201
10.791275969274796 88.8284
10.81369180576079 87.2377
10.836090585366925 85.8592
10.858507252467449 84.5642
10.88090686379991 83.4593
10.903324365036394 82.2408
10.925724811614439 80.9645
10.948143150509463 80.7394
10.970561909719066 80.0314
10.992963615930844 79.3412
11.015383218085756 77.8713
11.037785768347074 76.8967
11.06020621697282 76.5355
11.082627090322113 75.7318
11.105030913430326 75.184
11.12745263854165 74.4993
11.149857314510728 73.3776
11.172279894912576 73.9733
11.194702904450653 72.7412
11.217108866490921 71.9232
11.239532736615194 71.5185
11.26193956033512 71.4754
11.284364294577085 70.9829
11.306789462371718 70.6345
11.329197585398376 70.1781
11.351623622610898 70.0375
11.37403261614354 69.2956
11.396459526308487 69.0786
11.418869393879497 68.8952
11.441297180532617 68.4594
11.463725406927658 68.296
11.486136592353875 67.8142
11.508565700543707 67.4532
11.530977768845315 67.556
11.553407762368774 66.8973
11.575838200059769 66.8436
11.598251599479612 66.7308
11.620682927815501 66.4647
11.64309721895548 66.5506
11.665529441478206 66.4954
11.687962112597958 66.2836
11.710377748130886 66.3464
11.732811318753434 66.1294
11.755227854859067 65.8946
11.777662328529495 65.5404
11.800079768750786 65.6051
11.822515149015453 65.6492
11.844950984084935 66.0701
11.867369787303163 65.6372
11.889806534289491 65.8509
11.912226250487029 66.7034
11.934663912939751 67.3228
11.9571020346363 67.4662
11.979523127133968 67.4028
12.001962169624331 68.9385
12.024384183972964 72.3471
12.046824150809913 79.956
12.069264581333726 89.1992
12.091687985297767 95.9441
12.11412934550045 101.193
12.136553680195208 108.06299999999999
12.158995973632788 120.147
12.181438735204349 136.994
12.20386447284199 159.14
12.226308172985636 187.18400000000003
12.24873485024193 203.331
12.271179492516982 186.78099999999998
12.293607112949127 149.736
12.316052700916226 107.329
12.338498763250042 80.9754
12.360927805303868 71.1589
12.383374818673879 68.5345
12.405804812803074 67.5056
12.428252780773262 67.638
12.45070122756722 67.3783
12.473132656675375 67.608
12.49558206341869 67.5452
12.518014453510101 67.4305
12.540464823770117 67.9312
12.562915677315177 67.8244
12.58534951575545 68.3177
12.607801338171472 68.2437
12.630236146511358 68.3858
12.652688941369085 68.9541
12.675124723177234 69.1271
12.697578494048786 69.6793
12.720032754458185 69.9335
12.742470003354093 70.6194
12.764925245138771 71.1134
12.787363476431278 71.6146
12.809819703166806 72.0134
12.83227642391173 72.9777
12.854716135692716 73.6628
12.877173846755147 74.4003
12.899614549869717 74.9394
12.9220732548287 75.8741
12.94453245827299 76.582
12.966974655289818 77.9555
12.989434858002571 78.7378
13.011878055298721 79.5407
13.034339260862497 80.7754
13.056800969391883 82.7624
13.079245674017244 86.4027
13.101708390774869 92.5969
13.12415410463411 109.404
13.146617833206086 132.221
13.169064559883248 150.513
13.191529303857127 163.989
13.213994557076367 176.253
13.236442809902437 194.507
13.258909083908291 224.452
13.28135835851934 260.034
13.30382565690295 309.455
13.326293469022952 369.395
13.348744283242008 411.61
13.371213125129904 395.417
13.39366497011003 323.735
13.416134845360597 226.266
13.438605238843131 159.78799999999998
13.46105863690397 131.725
13.483530069144786 134.985
13.505984506951902 146.401
13.528456981549432 156.096
13.550929978879088 163.622
13.573385983253365 173.768
13.595860028340867 192.3
13.618317081455832 220.049
13.64079217790333 255.882
13.663250283359057 301.97900000000004
13.685726434770173 346.423
13.708203115221277 361.21
13.730662806148091 314.502
13.75314054697177 237.27200000000002
13.775601299246777 163.768
13.798080104050406 115.363
13.820559442405358 94.3882
13.843021793671388 88.0092
13.865502201420897 85.5934
13.887965623051947 84.6523
13.910447103807167 83.4993
13.932929122629764 81.9314
13.955394156785959 81.5133
13.977877254034569 80.2514
14.000343367582113 79.4467
14.022827546871707 78.7458
14.045294743423524 77.8641
14.06778000837062 77.2207
14.090265817715476 77.3741
14.112734645763819 77.0047
14.13522154619454 76.4995
14.157691466286913 76.4682
14.180179461423874 76.0971
14.202668005486178 75.4507
14.22513957064374 74.8789
14.247629214846473 74.6468
14.270101881097517 74.3697
14.29259262906496 73.9774
14.315083930490205 73.7914
14.337558255389705 73.6098
14.360050666019726 73.4699
14.382526101071944 73.0121
14.405019624534942 72.8125
14.427513705993134 72.6343
14.449990813291825 72.6097
14.47248601302899 72.5686
14.49496423954951 72.7168
14.517460561197822 72.6652
14.539939910570322 72.6954
14.562437357763558 72.9617
14.58493536931253 73.1303
14.607416409993311 73.1954
14.62991555254159 73.4287
14.652397725157423 73.7537
14.674898002342799 74.3312
14.697398848433282 74.7752
14.719882725991326 76.7074
14.74238471217934 80.4339
14.764869730765593 88.5152
14.787372860692983 96.2498
14.809876564079925 103.09299999999999
14.83236330125751 108.34299999999999
14.854868153850365 112.389
14.877356041159485 118.994
14.899862046604186 128.235
14.922351087688757 142.303
14.944858249632887 159.317
14.967365991421232 181.106
14.989856770231246 204.013
15.012365673994204 220.622
15.03485761569738 210.261
15.05736768508665 177.882
15.07987833888692 138.483
15.102372032001655 105.90799999999999
15.124883856909658 85.9328
15.14737872204565 77.8116
15.169891721717274 75.0327
15.192405310371893 74.2361
15.214901940621196 73.5593
15.237416709527137 72.7093
15.259914520936249 72.6028
15.282430473753607 71.9894
15.304947020131227 71.1889
15.327446610371178 70.7696
15.349964346154254 70.4672
15.372465126703139 70.4379
15.394984055556009 70.1516
15.417486030076159 70.1983
15.44000615566487 70.0127
15.462526881230803 69.7815
15.485030653812652 69.9425
15.507552581617434 69.5481
15.530057557334603 69.6273
15.55258069104857 69.6946
15.575104429329837 70.128
15.597611216864632 70.0342
15.620136166564563 71.176
15.6426441664095 74.3849
15.665170331202765 80.1174
15.687697105158826 87.1267
15.710206930593545 92.7206
15.732734925158933 96.5137
15.755245972089478 99.4287
15.77777519094324 103.56200000000001
15.800287463046663 110.661
15.822817909869592 120.333
15.84534897229804 132.268
15.867863089299354 148.789
15.890395385222186 167.23
15.912910736597423 185.37599999999998
15.935444269699861 192.054
15.957978423016485 179.067
15.980495633101265 150.35299999999998
16.003031029129367 117.398
16.02554948280019 89.8842
16.048086125229432 75.0025
16.070623392487107 68.9183
16.09314371869582 66.4476
16.11568223789321 65.0408
16.13820381691126 64.5343
16.160743591742527 63.8556
16.183283996022084 63.3765
16.205807461423195 62.2187
16.228349126881973 61.9783
16.25087385432698 61.9997
16.27341678466365 61.1202
16.29594277784926 60.9271
16.31848697676433 60.4957
16.341031811604868 59.9251
16.36355971058487 59.9203
16.3861058195587 59.9407
16.40863499352978 59.2405
16.431182380342005 58.9635
16.453730407713202 58.9556
16.476261501364792 58.628
16.498810812136167 58.2294
16.52134319004079 58.3314
16.54389378792203 58.2985
16.566445031001553 58.0926
16.588979342490088 58.0038
16.61153187824822 57.8068
16.634067483263312 57.6449
16.656621315414416 57.6823
16.679175797408888 57.4335
16.701713349928728 57.3846
16.72426913389191 57.6435
16.74680798922351 57.4622
16.76936507887444 57.3413
16.791905240734874 57.3869
16.814463639794468 57.4029
16.837022695210294 57.6483
16.859564824093756 57.5492
16.882125194503903 57.6508
16.904668639217885 57.6658
16.927230328348003 57.6721
16.949792678493612 57.9904
16.972338104193863 58.0261
16.994901778652235 58.2132
17.017448529496576 58.4458
17.040013531998152 59.2742
17.06257920018044 60.4376
17.0851279459922 62.2008
17.107694947817667 63.538999999999994
17.130245028099072 64.2669
17.15281336730298 65.0035
17.17536478578733 65.8816
17.19793446610687 67.1368
17.220504818648422 68.9599
17.243058251703697 70.4914
17.265629950971032 73.1706
17.288184731571736 76.6036
17.310757781306908 80.7363
17.33333150794385 84.1053
17.355888317140174 85.3156
17.37846339986244 83.738
17.401021565958885 78.7497
17.42359800851343 72.7236
17.44617513265564 67.8796
17.468735341390783 64.2516
17.491261035594565 62.9164
17.51396340099364 62.2639
17.536490463869136 62.2599
17.559018209820174 62.1915
17.58154663977963 62.5912
17.604251766089718 62.5964
17.626781572227713 62.7974
17.64931206518155 62.9802
17.671843245885103 63.3042
17.69455114821572 63.5702
17.717083712612634 63.8032
17.739616967569667 64.2448
17.762150914021706 64.946
17.78486160749854 65.2276
17.807396945166804 66.4811
17.829932977143503 68.6447
17.85246970436452 72.1627
17.875183204129467 75.8815
17.897721330097664 78.9334
17.920260154126645 81.5658
17.942799677153296 83.459
17.9655159983646 84.9949
17.988056927677544 87.9649
18.010598558807683 92.5332
18.033140892692916 97.9009
18.05586005052525 103.988
18.07840379824407 112.655
18.10094825154059 123.595
18.12366954819864 136.293
18.146215420998306 145.203
18.16876200220057 145.556
18.191309292745153 136.451
18.214033452627167 121.661
18.236582170236648 106.059
18.259131600016456 94.8971
18.281681742907335 90.0005
18.304408781233683 89.9325
18.32696035875955 91.9271
18.349512652227624 95.7196
18.372065662579683 101.209
18.394795594587553 105.53
18.41735004715306 106.948
18.43990521943684 103.199
18.46246111238171 95.4469
18.485193953325208 85.7302
18.507751296070428 76.8146
18.530309362314178 71.0041
18.552868153000343 68.0611
18.57560391815056 66.0068
18.59816416623245 65.2738
18.620725141597372 64.8292
18.643286845190268 64.2932
18.666025549835414 63.8247
18.688588718427933 63.0645
18.711152618092243 62.9235
18.73389353884365 62.6859
18.75645890921984 62.3528
18.77902501351406 61.9947
18.801591852673102 61.8364
18.824335739722738 61.3227
18.846904057212626 61.2514
18.8694731124168 60.9689
18.89204290628315 60.9924
18.914789774966803 60.5955
18.937361054791623 60.2506
18.959933076131318 60.1449
18.982505839934877 60.2708
19.00525570560582 60.196000000000005
19.027829963004184 59.9379
19.05040496572238 60.211000000000006
19.072980714710468 60.4444
19.095733592739563 61.0569
19.11831084296757 61.4367
19.140888842324735 62.283
19.16346759176222 62.5295
19.18622349753803 62.9262
19.208803755869358 63.3162
19.231384767143577 63.8148
19.253966532312948 64.6353
19.276725481241822 65.9765
19.29930876296784 67.2124
19.3218928014549 68.8054
19.34465404436217 70.8112
19.36723960516257 73.4028
19.389825925592426 75.938
19.412413006605938 77.4467
19.43517731967805 76.6241
19.457765930683355 73.9415
19.48035530514408 69.7941
19.50294544401556 65.15899999999999
19.525712842708348 61.3292
19.54830451925909 59.0627
19.570896963095727 57.4059
19.593490175174704 56.8715
19.616260674962184 56.7538
19.638855432416964 56.4693
19.661450960992624 56.6275
19.68404726164677 56.64
19.706820878021247 56.4314
19.729418731756834 56.5341
19.752017360452857 56.14
19.77461676506804 56.4862
19.797393513540218 57.1217
19.819994478951667 57.7327
19.84259622316767 58.5192
19.8651987471481 59.0695
19.887978643247177 59.3378
19.91058273574792 59.4281
19.933187610901943 59.7392
19.955969879466828 60.4619
19.97857632894404 61.1453
20.00118356396599 62.2938
20.023791585494575 63.8145
20.046577028914875 66.097
20.069186632506966 68.0826
20.091797025500632 70.4397
20.114408208858933 72.2298
20.137196842715273 73.4601
20.159809615886765 73.3184
20.18242318232135 70.9902
20.20503754298326 68.4067
20.227829382875154 66.3267
20.250445341109344 64.7536
20.27306209647285 63.9913
20.29567964993108 64.321
20.31847471147704 65.2299
20.34109387027612 66.5415
20.363713830075454 67.7324
20.386334591841646 67.5398
20.409132890679302 65.985
20.431755265564437 63.2769
20.454378445325528 60.3473
20.477002430930366 57.3193
20.499803982716553 55.4304
20.522429589228004 54.1095
20.54505600449589 53.4582
20.567683229489194 53.1213
20.590488049900088 52.9829
20.61311690359731 52.6936
20.63574656993626 52.5827
20.658553853717297 52.2716
20.681185154618298 52.2984
20.703817271080066 52.1598
20.72645020407368 51.6921
20.749260783967177 51.6082
20.771895359337133 51.7059
20.794530754161617 51.7477
20.817166969412938 51.4796
20.83998086114876 51.707
20.86261872660049 51.4469
20.885257415405402 51.3847
20.90789692853701 51.2368
20.930714147864748 51.2376
20.953355319030678 51.3865
20.97599731745334 51.6282
20.99864014410749 51.5011
21.021460706796564 51.4093
21.044105199328826 51.5693
21.06675052302631 51.6023
21.089396678865015 51.6132
21.112220600704806 51.7146
21.134868430275347 52.1273
21.15751709492456 52.2336
21.180166595629693 52.3183
21.202993892429635 52.6967
21.22564507473034 53.1034
21.24829709602816 53.3891
21.27112693608965 53.8144
21.293780644891275 54.0695
21.316435195634053 53.6141
21.339090589297417 53.1295
21.361923832041875 52.7408
21.384580921090404 51.8732
21.407238856007325 51.3414
21.429897637773326 51.3648
21.45273429906592 51.1403
21.475394784108598 51.2699
21.498056118951983 51.0688
21.520718304578022 51.2545
21.543558400304388 51.6232
21.566222297108816 51.8758
21.58888704765135 52.2988
21.61155265291521 52.871
21.63439619898156 53.6016
21.657063523335786 53.7581
21.67973170537063 54.3163
21.7024007460706 54.4812
21.72524775840385 55.0307
21.747918526116475 55.6736
21.770590155457388 56.3824
21.79326264741238 57.3565
21.816113141960237 58.5642
21.838787368860547 59.9195
21.861462461341976 61.3828
21.884315579735777 63.0377
21.90699241312273 64.7382
21.92967011506078 66.4111
21.95234868653799 67.5389
21.9752053151131 67.315
21.997885635446785 66.2005
22.020566828293532 63.8244
22.04324889464272 61.3271
22.066109049404666 59.1513
22.088792872571794 58.0338
22.111477572219204 57.5897
22.1341631493376 58.0817
22.157026846313123 58.3086
22.179714188221507 58.4919
22.202402410582668 57.8285
22.22509151438863 56.5086
22.24795876962584 55.1544
22.270649646204486 54.0212
22.293341407213727 53.0161
22.316034053646906 52.2171
22.338904883215342 51.78
22.36159931041458 51.3866
22.38429462602756 51.3159
22.40699083104897 51.0854
22.429865251039757 51.1227
22.452563244831367 51.2499
22.47526213102522 51.2188
22.49813925616515 51.2114
22.520839937143307 51.088
22.543541513520587 51.1569
22.56624398629403 51.0758
22.589124730075895 51.0023
22.611829005656723 51.52
22.63453418063466 51.5975
22.657240256008077 52.004
22.680124634582935 52.2839
22.70283252079775 52.7432
22.725541310413075 53.0617
22.74825100442868 53.043
22.771139033969575 53.5052
22.79385054687155 53.1956
22.81656296718292 53.7371
22.83927629590484 54.4093
22.862167992606945 54.8933
22.88488314827121 55.4882
22.907599215359284 56.1007
22.93031619487366 56.8738
22.953211574954405 57.7473
22.975930389478226 58.8351
22.998650119445763 59.711999999999996
23.02137076586092 59.9254
23.044269845560063 59.6197
23.06699233506288 58.4465
23.089715744034912 56.7777
23.112617610931565 55.0504
23.135342869061212 53.4539
23.158069049684816 52.318000000000005
23.1807961538087 51.7746
23.20370174880544 51.5678
23.226430710184808 51.6813
23.249160598093425 52.0709
23.271891413539002 52.1492
23.294800752937697 52.3278
23.31753343374794 52.5617
23.340267045128353 52.4866
23.36300158808808 52.8299
23.38591468821339 52.7373
23.408651104658304 52.9319
23.431388455719986 53.3415
23.454126742409 53.7816
23.4770436196085 54.2713
23.499783787914662 54.9628
23.522524894889884 55.5311
23.54526694154616 56.1448
23.56818761219047 57.3278
23.59093154860734 58.3442
23.613676427751283 59.5621
23.636422250635754 59.5756
23.659346731118656 59.131
23.68209445191868 57.82
23.704843119509587 55.6572
23.72759273490623 53.7836
23.750521041644767 51.8207
23.77327256312355 50.3577
23.796025035462787 49.3717
23.818956224555475 48.6965
23.841710609113413 48.5968
23.86446594758979 48.1527
23.887222241002014 47.8317
23.910157285144578 47.5447
23.932915498962537 47.5367
23.955674670778713 47.3967
23.978434801611975 47.2861
24.001373717286125 47.2014
24.024135776723917 46.9846
24.046898798245582 46.8128
24.06966278287146 46.8794
24.092605586582614 46.5204
24.115371508023642 46.3922
24.1381383956401 46.1762
24.16090625045381 46.1316
24.183852958731244 46.163000000000004
24.206622758582608 46.1111
24.229393528706886 45.8687
24.252165270127392 45.9405
24.27511589952438 45.9654
24.297889594216997 45.6675
24.32066426328598 45.6211
24.34343990775613 45.6392
24.36639447485003 45.4467
24.38917208083877 45.4129
24.41195066531332 45.2575
24.43490819850244 45.1938
24.457688750692377 45.1564
24.48047028445616 45.013999999999996
24.503252800821233 45.1645
24.526214300784112 45.2328
24.548998793132213 45.1679
24.57178427117417 45.0481
24.59457073593893 45.151
24.617536219319863 45.1008
24.64032466834748 45.1484
24.663114107195035 45.0513
24.685904536893013 44.7583
24.708874020360852 44.7628
24.731666442613744 44.724
24.754459858818787 44.4968
24.777254270007962 44.6697
24.80022777025625 44.4437
24.82302418230472 44.5505
24.845821592443674 44.6552
24.86862000170663 44.6092
24.891597535453727 44.4033
24.914397953892728 44.6967
24.93719937456671 44.5518
24.96000179851076 44.828
24.98298338249997 44.9584
25.00578782394922 45.0057
25.028593271784167 45.2226
25.05157790644186 45.3958
25.07438537804115 45.3765
25.097193859145293 45.3795
25.120003350792075 45.6917
25.142992065061257 46.0599
25.165803588823465 46.2836
25.18861612625217 46.5521
25.211429678386736 46.4576
25.234422489079968 46.8641
25.257238081693636 46.7337
25.280054692141732 46.6439
25.3028723214652 46.4787
25.325869245420463 46.4969
25.348688923599397 46.5255
25.371509623787006 46.7326
25.394331347025812 46.9091
25.41733240110666 46.611999999999995
25.440156181590016 46.1824
25.46298098826268 45.6535
25.48580682216873 45.0428
25.50881202326435 44.4742
25.53163992281684 43.9213
25.55446885274561 43.4415
25.577298814096377 43.1556
25.600308179121807 43.0021
25.623140214533745 43.0616
25.64597328451537 42.8707
25.66898578564376 42.6108
25.691820936010206 42.6056
25.714657124097695 42.6756
25.737494350954734 42.7057
25.760511045684957 42.6801
25.783350361364224 42.6443
25.806190718969255 42.6061
25.82903211955018 42.7273
25.852053024868923 42.6778
25.874896522722523 42.7083
25.897741066713106 42.5203
25.920586657892454 42.631
25.943611790812668 42.8894
25.966459487728237 42.9303
25.989308234998564 42.7905
26.01215803367705 43.0365
26.03518741123814 43.1638
26.05803932412957 43.3291
26.080892291600094 43.2384
26.10374631470478 43.4862
26.12677995397268 43.8239
26.14963609978026 43.821999999999996
26.172493304397875 43.6315
26.19535156888223 43.4954
26.218389486949604 43.1644
26.241249882640123 43.0712
26.26411134137826 42.7788
26.28715248187403 42.5632
26.31001607820869 42.3377
26.3328807407756 42.1936
26.35574647063438 42.4431
26.37879191991473 42.2366
26.401659795896734 42.3569
26.424528742360263 42.5193
26.447398760366614 42.5628
26.470448535598294 42.5537
26.49332070826805 42.7283
26.516193955675355 42.8825
26.53906827888316 42.9894
26.562122397260108 42.908
26.584998883685063 43.1864
26.607876449110325 43.5153
26.63075509460056 43.5831
26.65381357334404 43.8244
26.67669439061878 43.9575
26.699576291163382 43.9983
26.722459276044212 44.1861
26.745522132402975 43.9678
26.768407297649354 43.6726
26.791293550442003 43.1453
26.814180891848974 42.8843
26.837248143099337 42.5712
26.860137673466657 42.5116
26.88302829566349 42.2753
26.90592001075963 42.2329
26.92899167420566 42.0139
26.951885586870763 41.6325
26.974780595655517 41.3613
26.99785558178161 41.3586
27.020752794605112 41.0251
27.043651106772522 40.867
27.06655051935668 40.9313
27.089629948036183 40.8265
27.112531573292053 40.7887
27.135434302194138 40.8845
27.158338135817015 40.628
27.181422024430987 40.5413
27.204328079372566 40.5299
27.22723524226965 40.5523
27.250143514198573 40.6558
27.273231880156334 40.6708
27.296142382065014 40.3217
27.319053996245536 40.2505
27.341966723775965 40.3424
27.365059584515222 40.4546
27.38797455070062 40.5349
27.410890633481237 40.2901
27.433807833936918 40.2886
27.456905206923906 40.3793
27.47982465472398 40.2977
27.502745223449743 40.3523
27.525666914182825 40.5202
27.548768816912457 40.5089
27.571692763693633 40.4315
27.59461783573812 40.2745
27.617723149491244 40.1946
27.640650484125285 40.2262
27.66357894728264 40.1945
27.686508540048052 40.1912
27.709618414237887 40.1158
27.732550278321757 39.9731
27.755483275279115 39.8775
27.778417406196485 39.847
27.801531858397514 39.8285
27.824468269376716 39.6878
27.847405817586786 39.6927
27.870344504116094 39.9418
27.893463551932008 39.8622
27.916404527281053 40.0375
27.93934664422563 40.0266
27.962289903855886 40.0292
27.98541356491974 40.2799
28.00835912214229 40.2248
28.03130582533231 40.4596
28.054253675581805 40.6787
28.077381967556104 40.6968
28.100332124185126 40.7342
28.123283431160893 40.8725
28.146235889577238 40.7531
28.169368830154156 40.5494
28.192323603752033 40.2917
28.215279532083304 40.166
28.238415973016764 39.8596
28.261374223145094 39.7574
28.284333631303806 39.6012
28.307294198589954 39.4836
28.330435319167677 39.2548
28.353398217078915 38.9385
28.376362277420153 38.6958
28.39932750129032 38.5244
28.422473319286713 38.259
28.44544088262495 38.2956
28.468409612800283 38.1363
28.491379510913497 37.8544
28.51453004413313 37.7193
28.53750229057244 37.694
28.56047570826344 37.7763
28.583450298308804 37.7513
28.606605564586562 37.4926
28.629582511831156 37.6185
28.65256063474956 37.4275
28.675539934446338 37.4977
28.698699951647605 37.4471
28.72168161743193 37.2356
28.74466446331978 37.1517
28.767648490417624 37.1159
28.790813276438353 36.9566
28.813799678527303 37.1501
28.836787265157085 37.1446
28.859955641890075 37.1392
28.882945610203045 37.0839
28.905936766392035 36.8951
28.928929111566863 37.0344
28.952102288520145 37.0689
28.975097024308607 36.9837
28.998092952423807 36.8892
29.021090073977508 36.7003
29.04426806913204 36.6214
29.067267590245258 36.4734
29.090268308143695 36.5062
29.11327022394099 36.3251
29.13645305530891 36.2005
29.159457379627167 36.2498
29.18246290519685 36.0396
29.20546963313352 36.0342
29.22865731875826 36.0081
29.25166646419296 35.9794
29.27467681535305 35.8466
29.29768837335608 35.8527
29.320880931312562 35.9331
29.34389491580634 35.8897
29.366910110507334 35.8007
29.38992651653503 35.7969
29.41312396492981 35.7683
29.436142806456754 35.7968
29.45916286268059 35.7052
29.48236399319994 35.614000000000004
29.50538649169417 35.5768
29.528410208259935 35.5103
29.55143514402014 35.2802
29.574641196749695 35.1448
29.597668583816574 35.1618
29.6206971934585 34.9181
29.64372702680042 34.8971
29.666938019934474 34.7104
29.689970313635285 34.7265
29.713003834422636 34.7252
29.73603858342347 34.6363
29.759254535188578 34.4483
29.78229175361658 34.4254
29.80533020365064 34.4002
29.82836988641968 34.4753
29.85159081507472 34.3512
29.874632976355343 34.3197
29.89767637376955 34.4467
29.920721008448314 34.2771
29.9439469322847 34.2247
29.96699405457564 34.1216
29.9900424175358 34.1674
30.013092022298157 34.2176
30.03632295963995 34.0678
30.059375061131373 34.0701
30.08242840783577 34.0742
30.105483000888153 34.036
30.128718970092244 33.9384
30.151776069006917 33.9184
30.17483441768648 33.9857
30.198074175317235 33.9992
30.221135036724256 34.0523
30.24419715131772 33.9058
30.267260520236203 33.838
30.290505341942243 33.9596
30.313571232750228 33.9935
30.336638381310948 33.8674
30.35970678876503 33.8185
30.38295669299435 33.8425
30.40602763151657 33.8769
30.429099832366074 33.757
30.452173296685572 33.6172
30.47542830191959 33.6726
30.498504306502497 33.7056
30.521581577995562 33.7739
30.544660117543582 33.7181
30.56792024229725 33.6944
30.59100133132069 33.6037
30.614083691845494 33.5936
30.637167325018545 33.5768
30.660432587840603 33.6727
30.683518779717886 33.6284
30.70660624769615 33.7516
30.729694992924372 33.7422
30.75296541239743 33.7527
30.77605672557558 33.6893
30.799149319462742 33.7018
30.8224236211637 33.5899
30.845518789950724 33.4848
30.868615242910597 33.3698
30.891712981195973 33.3578
30.91499247215866 33.1171
30.938092794619365 33.1442
30.96119440587579 33.1055
30.984297307082752 33.1392
31.00758200598383 32.9258
31.030687500658694 32.8293
31.053794288760695 32.7792
31.076902371446767 32.6497
31.100192296997445 32.6442
31.12330298246119 32.6968
31.14641496599209 32.5537
31.169528248749216 32.5806
31.19282341969534 32.5378
31.215939314557186 32.5173
31.239056512134788 32.5269
31.262175013589378 32.467
31.28547544871168 32.4053
31.30859657161541 32.2972
31.331719001892175 32.4061
31.35484274070538 32.479
31.378148458819545 32.3972
31.401274828443725 32.3726
31.424402510106933 32.3258
31.447712205419993 32.3682
31.470842524931633 32.2801
31.493974159989783 32.2667
31.51710711176168 32.2197
31.54042212308802 32.3548
31.563557722100917 32.2449
31.586694641341655 32.2144
31.609832881979628 32.048
31.63315322823208 32.0059
31.656294125521327 31.9518
31.679436347728515 31.8602
31.70257989602529 31.8476
31.725905596152327 31.7052
31.74905181052835 31.5902
31.772199354521323 31.6858
31.79534822930507 31.5183
31.818679302290967 31.5646
31.84183085259981 31.6053
31.864983737233473 31.5765
31.88813795736804 31.5532
31.911474422233013 31.4399
31.934631327356435 31.5653
31.9577895715215 31.4557
31.980949155906522 31.4005
32.004291031706956 31.4394
32.027453310562606 31.3588
32.05061693318573 31.2368
32.07396288236386 31.328000000000003
32.09712920658542 31.2027
32.12029687812702 31.1069
32.14346589817093 31.0681
32.166817291729984 31.0919
32.18998902288583 30.9978
32.21316210610336 30.89
32.23633654256711 30.7978
32.259693399663725 30.7718
32.282870556771144 30.6173
32.30604907069099 30.6374
32.329228942610065 30.5265
32.35259128243769 30.4264
32.375773884550505 30.3639
32.398957848235646 30.3781
32.422143174682176 30.3362
32.445511016471215 30.2512
32.468699082679954 30.2145
32.49188851523011 30.1049
32.51507931531304 30.0147
32.538452678331 30.0643
32.56164622776311 30.0268
32.58484114831493 29.9332
32.60803744118015 29.9533
32.631416344731896 29.8859
32.654615396551876 29.9695
32.67781582427913 29.8831
32.701198898634416 29.7074
32.72440209253756 29.7124
32.747606665947124 29.7123
32.77081262006088 29.6312
32.79420126883317 29.6036
32.81740999876112 29.6325
32.840620112999424 29.506
32.86383161274818 29.4616
32.88722585534586 29.4579
32.91044014056596 29.4706
32.933655814909734 29.4557
32.95687287957963 29.4084
32.98027273544904 29.357
33.00349259526636 29.2235
33.026713849030116 29.4102
33.04993649794511 29.1244
33.073341986570746 29.1241
33.09656744032826 29.164
33.11979429286444 29.0802
33.14302254538647 29.0103
33.166433686291185 29.0186
33.18966475336992 28.9947
33.212897224069096 28.9586
33.23613109959831 28.8821
33.259547912343415 28.8664
33.2827846121627 28.8883
33.306022720453775 28.7633
33.32926223842861 28.7647
33.352684742614166 28.7879
33.37592709463173 28.7676
33.399170859982064 28.705
33.422597648419426 28.6169
33.44584425514446 28.557
33.46909227885668 28.5327
33.4923417207723 28.3859
33.51577423505344 28.4094
33.539026528130385 28.3192
33.56228024307245 28.2413
33.585535381098246 27.9899
33.60897364093058 28.1286
33.63223163992385 28.0938
33.6554910656699 28.0044
33.678751919389796 27.9906
33.702195944520106 27.8839
33.72545966903325 27.9268
33.74872482519663 27.7772
33.771991414233746 27.8135
33.79544122444841 27.855
33.81871069412428 27.7225
33.84198160035767 27.6439
33.86525394437455 27.6422
33.88870955949969 27.6251
33.911984794020626 27.6114
33.93526147001624 27.4652
33.958539588715006 27.4521
33.98200102861669 27.4174
34.0052820477047 27.4419
34.02856451319451 27.4072
34.05203033759056 27.2286
34.07531571090147 27.1859
34.09860253431845 27.2069
34.121890809074316 27.1943
34.145362493118924 27.1514
34.16865368561615 27.0478
34.191946333164054 26.9797
34.21524043699793 27.1052
34.23871800066799 27.0291
34.26201503218366 26.9582
34.28531352370466 26.9002
34.30861347646881 26.7538
34.33209693978188 26.8442
34.3553998301885 26.7953
34.378704185565205 26.71
34.402010007152356 26.6823
34.42549939016683 26.6656
34.44880815937748 26.5627
34.472118398533134 26.581
34.49543010887669 26.5358
34.51892543169198 26.425
34.54224009966052 26.4858
34.56555624255917 26.3755
34.58887386163339 26.3875
34.61237514439016 26.2451
34.6356957311114 26.1785
34.65901779775809 26.1907
34.68252356662995 26.1743
34.705848608458616 26.1526
34.72917513396849 25.9821
34.75250314440949 25.9098
34.77601490857862 25.9322
34.799345904259795 25.9204
34.82267838863559 25.934
34.846012362958525 25.8795
34.869530142679984 25.8115
34.89286711232212 25.81
34.91620557568269 25.6926
34.93954553401677 25.7937
34.9630693495876 25.7134
34.986412313340814 25.6887
35.00975677584668 25.6138
35.033102738362956 25.6349
35.05663261012228 25.5777
35.0799815881786 25.5737
35.10333207003229 25.5669
35.12668405694369 25.5284
35.150220005273056 25.4462
35.17357501786656 25.4174
35.19693153931268 25.4136
35.220289570874385 25.3198
35.24383161619786 25.3523
35.267192683604904 25.3405
35.290555264930376 25.3332
35.314101899412165 25.2342
35.33746752422433 25.2073
35.36083466676374 25.1804
35.38420332829803 25.1339
35.407756095629054 25.1457
35.43112781085063 25.154
35.45450104888391 25.0698
35.477875810999194 25.0941
35.50143473172161 25.0142
35.52481255774625 25.0187
35.54819191167777 24.9737
35.57157279478914 24.8926
35.595137889488406 24.8603
35.61852184675279 24.8626
35.641907337029984 24.8015
35.665294361595684 24.7659
35.68886565090076 24.7496
35.7122557598848 24.7088
35.73564740699838 24.6772
35.759040593519934 24.584
35.78261809810353 24.6135
35.80601437933051 24.5285
35.829412203814705 24.436999999999998
35.85281157283719 24.3254
35.876395313415884 24.4427
35.8997977874528 24.3237
35.92320180988546 24.2621
35.946790244133936 24.1814
35.97019737933222 24.1975
35.993606066789866 24.2073
36.01701630779276 24.086
36.04061101440684 24.1256
36.06402437852291 24.1625
36.08743930005611 24.1168
36.1108557802951 24.0411
36.13445678011326 24.0115
36.15787639383515 23.9901
36.18129757014299 23.9196
36.20472031032821 23.8771
36.22832762423364 23.8304
36.25175350829375 23.8225
36.275180960119776 23.7979
36.298609981005924 23.8351
36.32222362992669 23.7602
36.34565580510207 23.7368
36.36908955323448 23.6631
36.39252487562093 23.5658
36.416144880530226 23.5188
36.43958336764275 23.4713
36.463023432914625 23.5163
36.486465077645676 23.4454
36.51009145956204 23.5936
36.53353627947859 23.4244
36.55698268276811 23.3519
36.58043067073321 23.3344
36.60406345072071 23.2167
36.62751462435344 23.2256
36.65096738658405 23.3032
36.67460498210655 23.2166
36.69806093788647 23.2455
36.72151848619297 23.0817
36.744977628333636 23.1073
36.76862165890998 23.0132
36.79208400512205 23.078000000000003
36.81554794910557 23.0218
36.83901349217101 22.9122
36.862663978991606 22.8474
36.88613273667352 22.8002
36.90960309738324 22.8481
36.933075062434064 22.7297
36.95673202673572 22.8322
36.98020721697122 22.7964
37.003684015502365 22.6569
37.027162423645365 22.6238
37.050825886711465 22.6466
37.07430753063053 22.6648
37.09779078812467 22.5291
37.121275660513014 22.5036
37.144945643673694 22.4153
37.16843376245278 22.4239
37.19192350009803 22.4618
37.215414857931435 22.4172
37.239091382563885 22.311999999999998
37.262585997426164 22.2588
37.28608223645736 22.2244
37.309763684451696 22.2492
37.33326318851098 22.1848
37.356764320726555 22.1489
37.380267082425526 22.1377
37.40395510942588 22.0851
37.42746114683234 22.0183
37.45096881771841 22.0325
37.474478123414166 22.0103
37.49817275092816 21.9495
37.52168534303452 21.9006
37.54519957395567 21.849
37.568715445024665 21.8789
37.592416694607714 21.8284
37.61593586281424 21.8258
37.63945667518264 21.8393
37.66297913304891 21.7968
37.68668702630454 21.7314
37.710212792059274 21.7135
37.733740207334854 21.6532
37.757269273470364 21.5519
37.780983832050374 21.5292
37.80451621684926 21.5017
37.82805025654007 21.4823
37.851585952464795 21.4371
37.8753071980695 21.3973
37.89884622345676 21.377
37.92238690911902 21.3199
37.94611318753442 21.2609
37.969657210779765 21.2532
37.99320289834801 21.2586
38.016750251586465 21.1837
38.04048325513017 21.1392
38.06403395679343 21.1223
38.087586328183946 21.1194
38.11114037065203 21.0783
38.13488012115898 21.0253
38.1584375229181 20.9973
38.181996599821 20.916999999999998
38.205557353221124 20.991999999999997
38.229303872575656 20.9022
38.2528679961576 20.8575
38.27643380031219 20.7979
38.30000128639589 20.8062
38.32375459653193 20.7999
38.34732546371299 20.7681
38.37089801690786 20.7005
38.39447225747609 20.6215
38.418232380377425 20.6177
38.441810012983396 20.576
38.46538933705673 20.5369
38.488970353960084 20.5509
38.51273731166058 20.5477
38.536321731567014 20.5086
38.55990784840681 20.5138
38.58367995004091 20.4262
38.60726947812959 20.3692
38.63086070726198 20.3709
38.654453638806274 20.3295
38.678232613930824 20.2578
38.70182896773327 20.198
38.72542702806741 20.1866
38.7490267963045 20.160999999999998
38.77281266709232 20.1838
38.79641586862214 20.1333
38.8200207821842 19.9674
38.843627409152944 20.0147
38.86742019782782 20.0454
38.891030269149255 20.0122
38.914642058016156 20.000999999999998
38.938255565806124 19.9072
38.96205529464307 19.8852
38.98567225787121 19.8937
39.00929094417078 19.88
39.03291135492255 19.9417
39.05671804624804 19.764
39.080341923549106 19.7361
39.103967529460334 19.7023
39.127594865365744 19.6491
39.15140854155791 19.6475
39.17503935514948 19.5807
39.19867190290282 19.5873
39.22249083587951 19.5712
39.24612686969409 19.5309
39.269764641845306 19.5229
39.293404153722804 19.4221
39.317230110864074 19.4224
39.34087311998506 19.3715
39.36451787301696 19.4137
39.388164371352595 19.2929
39.41199737518003 19.212
39.43564738196752 19.24
39.45929913825317 19.2377
39.48295264543308 19.2098
39.506792718520884 19.1681
39.530449745387216 19.1124
39.55410852735203 19.0643
39.57776906581474 19.1451
39.60161623079 19.0382
39.625280300200025 19.0218
39.64894613032202 18.993
39.67261372255866 19.0321
39.6964680021016 18.9413
39.72013913657293 18.9447
39.74381203738292 18.9138
39.76748670593756 18.8826
39.79134812278169 18.8855
39.81502634488497 18.8304
39.83870633896685 18.7402
39.862388106436654 18.6971
39.88625668336918 18.6987
39.90994201572829 18.7298
39.933629125719285 18.5789
39.957503091207826 18.5801
39.9811937746168 18.6693
40.00488623990914 18.5575
40.02858048850006 18.5258
40.05246165409549 18.4166
40.076159487492085 18.4074
40.099859108448875 18.4283
40.123560518384345 18.3398
40.1474489070226 18.4036
40.171153913178564 18.3251
40.194860712584955 18.3163
40.2185693066637 18.2785
40.242464941335314 18.24
40.26617714307655 18.2478
40.289891143772046 18.2196
40.3136069448471 18.1729
40.33750984859743 18.1647
40.3612292688043 18.1025
40.3849504936829 18.0586
40.40867352466194 18.0693
40.43258372059144 17.9984
40.45631038219906 18.0277
40.48003885420956 17.9125
40.503769138055105 17.9621
40.52768664931955 17.9009
40.55142057531802 17.9006
40.57515631746428 17.86
40.599079334038514 17.8319
40.62281872700477 17.730999999999998
40.64655994043941 17.7167
40.67030297578061 17.7346
40.69423334835778 17.7099
40.71798004609188 17.6534
40.74172857006355 17.6591
40.76547892171441 17.6127
40.7894166736039 17.6193
40.813170699248566 17.5523
40.83692655691388 17.5186
40.86068424804498 17.4936
40.884629402612525 17.4451
40.908390779366385 17.4744
40.932153993938 17.4224
40.95591904777605 17.4066
40.979871628443995 17.4426
41.003640379561936 17.4027
41.02741097430883 17.3214
41.05118341413683 17.2739
41.075143444384416 17.2821
41.098919593177826 17.2957
41.1226975914255 17.2461
41.14647744058318 17.1263
41.170444943946755 17.1174
41.19422851378379 17.1838
41.218013938914645 17.0949
41.24198706625173 17.0746
41.26577622087193 17.0417
41.289567235177785 17.0309
41.31336011063129 16.994
41.337340752422875 16.9249
41.361137369129835 16.9379
41.38493585138705 16.9434
41.40873620066004 16.8327
41.43272438060107 16.8142
41.45652848292052 16.7832
41.48033445666918 16.8278
41.50414230331616 16.7162
41.528138045159764 16.7514
41.551949656675205 16.6568
41.575763145513235 16.6363
41.59957851314666 16.6086
41.62358184070442 16.5892
41.64740098505737 16.5523
41.6712220126409 16.5683
41.69504492493139 16.5271
41.71905586207357 16.4645
41.74288256296395 16.5104
41.766711153007456 16.4503
41.79054163368412 16.3751
41.814560204340054 16.4201
41.838394485526365 16.4572
41.86223066180303 16.3358
41.88625497706819 16.3266
41.910094962812 16.3387
41.93393684811168 16.2678
41.95778063445365 16.1785
41.981812625263366 16.2225
42.00566023303407 16.1698
42.029509746323676 16.1106
42.05336116662236 16.1208
42.077400857069705 16.1224
42.10125611078846 16.057000000000002
42.12511327600405 16.0259
42.14897235421036 16.004
42.173019768448455 15.9777
42.19688269209613 15.915
42.22074753323349 15.8983
42.24461429335818 15.9304
42.268669455600495 15.8748
42.292540073217886 15.8754
42.31641261433284 15.8724
42.34028708044675 15.7816
42.36435001496739 15.835999999999999
42.38822835065557 15.774000000000001
42.41210861586426 15.7055
42.4359908120986 15.7114
42.46006154323262 15.6418
42.48394762115317 15.6081
42.507835634632315 15.6398
42.531912233047436 15.5811
42.55580413732265 15.4903
42.579697981698 15.5256
42.60359376768525 15.5243
42.62767820545945 15.530999999999999
42.65157789440821 15.5126
42.67547952952185 15.4467
42.699383112316 15.4268
42.72347541395347 15.4136
42.74738291190531 15.3325
42.771292362102166 15.3056
42.795203766063516 15.3282
42.819303956130405 15.2451
42.843219287476536 15.2537
42.86713657716324 15.2134
42.89105582671383 15.2315
42.91516392983864 15.1757
42.939087119032166 15.1288
42.963012272677304 15.1094
42.98693939230129 15.097999999999999
43.01105543317513 15.0382
43.034986504731386 15.0288
43.05891954686589 14.9711
43.08285456110972 15.0014
43.10697856448665 14.9296
43.130917542983475 14.9132
43.15485849820081 14.9016
43.17880143167367 14.835999999999999
43.20293342237094 14.9098
43.226880332449 14.7875
43.25082922540554 14.7888
43.27496722682525 14.761
43.29892010567796 14.7507
43.32287497204102 14.741
43.34683182745632 14.6589
43.370977859791836 14.6493
43.39493871351105 14.6673
43.41890156092628 14.6151
43.44286640358341 14.5885
43.46702049182749 14.5997
43.49098934522816 14.5353
43.51496019852649 14.5169
43.5389330532723 14.4857
43.56309522248204 14.4644
43.58707210044314 14.4425
43.61105098451946 14.3884
43.63503187626491 14.3723
43.659202151562134 14.3599
43.68318707902681 14.3247
43.70717401884041 14.314
43.731162972560874 14.2794
43.75534137913236 14.2626
43.779334381108384 14.2364
43.803329401683186 14.2322
43.82732644241872 14.2112
43.8515130055166 14.2037
43.87551410707659 14.1259
43.89951723350145 14.0959
43.923709934595614 14.1161
43.94771713129917 14.0845
43.97172635758096 14.0746
43.99573761501002 14.0813
44.0199385169922 13.9933
44.04395385732619 13.9964
44.067971233533086 13.9514
44.09199064718605 13.9429
44.11619977548961 13.8609
44.14022328470671 13.8719
44.16424883610785 13.8714
44.18827643127035 13.7992
44.21249381139513 13.8431
44.236525514814076 13.7959
44.26055926674478 13.7471
44.28459506876863 13.7133
44.3088207262813 13.6821
44.33286064928722 13.7221
44.35690262714919 13.7053
44.38094666145278 13.6455
44.4051806219871 13.6943
44.42922879003185 13.575999999999999
44.45327901929361 13.5767
44.477331311362136 13.5378
44.501573600619416 13.4982
44.525630039221795 13.4603
44.54968854541895 13.4984
44.573937102200176 13.4207
44.5979997645541 13.4278
44.622064499300315 13.3992
44.64613130803592 13.3394
44.67038823869318 13.3935
44.69445921643748 13.3177
44.718532272981385 13.2925
44.742607409926194 13.2896
44.76687274034801 13.2742
44.79095205918753 13.1995
44.81503346325094 13.2157
44.839116954143876 13.2345
44.86339071028742 13.2005
44.88747839599524 13.1121
44.91156817336837 13.1253
44.93566004401666 13.1064
44.959942251908146 13.0597
44.984038330325966 13.0365
45.00813650686762 13.007
45.03223678314731 12.9997
45.05652746888232 12.9486
45.08063196592069 12.9544
45.104738567558705 12.9372
45.128847275414856 12.8748
45.15314646515866 12.8446
45.17725940679741 12.839
45.20137445952892 12.8277
45.22568004865265 12.8283
45.24979934496396 12.7966
45.27392075725247 12.8191
45.29804428714431 12.7617
45.322358426247604 12.7055
45.346486212804315 12.6904
45.370616121861914 12.6859
45.39474815505086 12.6369
45.41907087049246 12.5842
45.4432071734666 12.5849
45.46734560548283 12.5957
45.49148616817604 12.6177
45.51581748638564 12.5519
45.5399623320197 12.5228
45.56410931325473 12.5207
45.58825843173002 12.5255
45.61259837920865 12.4599
45.636751793816 12.4096
45.66090735060093 12.4091
45.68506505120716 12.3867
45.7094136545275 12.3489
45.73357566449271 12.3181
45.75773982322992 12.283
45.78190613238733 12.3331
45.806263418194064 12.2931
45.83043404997326 12.3052
45.85460683713677 12.2545
45.87897065658495 12.2195
45.90314777634752 12.1855
45.92732705646868 12.1507
45.9515084986045 12.1463
45.97588104735473 12.1265
46.00006683541565 12.0465
46.02425479047904 12.0358
46.04844491420549 12.0579
46.0728262191024 12.0455
46.09702070211635 12.0549
46.12121735879483 12.0308
46.14541619080294 11.9693
46.169806278764455 11.9928
46.194009483459034 11.9597
46.21821486849841 11.8826
46.24242243555223 11.8477
46.266821333570014 11.8785
46.29103328674601 11.8505
46.31524742696538 11.838
46.33946375590237 11.7827
46.36387149104216 11.7578
46.38809221957392 11.7639
46.41231514186606 11.7482
46.436540259597464 11.7474
46.460956858999374 11.7033
46.48518638983522 11.6715
46.509418121166966 11.619000000000002
46.533652054678114 11.5854
46.55807754555709 11.5671
46.58231590571962 11.5776
46.60655647313217 11.5649
46.630988654873654 11.5217
46.655233659129024 11.5183
46.67948087571551 11.550999999999998
46.70373030632484 11.4989
46.72817142736393 11.4678
46.752425308428684 11.4935
46.77668140861147 11.4566
46.80093972960865 11.3567
46.82538981736788 11.3635
46.849652602470904 11.3513
46.87391761349769 11.3388
46.8981848521493 11.315999999999999
46.9226439341274 11.2976
46.946915650573224 11.2335
46.97118959976749 11.2665
46.99546578341598 11.1971
47.019933887188216 11.2043
47.04421456235744 11.1694
47.06849747711879 11.1696
47.09278263318286 11.1721
47.11725978640143 11.081
47.14154944775105 11.0941
47.165841355555656 11.0693
47.1901355115306 11.0396
47.214621741924994 11.0516
47.23892041698887 10.9899
47.26322134538975 10.9696
47.28771440635075 10.9722
47.31201986422527 10.9712
47.33632758061436 10.9559
47.360637557241866 10.9036
47.38513974410611 10.8536
47.40945426407847 10.8296
47.43377104948137 10.8542
47.45809010204344 10.8259
47.48260144275502 10.8114
47.506925052572285 10.7868
47.53125093475548 10.7207
47.55557909103813 10.7613
47.58009961361992 10.7153
47.60443234110732 10.7235
47.62876734791564 10.6734
47.65310463578333 10.6879
47.6776343683373 10.6638
47.7019762413987 10.6339
47.72632040075572 10.5919
47.75066684815169 10.565
47.77520581885936 10.5638
47.799556865477655 10.5638
47.823910205386 10.5513
47.84826584033272 10.5012
47.87281407745551 10.4408
47.89717432569297 10.4657
47.92153687423484 10.4494
47.94609208429692 10.4456
47.97045925671401 10.4058
47.99482873471275 10.3996
48.01920052005013 10.3853
48.04376504619224 10.3676
48.068141469543484 10.3652
48.09252020552573 10.3265
48.11690125590099 10.3242
48.1414751266064 10.3042
48.16586082917454 10.2584
48.19024885144316 10.2511
48.2146391951793 10.2542
48.239222439012764 10.2213
48.26361744916137 10.202
48.28801478610016 10.1963
48.31241445160131 10.1695
48.337007097209366 10.1336
48.36141144338331 10.1279
48.38581812345755 10.0959
48.41022713920929 10.1028
48.434829215320704 10.0726
48.45924292604658 10.0632
48.48365897780325 10.0916
48.50807737237308 10.0158
48.532688907799276 10.025
48.55711201168574 9.99746
48.581537463754074 9.96978
48.60615611725119 9.95613
48.63058628942721 9.94008
48.65501881516546 9.88537
48.6794536962573 9.871039999999999
48.70408185970339 9.86759
48.72852147531801 9.83003
48.75296345168211 9.84247
48.77740779059232 9.84249
48.80204549302823 9.81738
48.82649458091802 9.80803
48.85094603676547 9.78542
48.87539986237231 9.80386
48.90004713292306 9.75115
48.92450572200832 9.70832
48.94896668628025 9.6949
48.97343002754588 9.68383
48.99808689542115 9.66296
49.02255501470614 9.649569999999999
49.04702551642794 9.60449
49.0714984023988 9.58129
49.096164896893235 9.62331
49.120642575466796 9.55525
49.145122643748394 9.52927
49.16960510355558 9.52582
49.19428125404938 9.53382
49.2187685210852 9.53651
49.243258185121555 9.512939999999999
49.26794160167084 9.46412
49.2924360839405 9.42106
49.31693296869764 9.40852
49.34143225776915 9.3993
49.36612538195438 9.379760000000001
49.39062950396021 9.35698
49.41513603578346 9.35568
49.4396449792564 9.34786
49.46434784069503 9.29846
49.488861631846454 9.282739999999999
49.513377840166804 9.265989999999999
49.537896467493745 9.24827
49.56260909589029 9.21067
49.587132585683285 9.271980000000001
49.611658500018365 9.222000000000001
49.636186840738596 9.1877
49.66090926588511 9.198139999999999
49.685442483902584 9.14589
49.70997813385706 9.106869999999999
49.734516217597076 9.10597
49.75924846937352 9.06362
49.7837914452858 9.10626
49.80833686055187 9.0281
49.83288471702571 9.060789999999999
49.85762682540054 9.04163
49.882179588965734 8.98519
49.9067347993235 8.99291
49.93129245833333 8.981580000000001
49.95604445336378 8.95699
49.98060703442832 8.93106
50.005172069746266 8.90313
50.02993150438364 8.89221
50.05450147301533 8.91424
50.07907390151433 8.89465
50.10364879174981 8.842410000000001
50.12841816587289 8.84296
50.1529980044635 8.845839999999999
50.17758031042124 8.79323
50.20216508562089 8.79776
50.22694442953363 8.7721
50.25153416817468 8.76309
50.27612638170508 8.740739999999999
50.300721072005196 8.732280000000001
50.325510416102105 8.73404
50.350110084975064 8.67768
50.37471223628208 8.70082
50.39931687190919 8.64205
50.424116246675766 8.67645
50.44872587605249 8.62386
50.47333799543065 8.57638
50.49795260670191 8.580960000000001
50.52276204271512 8.544989999999999
50.54738166295838 8.52787
50.57200378079314 8.524610000000001
50.596628398116835 8.48984
50.62144792604559 8.5
50.646077567609396 8.467210000000001
50.670709714377715 8.47097
50.69553683636198 8.43849
50.72017401885922 8.43908
50.7448137122895 8.44528
50.76945591856022 8.43638
50.79429318636823 8.39214
50.818940443716784 8.39461
50.84359021965163 8.43344
50.868242516085964 8.39161
50.893089960641895 8.34713
50.917747323549435 8.29818
50.94240721271973 8.28322
50.96706963007175 8.26631
50.99192728239342 8.22058
51.01659478166073 8.22107
51.04126481489051 8.208639999999999
51.06593738400761 8.21684
51.090805275207074 8.21851
51.11548294172845 8.19098
51.14016314993547 8.18196
51.164845901758845 8.13175
51.18972406304274 8.137739999999999
51.21441192780656 8.09592
51.23910234200271 8.13914
51.2637953075678 8.10633
51.288683770237945 8.05735
51.31338186432707 8.03641
51.33808251561888 8.0187
51.362978729967345 8.03562
51.387684521509755 8.02444
51.41239287610203 7.98112
51.437103795691165 7.940810000000001
51.46201036644977 7.944719999999999
51.486726441956634 7.92675
51.51144508832545 7.88315
51.536166307509156 7.88048
51.56108326624387 7.88202
51.58580965706056 7.8598
51.61053862657523 7.867000000000001
51.635270176746864 7.833710000000001
51.66019755512065 7.831919999999999
51.68493429268881 7.84425
51.70967361681515 7.81578
51.73441552946465 7.77738
51.759353359237934 7.7393
51.7841004750961 7.7253300000000005
51.80885018539685 7.74717
51.833602492111254 7.7232199999999995
51.8585508051424 7.656460000000001
51.883308330926425 7.66673
51.90806845906181 7.664619999999999
51.932831191525715 7.62283
51.95779001977161 7.5998600000000005
51.98255798721516 7.59057
52.00732856494335 7.56257
52.03229530577543 7.56808
52.057071130455945 7.58953
52.081849571391054 7.56155
52.106630630568695 7.530589999999999
52.13160794279417 7.50289
52.15639426492067 7.488289999999999
52.18118321127822 7.4978
52.205974783860896 7.47502
52.23096269971011 7.43355
52.255759551287994 7.428260000000001
52.280559035098186 7.429689999999999
52.30536115314103 7.42462
52.33035970494467 7.40935
52.35516711807904 7.38105
52.37997717147198 7.3624600000000004
52.40478986713005 7.371810000000001
52.42979908731974 7.325660000000001
52.454617094216 7.299980000000001
52.47943774942214 7.30005
52.50426105495102 7.28148
52.529280976059844 7.28728
52.554109609024096 7.248639999999999
52.57894089837482 7.231389999999999
52.60377484613117 7.20546
52.62880550079408 7.2309399999999995
52.65364479223379 7.20993
52.67848674816189 7.16253
52.70352547971946 7.146210000000001
52.72837279155837 7.13232
52.753222773982785 7.121389999999999
52.778075429022984 7.1071800000000005
52.80312495150885 7.10475
52.827982978797436 7.106089999999999
52.85284368481815 7.05958
52.87770707160767 7.0549100000000005
52.90276741793998 7.074
52.92763619336701 7.05425
52.952507655698504 7.01133
52.977381806977576 7.01518
53.00245301017842 6.97099
53.02733256653592 6.96523
53.052214817996074 6.943960000000001
53.077099766608484 6.9662
53.102181859804446 6.90676
53.127072229988265 6.930839999999999
53.15196530349892 6.92306
53.17686108239249 6.9238100000000005
53.20195409881522 6.871410000000001
53.22685531582556 6.85162
53.25175924441303 6.8174399999999995
53.27666588664027 6.7884199999999995
53.30176985962693 6.80452
53.3266819565689 6.809769999999999
53.35159677336455 6.77595
53.376514312083096 6.768089999999999
53.40162927507703 6.75754
53.42655228516116 6.72202
53.45147802340193 6.71639
53.47660125628886 6.7034899999999995
53.50153247842639 6.6753800000000005
53.52646643496923 6.647819999999999
53.55140312799818 6.67877
53.576537409691696 6.6564
53.60147960336152 6.62402
53.626424539786164 6.60843
53.65137222105307 6.57874
53.67651758529126 6.60491
53.70147078399681 6.63311
53.72642673383343 6.58162
53.75138543689533 6.56265
53.776541917524526 6.55898
53.801506154876755 6.55008
53.826473151763246 6.49369
53.851442910284916 6.48971
53.87661054126026 6.47931
53.9015858509782 6.44479
53.92656392866066 6.43467
53.95154477641532 6.44583
53.976723591801296 6.41863
54.00171000771266 6.42952
54.02669920004598 6.39666
54.051691170915745 6.3769
54.076881204886796 6.36655
54.101878760928514 6.336530000000001
54.12687910187696 6.3346
54.152077577768296 6.32137
54.1770835166946 6.2763800000000005
54.20209224691339 6.25494
54.22710377055121 6.2708
54.25231352511594 6.24567
54.27733066384342 6.19841
54.30235060239643 6.17291
54.32737334290836 6.15875
54.35259441062629 6.15944
54.377622783395324 6.15221
54.40265396455061 6.16638
54.42768795623251 6.10744
54.45292037169559 6.08101
54.477960012857906 6.10457
54.50300247099511 6.067740000000001
54.52804774825457 6.0195099999999995
54.55329154616743 6.01232
54.57834249018678 5.98281
54.6033962597977 5.92045
54.6284528571545 5.9604800000000004
54.653708072335164 5.8848400000000005
54.67877035378786 5.87467
54.70383546947698 5.9120800000000004
54.72890342156389 5.83699
54.7541700889442 5.78106
54.77924374251975 5.76464
54.8043202390049 5.77992
54.82959552413022 5.7862800000000005
54.8546777351945 5.78636
54.87976279569621 5.69752
54.90485070780914 5.74315
54.930137506558005 5.6626900000000004
54.95523115074295 5.7355599999999995
54.98032765308844 5.6470199999999995
55.005427015775496 5.63341
55.03072536339621 5.64858
55.05583047570572 5.60731
55.080938454927676 5.565869999999999
55.10604930325027 5.55426
55.131359235107396 5.56692
55.15647585066083 5.47887
55.181595341907496 5.46899
55.20671771104285 5.43046
55.232039262617704 5.42037
55.25716741665048 5.41519
55.28229845518636 5.38054
55.30743238042802 5.31993
55.33276558731939 5.32073
55.357905315183636 5.34478
55.383047936390035 5.27522
55.40819345314859 5.267180000000001
55.433538351073295 5.2292
55.458689688238415 5.20746
55.483843927614096 5.17581
55.509197623043605 5.17065
55.53435769621134 5.11985
55.55952067826466 5.0831800000000005
55.5846865714265 5.064019999999999
55.61005202069737 5.0552
55.63522376553902 5.07294
55.66039842818645 5.01061
55.68557601087004 5.03092
55.7109532500271 4.92215
55.73613670233794 5.05224
