TT I
1.2716486653135266 7.782719999999999
1.2939594142134223 7.3929100000000005
1.3162702121660406 6.92855
1.3385810600174564 6.54202
1.3608919586137629 6.55742
1.383202908801069 6.802460000000001
1.405513911425503 6.72492
1.4278249673332093 6.61185
1.4501343378461518 6.63445
1.4724455028545926 5.72065
1.4947567236847858 5.9139
1.517068001182951 5.99346
1.5393793361953272 6.0593699999999995
1.5616907295681737 6.17865
1.5840021821477681 5.76079
1.60631369478041 5.00553
1.6286252683124185 4.98169
1.6509369035901333 5.26457
1.6732468618895553 5.28271
1.695558623192809 4.84286
1.7178704487808514 5.95324
1.7401823395001077 4.58362
1.7625012545597203 4.951919999999999
1.7848028405262486 4.70711
1.8071218901122095 4.77284
1.8294236121921872 5.07924
1.8517427996910911 4.4339900000000005
1.8740620574440425 5.22089
1.8963639900671978 4.7914
1.9186833908139995 4.7439599999999995
1.9409854680117449 5.3404300000000005
1.9633050151394713 5.214180000000001
1.9856246367570705 4.86193
2.0079269371922672 4.59091
2.03024671027244 4.94402
2.0525491637446027 5.08263
2.074869091674931 4.87909
2.097171701569106 4.80462
2.1194917877373847 4.84141
2.141811954326636 5.08902
2.164114805233074 4.76462
2.186435135143035 6.16466
2.208738150935709 17.6181
2.231058647554722 40.029
2.2533792288321184 30.9193
2.275682498336085 12.9971
2.298003251406138 5.90683
2.3203066942619714 5.42755
2.3426276225136022 5.6197
2.3649486396617507 4.618
2.387252348930071 5.25865
2.4095735463442893 5.23083
2.4318774374315884 5.8843
2.4541988185014043 6.4371
2.476502894794693 6.31651
2.498824462909887 6.09754
2.521146125856138 6.3935699999999995
2.5434504863470337 5.79575
2.5657723414244717 6.52044
2.588076895590662 7.234360000000001
2.610398946189713 7.31922
2.6327210958598384 7.26947
2.6550259469304716 7.44267
2.6773482972090137 7.75812
2.6996533504259 8.09595
2.7219759047039602 8.11309
2.744298562293959 7.74503
2.7666039251246595 7.66062
2.7889267918020164 8.222610000000001
2.8112323652516555 7.09581
2.833555444408179 7.72565
2.8558786311183852 7.8357399999999995
2.8781845268938557 8.26709
2.9005079311721484 8.71337
2.9228140460410397 8.63321
2.9451376712799635 8.69053
2.967444008632326 9.6109
2.9897678582247247 9.70857
3.0120918213106695 10.4783
3.0343984987899373 10.9892
3.0567226913198637 11.2683
3.079029599759726 11.4624
3.101354025127254 12.3598
3.123678568232338 12.7033
3.145985829517914 12.6599
3.16831061055229 13.3305
3.1906181112775593 14.062999999999999
3.212943133635653 14.8103
3.2352682779763207 15.3974
3.2575761442691227 15.8308
3.2799015350264273 15.9318
3.302209649240067 16.7817
3.3245352898092655 17.4431
3.3468436553365257 17.7285
3.369169549113219 17.7614
3.3914955708171384 18.9358
3.413804319727358 19.3767
3.4361305997334863 19.4295
3.4584396084414553 19.827
3.4807661501462652 20.8809
3.503092824025881 21.4601
3.5254022288463154 21.5159
3.5477291695206588 22.302
3.5700388426251948 23.1037
3.5923660534916446 25.6705
3.6146934007816114 45.5991
3.637003482731501 122.53399999999999
3.6593311053109985 139.06799999999998
3.681641464033634 75.0238
3.7039693653009733 34.5591
3.726297407241705 27.6271
3.7486081875460804 26.6491
3.7709365132734978 27.0399
3.793247578841633 27.3568
3.8155761917550093 27.5948
3.8378875459837216 27.644000000000002
3.8602164494827234 28.0215
3.882545499606844 29.0221
3.9048572932539183 29.2582
3.9271866390645718 29.5121
3.9494987298666713 30.4062
3.971828374764527 31.0213
3.9941581705403255 31.3515
4.016470713506008 32.1598
4.038800813471445 32.8405
4.061113662089144 33.2069
4.0834440696459176 34.0811
4.105774632334751 34.9842
4.128087945865126 36.1621
4.150418821249301 36.7432
4.172732448931298 38.5724
4.195063640413578 40.6891
4.2173775856475215 45.7681
4.239709096631102 89.3553
4.262040768704612 334.214
4.284355196706267 463.347
4.306687193387355 296.77
4.329001947444346 103.664
4.35133427213731 52.258
4.373666762177566 46.6692
4.395982011761091 45.7818
4.418314834921175 47.5486
4.44063041906622 57.9151
4.4629635787515625 75.1527
4.4852969080429785 74.1426
4.5076130004776225 58.7076
4.529946671403969 52.1883
4.552263106909177 51.6465
4.574597122877047 52.0401
4.596931312711224 53.383
4.619248269273446 54.0245
4.6415828092605835 54.9444
4.663900117405352 56.1224
4.686235010953232 57.4325
4.708552674085913 58.4073
4.730887924602802 60.0297
4.753223354952695 61.4336
4.775541557023902 63.2011
4.797877349456786 64.9446
4.820195915032126 66.8557
4.842532072957498 67.8744
4.864868414979744 70.0222
4.88718753227192 72.6814
4.909524244902505 74.4526
4.931843734218147 76.3656
4.954180820867835 78.6679
4.976518095879839 81.6009
4.998838149695359 85.1163
5.021175803844231 88.441
5.043496238205739 91.8566
5.065834274903528 96.5244
5.088172504230693 102.479
5.1104935158799565 109.815
5.132832132875765 139.977
5.155153533596801 203.392
5.1774925416746225 245.80599999999998
5.199814334878411 420.11400000000003
5.2221537374521505 1129.85
5.244493338631803 2839.18
5.266815727034316 6696.14
5.289155727832427 11449.5
5.311478517248165 9503.34
5.333818921080011 3643.46
5.356159527788849 766.953
5.3784829252032536 223.671
5.400823940070432 160.08700000000002
5.423147747031976 137.493
5.445489173474152 125.522
5.467830807066149 118.505
5.490155234831516 113.404
5.512497285125229 108.73100000000001
5.534822130975162 106.72200000000001
5.557164601388673 104.583
5.579489868738879 101.95100000000001
5.601832762690846 101.288
5.6241758697774475 100.458
5.646501775867269 98.95
5.668845311622074 97.2655
5.691171647754637 96.37100000000001
5.713515615597765 95.1234
5.735859800852677 94.1364
5.758186788542988 93.0489
5.780531411018185 93.6033
5.802858837297399 93.2733
5.825203900414495 92.8265
5.8475491852224 93.3932
5.869877275883075 93.9898
5.892223006467101 94.8949
5.914551544266608 96.6819
5.936897724049891 99.6622
5.959244129804903 105.899
5.981573344815301 126.693
6.0039202049061 227.113
6.026249875609095 485.036
6.04859719346037 991.8589999999999
6.070927323278297 1999.73
6.093275102315365 3840.4
6.115623113320588 5066.45
6.137953938319995 3625.16
6.160302415650845 1293.81
6.182633708324452 312.582
6.2049826554078376 130.591
6.227331838745022 100.589
6.249663839443684 90.8479
6.27201349767565 87.0284
6.294345974611799 96.124
6.316696111167083 116.05
6.339046488263839 108.675
6.361379686074702 86.8244
6.383730546639482 74.7678
6.406064229255215 71.0924
6.428415576718203 70.5153
6.450749747566656 69.1375
6.47310158535871 67.9963
6.495453669698332 67.0559
6.517788579421056 66.7703
6.540141159237969 65.36
6.562476565766648 65.075
6.5848296444934045 64.4945
6.607182974060425 64.4748
6.6295191323281015 64.4269
6.651872965955752 69.5083
6.6742096296068985 107.054
6.6965639707294615 179.37099999999998
6.71891856698715 183.35
6.741255995248479 115.31299999999999
6.763611104154477 74.8332
6.785949046381137 63.3268
6.808304671371482 60.9172
6.8306605557940046 60.203
6.852999275508618 59.3015
6.875355681171544 58.4498
6.897694923437771 58.4134
6.92005185377892 57.812
6.9423916220322655 58.0318
6.964749080490181 57.3723
6.987106804399774 57.2471
7.009447368180821 57.6543
7.031805625367033 56.8103
7.054146723727803 56.8818
7.076505517631004 56.9956
7.098864581288365 56.801
7.121206488070854 56.8056
7.143566093607822 56.5576
7.165908543567245 57.3298
7.188268694426048 56.9529
7.2106291193438095 57.4125
7.232972390625943 59.2246
7.255333366030969 76.6676
7.277677189091925 155.734
7.300038718428332 235.207
7.322400526130865 195.378
7.344745183422596 110.0
7.367107550224791 67.3271
7.389452767901992 58.7282
7.411815697249891 57.395
7.434161478756298 55.9651
7.456524974096713 55.6168
7.478888753837185 55.8752
7.501235387657368 56.0418
7.523599738562711 56.2557
7.545946944825532 56.4276
7.568311870344528 56.5231
7.5906770845765665 56.895
7.613025156078678 58.9336
7.635390950099687 61.082
7.657739602662809 59.736999999999995
7.680105979923558 57.7918
7.702472650212829 57.4054
7.724822180948224 57.301
7.747189439655568 57.3489
7.769539560075357 57.2663
7.791907410653562 57.9747
7.81425812420825 57.6809
7.836626570110925 58.1742
7.858995315087906 59.0166
7.881346924933401 59.0591
7.903716270417482 59.4674
7.926068482028405 59.995
7.948438431475253 60.4799
7.9708086843180235 61.1145
7.993161805171116 61.5392
8.015532667162402 62.0903
8.037886398416653 63.2149
8.060257873014221 63.5899
8.082629655331942 64.0745
8.104984308787587 65.331
8.127356708900503 69.4153
8.149711981398308 77.7855
8.172085002766314 81.5689
8.194458336181368 76.2794
8.216814543847752 71.6024
8.23918850371002 70.9486
8.26154533906492 71.7634
8.283919928836452 72.766
8.306277395339652 73.7357
8.328652618483376 75.3856
8.351028159736202 77.2435
8.373386579575245 79.6799
8.395762759396959 81.5196
8.418121819038275 87.7462
8.440498640894003 106.131
8.462875785192262 126.493
8.485235811156207 138.18
8.507613602688501 175.577
8.529974277114228 264.991
8.552352719347912 396.98900000000003
8.574731488360351 628.46
8.59709314210385 1060.14
8.619472567021075 1620.96
8.64183487789147 2088.79
8.664214962183097 1879.69
8.686577933647762 1145.28
8.708958680784317 469.152
8.731339760774953 193.922
8.753703729764451 120.993
8.77608547780821 104.333
8.798450116065078 98.9327
8.820832535634787 95.5326
8.843215292401656 93.4526
8.865580941199045 91.9187
8.887964374703538 91.2192
8.910330701447199 92.64299999999999
8.932714815164482 96.5103
8.955099270424924 96.0562
8.977466620733543 91.6053
8.999851761421976 87.3387
9.022219798361645 85.1144
9.04460562795561 84.738
9.066991803441677 84.2071
9.089360876979615 84.2855
9.111747746589993 83.7222
9.13411751544971 83.1658
9.156505082664324 82.8483
9.178875550323522 83.3632
9.20126381862328 83.9858
9.223652438908596 84.5953
9.246023961427412 84.3434
9.26841328802173 83.2686
9.290785518039224 83.1056
9.313175554425882 83.7086
9.335565947154315 83.6747
9.357939245086508 83.9618
9.380330352834827 84.0251
9.40270436697103 84.5678
9.425096193225055 84.4815
9.447488380180165 84.9436
9.469863475295412 85.5379
9.492256385987508 85.9994
9.514632206018318 86.6837
9.537025843935714 86.9351
9.559402392368193 87.5516
9.581796761000229 88.742
9.604191496441521 90.2329
9.626569144158516 94.8798
9.648964615551032 101.289
9.671343000390081 104.115
9.693739211225699 100.719
9.716135793237463 96.0588
9.738515290448102 94.7315
9.760912617143402 95.3378
9.783292860202891 97.0031
9.805690935076182 98.1752
9.828089385495742 98.9837
9.850470754023561 102.199
9.872869957865444 112.056
9.89525208097539 133.998
9.917652041736662 152.97
9.940052382417589 150.602
9.962435644102392 151.076
9.984836746950979 183.856
10.007220771957746 250.34900000000002
10.029622640473708 350.961
10.052007432299963 509.94599999999997
10.074410069984072 738.3389999999999
10.096813093716005 1102.97
10.119199042482517 1571.49
10.141602840636468 1914.43
10.163989564971628 1769.15
10.186394141051062 1098.41
10.208799107559706 506.834
10.231187001965623 233.02900000000002
10.253592751657669 140.366
10.275981430388155 119.925
10.298387966769793 119.499
10.320794897965431 123.831
10.343184759907361 122.27600000000001
10.36559248305461 114.212
10.387983138083852 108.28200000000001
10.410391656691655 110.24
10.432800574501677 121.637
10.455192425893369 138.47
10.47760214443012 162.526
10.499994797678786 199.355
10.522405320453982 260.943
10.54479877906917 356.32099999999997
10.567210109595656 468.685
10.5896218454736 555.896
10.612016518879773 523.354
10.634429067781074 396.454
10.656824555333241 231.43599999999998
10.679237920773568 139.102
10.701651695961992 101.87700000000001
10.724048411481384 92.2774
10.746463008485165 88.9024
10.768860546937125 87.0628
10.791275969274796 85.0272
10.81369180576079 83.9721
10.836090585366925 82.8656
10.858507252467449 81.7562
10.88090686379991 80.8801
10.903324365036394 80.4366
10.925724811614439 80.4225
10.948143150509463 82.8543
10.970561909719066 82.2772
10.992963615930844 79.6481
11.015383218085756 76.8057
11.037785768347074 75.1327
11.06020621697282 74.6757
11.082627090322113 73.9179
11.105030913430326 73.6739
11.12745263854165 74.4127
11.149857314510728 79.656
11.172279894912576 89.3198
11.194702904450653 91.1754
11.217108866490921 85.2151
11.239532736615194 78.8805
11.26193956033512 75.3183
11.284364294577085 73.2001
11.306789462371718 70.6548
11.329197585398376 68.9782
11.351623622610898 68.5978
11.37403261614354 67.6576
11.396459526308487 67.4567
11.418869393879497 67.0597
11.441297180532617 66.5739
11.463725406927658 66.2458
11.486136592353875 66.3342
11.508565700543707 67.369
11.530977768845315 70.3173
11.553407762368774 71.9299
11.575838200059769 71.0709
11.598251599479612 67.9129
11.620682927815501 65.8896
11.64309721895548 65.0362
11.665529441478206 64.6016
11.687962112597958 64.5475
11.710377748130886 64.4169
11.732811318753434 64.2656
11.755227854859067 64.3321
11.777662328529495 64.0638
11.800079768750786 64.3123
11.822515149015453 64.0272
11.844950984084935 64.1813
11.867369787303163 63.5771
11.889806534289491 63.4831
11.912226250487029 64.2108
11.934663912939751 64.3428
11.9571020346363 64.0249
11.979523127133968 64.1543
12.001962169624331 65.0307
12.024384183972964 65.969
12.046824150809913 69.2759
12.069264581333726 74.8778
12.091687985297767 81.2177
12.11412934550045 90.1843
12.136553680195208 102.23700000000001
12.158995973632788 120.25
12.181438735204349 141.191
12.20386447284199 172.115
12.226308172985636 201.71200000000002
12.24873485024193 210.38
12.271179492516982 185.253
12.293607112949127 147.165
12.316052700916226 111.811
12.338498763250042 87.6739
12.360927805303868 75.2172
12.383374818673879 69.4467
12.405804812803074 66.774
12.428252780773262 66.0718
12.45070122756722 65.8958
12.473132656675375 65.7856
12.49558206341869 66.0124
12.518014453510101 65.6648
12.540464823770117 65.8608
12.562915677315177 66.2697
12.58534951575545 66.9209
12.607801338171472 70.1216
12.630236146511358 77.8133
12.652688941369085 85.2632
12.675124723177234 85.791
12.697578494048786 79.8683
12.720032754458185 73.0972
12.742470003354093 70.0403
12.764925245138771 69.4744
12.787363476431278 69.437
12.809819703166806 69.6021
12.83227642391173 70.4872
12.854716135692716 71.145
12.877173846755147 72.2914
12.899614549869717 72.2843
12.9220732548287 73.1408
12.94453245827299 73.6276
12.966974655289818 74.4616
12.989434858002571 75.2945
13.011878055298721 76.1649
13.034339260862497 77.2581
13.056800969391883 78.2017
13.079245674017244 80.2994
13.101708390774869 82.4377
13.12415410463411 89.7633
13.146617833206086 102.699
13.169064559883248 115.04799999999999
13.191529303857127 129.731
13.213994557076367 148.974
13.236442809902437 177.81099999999998
13.258909083908291 220.199
13.28135835851934 272.778
13.30382565690295 336.38199999999995
13.326293469022952 403.98800000000006
13.348744283242008 434.46
13.371213125129904 393.772
13.39366497011003 302.699
13.416134845360597 203.324
13.438605238843131 139.246
13.46105863690397 112.515
13.483530069144786 109.37899999999999
13.505984506951902 113.78399999999999
13.528456981549432 123.234
13.550929978879088 136.154
13.573385983253365 154.989
13.595860028340867 184.919
13.618317081455832 226.007
13.64079217790333 276.202
13.663250283359057 326.905
13.685726434770173 368.056
13.708203115221277 363.78
13.730662806148091 300.371
13.75314054697177 219.393
13.775601299246777 148.828
13.798080104050406 106.419
13.820559442405358 89.4795
13.843021793671388 84.3566
13.865502201420897 81.9281
13.887965623051947 81.3318
13.910447103807167 80.209
13.932929122629764 78.904
13.955394156785959 78.472
13.977877254034569 77.5079
14.000343367582113 76.5259
14.022827546871707 76.1984
14.045294743423524 75.08800000000001
14.06778000837062 74.583
14.090265817715476 74.339
14.112734645763819 73.9635
14.13522154619454 74.2224
14.157691466286913 74.3813
14.180179461423874 74.1882
14.202668005486178 73.2623
14.22513957064374 72.3602
14.247629214846473 71.7232
14.270101881097517 71.5585
14.29259262906496 72.3738
14.315083930490205 73.4181
14.337558255389705 74.2146
14.360050666019726 73.6249
14.382526101071944 72.2843
14.405019624534942 70.9187
14.427513705993134 70.2885
14.449990813291825 70.0415
14.47248601302899 70.0152
14.49496423954951 70.0729
14.517460561197822 70.2962
14.539939910570322 70.0727
14.562437357763558 70.5027
14.58493536931253 71.9127
14.607416409993311 73.3408
14.62991555254159 74.4417
14.652397725157423 74.1318
14.674898002342799 72.9718
14.697398848433282 71.9089
14.719882725991326 72.5287
14.74238471217934 73.3729
14.764869730765593 76.5036
14.787372860692983 80.4461
14.809876564079925 84.8589
14.83236330125751 90.5306
14.854868153850365 98.1311
14.877356041159485 109.102
14.899862046604186 123.5
14.922351087688757 143.311
14.944858249632887 167.858
14.967365991421232 194.893
14.989856770231246 217.55200000000002
15.012365673994204 224.637
15.03485761569738 206.112
15.05736768508665 166.09099999999998
15.07987833888692 130.036
15.102372032001655 100.698
15.124883856909658 82.1766
15.14737872204565 75.2045
15.169891721717274 72.6006
15.192405310371893 72.6033
15.214901940621196 73.2402
15.237416709527137 73.7927
15.259914520936249 74.27600000000001
15.282430473753607 73.138
15.304947020131227 71.1701
15.327446610371178 70.1536
15.349964346154254 68.9996
15.372465126703139 68.58
15.394984055556009 68.0511
15.417486030076159 67.9192
15.44000615566487 67.3262
15.462526881230803 67.5665
15.485030653812652 67.8725
15.507552581617434 67.8667
15.530057557334603 67.9514
15.55258069104857 67.8155
15.575104429329837 67.65899999999999
15.597611216864632 67.16199999999999
15.620136166564563 67.1134
15.6426441664095 68.08
15.665170331202765 70.4832
15.687697105158826 73.7053
15.710206930593545 77.2195
15.732734925158933 81.5156
15.755245972089478 86.943
15.77777519094324 94.1761
15.800287463046663 104.531
15.822817909869592 118.993
15.84534897229804 135.89600000000002
15.867863089299354 156.69899999999998
15.890395385222186 177.32
15.912910736597423 193.111
15.935444269699861 192.433
15.957978423016485 171.503
15.980495633101265 139.27200000000002
16.003031029129367 108.064
16.02554948280019 83.8446
16.048086125229432 71.8246
16.070623392487107 68.324
16.09314371869582 67.4206
16.11568223789321 66.6302
16.13820381691126 65.0777
16.160743591742527 63.5738
16.183283996022084 62.4213
16.205807461423195 61.0328
16.228349126881973 60.3131
16.25087385432698 60.5132
16.27341678466365 59.6911
16.29594277784926 59.8345
16.31848697676433 60.4882
16.341031811604868 61.3362
16.36355971058487 61.7629
16.3861058195587 61.3124
16.40863499352978 59.673
16.431182380342005 58.4847
16.453730407713202 57.4685
16.476261501364792 57.2345
16.498810812136167 56.8102
16.52134319004079 56.7764
16.54389378792203 56.6601
16.566445031001553 56.63399999999999
16.588979342490088 56.5827
16.61153187824822 56.1801
16.634067483263312 56.1339
16.656621315414416 56.0061
16.679175797408888 55.8192
16.701713349928728 55.7798
16.72426913389191 56.1316
16.74680798922351 56.3253
16.76936507887444 56.3052
16.791905240734874 56.2727
16.814463639794468 56.1431
16.837022695210294 56.1909
16.859564824093756 56.6408
16.882125194503903 57.7875
16.904668639217885 58.9504
16.927230328348003 59.1251
16.949792678493612 59.2682
16.972338104193863 58.1921
16.994901778652235 57.3294
17.017448529496576 56.9423
17.040013531998152 57.1045
17.06257920018044 57.6297
17.0851279459922 58.2594
17.107694947817667 59.0421
17.130245028099072 59.9913
17.15281336730298 61.4004
17.17536478578733 62.7744
17.19793446610687 64.6757
17.220504818648422 66.468
17.243058251703697 68.9974
17.265629950971032 72.9166
17.288184731571736 76.9152
17.310757781306908 81.3298
17.33333150794385 83.7811
17.355888317140174 84.0351
17.37846339986244 80.4568
17.401021565958885 74.7791
17.42359800851343 69.1799
17.44617513265564 64.5455
17.468735341390783 61.9029
17.491261035594565 60.5545
17.51396340099364 60.14
17.536490463869136 60.461000000000006
17.559018209820174 60.5107
17.58154663977963 60.5612
17.604251766089718 60.721000000000004
17.626781572227713 60.9195
17.64931206518155 61.0207
17.671843245885103 61.6583
17.69455114821572 62.1268
17.717083712612634 62.437
17.739616967569667 62.2386
17.762150914021706 62.4395
17.78486160749854 62.2551
17.807396945166804 62.8167
17.829932977143503 63.7708
17.85246970436452 65.2282
17.875183204129467 67.2018
17.897721330097664 69.4368
17.920260154126645 72.1525
17.942799677153296 75.1368
17.9655159983646 78.1578
17.988056927677544 82.6786
18.010598558807683 88.3551
18.033140892692916 95.969
18.05586005052525 104.236
18.07840379824407 114.816
18.10094825154059 126.113
18.12366954819864 137.273
18.146215420998306 142.70600000000002
18.16876200220057 137.858
18.191309292745153 126.572
18.214033452627167 112.475
18.236582170236648 97.9841
18.259131600016456 89.7133
18.281681742907335 86.9313
18.304408781233683 88.8017
18.32696035875955 92.8213
18.349512652227624 97.2756
18.372065662579683 103.57600000000001
18.394795594587553 107.177
18.41735004715306 107.318
18.43990521943684 102.40700000000001
18.46246111238171 93.6182
18.485193953325208 83.2564
18.507751296070428 74.3158
18.530309362314178 68.7437
18.552868153000343 65.7007
18.57560391815056 63.8848
18.59816416623245 63.0879
18.620725141597372 62.7483
18.643286845190268 62.2464
18.666025549835414 61.7106
18.688588718427933 61.3422
18.711152618092243 61.1017
18.73389353884365 60.7963
18.75645890921984 60.4263
18.77902501351406 59.8368
18.801591852673102 59.6786
18.824335739722738 59.2134
18.846904057212626 59.2414
18.8694731124168 59.2083
18.89204290628315 59.1271
18.914789774966803 58.5139
18.937361054791623 58.2747
18.959933076131318 58.1665
18.982505839934877 58.2194
19.00525570560582 58.5581
19.027829963004184 58.3436
19.05040496572238 58.4297
19.072980714710468 58.4125
19.095733592739563 58.6479
19.11831084296757 58.8758
19.140888842324735 59.5305
19.16346759176222 59.7357
19.18622349753803 60.2439
19.208803755869358 60.8117
19.231384767143577 61.708999999999996
19.253966532312948 62.8316
19.276725481241822 64.3032
19.29930876296784 66.2932
19.3218928014549 68.7903
19.34465404436217 72.1423
19.36723960516257 75.4631
19.389825925592426 77.6843
19.412413006605938 78.185
19.43517731967805 75.9728
19.457765930683355 71.6728
19.48035530514408 66.6971
19.50294544401556 62.0176
19.525712842708348 58.8656
19.54830451925909 57.0132
19.570896963095727 55.4828
19.593490175174704 55.0381
19.616260674962184 55.3212
19.638855432416964 54.8916
19.661450960992624 54.911
19.68404726164677 54.838
19.706820878021247 54.4503
19.729418731756834 54.7455
19.752017360452857 54.41
19.77461676506804 54.5551
19.797393513540218 54.6813
19.819994478951667 55.001999999999995
19.84259622316767 55.5933
19.8651987471481 56.1329
19.887978643247177 56.2621
19.91058273574792 56.7956
19.933187610901943 57.4196
19.955969879466828 58.2233
19.97857632894404 59.3585
20.00118356396599 60.5833
20.023791585494575 61.9894
20.046577028914875 64.6003
20.069186632506966 66.8249
20.091797025500632 68.9754
20.114408208858933 70.5697
20.137196842715273 71.1224
20.159809615886765 70.5274
20.18242318232135 68.1407
20.20503754298326 65.6284
20.227829382875154 63.7868
20.250445341109344 62.8124
20.27306209647285 62.6194
20.29567964993108 63.7662
20.31847471147704 64.888
20.34109387027612 66.2918
20.363713830075454 66.7399
20.386334591841646 66.45
20.409132890679302 64.5805
20.431755265564437 61.3213
20.454378445325528 58.2007
20.477002430930366 55.8726
20.499803982716553 54.2715
20.522429589228004 53.3483
20.54505600449589 52.7577
20.567683229489194 52.3804
20.590488049900088 52.0139
20.61311690359731 51.5305
20.63574656993626 51.3
20.658553853717297 50.7924
20.681185154618298 50.7429
20.703817271080066 50.6334
20.72645020407368 50.213
20.749260783967177 50.2637
20.771895359337133 50.1968
20.794530754161617 50.2311
20.817166969412938 50.0736
20.83998086114876 50.0154
20.86261872660049 49.7288
20.885257415405402 49.7782
20.90789692853701 49.5961
20.930714147864748 49.619
20.953355319030678 49.5775
20.97599731745334 49.6001
20.99864014410749 49.6
21.021460706796564 49.6786
21.044105199328826 49.9472
21.06675052302631 50.1889
21.089396678865015 50.2851
21.112220600704806 50.4973
21.134868430275347 50.8384
21.15751709492456 50.9187
21.180166595629693 51.1828
21.202993892429635 51.6695
21.22564507473034 52.0617
21.24829709602816 52.248999999999995
21.27112693608965 52.3549
21.293780644891275 52.7552
21.316435195634053 52.2834
21.339090589297417 51.3335
21.361923832041875 50.9756
21.384580921090404 50.2717
21.407238856007325 49.7098
21.429897637773326 49.6621
21.45273429906592 49.5177
21.475394784108598 49.3428
21.498056118951983 49.3311
21.520718304578022 49.5739
21.543558400304388 49.6298
21.566222297108816 49.782
21.58888704765135 50.0486
21.61155265291521 50.1704
21.63439619898156 50.7305
21.657063523335786 50.9666
21.67973170537063 51.3486
21.7024007460706 51.7979
21.72524775840385 52.7361
21.747918526116475 53.4153
21.770590155457388 54.4987
21.79326264741238 55.685
21.816113141960237 57.0806
21.838787368860547 58.6574
21.861462461341976 60.4924
21.884315579735777 62.5582
21.90699241312273 64.176
21.92967011506078 65.5342
21.95234868653799 66.1202
21.9752053151131 65.3523
21.997885635446785 64.0593
22.020566828293532 61.9286
22.04324889464272 59.8233
22.066109049404666 58.1702
22.088792872571794 57.1977
22.111477572219204 57.0011
22.1341631493376 57.2544
22.157026846313123 57.4044
22.179714188221507 57.085
22.202402410582668 56.2389
22.22509151438863 54.8151
22.24795876962584 53.4349
22.270649646204486 52.2448
22.293341407213727 51.3815
22.316034053646906 50.5502
22.338904883215342 50.2256
22.36159931041458 50.2036
22.38429462602756 50.3668
22.40699083104897 50.2301
22.429865251039757 50.1245
22.452563244831367 50.176
22.47526213102522 50.0253
22.49813925616515 49.9109
22.520839937143307 49.6011
22.543541513520587 49.818000000000005
22.56624398629403 49.4881
22.589124730075895 49.4735
22.611829005656723 49.7731
22.63453418063466 49.619
22.657240256008077 49.949
22.680124634582935 50.0986
22.70283252079775 50.3245
22.725541310413075 50.6558
22.74825100442868 50.8175
22.771139033969575 51.2942
22.79385054687155 51.4489
22.81656296718292 51.8694
22.83927629590484 52.6157
22.862167992606945 53.4603
22.88488314827121 54.4514
22.907599215359284 55.1649
22.93031619487366 56.2617
22.953211574954405 57.2669
22.975930389478226 58.5184
22.998650119445763 59.1281
23.02137076586092 59.2105
23.044269845560063 58.2241
23.06699233506288 56.8293
23.089715744034912 54.924
23.112617610931565 52.9538
23.135342869061212 51.5206
23.158069049684816 50.5633
23.1807961538087 50.0432
23.20370174880544 49.9703
23.226430710184808 50.0644
23.249160598093425 50.1178
23.271891413539002 49.8676
23.294800752937697 49.9426
23.31753343374794 50.2072
23.340267045128353 50.1018
23.36300158808808 50.5181
23.38591468821339 50.8812
23.408651104658304 51.1662
23.431388455719986 51.5345
23.454126742409 52.0897
23.4770436196085 53.0202
23.499783787914662 53.9725
23.522524894889884 54.6742
23.54526694154616 55.831
23.56818761219047 57.097
23.59093154860734 58.1029
23.613676427751283 58.9985
23.636422250635754 58.9515
23.659346731118656 57.973
23.68209445191868 56.2226
23.704843119509587 53.975
23.72759273490623 51.7516
23.750521041644767 50.1406
23.77327256312355 48.7331
23.796025035462787 47.9908
23.818956224555475 47.3062
23.841710609113413 47.2225
23.86446594758979 46.9754
23.887222241002014 46.5811
23.910157285144578 46.2626
23.932915498962537 46.2394
23.955674670778713 46.0149
23.978434801611975 45.8953
24.001373717286125 45.8209
24.024135776723917 45.7341
24.046898798245582 45.5989
24.06966278287146 45.5569
24.092605586582614 45.1947
24.115371508023642 45.1301
24.1381383956401 45.123000000000005
24.16090625045381 45.0982
24.183852958731244 45.0166
24.206622758582608 44.7504
24.229393528706886 44.7342
24.252165270127392 44.7172
24.27511589952438 44.653999999999996
24.297889594216997 44.3584
24.32066426328598 44.2434
24.34343990775613 44.2323
24.36639447485003 44.2585
24.38917208083877 44.1366
24.41195066531332 44.1554
24.43490819850244 44.1774
24.457688750692377 43.9321
24.48047028445616 43.9318
24.503252800821233 44.0359
24.526214300784112 44.0889
24.548998793132213 43.9267
24.57178427117417 43.8459
24.59457073593893 43.9599
24.617536219319863 43.9316
24.64032466834748 43.8498
24.663114107195035 43.7625
24.685904536893013 43.666000000000004
24.708874020360852 43.6004
24.731666442613744 43.5387
24.754459858818787 43.6113
24.777254270007962 43.3551
24.80022777025625 43.2551
24.82302418230472 43.2899
24.845821592443674 43.1882
24.86862000170663 43.191
24.891597535453727 43.0339
24.914397953892728 43.1966
24.93719937456671 43.1016
24.96000179851076 43.1906
24.98298338249997 43.4363
25.00578782394922 43.5843
25.028593271784167 43.7214
25.05157790644186 43.9449
25.07438537804115 43.9248
25.097193859145293 44.1236
25.120003350792075 44.4774
25.142992065061257 44.9343
25.165803588823465 45.2045
25.18861612625217 45.3416
25.211429678386736 45.4873
25.234422489079968 45.6603
25.257238081693636 45.6193
25.280054692141732 45.827
25.3028723214652 45.6282
25.325869245420463 45.6029
25.348688923599397 45.8211
25.371509623787006 45.9038
25.394331347025812 45.7267
25.41733240110666 45.3935
25.440156181590016 44.7369
25.46298098826268 44.2382
25.48580682216873 43.7035
25.50881202326435 43.1594
25.53163992281684 42.56399999999999
25.55446885274561 42.1966
25.577298814096377 41.7256
25.600308179121807 41.8939
25.623140214533745 41.8911
25.64597328451537 41.6498
25.66898578564376 41.5114
25.691820936010206 41.4938
25.714657124097695 41.3645
25.737494350954734 41.3725
25.760511045684957 41.407
25.783350361364224 41.4545
25.806190718969255 41.5595
25.82903211955018 41.6808
25.852053024868923 41.5313
25.874896522722523 41.4876
25.897741066713106 41.4768
25.920586657892454 41.5399
25.943611790812668 41.5825
25.966459487728237 41.7136
25.989308234998564 41.6448
26.01215803367705 42.0652
26.03518741123814 42.1811
26.05803932412957 42.2678
26.080892291600094 42.2931
26.10374631470478 42.443999999999996
26.12677995397268 42.6906
26.14963609978026 42.6957
26.172493304397875 42.5869
26.19535156888223 42.3229
26.218389486949604 41.9018
26.241249882640123 41.6602
26.26411134137826 41.2632
26.28715248187403 41.2667
26.31001607820869 41.1176
26.3328807407756 40.9403
26.35574647063438 41.199
26.37879191991473 41.0153
26.401659795896734 40.9318
26.424528742360263 41.016999999999996
26.447398760366614 41.1743
26.470448535598294 41.4417
26.49332070826805 41.5772
26.516193955675355 41.8729
26.53906827888316 41.9784
26.562122397260108 42.0925
26.584998883685063 42.348
26.607876449110325 42.6525
26.63075509460056 42.8711
26.65381357334404 42.9297
26.67669439061878 42.9708
26.699576291163382 43.0023
26.722459276044212 42.9401
26.745522132402975 42.8462
26.768407297649354 42.474
26.791293550442003 42.0995
26.814180891848974 41.8971
26.837248143099337 41.5197
26.860137673466657 41.4448
26.88302829566349 41.1995
26.90592001075963 41.0128
26.92899167420566 40.9212
26.951885586870763 40.619
26.974780595655517 40.3239
26.99785558178161 40.1719
27.020752794605112 40.0513
27.043651106772522 39.7083
27.06655051935668 39.8107
27.089629948036183 39.6589
27.112531573292053 39.5934
27.135434302194138 39.6564
27.158338135817015 39.3391
27.181422024430987 39.3687
27.204328079372566 39.3261
27.22723524226965 39.348
27.250143514198573 39.4387
27.273231880156334 39.4424
27.296142382065014 39.198
27.319053996245536 39.2617
27.341966723775965 39.4082
27.365059584515222 39.2895
27.38797455070062 39.365
27.410890633481237 39.3393
27.433807833936918 39.233000000000004
27.456905206923906 39.2059
27.47982465472398 39.2121
27.502745223449743 39.3424
27.525666914182825 39.3468
27.548768816912457 39.4506
27.571692763693633 39.4341
27.59461783573812 39.2432
27.617723149491244 39.0676
27.640650484125285 39.0977
27.66357894728264 39.0909
27.686508540048052 38.9081
27.709618414237887 38.84
27.732550278321757 38.7448
27.755483275279115 38.6843
27.778417406196485 38.6882
27.801531858397514 38.7341
27.824468269376716 38.6872
27.847405817586786 38.5822
27.870344504116094 38.7506
27.893463551932008 38.8624
27.916404527281053 39.0642
27.93934664422563 39.0713
27.962289903855886 39.0084
27.98541356491974 39.1736
28.00835912214229 39.3958
28.03130582533231 39.6897
28.054253675581805 39.8865
28.077381967556104 39.8271
28.100332124185126 39.7818
28.123283431160893 39.8057
28.146235889577238 39.73
28.169368830154156 39.4979
28.192323603752033 39.2854
28.215279532083304 39.0567
28.238415973016764 38.8162
28.261374223145094 38.8065
28.284333631303806 38.6799
28.307294198589954 38.4601
28.330435319167677 38.2601
28.353398217078915 37.9372
28.376362277420153 37.6363
28.39932750129032 37.534
28.422473319286713 37.2927
28.44544088262495 37.3711
28.468409612800283 37.1385
28.491379510913497 36.8922
28.51453004413313 36.7979
28.53750229057244 36.7387
28.56047570826344 36.6701
28.583450298308804 36.7811
28.606605564586562 36.5248
28.629582511831156 36.4435
28.65256063474956 36.4407
28.675539934446338 36.4898
28.698699951647605 36.3007
28.72168161743193 36.2407
28.74466446331978 36.3269
28.767648490417624 36.2785
28.790813276438353 36.2426
28.813799678527303 36.3101
28.836787265157085 36.1797
28.859955641890075 36.1668
28.882945610203045 36.208
28.905936766392035 36.0781
28.928929111566863 36.1226
28.952102288520145 36.0773
28.975097024308607 35.9702
28.998092952423807 35.8641
29.021090073977508 35.9086
29.04426806913204 35.6922
29.067267590245258 35.39
29.090268308143695 35.4221
29.11327022394099 35.2419
29.13645305530891 35.1619
29.159457379627167 35.1911
29.18246290519685 35.0997
29.20546963313352 35.2154
29.22865731875826 35.1499
29.25166646419296 35.1259
29.27467681535305 35.0558
29.29768837335608 34.9997
29.320880931312562 35.0044
29.34389491580634 35.0146
29.366910110507334 34.9985
29.38992651653503 34.9179
29.41312396492981 35.0013
29.436142806456754 34.8951
29.45916286268059 34.8404
29.48236399319994 34.7365
29.50538649169417 34.5873
29.528410208259935 34.5278
29.55143514402014 34.4506
29.574641196749695 34.2875
29.597668583816574 34.0617
29.6206971934585 33.9371
29.64372702680042 33.8763
29.666938019934474 33.8955
29.689970313635285 33.7282
29.713003834422636 33.819
29.73603858342347 33.6981
29.759254535188578 33.611999999999995
29.78229175361658 33.5404
29.80533020365064 33.5674
29.82836988641968 33.6495
29.85159081507472 33.5664
29.874632976355343 33.4837
29.89767637376955 33.5709
29.920721008448314 33.3828
29.9439469322847 33.3584
29.96699405457564 33.2212
29.9900424175358 33.2215
30.013092022298157 33.1731
30.03632295963995 33.2553
30.059375061131373 33.2758
30.08242840783577 33.2783
30.105483000888153 33.2085
30.128718970092244 33.0526
30.151776069006917 33.1512
30.17483441768648 33.1414
30.198074175317235 33.1694
30.221135036724256 33.162
30.24419715131772 33.093
30.267260520236203 33.0876
30.290505341942243 32.964
30.313571232750228 33.0883
30.336638381310948 33.0174
30.35970678876503 33.0025
30.38295669299435 33.021
30.40602763151657 32.9326
30.429099832366074 32.8877
30.452173296685572 32.7976
30.47542830191959 32.7325
30.498504306502497 32.8022
30.521581577995562 32.8131
30.544660117543582 32.7315
30.56792024229725 32.6871
30.59100133132069 32.6549
30.614083691845494 32.7989
30.637167325018545 32.9241
30.660432587840603 32.8411
30.683518779717886 32.8012
30.70660624769615 33.0121
30.729694992924372 32.809
30.75296541239743 32.9296
30.77605672557558 32.9131
30.799149319462742 32.9349
30.8224236211637 32.7207
30.845518789950724 32.6455
30.868615242910597 32.5226
30.891712981195973 32.5045
30.91499247215866 32.4233
30.938092794619365 32.3535
30.96119440587579 32.2387
30.984297307082752 32.1
31.00758200598383 32.0804
31.030687500658694 31.9674
31.053794288760695 32.0217
31.076902371446767 31.8333
31.100192296997445 31.7615
31.12330298246119 31.8106
31.14641496599209 31.6565
31.169528248749216 31.6872
31.19282341969534 31.6569
31.215939314557186 31.6228
31.239056512134788 31.6631
31.262175013589378 31.5291
31.28547544871168 31.451
31.30859657161541 31.5239
31.331719001892175 31.5977
31.35484274070538 31.5607
31.378148458819545 31.533
31.401274828443725 31.5607
31.424402510106933 31.4943
31.447712205419993 31.6041
31.470842524931633 31.5427
31.493974159989783 31.416
31.51710711176168 31.5098
31.54042212308802 31.4509
31.563557722100917 31.5345
31.586694641341655 31.3604
31.609832881979628 31.2408
31.63315322823208 31.252
31.656294125521327 31.104
31.679436347728515 31.0308
31.70257989602529 30.8947
31.725905596152327 30.88
31.74905181052835 30.8383
31.772199354521323 30.8661
31.79534822930507 30.8343
31.818679302290967 30.8538
31.84183085259981 30.7608
31.864983737233473 30.7994
31.88813795736804 30.7712
31.911474422233013 30.7582
31.934631327356435 30.7068
31.9577895715215 30.6459
31.980949155906522 30.6535
32.004291031706956 30.6513
32.027453310562606 30.5903
32.05061693318573 30.5476
32.07396288236386 30.5606
32.09712920658542 30.5423
32.12029687812702 30.2752
32.14346589817093 30.1441
32.166817291729984 30.2181
32.18998902288583 30.1308
32.21316210610336 30.0691
32.23633654256711 30.023000000000003
32.259693399663725 29.9281
32.282870556771144 29.855
32.30604907069099 29.8626
32.329228942610065 29.7684
32.35259128243769 29.6739
32.375773884550505 29.6192
32.398957848235646 29.6338
32.422143174682176 29.4676
32.445511016471215 29.4846
32.468699082679954 29.375999999999998
32.49188851523011 29.3468
32.51507931531304 29.2811
32.538452678331 29.2995
32.56164622776311 29.2588
32.58484114831493 29.1893
32.60803744118015 29.1408
32.631416344731896 29.1608
32.654615396551876 29.0511
32.67781582427913 29.0329
32.701198898634416 28.9576
32.72440209253756 28.8662
32.747606665947124 28.9164
32.77081262006088 28.8097
32.79420126883317 28.7588
32.81740999876112 28.772
32.840620112999424 28.6998
32.86383161274818 28.6796
32.88722585534586 28.6653
32.91044014056596 28.691999999999997
32.933655814909734 28.526999999999997
32.95687287957963 28.676
32.98027273544904 28.603
33.00349259526636 28.4993
33.026713849030116 28.4734
33.04993649794511 28.41
33.073341986570746 28.406
33.09656744032826 28.3465
33.11979429286444 28.4566
33.14302254538647 28.3587
33.166433686291185 28.3082
33.18966475336992 28.2245
33.212897224069096 28.1469
33.23613109959831 28.1987
33.259547912343415 28.2371
33.2827846121627 28.204
33.306022720453775 28.1201
33.32926223842861 28.0776
33.352684742614166 28.094
33.37592709463173 28.0672
33.399170859982064 27.9711
33.422597648419426 27.9505
33.44584425514446 27.7375
33.46909227885668 27.6978
33.4923417207723 27.625999999999998
33.51577423505344 27.5587
33.539026528130385 27.4826
33.56228024307245 27.4772
33.585535381098246 27.379
33.60897364093058 27.4199
33.63223163992385 27.3632
33.6554910656699 27.2655
33.678751919389796 27.2299
33.702195944520106 27.2238
33.72545966903325 27.2645
33.74872482519663 27.1823
33.771991414233746 27.017
33.79544122444841 27.076999999999998
33.81871069412428 27.0062
33.84198160035767 26.8922
33.86525394437455 26.9481
33.88870955949969 26.9211
33.911984794020626 26.881999999999998
33.93526147001624 26.8339
33.958539588715006 26.8461
33.98200102861669 26.7552
34.0052820477047 26.6931
34.02856451319451 26.6322
34.05203033759056 26.5652
34.07531571090147 26.5375
34.09860253431845 26.5232
34.121890809074316 26.3579
34.145362493118924 26.4288
34.16865368561615 26.4581
34.191946333164054 26.4209
34.21524043699793 26.4279
34.23871800066799 26.3607
34.26201503218366 26.2683
34.28531352370466 26.2283
34.30861347646881 26.1843
34.33209693978188 26.104
34.3553998301885 26.1476
34.378704185565205 26.1093
34.402010007152356 26.0096
34.42549939016683 25.9858
34.44880815937748 25.8301
34.472118398533134 25.8963
34.49543010887669 25.8585
34.51892543169198 25.8223
34.54224009966052 25.7355
34.56555624255917 25.7691
34.58887386163339 25.6458
34.61237514439016 25.5797
34.6356957311114 25.5148
34.65901779775809 25.4987
34.68252356662995 25.4491
34.705848608458616 25.4836
34.72917513396849 25.4685
34.75250314440949 25.405
34.77601490857862 25.2774
34.799345904259795 25.1941
34.82267838863559 25.1822
34.846012362958525 25.1716
34.869530142679984 25.1902
34.89286711232212 25.1357
34.91620557568269 25.1446
34.93954553401677 25.107
34.9630693495876 25.0353
34.986412313340814 25.1132
35.00975677584668 25.0197
35.033102738362956 24.8712
35.05663261012228 24.8856
35.0799815881786 24.8783
35.10333207003229 24.8669
35.12668405694369 24.8523
35.150220005273056 24.8023
35.17357501786656 24.761999999999997
35.19693153931268 24.7896
35.220289570874385 24.6935
35.24383161619786 24.7171
35.267192683604904 24.7068
35.290555264930376 24.5945
35.314101899412165 24.598000000000003
35.33746752422433 24.5896
35.36083466676374 24.5628
35.38420332829803 24.4992
35.407756095629054 24.5453
35.43112781085063 24.4908
35.45450104888391 24.4333
35.477875810999194 24.4895
35.50143473172161 24.3467
35.52481255774625 24.4167
35.54819191167777 24.2835
35.57157279478914 24.3116
35.595137889488406 24.3041
35.61852184675279 24.2322
35.641907337029984 24.1799
35.665294361595684 24.1398
35.68886565090076 24.0833
35.7122557598848 24.0874
35.73564740699838 24.1088
35.759040593519934 23.9779
35.78261809810353 23.994
35.80601437933051 23.8927
35.829412203814705 23.8944
35.85281157283719 23.8124
35.876395313415884 23.7824
35.8997977874528 23.7154
35.92320180988546 23.6967
35.946790244133936 23.6572
35.97019737933222 23.6112
35.993606066789866 23.5997
36.01701630779276 23.543000000000003
36.04061101440684 23.5569
36.06402437852291 23.549
36.08743930005611 23.5414
36.1108557802951 23.4267
36.13445678011326 23.4673
36.15787639383515 23.3723
36.18129757014299 23.3106
36.20472031032821 23.2921
36.22832762423364 23.2532
36.25175350829375 23.2112
36.275180960119776 23.122
36.298609981005924 23.2294
36.32222362992669 23.1826
36.34565580510207 23.201
36.36908955323448 23.0936
36.39252487562093 23.0232
36.416144880530226 22.9342
36.43958336764275 22.9333
36.463023432914625 22.9701
36.486465077645676 22.9369
36.51009145956204 22.9429
36.53353627947859 22.9381
36.55698268276811 22.803
36.58043067073321 22.7748
36.60406345072071 22.6897
36.62751462435344 22.7456
36.65096738658405 22.6658
36.67460498210655 22.5958
36.69806093788647 22.5962
36.72151848619297 22.4697
36.744977628333636 22.5854
36.76862165890998 22.4627
36.79208400512205 22.4301
36.81554794910557 22.4873
36.83901349217101 22.3334
36.862663978991606 22.289
36.88613273667352 22.2763
36.90960309738324 22.3492
36.933075062434064 22.2298
36.95673202673572 22.168000000000003
36.98020721697122 22.1067
37.003684015502365 22.1258
37.027162423645365 22.0232
37.050825886711465 22.0388
37.07430753063053 21.936
37.09779078812467 21.9458
37.121275660513014 21.9304
37.144945643673694 21.9127
37.16843376245278 21.8759
37.19192350009803 21.8859
37.215414857931435 21.7316
37.239091382563885 21.7568
37.262585997426164 21.7169
37.28608223645736 21.7051
37.309763684451696 21.7001
37.33326318851098 21.6359
37.356764320726555 21.5823
37.380267082425526 21.5671
37.40395510942588 21.5873
37.42746114683234 21.4933
37.45096881771841 21.396
37.474478123414166 21.4107
37.49817275092816 21.398000000000003
37.52168534303452 21.3841
37.54519957395567 21.305999999999997
37.568715445024665 21.3555
37.592416694607714 21.3303
37.61593586281424 21.3163
37.63945667518264 21.3259
37.66297913304891 21.204
37.68668702630454 21.18
37.710212792059274 21.0543
37.733740207334854 21.0902
37.757269273470364 21.0963
37.780983832050374 21.0451
37.80451621684926 20.9558
37.82805025654007 20.9267
37.851585952464795 20.976999999999997
37.8753071980695 20.8655
37.89884622345676 20.8531
37.92238690911902 20.7487
37.94611318753442 20.7283
37.969657210779765 20.7186
37.99320289834801 20.7509
38.016750251586465 20.5733
38.04048325513017 20.6624
38.06403395679343 20.5838
38.087586328183946 20.5666
38.11114037065203 20.6552
38.13488012115898 20.5259
38.1584375229181 20.4765
38.181996599821 20.4414
38.205557353221124 20.3398
38.229303872575656 20.3107
38.2528679961576 20.3675
38.27643380031219 20.322
38.30000128639589 20.2044
38.32375459653193 20.2055
38.34732546371299 20.2649
38.37089801690786 20.1642
38.39447225747609 20.0736
38.418232380377425 20.0511
38.441810012983396 20.1325
38.46538933705673 20.0309
38.488970353960084 19.9891
38.51273731166058 19.9955
38.536321731567014 19.9009
38.55990784840681 19.9685
38.58367995004091 19.8735
38.60726947812959 19.8175
38.63086070726198 19.7944
38.654453638806274 19.8326
38.678232613930824 19.7979
38.70182896773327 19.7582
38.72542702806741 19.6756
38.7490267963045 19.6885
38.77281266709232 19.6243
38.79641586862214 19.6496
38.8200207821842 19.5479
38.843627409152944 19.584
38.86742019782782 19.5611
38.891030269149255 19.498
38.914642058016156 19.4563
38.938255565806124 19.4589
38.96205529464307 19.3879
38.98567225787121 19.3786
39.00929094417078 19.3524
39.03291135492255 19.329
39.05671804624804 19.343
39.080341923549106 19.1995
39.103967529460334 19.2224
39.127594865365744 19.2383
39.15140854155791 19.1383
39.17503935514948 19.0151
39.19867190290282 19.0445
39.22249083587951 19.0635
39.24612686969409 19.0448
39.269764641845306 19.0211
39.293404153722804 19.0105
39.317230110864074 18.9491
39.34087311998506 18.9119
39.36451787301696 18.8703
39.388164371352595 18.8242
39.41199737518003 18.8066
39.43564738196752 18.7529
39.45929913825317 18.7853
39.48295264543308 18.7453
39.506792718520884 18.7019
39.530449745387216 18.6183
39.55410852735203 18.6389
39.57776906581474 18.6218
39.60161623079 18.537
39.625280300200025 18.5571
39.64894613032202 18.5316
39.67261372255866 18.4764
39.6964680021016 18.4646
39.72013913657293 18.5407
39.74381203738292 18.4789
39.76748670593756 18.3609
39.79134812278169 18.361
39.81502634488497 18.3841
39.83870633896685 18.3037
39.862388106436654 18.302
39.88625668336918 18.2097
39.90994201572829 18.2446
39.933629125719285 18.1738
39.957503091207826 18.1997
39.9811937746168 18.1724
40.00488623990914 18.1016
40.02858048850006 18.0835
40.05246165409549 18.023
40.076159487492085 17.9855
40.099859108448875 17.999000000000002
40.123560518384345 17.9368
40.1474489070226 17.9334
40.171153913178564 17.8488
40.194860712584955 17.8564
40.2185693066637 17.8773
40.242464941335314 17.8146
40.26617714307655 17.7383
40.289891143772046 17.7593
40.3136069448471 17.7119
40.33750984859743 17.6993
40.3612292688043 17.703
40.3849504936829 17.6121
40.40867352466194 17.6351
40.43258372059144 17.5904
40.45631038219906 17.5738
40.48003885420956 17.5348
40.503769138055105 17.4933
40.52768664931955 17.497
40.55142057531802 17.4654
40.57515631746428 17.4028
40.599079334038514 17.3915
40.62281872700477 17.355999999999998
40.64655994043941 17.369
40.67030297578061 17.3182
40.69423334835778 17.2745
40.71798004609188 17.2585
40.74172857006355 17.1816
40.76547892171441 17.1513
40.7894166736039 17.1715
40.813170699248566 17.1057
40.83692655691388 17.0948
40.86068424804498 17.1373
40.884629402612525 17.1091
40.908390779366385 17.0845
40.932153993938 17.0395
40.95591904777605 17.0069
40.979871628443995 17.019000000000002
41.003640379561936 16.9768
41.02741097430883 16.9664
41.05118341413683 16.9249
41.075143444384416 16.8437
41.098919593177826 16.8665
41.1226975914255 16.8604
41.14647744058318 16.7373
41.170444943946755 16.7136
41.19422851378379 16.6854
41.218013938914645 16.7235
41.24198706625173 16.6216
41.26577622087193 16.6144
41.289567235177785 16.5591
41.31336011063129 16.4993
41.337340752422875 16.4891
41.361137369129835 16.5243
41.38493585138705 16.4014
41.40873620066004 16.4443
41.43272438060107 16.4594
41.45652848292052 16.3751
41.48033445666918 16.3262
41.50414230331616 16.3131
41.528138045159764 16.2911
41.551949656675205 16.2823
41.575763145513235 16.3174
41.59957851314666 16.2841
41.62358184070442 16.1612
41.64740098505737 16.1685
41.6712220126409 16.1237
41.69504492493139 16.0813
41.71905586207357 16.0657
41.74288256296395 16.0713
41.766711153007456 16.0485
41.79054163368412 16.0281
41.814560204340054 16.0401
41.838394485526365 16.057000000000002
41.86223066180303 15.9371
41.88625497706819 15.9408
41.910094962812 15.9088
41.93393684811168 15.8362
41.95778063445365 15.7902
41.981812625263366 15.7638
42.00566023303407 15.7871
42.029509746323676 15.72
42.05336116662236 15.749
42.077400857069705 15.6947
42.10125611078846 15.7477
42.12511327600405 15.6535
42.14897235421036 15.5424
42.173019768448455 15.6016
42.19688269209613 15.6232
42.22074753323349 15.5484
42.24461429335818 15.5344
42.268669455600495 15.4865
42.292540073217886 15.4429
42.31641261433284 15.4599
42.34028708044675 15.4078
42.36435001496739 15.3834
42.38822835065557 15.35
42.41210861586426 15.3458
42.4359908120986 15.3222
42.46006154323262 15.2753
42.48394762115317 15.280999999999999
42.507835634632315 15.2324
42.531912233047436 15.1741
42.55580413732265 15.1765
42.579697981698 15.1683
42.60359376768525 15.1215
42.62767820545945 15.0858
42.65157789440821 15.0795
42.67547952952185 15.0607
42.699383112316 15.0527
42.72347541395347 14.9998
42.74738291190531 14.8947
42.771292362102166 14.9983
42.795203766063516 14.927999999999999
42.819303956130405 14.913
42.843219287476536 14.9072
42.86713657716324 14.8471
42.89105582671383 14.8538
42.91516392983864 14.8274
42.939087119032166 14.7888
42.963012272677304 14.7667
42.98693939230129 14.7242
43.01105543317513 14.6493
43.034986504731386 14.6568
43.05891954686589 14.626
43.08285456110972 14.6395
43.10697856448665 14.5859
43.130917542983475 14.5291
43.15485849820081 14.5484
43.17880143167367 14.4633
43.20293342237094 14.4726
43.226880332449 14.4766
43.25082922540554 14.4861
43.27496722682525 14.4591
43.29892010567796 14.3825
43.32287497204102 14.3662
43.34683182745632 14.3487
43.370977859791836 14.3661
43.39493871351105 14.2731
43.41890156092628 14.2965
43.44286640358341 14.2529
43.46702049182749 14.2323
43.49098934522816 14.1818
43.51496019852649 14.1852
43.5389330532723 14.1756
43.56309522248204 14.1525
43.58707210044314 14.1398
43.61105098451946 14.0376
43.63503187626491 14.0459
43.659202151562134 13.979000000000001
43.68318707902681 14.0545
43.70717401884041 14.0177
43.731162972560874 13.9414
43.75534137913236 13.9262
43.779334381108384 13.9025
43.803329401683186 13.868
43.82732644241872 13.8903
43.8515130055166 13.8439
43.87551410707659 13.7796
43.89951723350145 13.8196
43.923709934595614 13.7834
43.94771713129917 13.7208
43.97172635758096 13.769
43.99573761501002 13.7108
44.0199385169922 13.6682
44.04395385732619 13.6652
44.067971233533086 13.6486
44.09199064718605 13.5731
44.11619977548961 13.5291
44.14022328470671 13.54
44.16424883610785 13.5429
44.18827643127035 13.5768
44.21249381139513 13.4988
44.236525514814076 13.4256
44.26055926674478 13.4088
44.28459506876863 13.4134
44.3088207262813 13.3675
44.33286064928722 13.3365
44.35690262714919 13.3324
44.38094666145278 13.29
44.4051806219871 13.2719
44.42922879003185 13.2619
44.45327901929361 13.2387
44.477331311362136 13.2024
44.501573600619416 13.1607
44.525630039221795 13.1595
44.54968854541895 13.142999999999999
44.573937102200176 13.1424
44.5979997645541 13.1006
44.622064499300315 13.072000000000001
44.64613130803592 13.0865
44.67038823869318 13.0624
44.69445921643748 13.0193
44.718532272981385 12.9716
44.742607409926194 13.0037
44.76687274034801 12.985999999999999
44.79095205918753 12.9284
44.81503346325094 12.9268
44.839116954143876 12.9029
44.86339071028742 12.8704
44.88747839599524 12.8543
44.91156817336837 12.8195
44.93566004401666 12.7816
44.959942251908146 12.7497
44.984038330325966 12.7609
45.00813650686762 12.699000000000002
45.03223678314731 12.6457
45.05652746888232 12.6639
45.08063196592069 12.6178
45.104738567558705 12.6431
45.128847275414856 12.6356
45.15314646515866 12.5879
45.17725940679741 12.5647
45.20137445952892 12.527999999999999
45.22568004865265 12.511
45.24979934496396 12.4845
45.27392075725247 12.4797
45.29804428714431 12.4667
45.322358426247604 12.4439
45.346486212804315 12.4146
45.370616121861914 12.4252
45.39474815505086 12.3238
45.41907087049246 12.3237
45.4432071734666 12.3157
45.46734560548283 12.3284
45.49148616817604 12.2819
45.51581748638564 12.2372
45.5399623320197 12.2525
45.56410931325473 12.2232
45.58825843173002 12.2371
45.61259837920865 12.1526
45.636751793816 12.1951
45.66090735060093 12.1588
45.68506505120716 12.0875
45.7094136545275 12.0878
45.73357566449271 12.0472
45.75773982322992 11.9962
45.78190613238733 12.0478
45.806263418194064 11.9833
45.83043404997326 11.9922
45.85460683713677 11.9582
45.87897065658495 11.9538
45.90314777634752 11.9299
45.92732705646868 11.9102
45.9515084986045 11.8659
45.97588104735473 11.8739
46.00006683541565 11.8378
46.02425479047904 11.8003
46.04844491420549 11.8098
46.0728262191024 11.7293
46.09702070211635 11.7632
46.12121735879483 11.7054
46.14541619080294 11.6543
46.169806278764455 11.6918
46.194009483459034 11.6576
46.21821486849841 11.6603
46.24242243555223 11.6437
46.266821333570014 11.6042
46.29103328674601 11.6156
46.31524742696538 11.5544
46.33946375590237 11.4795
46.36387149104216 11.4837
46.38809221957392 11.4916
46.41231514186606 11.5236
46.436540259597464 11.4857
46.460956858999374 11.4219
46.48518638983522 11.4099
46.509418121166966 11.360999999999999
46.533652054678114 11.3202
46.55807754555709 11.329
46.58231590571962 11.3341
46.60655647313217 11.2831
46.630988654873654 11.2415
46.655233659129024 11.2775
46.67948087571551 11.2546
46.70373030632484 11.2057
46.72817142736393 11.2329
46.752425308428684 11.157
46.77668140861147 11.1282
46.80093972960865 11.0869
46.82538981736788 11.0869
46.849652602470904 11.0796
46.87391761349769 11.0784
46.8981848521493 11.0622
46.9226439341274 11.0599
46.946915650573224 11.0356
46.97118959976749 10.9802
46.99546578341598 10.9822
47.019933887188216 10.9304
47.04421456235744 10.9852
47.06849747711879 10.8965
47.09278263318286 10.8872
47.11725978640143 10.8806
47.14154944775105 10.8912
47.165841355555656 10.8231
47.1901355115306 10.8285
47.214621741924994 10.7983
47.23892041698887 10.7807
47.26322134538975 10.7413
47.28771440635075 10.7124
47.31201986422527 10.7378
47.33632758061436 10.6983
47.360637557241866 10.677
47.38513974410611 10.6655
47.40945426407847 10.6178
47.43377104948137 10.6276
47.45809010204344 10.5917
47.48260144275502 10.5746
47.506925052572285 10.5304
47.53125093475548 10.5353
47.55557909103813 10.5499
47.58009961361992 10.5182
47.60443234110732 10.4747
47.62876734791564 10.4631
47.65310463578333 10.4116
47.6776343683373 10.3852
47.7019762413987 10.3443
47.72632040075572 10.3769
47.75066684815169 10.3679
47.77520581885936 10.3152
47.799556865477655 10.3188
47.823910205386 10.3268
47.84826584033272 10.2826
47.87281407745551 10.2494
47.89717432569297 10.2777
47.92153687423484 10.2863
47.94609208429692 10.2652
47.97045925671401 10.1361
47.99482873471275 10.1324
48.01920052005013 10.1339
48.04376504619224 10.1204
48.068141469543484 10.1668
48.09252020552573 10.1055
48.11690125590099 10.1011
48.1414751266064 10.0771
48.16586082917454 10.0579
48.19024885144316 10.0374
48.2146391951793 10.0469
48.239222439012764 10.0186
48.26361744916137 9.94173
48.28801478610016 9.94862
48.31241445160131 9.96001
48.337007097209366 9.96529
48.36141144338331 9.92736
48.38581812345755 9.86095
48.41022713920929 9.916789999999999
48.434829215320704 9.84801
48.45924292604658 9.83533
48.48365897780325 9.84193
48.50807737237308 9.80238
48.532688907799276 9.81113
48.55711201168574 9.75867
48.581537463754074 9.724110000000001
48.60615611725119 9.73922
48.63058628942721 9.69002
48.65501881516546 9.69548
48.6794536962573 9.68492
48.70408185970339 9.6634
48.72852147531801 9.64091
48.75296345168211 9.61784
48.77740779059232 9.60406
48.80204549302823 9.58762
48.82649458091802 9.57906
48.85094603676547 9.5695
48.87539986237231 9.547139999999999
48.90004713292306 9.505139999999999
48.92450572200832 9.50746
48.94896668628025 9.48828
48.97343002754588 9.46492
48.99808689542115 9.4539
49.02255501470614 9.44457
49.04702551642794 9.39793
49.0714984023988 9.401110000000001
49.096164896893235 9.384910000000001
49.120642575466796 9.30855
49.145122643748394 9.34056
49.16960510355558 9.29143
49.19428125404938 9.30153
49.2187685210852 9.278830000000001
49.243258185121555 9.308010000000001
49.26794160167084 9.27045
49.2924360839405 9.23811
49.31693296869764 9.19655
49.34143225776915 9.15241
49.36612538195438 9.14515
49.39062950396021 9.18716
49.41513603578346 9.16221
49.4396449792564 9.11485
49.46434784069503 9.11657
49.488861631846454 9.07341
49.513377840166804 9.08329
49.537896467493745 9.06056
49.56260909589029 9.05587
49.587132585683285 9.02712
49.611658500018365 9.02534
49.636186840738596 8.99847
49.66090926588511 9.00135
49.685442483902584 8.94876
49.70997813385706 8.90836
49.734516217597076 8.93443
49.75924846937352 8.907869999999999
49.7837914452858 8.87694
49.80833686055187 8.82397
49.83288471702571 8.834610000000001
49.85762682540054 8.85036
49.882179588965734 8.78022
49.9067347993235 8.797310000000001
49.93129245833333 8.80297
49.95604445336378 8.7876
49.98060703442832 8.75527
50.005172069746266 8.74813
50.02993150438364 8.7205
50.05450147301533 8.71867
50.07907390151433 8.69505
50.10364879174981 8.66484
50.12841816587289 8.643839999999999
50.1529980044635 8.62066
50.17758031042124 8.63147
50.20216508562089 8.6082
50.22694442953363 8.56114
50.25153416817468 8.50889
50.27612638170508 8.550839999999999
50.300721072005196 8.52327
50.325510416102105 8.53352
50.350110084975064 8.48069
50.37471223628208 8.47339
50.39931687190919 8.46367
50.424116246675766 8.450660000000001
50.44872587605249 8.41993
50.47333799543065 8.41284
50.49795260670191 8.380930000000001
50.52276204271512 8.38396
50.54738166295838 8.363710000000001
50.57200378079314 8.34149
50.596628398116835 8.31007
50.62144792604559 8.323089999999999
50.646077567609396 8.28399
50.670709714377715 8.32657
50.69553683636198 8.27614
50.72017401885922 8.242339999999999
50.7448137122895 8.25526
50.76945591856022 8.22602
50.79429318636823 8.266169999999999
50.818940443716784 8.22922
50.84359021965163 8.18085
50.868242516085964 8.13129
50.893089960641895 8.15216
50.917747323549435 8.11996
50.94240721271973 8.1465
50.96706963007175 8.08654
50.99192728239342 8.06535
51.01659478166073 8.07996
51.04126481489051 8.07217
51.06593738400761 8.026810000000001
51.090805275207074 8.00025
51.11548294172845 7.98584
51.14016314993547 7.98675
51.164845901758845 7.97823
51.18972406304274 7.9554
51.21441192780656 7.92547
51.23910234200271 7.9019699999999995
51.2637953075678 7.9083
51.288683770237945 7.923310000000001
51.31338186432707 7.8642199999999995
51.33808251561888 7.83679
51.362978729967345 7.845039999999999
51.387684521509755 7.83431
51.41239287610203 7.784510000000001
51.437103795691165 7.8022800000000005
51.46201036644977 7.77077
51.486726441956634 7.742999999999999
51.51144508832545 7.739910000000001
51.536166307509156 7.728210000000001
51.56108326624387 7.70516
51.58580965706056 7.68553
51.61053862657523 7.65066
51.635270176746864 7.648439999999999
51.66019755512065 7.64665
51.68493429268881 7.62413
51.70967361681515 7.619460000000001
51.73441552946465 7.59554
51.759353359237934 7.6120600000000005
51.7841004750961 7.573360000000001
51.80885018539685 7.53337
51.833602492111254 7.53522
51.8585508051424 7.506489999999999
51.883308330926425 7.516560000000001
51.90806845906181 7.4884
51.932831191525715 7.50113
51.95779001977161 7.469060000000001
51.98255798721516 7.390789999999999
52.00732856494335 7.410639999999999
52.03229530577543 7.4105300000000005
52.057071130455945 7.36331
52.081849571391054 7.382389999999999
52.106630630568695 7.3800300000000005
52.13160794279417 7.33485
52.15639426492067 7.28866
52.18118321127822 7.294569999999999
52.205974783860896 7.3013
52.23096269971011 7.29323
52.255759551287994 7.285830000000001
52.280559035098186 7.2575
52.30536115314103 7.243460000000001
52.33035970494467 7.23308
52.35516711807904 7.21847
52.37997717147198 7.19995
52.40478986713005 7.17011
52.42979908731974 7.13698
52.454617094216 7.159160000000001
52.47943774942214 7.140160000000001
52.50426105495102 7.122660000000001
52.529280976059844 7.1116399999999995
52.554109609024096 7.098330000000001
52.57894089837482 7.08285
52.60377484613117 7.07045
52.62880550079408 7.0982
52.65364479223379 7.01156
52.67848674816189 7.02893
52.70352547971946 7.0286800000000005
52.72837279155837 6.98505
52.753222773982785 6.91512
52.778075429022984 6.92045
52.80312495150885 6.9407
52.827982978797436 6.9251
52.85284368481815 6.9357
52.87770707160767 6.888089999999999
52.90276741793998 6.86153
52.92763619336701 6.89239
52.952507655698504 6.84495
52.977381806977576 6.83644
53.00245301017842 6.84125
53.02733256653592 6.83035
53.052214817996074 6.806039999999999
53.077099766608484 6.77348
53.102181859804446 6.796689999999999
53.127072229988265 6.79438
53.15196530349892 6.75921
53.17686108239249 6.72306
53.20195409881522 6.6834
53.22685531582556 6.72872
53.25175924441303 6.709410000000001
53.27666588664027 6.6622699999999995
53.30176985962693 6.665089999999999
53.3266819565689 6.6504199999999996
53.35159677336455 6.626639999999999
53.376514312083096 6.61177
53.40162927507703 6.63859
53.42655228516116 6.604889999999999
53.45147802340193 6.560339999999999
53.47660125628886 6.55638
53.50153247842639 6.56007
53.52646643496923 6.52174
53.55140312799818 6.4835199999999995
53.576537409691696 6.49571
53.60147960336152 6.484369999999999
53.626424539786164 6.46366
53.65137222105307 6.43959
53.67651758529126 6.47371
53.70147078399681 6.41425
53.72642673383343 6.45366
53.75138543689533 6.4259699999999995
53.776541917524526 6.431
53.801506154876755 6.38895
53.826473151763246 6.355119999999999
53.851442910284916 6.33131
53.87661054126026 6.3317
53.9015858509782 6.30564
53.92656392866066 6.33289
53.95154477641532 6.32453
53.976723591801296 6.272069999999999
54.00171000771266 6.265569999999999
54.02669920004598 6.26008
54.051691170915745 6.210780000000001
54.076881204886796 6.22262
54.101878760928514 6.22825
54.12687910187696 6.1742
54.152077577768296 6.19956
54.1770835166946 6.16495
54.20209224691339 6.14403
54.22710377055121 6.136830000000001
54.25231352511594 6.1287400000000005
54.27733066384342 6.06
54.30235060239643 6.06766
54.32737334290836 6.05931
54.35259441062629 5.99797
54.377622783395324 5.99138
54.40265396455061 5.98923
54.42768795623251 5.99469
54.45292037169559 5.95164
54.477960012857906 5.93821
54.50300247099511 5.9778400000000005
54.52804774825457 5.91375
54.55329154616743 5.88782
54.57834249018678 5.87758
54.6033962597977 5.83472
54.6284528571545 5.85349
54.653708072335164 5.81571
54.67877035378786 5.8013699999999995
54.70383546947698 5.77801
54.72890342156389 5.79416
54.7541700889442 5.71427
54.77924374251975 5.72445
54.8043202390049 5.70224
54.82959552413022 5.69412
54.8546777351945 5.64288
54.87976279569621 5.591
54.90485070780914 5.688619999999999
54.930137506558005 5.567130000000001
54.95523115074295 5.61134
54.98032765308844 5.55023
55.005427015775496 5.55891
55.03072536339621 5.55052
55.05583047570572 5.50335
55.080938454927676 5.4999199999999995
55.10604930325027 5.46851
55.131359235107396 5.47962
55.15647585066083 5.4526
55.181595341907496 5.41443
55.20671771104285 5.397390000000001
55.232039262617704 5.352180000000001
55.25716741665048 5.33091
55.28229845518636 5.29122
55.30743238042802 5.27871
55.33276558731939 5.28284
55.357905315183636 5.25443
55.383047936390035 5.2188099999999995
55.40819345314859 5.141830000000001
55.433538351073295 5.16909
55.458689688238415 5.17951
55.483843927614096 5.11407
55.509197623043605 5.11521
55.53435769621134 5.054209999999999
55.55952067826466 5.0362800000000005
55.5846865714265 5.0492300000000006
55.61005202069737 4.99601
55.63522376553902 5.04014
55.66039842818645 4.992369999999999
55.68557601087004 4.97144
55.7109532500271 4.930969999999999
55.73613670233794 4.95089
