TT I
1.2716486653135266 7.052410000000001
1.2939594142134223 6.75
1.3162702121660406 6.632789999999999
1.3385810600174564 6.14582
1.3608919586137629 6.44107
1.383202908801069 6.50261
1.405513911425503 6.38772
1.4278249673332093 5.98948
1.4501343378461518 6.06763
1.4724455028545926 5.59433
1.4947567236847858 6.26884
1.517068001182951 6.36889
1.5393793361953272 6.04399
1.5616907295681737 5.83509
1.5840021821477681 5.30317
1.60631369478041 5.0263599999999995
1.6286252683124185 4.849130000000001
1.6509369035901333 4.3701
1.6732468618895553 4.71615
1.695558623192809 4.5140199999999995
1.7178704487808514 4.81948
1.7401823395001077 4.7405
1.7625012545597203 5.13008
1.7848028405262486 5.15907
1.8071218901122095 5.3102
1.8294236121921872 5.12026
1.8517427996910911 5.04328
1.8740620574440425 4.32454
1.8963639900671978 4.41337
1.9186833908139995 4.65468
1.9409854680117449 4.506819999999999
1.9633050151394713 4.66245
1.9856246367570705 4.88467
2.0079269371922672 4.778169999999999
2.03024671027244 5.15008
2.0525491637446027 4.92911
2.074869091674931 4.617430000000001
2.097171701569106 4.3526
2.1194917877373847 5.33856
2.141811954326636 5.184419999999999
2.164114805233074 4.5931
2.186435135143035 6.01505
2.208738150935709 13.1538
2.231058647554722 26.3969
2.2533792288321184 19.9635
2.275682498336085 9.814210000000001
2.298003251406138 6.25212
2.3203066942619714 5.6830099999999995
2.3426276225136022 5.16323
2.3649486396617507 5.89325
2.387252348930071 5.63888
2.4095735463442893 6.25074
2.4318774374315884 6.08176
2.4541988185014043 6.159009999999999
2.476502894794693 7.7069399999999995
2.498824462909887 7.36538
2.521146125856138 7.36712
2.5434504863470337 6.960560000000001
2.5657723414244717 7.1078600000000005
2.588076895590662 8.08178
2.610398946189713 8.50832
2.6327210958598384 8.136239999999999
2.6550259469304716 7.742389999999999
2.6773482972090137 8.14134
2.6996533504259 7.54517
2.7219759047039602 8.32178
2.744298562293959 8.36863
2.7666039251246595 8.91452
2.7889267918020164 8.29013
2.8112323652516555 8.15293
2.833555444408179 8.17264
2.8558786311183852 8.09096
2.8781845268938557 8.662289999999999
2.9005079311721484 8.86528
2.9228140460410397 8.6962
2.9451376712799635 9.052589999999999
2.967444008632326 9.48126
2.9897678582247247 9.86848
3.0120918213106695 10.1101
3.0343984987899373 10.8859
3.0567226913198637 10.9136
3.079029599759726 11.2427
3.101354025127254 12.1559
3.123678568232338 13.1793
3.145985829517914 13.2202
3.16831061055229 13.9752
3.1906181112775593 14.7907
3.212943133635653 14.5634
3.2352682779763207 15.3632
3.2575761442691227 15.5005
3.2799015350264273 15.9057
3.302209649240067 16.1202
3.3245352898092655 16.4069
3.3468436553365257 17.7081
3.369169549113219 17.6493
3.3914955708171384 18.6112
3.413804319727358 19.0783
3.4361305997334863 18.7053
3.4584396084414553 19.8111
3.4807661501462652 20.3649
3.503092824025881 20.9782
3.5254022288463154 21.1107
3.5477291695206588 21.641
3.5700388426251948 22.5777
3.5923660534916446 23.649
3.6146934007816114 37.8135
3.637003482731501 83.36
3.6593311053109985 92.5822
3.681641464033634 54.6641
3.7039693653009733 30.1881
3.726297407241705 25.8065
3.7486081875460804 25.6199
3.7709365132734978 26.3988
3.793247578841633 26.4824
3.8155761917550093 27.0419
3.8378875459837216 27.0375
3.8602164494827234 27.3226
3.882545499606844 28.1844
3.9048572932539183 28.5568
3.9271866390645718 29.1779
3.9494987298666713 29.7111
3.971828374764527 30.4987
3.9941581705403255 30.9439
4.016470713506008 31.373
4.038800813471445 32.1214
4.061113662089144 32.8301
4.0834440696459176 33.5425
4.105774632334751 34.0847
4.128087945865126 34.9087
4.150418821249301 35.239000000000004
4.172732448931298 36.8851
4.195063640413578 38.3776
4.2173775856475215 42.2859
4.239709096631102 71.5309
4.262040768704612 219.317
4.284355196706267 296.733
4.306687193387355 195.75
4.329001947444346 79.6354
4.35133427213731 48.2394
4.373666762177566 44.4848
4.395982011761091 44.2451
4.418314834921175 45.1757
4.44063041906622 52.7425
4.4629635787515625 62.8084
4.4852969080429785 62.7008
4.5076130004776225 53.4783
4.529946671403969 49.8553
4.552263106909177 50.0524
4.574597122877047 51.0614
4.596931312711224 52.0718
4.619248269273446 53.4074
4.6415828092605835 53.9488
4.663900117405352 55.4744
4.686235010953232 56.8537
4.708552674085913 57.6687
4.730887924602802 59.2026
4.753223354952695 60.8691
4.775541557023902 62.4409
4.797877349456786 63.9506
4.820195915032126 65.6815
4.842532072957498 66.649
4.864868414979744 69.0258
4.88718753227192 71.0869
4.909524244902505 72.7023
4.931843734218147 74.6564
4.954180820867835 77.1529
4.976518095879839 79.9365
4.998838149695359 82.6286
5.021175803844231 86.4087
5.043496238205739 89.3513
5.065834274903528 93.4954
5.088172504230693 98.0658
5.1104935158799565 104.38799999999999
5.132832132875765 124.521
5.155153533596801 163.725
5.1774925416746225 195.872
5.199814334878411 325.639
5.2221537374521505 930.573
5.244493338631803 2816.35
5.266815727034316 7689.75
5.289155727832427 12569.5
5.311478517248165 8986.98
5.333818921080011 2903.94
5.356159527788849 558.4209999999999
5.3784829252032536 185.87099999999998
5.400823940070432 143.936
5.423147747031976 128.029
5.445489173474152 118.59200000000001
5.467830807066149 112.834
5.490155234831516 109.353
5.512497285125229 106.12299999999999
5.534822130975162 103.992
5.557164601388673 101.7
5.579489868738879 98.7668
5.601832762690846 98.2122
5.6241758697774475 96.9829
5.646501775867269 96.363
5.668845311622074 94.69200000000001
5.691171647754637 93.7769
5.713515615597765 92.5599
5.735859800852677 91.9943
5.758186788542988 90.93
5.780531411018185 90.9194
5.802858837297399 90.8349
5.825203900414495 90.5379
5.8475491852224 90.896
5.869877275883075 91.1286
5.892223006467101 92.0632
5.914551544266608 92.69
5.936897724049891 95.4872
5.959244129804903 100.355
5.981573344815301 116.234
6.0039202049061 194.544
6.026249875609095 419.713
6.04859719346037 923.073
6.070927323278297 2216.17
6.093275102315365 4504.98
6.115623113320588 5171.18
6.137953938319995 3230.08
6.160302415650845 987.96
6.182633708324452 237.265
6.2049826554078376 113.50200000000001
6.227331838745022 92.0865
6.249663839443684 84.7301
6.27201349767565 81.9059
6.294345974611799 87.6568
6.316696111167083 97.8138
6.339046488263839 93.1434
6.361379686074702 79.1109
6.383730546639482 71.9489
6.406064229255215 68.8212
6.428415576718203 67.9373
6.450749747566656 67.0787
6.47310158535871 65.8401
6.495453669698332 65.1277
6.517788579421056 64.7491
6.540141159237969 63.6926
6.562476565766648 62.5988
6.5848296444934045 62.2029
6.607182974060425 62.3145
6.6295191323281015 62.446999999999996
6.651872965955752 66.0464
6.6742096296068985 89.0004
6.6965639707294615 131.636
6.71891856698715 132.841
6.741255995248479 92.2607
6.763611104154477 67.4036
6.785949046381137 60.3054
6.808304671371482 58.4829
6.8306605557940046 57.9905
6.852999275508618 57.2577
6.875355681171544 56.8833
6.897694923437771 56.2714
6.92005185377892 56.3701
6.9423916220322655 56.4223
6.964749080490181 55.5693
6.987106804399774 55.4406
7.009447368180821 55.5779
7.031805625367033 55.5772
7.054146723727803 55.1695
7.076505517631004 54.9797
7.098864581288365 55.4092
7.121206488070854 55.1087
7.143566093607822 54.9622
7.165908543567245 55.254
7.188268694426048 55.0084
7.2106291193438095 55.4214
7.232972390625943 56.5959
7.255333366030969 67.9781
7.277677189091925 117.945
7.300038718428332 161.694
7.322400526130865 137.256
7.344745183422596 86.6883
7.367107550224791 61.5533
7.389452767901992 56.5935
7.411815697249891 55.129
7.434161478756298 54.4309
7.456524974096713 54.4054
7.478888753837185 53.9069
7.501235387657368 54.3836
7.523599738562711 54.6508
7.545946944825532 54.7467
7.568311870344528 55.0037
7.5906770845765665 55.4772
7.613025156078678 56.7143
7.635390950099687 57.6896
7.657739602662809 57.0024
7.680105979923558 55.5657
7.702472650212829 55.6061
7.724822180948224 55.7715
7.747189439655568 55.964
7.769539560075357 56.1039
7.791907410653562 56.5824
7.81425812420825 56.3361
7.836626570110925 56.3394
7.858995315087906 57.2483
7.881346924933401 57.8382
7.903716270417482 58.1525
7.926068482028405 58.261
7.948438431475253 59.1172
7.9708086843180235 59.6886
7.993161805171116 60.1922
8.015532667162402 60.424
8.037886398416653 61.4069
8.060257873014221 61.7591
8.082629655331942 62.5026
8.104984308787587 63.6916
8.127356708900503 66.4611
8.149711981398308 71.7587
8.172085002766314 74.1565
8.194458336181368 71.4085
8.216814543847752 69.0416
8.23918850371002 69.1908
8.26154533906492 70.277
8.283919928836452 71.714
8.306277395339652 72.5135
8.328652618483376 73.8502
8.351028159736202 76.0849
8.373386579575245 77.7408
8.395762759396959 79.4539
8.418121819038275 83.9046
8.440498640894003 96.5231
8.462875785192262 109.79
8.485235811156207 120.24700000000001
8.507613602688501 155.97899999999998
8.529974277114228 235.761
8.552352719347912 368.361
8.574731488360351 641.2040000000001
8.59709314210385 1177.17
8.619472567021075 1878.77
8.64183487789147 2168.21
8.664214962183097 1815.97
8.686577933647762 988.758
8.708958680784317 391.67
8.731339760774953 167.422
8.753703729764451 111.249
8.77608547780821 98.3419
8.798450116065078 95.2323
8.820832535634787 92.1608
8.843215292401656 90.6552
8.865580941199045 88.9417
8.887964374703538 88.2698
8.910330701447199 88.9857
8.932714815164482 91.1966
8.955099270424924 90.1972
8.977466620733543 87.6042
8.999851761421976 84.9913
9.022219798361645 83.35600000000001
9.04460562795561 83.6394
9.066991803441677 82.6391
9.089360876979615 82.4137
9.111747746589993 82.3723
9.13411751544971 81.8034
9.156505082664324 81.3863
9.178875550323522 81.4388
9.20126381862328 81.7706
9.223652438908596 82.19
9.246023961427412 82.1811
9.26841328802173 81.3151
9.290785518039224 81.2305
9.313175554425882 82.1833
9.335565947154315 81.9129
9.357939245086508 82.6126
9.380330352834827 82.4397
9.40270436697103 82.6263
9.425096193225055 82.5506
9.447488380180165 83.3468
9.469863475295412 83.685
9.492256385987508 83.9366
9.514632206018318 84.7983
9.537025843935714 84.9622
9.559402392368193 85.6673
9.581796761000229 86.8304
9.604191496441521 87.92
9.626569144158516 91.2053
9.648964615551032 95.9913
9.671343000390081 97.0366
9.693739211225699 95.2445
9.716135793237463 92.9161
9.738515290448102 92.5181
9.760912617143402 93.5191
9.783292860202891 94.6263
9.805690935076182 95.8805
9.828089385495742 96.8147
9.850470754023561 99.1652
9.872869957865444 106.62100000000001
9.89525208097539 120.277
9.917652041736662 132.132
9.940052382417589 131.441
9.962435644102392 136.612
9.984836746950979 169.141
10.007220771957746 230.14
10.029622640473708 332.401
10.052007432299963 509.445
10.074410069984072 815.556
10.096813093716005 1267.22
10.119199042482517 1768.93
10.141602840636468 1953.93
10.163989564971628 1606.06
10.186394141051062 918.138
10.208799107559706 416.12
10.231187001965623 193.479
10.253592751657669 126.93
10.275981430388155 112.93799999999999
10.298387966769793 111.964
10.320794897965431 113.79899999999999
10.343184759907361 112.96799999999999
10.36559248305461 107.512
10.387983138083852 104.07700000000001
10.410391656691655 105.844
10.432800574501677 115.745
10.455192425893369 131.9
10.47760214443012 156.77700000000002
10.499994797678786 201.993
10.522405320453982 283.611
10.54479877906917 408.66900000000004
10.567210109595656 515.7959999999999
10.5896218454736 580.2769999999999
10.612016518879773 513.135
10.634429067781074 360.345
10.656824555333241 208.949
10.679237920773568 126.824
10.701651695961992 97.0959
10.724048411481384 89.03299999999999
10.746463008485165 86.1015
10.768860546937125 84.6354
10.791275969274796 82.8762
10.81369180576079 81.8442
10.836090585366925 80.8217
10.858507252467449 79.4134
10.88090686379991 78.5654
10.903324365036394 78.2406
10.925724811614439 77.9032
10.948143150509463 79.2402
10.970561909719066 78.1552
10.992963615930844 76.4068
11.015383218085756 74.5083
11.037785768347074 72.9386
11.06020621697282 72.3815
11.082627090322113 71.743
11.105030913430326 71.1111
11.12745263854165 71.9536
11.149857314510728 75.0589
11.172279894912576 80.4633
11.194702904450653 81.3752
11.217108866490921 77.4285
11.239532736615194 73.4216
11.26193956033512 71.3697
11.284364294577085 69.7837
11.306789462371718 67.9703
11.329197585398376 66.7867
11.351623622610898 66.7287
11.37403261614354 65.6517
11.396459526308487 65.7466
11.418869393879497 65.2287
11.441297180532617 65.0188
11.463725406927658 64.8323
11.486136592353875 64.3247
11.508565700543707 65.1563
11.530977768845315 66.6453
11.553407762368774 67.2208
11.575838200059769 66.8339
11.598251599479612 64.8943
11.620682927815501 63.8809
11.64309721895548 63.2381
11.665529441478206 63.0004
11.687962112597958 62.4925
11.710377748130886 62.571999999999996
11.732811318753434 62.6582
11.755227854859067 62.4792
11.777662328529495 62.53
11.800079768750786 62.1459
11.822515149015453 62.3608
11.844950984084935 62.5752
11.867369787303163 61.9591
11.889806534289491 62.0917
11.912226250487029 62.3267
11.934663912939751 62.5717
11.9571020346363 62.6131
11.979523127133968 62.5852
12.001962169624331 63.093999999999994
12.024384183972964 64.0701
12.046824150809913 66.6411
12.069264581333726 71.7021
12.091687985297767 77.5952
12.11412934550045 86.7095
12.136553680195208 102.23100000000001
12.158995973632788 124.61
12.181438735204349 154.50799999999998
12.20386447284199 179.40200000000002
12.226308172985636 199.12599999999998
12.24873485024193 197.19
12.271179492516982 162.509
12.293607112949127 125.61
12.316052700916226 96.8069
12.338498763250042 78.3314
12.360927805303868 69.9327
12.383374818673879 66.1939
12.405804812803074 64.3115
12.428252780773262 64.3369
12.45070122756722 63.8916
12.473132656675375 63.7638
12.49558206341869 64.1777
12.518014453510101 64.0458
12.540464823770117 64.17
12.562915677315177 64.5204
12.58534951575545 65.4022
12.607801338171472 67.1055
12.630236146511358 71.8881
12.652688941369085 76.2336
12.675124723177234 76.4514
12.697578494048786 73.2308
12.720032754458185 69.2826
12.742470003354093 67.5294
12.764925245138771 67.5111
12.787363476431278 67.6659
12.809819703166806 67.9615
12.83227642391173 68.6757
12.854716135692716 69.2216
12.877173846755147 70.4129
12.899614549869717 70.7767
12.9220732548287 71.5368
12.94453245827299 71.7895
12.966974655289818 72.7612
12.989434858002571 73.7621
13.011878055298721 74.3448
13.034339260862497 75.2491
13.056800969391883 76.2388
13.079245674017244 78.4384
13.101708390774869 79.9672
13.12415410463411 86.6009
13.146617833206086 97.2756
13.169064559883248 109.12700000000001
13.191529303857127 123.744
13.213994557076367 146.293
13.236442809902437 183.8
13.258909083908291 240.265
13.28135835851934 304.297
13.30382565690295 370.968
13.326293469022952 419.74300000000005
13.348744283242008 413.546
13.371213125129904 354.332
13.39366497011003 265.282
13.416134845360597 178.113
13.438605238843131 126.598
13.46105863690397 105.58200000000001
13.483530069144786 104.04799999999999
13.505984506951902 108.71799999999999
13.528456981549432 117.995
13.550929978879088 132.69799999999998
13.573385983253365 157.511
13.595860028340867 196.562
13.618317081455832 248.93
13.64079217790333 303.04200000000003
13.663250283359057 346.72
13.685726434770173 366.097
13.708203115221277 335.785
13.730662806148091 259.97700000000003
13.75314054697177 186.747
13.775601299246777 129.107
13.798080104050406 97.6274
13.820559442405358 85.5216
13.843021793671388 81.6057
13.865502201420897 79.8063
13.887965623051947 79.2164
13.910447103807167 77.9124
13.932929122629764 76.5563
13.955394156785959 76.4144
13.977877254034569 75.6363
14.000343367582113 74.8679
14.022827546871707 74.0175
14.045294743423524 73.3469
14.06778000837062 72.7533
14.090265817715476 72.4923
14.112734645763819 72.1445
14.13522154619454 72.1497
14.157691466286913 72.0395
14.180179461423874 71.6748
14.202668005486178 71.0265
14.22513957064374 70.4976
14.247629214846473 70.0092
14.270101881097517 69.9381
14.29259262906496 70.1893
14.315083930490205 70.6655
14.337558255389705 70.9661
14.360050666019726 70.7099
14.382526101071944 69.6044
14.405019624534942 68.9689
14.427513705993134 68.4682
14.449990813291825 68.3922
14.47248601302899 68.2978
14.49496423954951 68.4822
14.517460561197822 68.524
14.539939910570322 68.3293
14.562437357763558 68.743
14.58493536931253 69.7315
14.607416409993311 70.7179
14.62991555254159 71.3441
14.652397725157423 71.1683
14.674898002342799 70.4687
14.697398848433282 69.7613
14.719882725991326 70.5162
14.74238471217934 71.1238
14.764869730765593 74.2102
14.787372860692983 77.5104
14.809876564079925 82.0796
14.83236330125751 87.7955
14.854868153850365 96.0791
14.877356041159485 110.421
14.899862046604186 129.10399999999998
14.922351087688757 154.566
14.944858249632887 182.83700000000002
14.967365991421232 208.445
14.989856770231246 219.81099999999998
15.012365673994204 215.476
15.03485761569738 188.97
15.05736768508665 149.571
15.07987833888692 116.209
15.102372032001655 91.3813
15.124883856909658 77.0555
15.14737872204565 72.2867
15.169891721717274 70.3785
15.192405310371893 70.3511
15.214901940621196 70.6794
15.237416709527137 70.2927
15.259914520936249 70.5287
15.282430473753607 69.7657
15.304947020131227 68.5413
15.327446610371178 67.6771
15.349964346154254 66.8953
15.372465126703139 66.6178
15.394984055556009 66.2303
15.417486030076159 66.1439
15.44000615566487 65.7967
15.462526881230803 65.8003
15.485030653812652 65.8795
15.507552581617434 66.0289
15.530057557334603 65.9066
15.55258069104857 65.9098
15.575104429329837 66.0074
15.597611216864632 65.3716
15.620136166564563 65.4535
15.6426441664095 66.0262
15.665170331202765 68.1938
15.687697105158826 71.2626
15.710206930593545 74.5483
15.732734925158933 78.8164
15.755245972089478 85.1539
15.77777519094324 93.9919
15.800287463046663 107.47200000000001
15.822817909869592 127.521
15.84534897229804 149.972
15.867863089299354 172.731
15.890395385222186 188.53400000000002
15.912910736597423 191.828
15.935444269699861 182.024
15.957978423016485 154.116
15.980495633101265 124.559
16.003031029129367 98.7941
16.02554948280019 78.1013
16.048086125229432 68.2357
16.070623392487107 65.0627
16.09314371869582 64.24
16.11568223789321 63.1626
16.13820381691126 62.2215
16.160743591742527 61.4827
16.183283996022084 60.3302
16.205807461423195 59.3194
16.228349126881973 58.8618
16.25087385432698 58.7738
16.27341678466365 58.2521
16.29594277784926 58.0985
16.31848697676433 58.3337
16.341031811604868 58.5558
16.36355971058487 58.7203
16.3861058195587 58.4702
16.40863499352978 57.3507
16.431182380342005 56.4678
16.453730407713202 55.8364
16.476261501364792 55.7459
16.498810812136167 55.3957
16.52134319004079 55.3645
16.54389378792203 55.2125
16.566445031001553 55.2711
16.588979342490088 55.0349
16.61153187824822 54.9196
16.634067483263312 54.6017
16.656621315414416 54.4475
16.679175797408888 54.1821
16.701713349928728 54.5625
16.72426913389191 54.7012
16.74680798922351 54.683
16.76936507887444 54.6797
16.791905240734874 54.6196
16.814463639794468 54.4992
16.837022695210294 54.5225
16.859564824093756 54.9386
16.882125194503903 55.562
16.904668639217885 56.1776
16.927230328348003 56.1529
16.949792678493612 56.5374
16.972338104193863 55.9749
16.994901778652235 55.411
17.017448529496576 55.3549
17.040013531998152 55.3911
17.06257920018044 55.9329
17.0851279459922 56.6759
17.107694947817667 57.3881
17.130245028099072 58.1347
17.15281336730298 59.5708
17.17536478578733 61.3441
17.19793446610687 63.3675
17.220504818648422 66.3832
17.243058251703697 70.0048
17.265629950971032 74.7569
17.288184731571736 79.2305
17.310757781306908 82.5726
17.33333150794385 83.9583
17.355888317140174 81.7032
17.37846339986244 76.7665
17.401021565958885 70.8016
17.42359800851343 65.6514
17.44617513265564 62.0409
17.468735341390783 60.1275
17.491261035594565 59.0635
17.51396340099364 58.6135
17.536490463869136 58.7679
17.559018209820174 58.9542
17.58154663977963 58.8647
17.604251766089718 59.1581
17.626781572227713 59.1553
17.64931206518155 59.5841
17.671843245885103 59.9906
17.69455114821572 60.1975
17.717083712612634 60.4456
17.739616967569667 60.7446
17.762150914021706 61.0879
17.78486160749854 61.0189
17.807396945166804 61.5392
17.829932977143503 62.1627
17.85246970436452 63.5691
17.875183204129467 65.4932
17.897721330097664 67.6164
17.920260154126645 69.9157
17.942799677153296 73.0374
17.9655159983646 76.5566
17.988056927677544 82.2806
18.010598558807683 89.8727
18.033140892692916 100.359
18.05586005052525 111.274
18.07840379824407 122.307
18.10094825154059 131.993
18.12366954819864 139.32399999999998
18.146215420998306 137.84799999999998
18.16876200220057 130.53799999999998
18.191309292745153 117.029
18.214033452627167 103.445
18.236582170236648 92.1016
18.259131600016456 87.0242
18.281681742907335 86.8996
18.304408781233683 90.9605
18.32696035875955 95.4614
18.349512652227624 100.15100000000001
18.372065662579683 104.166
18.394795594587553 104.958
18.41735004715306 101.86
18.43990521943684 95.8998
18.46246111238171 87.0407
18.485193953325208 77.6713
18.507751296070428 70.2615
18.530309362314178 66.1052
18.552868153000343 63.5279
18.57560391815056 62.0804
18.59816416623245 61.6327
18.620725141597372 61.0255
18.643286845190268 60.4603
18.666025549835414 60.1036
18.688588718427933 59.4599
18.711152618092243 59.4143
18.73389353884365 59.0744
18.75645890921984 58.8215
18.77902501351406 58.4312
18.801591852673102 58.3736
18.824335739722738 57.8874
18.846904057212626 57.6607
18.8694731124168 57.419
18.89204290628315 57.4521
18.914789774966803 57.4775
18.937361054791623 57.0396
18.959933076131318 56.6355
18.982505839934877 56.7562
19.00525570560582 56.8447
19.027829963004184 56.5452
19.05040496572238 56.6274
19.072980714710468 56.5412
19.095733592739563 56.7491
19.11831084296757 57.1067
19.140888842324735 57.5471
19.16346759176222 57.7977
19.18622349753803 58.4016
19.208803755869358 59.3866
19.231384767143577 60.4283
19.253966532312948 62.1121
19.276725481241822 64.2226
19.29930876296784 66.7224
19.3218928014549 69.7805
19.34465404436217 72.7132
19.36723960516257 75.1013
19.389825925592426 75.87100000000001
19.412413006605938 74.8262
19.43517731967805 71.5508
19.457765930683355 67.4696
19.48035530514408 63.2563
19.50294544401556 59.3418
19.525712842708348 56.6938
19.54830451925909 55.1346
19.570896963095727 53.9928
19.593490175174704 53.7308
19.616260674962184 53.7359
19.638855432416964 53.4503
19.661450960992624 53.5802
19.68404726164677 53.29
19.706820878021247 53.0224
19.729418731756834 53.4265
19.752017360452857 53.1519
19.77461676506804 53.2833
19.797393513540218 53.2848
19.819994478951667 53.5804
19.84259622316767 54.0899
19.8651987471481 54.5272
19.887978643247177 54.5743
19.91058273574792 54.9736
19.933187610901943 55.8211
19.955969879466828 57.0088
19.97857632894404 58.5691
20.00118356396599 60.3928
20.023791585494575 62.5854
20.046577028914875 65.1944
20.069186632506966 67.32600000000001
20.091797025500632 68.80199999999999
20.114408208858933 69.6173
20.137196842715273 69.1421
20.159809615886765 67.8545
20.18242318232135 65.3272
20.20503754298326 63.4979
20.227829382875154 62.3616
20.250445341109344 62.2421
20.27306209647285 62.9228
20.29567964993108 63.9046
20.31847471147704 64.9404
20.34109387027612 65.2736
20.363713830075454 64.7461
20.386334591841646 63.498000000000005
20.409132890679302 60.8069
20.431755265564437 58.3025
20.454378445325528 55.5896
20.477002430930366 53.7323
20.499803982716553 52.3097
20.522429589228004 51.3288
20.54505600449589 50.891000000000005
20.567683229489194 50.8194
20.590488049900088 50.3073
20.61311690359731 50.133
20.63574656993626 49.9517
20.658553853717297 49.6267
20.681185154618298 49.451
20.703817271080066 49.303999999999995
20.72645020407368 49.0746
20.749260783967177 48.9348
20.771895359337133 48.9495
20.794530754161617 48.8274
20.817166969412938 48.7239
20.83998086114876 48.7131
20.86261872660049 48.5764
20.885257415405402 48.4491
20.90789692853701 48.4566
20.930714147864748 48.3174
20.953355319030678 48.4465
20.97599731745334 48.46
20.99864014410749 48.2462
21.021460706796564 48.3867
21.044105199328826 48.6706
21.06675052302631 48.7643
21.089396678865015 49.0036
21.112220600704806 49.2281
21.134868430275347 49.7678
21.15751709492456 49.9745
21.180166595629693 50.4074
21.202993892429635 50.8087
21.22564507473034 51.1103
21.24829709602816 51.3041
21.27112693608965 51.1508
21.293780644891275 51.1944
21.316435195634053 50.4072
21.339090589297417 50.0134
21.361923832041875 49.4462
21.384580921090404 48.6987
21.407238856007325 48.3603
21.429897637773326 48.3159
21.45273429906592 48.3295
21.475394784108598 48.2732
21.498056118951983 48.0696
21.520718304578022 48.3993
21.543558400304388 48.5126
21.566222297108816 48.5741
21.58888704765135 48.7014
21.61155265291521 48.8997
21.63439619898156 49.3881
21.657063523335786 49.6616
21.67973170537063 50.0881
21.7024007460706 50.5587
21.72524775840385 51.3598
21.747918526116475 52.5237
21.770590155457388 53.8531
21.79326264741238 55.3044
21.816113141960237 57.1756
21.838787368860547 58.8129
21.861462461341976 60.7081
21.884315579735777 62.703
21.90699241312273 63.7839
21.92967011506078 64.4377
21.95234868653799 64.4159
21.9752053151131 63.2253
21.997885635446785 61.4132
22.020566828293532 59.4487
22.04324889464272 57.7596
22.066109049404666 56.5303
22.088792872571794 56.2009
22.111477572219204 55.9629
22.1341631493376 56.232
22.157026846313123 55.8335
22.179714188221507 55.0586
22.202402410582668 54.0169
22.22509151438863 52.5027
22.24795876962584 51.3989
22.270649646204486 50.5482
22.293341407213727 49.7362
22.316034053646906 49.1697
22.338904883215342 49.0471
22.36159931041458 48.8571
22.38429462602756 48.7735
22.40699083104897 48.6889
22.429865251039757 48.7637
22.452563244831367 48.5355
22.47526213102522 48.6945
22.49813925616515 48.5105
22.520839937143307 48.4058
22.543541513520587 48.3602
22.56624398629403 48.3112
22.589124730075895 48.3231
22.611829005656723 48.4399
22.63453418063466 48.5078
22.657240256008077 48.6433
22.680124634582935 48.7001
22.70283252079775 48.8215
22.725541310413075 49.2164
22.74825100442868 49.486999999999995
22.771139033969575 49.9547
22.79385054687155 50.148999999999994
22.81656296718292 50.9597
22.83927629590484 51.9963
22.862167992606945 52.8574
22.88488314827121 54.0245
22.907599215359284 55.2207
22.93031619487366 56.1496
22.953211574954405 56.8822
22.975930389478226 57.4649
22.998650119445763 57.7152
23.02137076586092 57.001999999999995
23.044269845560063 55.9929
23.06699233506288 54.4925
23.089715744034912 52.9455
23.112617610931565 51.2382
23.135342869061212 49.8644
23.158069049684816 49.1852
23.1807961538087 48.7871
23.20370174880544 48.5284
23.226430710184808 48.6182
23.249160598093425 48.6037
23.271891413539002 48.696999999999996
23.294800752937697 48.6314
23.31753343374794 48.8428
23.340267045128353 48.8512
23.36300158808808 49.2136
23.38591468821339 49.4784
23.408651104658304 49.9548
23.431388455719986 50.6488
23.454126742409 51.4471
23.4770436196085 52.5624
23.499783787914662 53.8164
23.522524894889884 54.7976
23.54526694154616 55.9158
23.56818761219047 56.891000000000005
23.59093154860734 57.248000000000005
23.613676427751283 57.4841
23.636422250635754 56.7175
23.659346731118656 55.1739
23.68209445191868 53.4558
23.704843119509587 51.4423
23.72759273490623 49.681000000000004
23.750521041644767 48.3558
23.77327256312355 47.2623
23.796025035462787 46.4057
23.818956224555475 46.0173
23.841710609113413 45.9878
23.86446594758979 45.7062
23.887222241002014 45.4807
23.910157285144578 45.1223
23.932915498962537 45.0126
23.955674670778713 45.0526
23.978434801611975 44.7093
24.001373717286125 44.6103
24.024135776723917 44.5
24.046898798245582 44.4357
24.06966278287146 44.1531
24.092605586582614 44.1142
24.115371508023642 44.0023
24.1381383956401 43.8959
24.16090625045381 43.8443
24.183852958731244 43.9094
24.206622758582608 43.7621
24.229393528706886 43.4653
24.252165270127392 43.5254
24.27511589952438 43.4989
24.297889594216997 43.3094
24.32066426328598 43.1061
24.34343990775613 43.1794
24.36639447485003 43.0458
24.38917208083877 43.0633
24.41195066531332 43.0097
24.43490819850244 43.0246
24.457688750692377 42.8239
24.48047028445616 42.8603
24.503252800821233 42.9002
24.526214300784112 42.8952
24.548998793132213 42.736999999999995
24.57178427117417 42.8154
24.59457073593893 42.7827
24.617536219319863 42.705
24.64032466834748 42.7997
24.663114107195035 42.6948
24.685904536893013 42.364
24.708874020360852 42.3564
24.731666442613744 42.3741
24.754459858818787 42.2931
24.777254270007962 42.2688
24.80022777025625 42.0635
24.82302418230472 42.0343
24.845821592443674 42.0433
24.86862000170663 42.0593
24.891597535453727 41.9016
24.914397953892728 42.104
24.93719937456671 42.0302
24.96000179851076 42.2315
24.98298338249997 42.2959
25.00578782394922 42.5822
25.028593271784167 42.6502
25.05157790644186 43.1282
25.07438537804115 43.0674
25.097193859145293 43.4727
25.120003350792075 43.6814
25.142992065061257 44.0272
25.165803588823465 44.2557
25.18861612625217 44.4088
25.211429678386736 44.5001
25.234422489079968 44.6194
25.257238081693636 44.9177
25.280054692141732 44.8725
25.3028723214652 44.766999999999996
25.325869245420463 44.6693
25.348688923599397 44.6661
25.371509623787006 44.6949
25.394331347025812 44.3412
25.41733240110666 43.9162
25.440156181590016 43.2576
25.46298098826268 42.9661
25.48580682216873 42.4124
25.50881202326435 41.8704
25.53163992281684 41.3788
25.55446885274561 41.1364
25.577298814096377 40.8344
25.600308179121807 40.5901
25.623140214533745 40.6101
25.64597328451537 40.6747
25.66898578564376 40.4229
25.691820936010206 40.2888
25.714657124097695 40.4668
25.737494350954734 40.4583
25.760511045684957 40.3533
25.783350361364224 40.4622
25.806190718969255 40.4086
25.82903211955018 40.5204
25.852053024868923 40.5876
25.874896522722523 40.5076
25.897741066713106 40.4687
25.920586657892454 40.6148
25.943611790812668 40.8089
25.966459487728237 40.8591
25.989308234998564 41.0148
26.01215803367705 41.1694
26.03518741123814 41.3065
26.05803932412957 41.3171
26.080892291600094 41.4915
26.10374631470478 41.5899
26.12677995397268 41.5383
26.14963609978026 41.4463
26.172493304397875 41.1731
26.19535156888223 41.0053
26.218389486949604 40.6184
26.241249882640123 40.4714
26.26411134137826 40.1967
26.28715248187403 40.0869
26.31001607820869 39.8242
26.3328807407756 39.7932
26.35574647063438 40.0533
26.37879191991473 40.0242
26.401659795896734 39.968
26.424528742360263 40.1077
26.447398760366614 40.2781
26.470448535598294 40.4065
26.49332070826805 40.6253
26.516193955675355 40.8963
26.53906827888316 41.1686
26.562122397260108 41.2873
26.584998883685063 41.6317
26.607876449110325 41.7403
26.63075509460056 41.9451
26.65381357334404 41.9476
26.67669439061878 41.9617
26.699576291163382 41.9308
26.722459276044212 41.8469
26.745522132402975 41.5495
26.768407297649354 41.3145
26.791293550442003 40.9843
26.814180891848974 40.8114
26.837248143099337 40.4295
26.860137673466657 40.3594
26.88302829566349 39.9636
26.90592001075963 39.7279
26.92899167420566 39.7107
26.951885586870763 39.3318
26.974780595655517 39.1892
26.99785558178161 39.0606
27.020752794605112 38.9545
27.043651106772522 38.7375
27.06655051935668 38.7464
27.089629948036183 38.6487
27.112531573292053 38.5791
27.135434302194138 38.6149
27.158338135817015 38.4485
27.181422024430987 38.5528
27.204328079372566 38.3285
27.22723524226965 38.4286
27.250143514198573 38.4801
27.273231880156334 38.4555
27.296142382065014 38.2425
27.319053996245536 38.2159
27.341966723775965 38.2443
27.365059584515222 38.3788
27.38797455070062 38.4885
27.410890633481237 38.2577
27.433807833936918 38.3357
27.456905206923906 38.5247
27.47982465472398 38.4093
27.502745223449743 38.4186
27.525666914182825 38.6335
27.548768816912457 38.4282
27.571692763693633 38.3229
27.59461783573812 38.177
27.617723149491244 38.0417
27.640650484125285 37.9831
27.66357894728264 38.1142
27.686508540048052 38.1022
27.709618414237887 37.8347
27.732550278321757 37.6274
27.755483275279115 37.647
27.778417406196485 37.915
27.801531858397514 37.8629
27.824468269376716 37.8162
27.847405817586786 37.7425
27.870344504116094 37.8738
27.893463551932008 37.9414
27.916404527281053 38.0127
27.93934664422563 38.1767
27.962289903855886 38.3571
27.98541356491974 38.5567
28.00835912214229 38.6213
28.03130582533231 38.8323
28.054253675581805 39.0302
28.077381967556104 38.896
28.100332124185126 38.9325
28.123283431160893 38.8326
28.146235889577238 38.6521
28.169368830154156 38.3091
28.192323603752033 38.2684
28.215279532083304 38.0705
28.238415973016764 37.9111
28.261374223145094 37.6513
28.284333631303806 37.5279
28.307294198589954 37.3556
28.330435319167677 37.0931
28.353398217078915 36.9057
28.376362277420153 36.554
28.39932750129032 36.5489
28.422473319286713 36.3361
28.44544088262495 36.3729
28.468409612800283 36.1045
28.491379510913497 35.9319
28.51453004413313 35.8124
28.53750229057244 35.7752
28.56047570826344 35.7237
28.583450298308804 35.7404
28.606605564586562 35.513000000000005
28.629582511831156 35.7092
28.65256063474956 35.5913
28.675539934446338 35.537
28.698699951647605 35.5409
28.72168161743193 35.4625
28.74466446331978 35.5904
28.767648490417624 35.4098
28.790813276438353 35.2695
28.813799678527303 35.2876
28.836787265157085 35.3032
28.859955641890075 35.2887
28.882945610203045 35.3329
28.905936766392035 35.1404
28.928929111566863 35.2047
28.952102288520145 35.1749
28.975097024308607 34.9866
28.998092952423807 34.8815
29.021090073977508 34.8551
29.04426806913204 34.7153
29.067267590245258 34.6503
29.090268308143695 34.5401
29.11327022394099 34.4739
29.13645305530891 34.269
29.159457379627167 34.2535
29.18246290519685 34.346
29.20546963313352 34.279
29.22865731875826 34.246
29.25166646419296 34.2781
29.27467681535305 34.0571
29.29768837335608 34.0734
29.320880931312562 34.3098
29.34389491580634 34.2069
29.366910110507334 34.1083
29.38992651653503 34.1398
29.41312396492981 34.1497
29.436142806456754 34.1373
29.45916286268059 34.0601
29.48236399319994 33.9265
29.50538649169417 33.7388
29.528410208259935 33.6706
29.55143514402014 33.4385
29.574641196749695 33.3898
29.597668583816574 33.2642
29.6206971934585 33.2194
29.64372702680042 33.1182
29.666938019934474 33.0152
29.689970313635285 32.8876
29.713003834422636 32.7724
29.73603858342347 32.9076
29.759254535188578 32.7635
29.78229175361658 32.8185
29.80533020365064 32.7756
29.82836988641968 32.874
29.85159081507472 32.6801
29.874632976355343 32.6092
29.89767637376955 32.7471
29.920721008448314 32.583
29.9439469322847 32.4905
29.96699405457564 32.4296
29.9900424175358 32.5718
30.013092022298157 32.4622
30.03632295963995 32.4204
30.059375061131373 32.4625
30.08242840783577 32.5858
30.105483000888153 32.4217
30.128718970092244 32.3544
30.151776069006917 32.3161
30.17483441768648 32.3641
30.198074175317235 32.3492
30.221135036724256 32.287
30.24419715131772 32.3366
30.267260520236203 32.23
30.290505341942243 32.2989
30.313571232750228 32.3366
30.336638381310948 32.2847
30.35970678876503 32.2279
30.38295669299435 32.0577
30.40602763151657 32.2067
30.429099832366074 31.9956
30.452173296685572 32.037
30.47542830191959 31.9925
30.498504306502497 31.935
30.521581577995562 32.1338
30.544660117543582 32.1493
30.56792024229725 32.1143
30.59100133132069 32.0413
30.614083691845494 32.1778
30.637167325018545 32.1344
30.660432587840603 32.1412
30.683518779717886 32.1213
30.70660624769615 32.1441
30.729694992924372 32.1697
30.75296541239743 32.1338
30.77605672557558 32.1146
30.799149319462742 32.0032
30.8224236211637 31.9969
30.845518789950724 31.8105
30.868615242910597 31.7529
30.891712981195973 31.6008
30.91499247215866 31.4549
30.938092794619365 31.4449
30.96119440587579 31.4482
30.984297307082752 31.3689
31.00758200598383 31.252
31.030687500658694 31.1753
31.053794288760695 31.1529
31.076902371446767 31.0268
31.100192296997445 31.0806
31.12330298246119 31.0438
31.14641496599209 30.8573
31.169528248749216 30.901
31.19282341969534 30.9558
31.215939314557186 30.9403
31.239056512134788 31.0314
31.262175013589378 30.9692
31.28547544871168 30.7104
31.30859657161541 30.7746
31.331719001892175 30.7132
31.35484274070538 30.8078
31.378148458819545 30.7713
31.401274828443725 30.8693
31.424402510106933 30.8345
31.447712205419993 30.9705
31.470842524931633 30.8308
31.493974159989783 30.8368
31.51710711176168 30.7948
31.54042212308802 30.7125
31.563557722100917 30.7155
31.586694641341655 30.5197
31.609832881979628 30.4657
31.63315322823208 30.3356
31.656294125521327 30.2285
31.679436347728515 30.272
31.70257989602529 30.2017
31.725905596152327 30.1282
31.74905181052835 30.0116
31.772199354521323 30.1229
31.79534822930507 30.1857
31.818679302290967 30.1862
31.84183085259981 30.1674
31.864983737233473 30.0763
31.88813795736804 30.0104
31.911474422233013 29.9225
31.934631327356435 29.9639
31.9577895715215 30.0178
31.980949155906522 30.0536
32.004291031706956 30.0016
32.027453310562606 29.855999999999998
32.05061693318573 29.8131
32.07396288236386 29.8507
32.09712920658542 29.689
32.12029687812702 29.5016
32.14346589817093 29.4599
32.166817291729984 29.386999999999997
32.18998902288583 29.383000000000003
32.21316210610336 29.3262
32.23633654256711 29.1657
32.259693399663725 29.1495
32.282870556771144 29.1464
32.30604907069099 29.1744
32.329228942610065 29.1351
32.35259128243769 28.927
32.375773884550505 28.8811
32.398957848235646 28.8932
32.422143174682176 28.7746
32.445511016471215 28.6912
32.468699082679954 28.7004
32.49188851523011 28.6346
32.51507931531304 28.5649
32.538452678331 28.5048
32.56164622776311 28.4712
32.58484114831493 28.4186
32.60803744118015 28.496
32.631416344731896 28.3914
32.654615396551876 28.4867
32.67781582427913 28.3531
32.701198898634416 28.2003
32.72440209253756 28.0532
32.747606665947124 28.1671
32.77081262006088 28.0595
32.79420126883317 28.063000000000002
32.81740999876112 28.0271
32.840620112999424 28.0181
32.86383161274818 27.9347
32.88722585534586 27.9448
32.91044014056596 28.0104
32.933655814909734 27.8805
32.95687287957963 27.9653
32.98027273544904 27.8462
33.00349259526636 27.7387
33.026713849030116 27.8515
33.04993649794511 27.805
33.073341986570746 27.7057
33.09656744032826 27.7532
33.11979429286444 27.8032
33.14302254538647 27.8544
33.166433686291185 27.711
33.18966475336992 27.5881
33.212897224069096 27.5373
33.23613109959831 27.5493
33.259547912343415 27.4362
33.2827846121627 27.4088
33.306022720453775 27.3685
33.32926223842861 27.3822
33.352684742614166 27.3696
33.37592709463173 27.3179
33.399170859982064 27.2607
33.422597648419426 27.185
33.44584425514446 27.0466
33.46909227885668 27.0538
33.4923417207723 26.8891
33.51577423505344 26.9063
33.539026528130385 26.8151
33.56228024307245 26.8043
33.585535381098246 26.6826
33.60897364093058 26.6359
33.63223163992385 26.7606
33.6554910656699 26.5744
33.678751919389796 26.6329
33.702195944520106 26.4492
33.72545966903325 26.4717
33.74872482519663 26.4007
33.771991414233746 26.4946
33.79544122444841 26.4721
33.81871069412428 26.3143
33.84198160035767 26.2784
33.86525394437455 26.3139
33.88870955949969 26.2034
33.911984794020626 26.1942
33.93526147001624 26.175
33.958539588715006 26.1637
33.98200102861669 26.0858
34.0052820477047 25.9857
34.02856451319451 25.9443
34.05203033759056 26.0108
34.07531571090147 26.014
34.09860253431845 25.8658
34.121890809074316 25.8346
34.145362493118924 25.8918
34.16865368561615 25.7904
34.191946333164054 25.7425
34.21524043699793 25.6924
34.23871800066799 25.6878
34.26201503218366 25.6189
34.28531352370466 25.564
34.30861347646881 25.4244
34.33209693978188 25.4548
34.3553998301885 25.4938
34.378704185565205 25.406999999999996
34.402010007152356 25.2631
34.42549939016683 25.351999999999997
34.44880815937748 25.2829
34.472118398533134 25.179000000000002
34.49543010887669 25.1132
34.51892543169198 25.0689
34.54224009966052 25.1039
34.56555624255917 25.1152
34.58887386163339 25.0008
34.61237514439016 24.9682
34.6356957311114 24.9959
34.65901779775809 24.9248
34.68252356662995 24.9049
34.705848608458616 24.8099
34.72917513396849 24.8127
34.75250314440949 24.7343
34.77601490857862 24.5876
34.799345904259795 24.5612
34.82267838863559 24.6586
34.846012362958525 24.6305
34.869530142679984 24.5655
34.89286711232212 24.6323
34.91620557568269 24.5486
34.93954553401677 24.4746
34.9630693495876 24.4581
34.986412313340814 24.5245
35.00975677584668 24.4352
35.033102738362956 24.3441
35.05663261012228 24.3331
35.0799815881786 24.391
35.10333207003229 24.2183
35.12668405694369 24.2527
35.150220005273056 24.2764
35.17357501786656 24.1724
35.19693153931268 24.1021
35.220289570874385 24.1149
35.24383161619786 24.1073
35.267192683604904 24.0687
35.290555264930376 23.9912
35.314101899412165 24.0591
35.33746752422433 23.9795
35.36083466676374 23.9907
35.38420332829803 23.93
35.407756095629054 23.9504
35.43112781085063 23.9447
35.45450104888391 23.9066
35.477875810999194 23.848000000000003
35.50143473172161 23.809
35.52481255774625 23.8042
35.54819191167777 23.7328
35.57157279478914 23.6572
35.595137889488406 23.6725
35.61852184675279 23.695999999999998
35.641907337029984 23.5529
35.665294361595684 23.5377
35.68886565090076 23.4866
35.7122557598848 23.499000000000002
35.73564740699838 23.4704
35.759040593519934 23.4221
35.78261809810353 23.436
35.80601437933051 23.2943
35.829412203814705 23.2841
35.85281157283719 23.2014
35.876395313415884 23.225
35.8997977874528 23.1701
35.92320180988546 23.0559
35.946790244133936 23.0133
35.97019737933222 23.0618
35.993606066789866 22.9961
36.01701630779276 22.980999999999998
36.04061101440684 22.9669
36.06402437852291 22.9716
36.08743930005611 22.8744
36.1108557802951 22.7656
36.13445678011326 22.7898
36.15787639383515 22.7858
36.18129757014299 22.7678
36.20472031032821 22.7418
36.22832762423364 22.699
36.25175350829375 22.6428
36.275180960119776 22.5815
36.298609981005924 22.5573
36.32222362992669 22.5988
36.34565580510207 22.5893
36.36908955323448 22.4975
36.39252487562093 22.4006
36.416144880530226 22.3792
36.43958336764275 22.4418
36.463023432914625 22.3822
36.486465077645676 22.2424
36.51009145956204 22.3501
36.53353627947859 22.2548
36.55698268276811 22.26
36.58043067073321 22.1689
36.60406345072071 22.0691
36.62751462435344 22.1646
36.65096738658405 22.1209
36.67460498210655 22.0998
36.69806093788647 22.072
36.72151848619297 22.029
36.744977628333636 22.0142
36.76862165890998 21.8741
36.79208400512205 21.9324
36.81554794910557 21.8996
36.83901349217101 21.8233
36.862663978991606 21.7736
36.88613273667352 21.8302
36.90960309738324 21.7257
36.933075062434064 21.6907
36.95673202673572 21.6448
36.98020721697122 21.6551
37.003684015502365 21.5873
37.027162423645365 21.5491
37.050825886711465 21.4706
37.07430753063053 21.4375
37.09779078812467 21.4263
37.121275660513014 21.4015
37.144945643673694 21.4323
37.16843376245278 21.3722
37.19192350009803 21.3393
37.215414857931435 21.3327
37.239091382563885 21.1999
37.262585997426164 21.1937
37.28608223645736 21.223000000000003
37.309763684451696 21.2203
37.33326318851098 21.0974
37.356764320726555 21.1123
37.380267082425526 21.0957
37.40395510942588 21.0346
37.42746114683234 21.0093
37.45096881771841 20.9502
37.474478123414166 20.948
37.49817275092816 20.8983
37.52168534303452 20.8488
37.54519957395567 20.8367
37.568715445024665 20.7686
37.592416694607714 20.7356
37.61593586281424 20.7185
37.63945667518264 20.7237
37.66297913304891 20.706
37.68668702630454 20.6842
37.710212792059274 20.5747
37.733740207334854 20.5461
37.757269273470364 20.4935
37.780983832050374 20.4129
37.80451621684926 20.4666
37.82805025654007 20.4247
37.851585952464795 20.4055
37.8753071980695 20.3276
37.89884622345676 20.2459
37.92238690911902 20.2578
37.94611318753442 20.262999999999998
37.969657210779765 20.1937
37.99320289834801 20.1926
38.016750251586465 20.1459
38.04048325513017 20.1461
38.06403395679343 20.1241
38.087586328183946 20.0554
38.11114037065203 20.0485
38.13488012115898 20.0443
38.1584375229181 19.9846
38.181996599821 20.0023
38.205557353221124 19.9135
38.229303872575656 19.9027
38.2528679961576 19.874000000000002
38.27643380031219 19.8182
38.30000128639589 19.8047
38.32375459653193 19.8182
38.34732546371299 19.7931
38.37089801690786 19.6729
38.39447225747609 19.6895
38.418232380377425 19.6194
38.441810012983396 19.6877
38.46538933705673 19.5992
38.488970353960084 19.6506
38.51273731166058 19.4539
38.536321731567014 19.4402
38.55990784840681 19.3991
38.58367995004091 19.4232
38.60726947812959 19.3801
38.63086070726198 19.3941
38.654453638806274 19.3546
38.678232613930824 19.3622
38.70182896773327 19.2602
38.72542702806741 19.2213
38.7490267963045 19.1523
38.77281266709232 19.1289
38.79641586862214 19.1254
38.8200207821842 19.085
38.843627409152944 19.1531
38.86742019782782 19.0919
38.891030269149255 18.9919
38.914642058016156 19.0018
38.938255565806124 18.9628
38.96205529464307 18.8664
38.98567225787121 18.8941
39.00929094417078 18.9568
39.03291135492255 18.8567
39.05671804624804 18.7879
39.080341923549106 18.7362
39.103967529460334 18.6684
39.127594865365744 18.689
39.15140854155791 18.6564
39.17503935514948 18.6973
39.19867190290282 18.6648
39.22249083587951 18.6086
39.24612686969409 18.5942
39.269764641845306 18.4953
39.293404153722804 18.5656
39.317230110864074 18.4844
39.34087311998506 18.4224
39.36451787301696 18.4026
39.388164371352595 18.377
39.41199737518003 18.3853
39.43564738196752 18.3327
39.45929913825317 18.3161
39.48295264543308 18.2654
39.506792718520884 18.2846
39.530449745387216 18.1962
39.55410852735203 18.1736
39.57776906581474 18.2073
39.60161623079 18.1391
39.625280300200025 18.1075
39.64894613032202 18.0392
39.67261372255866 18.0385
39.6964680021016 18.0474
39.72013913657293 18.0429
39.74381203738292 17.9656
39.76748670593756 17.9412
39.79134812278169 17.9147
39.81502634488497 17.9295
39.83870633896685 17.8314
39.862388106436654 17.8418
39.88625668336918 17.8648
39.90994201572829 17.8335
39.933629125719285 17.7521
39.957503091207826 17.6733
39.9811937746168 17.7559
40.00488623990914 17.6652
40.02858048850006 17.5863
40.05246165409549 17.6113
40.076159487492085 17.5417
40.099859108448875 17.5181
40.123560518384345 17.5127
40.1474489070226 17.4753
40.171153913178564 17.3822
40.194860712584955 17.4466
40.2185693066637 17.4261
40.242464941335314 17.3531
40.26617714307655 17.3156
40.289891143772046 17.3465
40.3136069448471 17.3046
40.33750984859743 17.2818
40.3612292688043 17.2475
40.3849504936829 17.2485
40.40867352466194 17.2005
40.43258372059144 17.113
40.45631038219906 17.1434
40.48003885420956 17.0977
40.503769138055105 17.0877
40.52768664931955 17.0977
40.55142057531802 17.0502
40.57515631746428 17.0141
40.599079334038514 16.9652
40.62281872700477 16.9385
40.64655994043941 16.9322
40.67030297578061 16.9231
40.69423334835778 16.8684
40.71798004609188 16.7731
40.74172857006355 16.7763
40.76547892171441 16.7746
40.7894166736039 16.7161
40.813170699248566 16.7032
40.83692655691388 16.6912
40.86068424804498 16.7474
40.884629402612525 16.6662
40.908390779366385 16.6986
40.932153993938 16.6108
40.95591904777605 16.6012
40.979871628443995 16.581
41.003640379561936 16.5166
41.02741097430883 16.4669
41.05118341413683 16.4595
41.075143444384416 16.4437
41.098919593177826 16.4637
41.1226975914255 16.4046
41.14647744058318 16.3503
41.170444943946755 16.2777
41.19422851378379 16.2913
41.218013938914645 16.2803
41.24198706625173 16.2188
41.26577622087193 16.2087
41.289567235177785 16.1765
41.31336011063129 16.1718
41.337340752422875 16.0988
41.361137369129835 16.0608
41.38493585138705 16.0952
41.40873620066004 16.0383
41.43272438060107 16.0168
41.45652848292052 15.9825
41.48033445666918 15.9539
41.50414230331616 15.9017
41.528138045159764 15.8555
41.551949656675205 15.8388
41.575763145513235 15.8375
41.59957851314666 15.7945
41.62358184070442 15.7613
41.64740098505737 15.6911
41.6712220126409 15.7631
41.69504492493139 15.7109
41.71905586207357 15.7012
41.74288256296395 15.5932
41.766711153007456 15.6573
41.79054163368412 15.600999999999999
41.814560204340054 15.6796
41.838394485526365 15.5857
41.86223066180303 15.5157
41.88625497706819 15.4818
41.910094962812 15.5233
41.93393684811168 15.468
41.95778063445365 15.4336
41.981812625263366 15.4001
42.00566023303407 15.3556
42.029509746323676 15.3741
42.05336116662236 15.3206
42.077400857069705 15.3121
42.10125611078846 15.3179
42.12511327600405 15.3014
42.14897235421036 15.2196
42.173019768448455 15.2157
42.19688269209613 15.1595
42.22074753323349 15.1393
42.24461429335818 15.1157
42.268669455600495 15.1084
42.292540073217886 15.1022
42.31641261433284 15.088
42.34028708044675 15.0472
42.36435001496739 15.0025
42.38822835065557 14.9891
42.41210861586426 14.946
42.4359908120986 14.9729
42.46006154323262 14.9122
42.48394762115317 14.8812
42.507835634632315 14.8871
42.531912233047436 14.7975
42.55580413732265 14.7637
42.579697981698 14.7412
42.60359376768525 14.7362
42.62767820545945 14.7404
42.65157789440821 14.7168
42.67547952952185 14.6612
42.699383112316 14.6193
42.72347541395347 14.5969
42.74738291190531 14.5846
42.771292362102166 14.6293
42.795203766063516 14.5746
42.819303956130405 14.5766
42.843219287476536 14.5312
42.86713657716324 14.4715
42.89105582671383 14.4514
42.91516392983864 14.4143
42.939087119032166 14.4146
42.963012272677304 14.3549
42.98693939230129 14.3814
43.01105543317513 14.3471
43.034986504731386 14.2697
43.05891954686589 14.290999999999999
43.08285456110972 14.2815
43.10697856448665 14.2743
43.130917542983475 14.2052
43.15485849820081 14.2159
43.17880143167367 14.1457
43.20293342237094 14.1078
43.226880332449 14.0773
43.25082922540554 14.1481
43.27496722682525 14.0791
43.29892010567796 14.0306
43.32287497204102 14.005
43.34683182745632 13.9586
43.370977859791836 13.9274
43.39493871351105 13.9524
43.41890156092628 13.9396
43.44286640358341 13.8797
43.46702049182749 13.8971
43.49098934522816 13.8405
43.51496019852649 13.8238
43.5389330532723 13.8589
43.56309522248204 13.7895
43.58707210044314 13.8023
43.61105098451946 13.7491
43.63503187626491 13.7525
43.659202151562134 13.6946
43.68318707902681 13.6319
43.70717401884041 13.5971
43.731162972560874 13.6094
43.75534137913236 13.5628
43.779334381108384 13.5753
43.803329401683186 13.5301
43.82732644241872 13.5264
43.8515130055166 13.5054
43.87551410707659 13.475
43.89951723350145 13.4641
43.923709934595614 13.421
43.94771713129917 13.3833
43.97172635758096 13.4108
43.99573761501002 13.3729
44.0199385169922 13.335999999999999
44.04395385732619 13.3011
44.067971233533086 13.2948
44.09199064718605 13.2446
44.11619977548961 13.2121
44.14022328470671 13.2063
44.16424883610785 13.1947
44.18827643127035 13.2174
44.21249381139513 13.1599
44.236525514814076 13.0746
44.26055926674478 13.092
44.28459506876863 13.0808
44.3088207262813 13.0308
44.33286064928722 13.0604
44.35690262714919 13.0209
44.38094666145278 12.9961
44.4051806219871 12.984000000000002
44.42922879003185 12.9352
44.45327901929361 12.907
44.477331311362136 12.9213
44.501573600619416 12.8627
44.525630039221795 12.837
44.54968854541895 12.8192
44.573937102200176 12.8424
44.5979997645541 12.8021
44.622064499300315 12.7703
44.64613130803592 12.7606
44.67038823869318 12.757
44.69445921643748 12.7193
44.718532272981385 12.6603
44.742607409926194 12.6702
44.76687274034801 12.63
44.79095205918753 12.6278
44.81503346325094 12.5915
44.839116954143876 12.578
44.86339071028742 12.5393
44.88747839599524 12.5451
44.91156817336837 12.5006
44.93566004401666 12.4721
44.959942251908146 12.4647
44.984038330325966 12.4284
45.00813650686762 12.404000000000002
45.03223678314731 12.3774
45.05652746888232 12.3153
45.08063196592069 12.3351
45.104738567558705 12.3204
45.128847275414856 12.2486
45.15314646515866 12.2481
45.17725940679741 12.2636
45.20137445952892 12.2104
45.22568004865265 12.1823
45.24979934496396 12.2033
45.27392075725247 12.1847
45.29804428714431 12.1899
45.322358426247604 12.1263
45.346486212804315 12.0935
45.370616121861914 12.0685
45.39474815505086 12.0576
45.41907087049246 11.9779
45.4432071734666 11.9926
45.46734560548283 12.005
45.49148616817604 12.0368
45.51581748638564 11.9673
45.5399623320197 11.9513
45.56410931325473 11.9346
45.58825843173002 11.9451
45.61259837920865 11.8682
45.636751793816 11.8658
45.66090735060093 11.8353
45.68506505120716 11.8331
45.7094136545275 11.8026
45.73357566449271 11.7291
45.75773982322992 11.7634
45.78190613238733 11.7452
45.806263418194064 11.7025
45.83043404997326 11.6795
45.85460683713677 11.6829
45.87897065658495 11.6801
45.90314777634752 11.6384
45.92732705646868 11.5747
45.9515084986045 11.5856
45.97588104735473 11.5765
46.00006683541565 11.495
46.02425479047904 11.4789
46.04844491420549 11.513
46.0728262191024 11.5061
46.09702070211635 11.4815
46.12121735879483 11.4636
46.14541619080294 11.4357
46.169806278764455 11.4245
46.194009483459034 11.4039
46.21821486849841 11.3505
46.24242243555223 11.3446
46.266821333570014 11.2999
46.29103328674601 11.2655
46.31524742696538 11.3258
46.33946375590237 11.2687
46.36387149104216 11.206
46.38809221957392 11.1868
46.41231514186606 11.1903
46.436540259597464 11.2025
46.460956858999374 11.1614
46.48518638983522 11.1469
46.509418121166966 11.1172
46.533652054678114 11.088
46.55807754555709 11.0437
46.58231590571962 11.0781
46.60655647313217 11.0328
46.630988654873654 10.9552
46.655233659129024 10.9684
46.67948087571551 10.9246
46.70373030632484 10.9314
46.72817142736393 10.9509
46.752425308428684 10.9488
46.77668140861147 10.9101
46.80093972960865 10.8117
46.82538981736788 10.8168
46.849652602470904 10.7882
46.87391761349769 10.7795
46.8981848521493 10.7777
46.9226439341274 10.773
46.946915650573224 10.7114
46.97118959976749 10.7105
46.99546578341598 10.6938
47.019933887188216 10.7071
47.04421456235744 10.6872
47.06849747711879 10.6846
47.09278263318286 10.6225
47.11725978640143 10.5747
47.14154944775105 10.5681
47.165841355555656 10.5366
47.1901355115306 10.5457
47.214621741924994 10.5656
47.23892041698887 10.5103
47.26322134538975 10.474
47.28771440635075 10.4608
47.31201986422527 10.4929
47.33632758061436 10.4249
47.360637557241866 10.425999999999998
47.38513974410611 10.4124
47.40945426407847 10.3578
47.43377104948137 10.3582
47.45809010204344 10.3351
47.48260144275502 10.3353
47.506925052572285 10.3003
47.53125093475548 10.2547
47.55557909103813 10.2661
47.58009961361992 10.2471
47.60443234110732 10.2077
47.62876734791564 10.1919
47.65310463578333 10.1752
47.6776343683373 10.161
47.7019762413987 10.1248
47.72632040075572 10.1106
47.75066684815169 10.0976
47.77520581885936 10.0819
47.799556865477655 10.041
47.823910205386 10.0339
47.84826584033272 10.0236
47.87281407745551 9.99699
47.89717432569297 10.0334
47.92153687423484 9.99886
47.94609208429692 9.95478
47.97045925671401 9.94909
47.99482873471275 9.9277
48.01920052005013 9.89161
48.04376504619224 9.84791
48.068141469543484 9.88752
48.09252020552573 9.82727
48.11690125590099 9.824819999999999
48.1414751266064 9.833739999999999
48.16586082917454 9.816980000000001
48.19024885144316 9.81427
48.2146391951793 9.78808
48.239222439012764 9.76197
48.26361744916137 9.774569999999999
48.28801478610016 9.75098
48.31241445160131 9.72233
48.337007097209366 9.7125
48.36141144338331 9.69615
48.38581812345755 9.663310000000001
48.41022713920929 9.635660000000001
48.434829215320704 9.616810000000001
48.45924292604658 9.60466
48.48365897780325 9.55683
48.50807737237308 9.5668
48.532688907799276 9.56194
48.55711201168574 9.513639999999999
48.581537463754074 9.49724
48.60615611725119 9.49155
48.63058628942721 9.50827
48.65501881516546 9.44793
48.6794536962573 9.42174
48.70408185970339 9.4022
48.72852147531801 9.38182
48.75296345168211 9.35153
48.77740779059232 9.3889
48.80204549302823 9.35211
48.82649458091802 9.32966
48.85094603676547 9.29527
48.87539986237231 9.27079
48.90004713292306 9.275310000000001
48.92450572200832 9.280439999999999
48.94896668628025 9.287469999999999
48.97343002754588 9.21347
48.99808689542115 9.17888
49.02255501470614 9.21643
49.04702551642794 9.19021
49.0714984023988 9.12753
49.096164896893235 9.15553
49.120642575466796 9.114510000000001
49.145122643748394 9.14812
49.16960510355558 9.0905
49.19428125404938 9.08838
49.2187685210852 9.08584
49.243258185121555 9.05745
49.26794160167084 8.978110000000001
49.2924360839405 8.965760000000001
49.31693296869764 8.980839999999999
49.34143225776915 8.95335
49.36612538195438 8.96486
49.39062950396021 8.94386
49.41513603578346 8.90199
49.4396449792564 8.884089999999999
49.46434784069503 8.858189999999999
49.488861631846454 8.875160000000001
49.513377840166804 8.86133
49.537896467493745 8.81563
49.56260909589029 8.78505
49.587132585683285 8.81379
49.611658500018365 8.784180000000001
49.636186840738596 8.77232
49.66090926588511 8.74197
49.685442483902584 8.73294
49.70997813385706 8.69627
49.734516217597076 8.666730000000001
49.75924846937352 8.66121
49.7837914452858 8.65616
49.80833686055187 8.63671
49.83288471702571 8.61858
49.85762682540054 8.64765
49.882179588965734 8.61208
49.9067347993235 8.57369
49.93129245833333 8.579369999999999
49.95604445336378 8.541910000000001
49.98060703442832 8.50842
50.005172069746266 8.47931
50.02993150438364 8.469289999999999
50.05450147301533 8.4995
50.07907390151433 8.44771
50.10364879174981 8.451039999999999
50.12841816587289 8.4488
50.1529980044635 8.40554
50.17758031042124 8.3734
50.20216508562089 8.39161
50.22694442953363 8.392539999999999
50.25153416817468 8.35784
50.27612638170508 8.33328
50.300721072005196 8.2968
50.325510416102105 8.314160000000001
50.350110084975064 8.286439999999999
50.37471223628208 8.25553
50.39931687190919 8.23321
50.424116246675766 8.2596
50.44872587605249 8.22592
50.47333799543065 8.227839999999999
50.49795260670191 8.21315
50.52276204271512 8.1722
50.54738166295838 8.16601
50.57200378079314 8.11609
50.596628398116835 8.0769
50.62144792604559 8.0924
50.646077567609396 8.12168
50.670709714377715 8.090869999999999
50.69553683636198 8.07085
50.72017401885922 8.04622
50.7448137122895 8.01648
50.76945591856022 8.07542
50.79429318636823 8.02078
50.818940443716784 7.972230000000001
50.84359021965163 7.96367
50.868242516085964 7.95334
50.893089960641895 7.96444
50.917747323549435 7.9214199999999995
50.94240721271973 7.9275899999999995
50.96706963007175 7.8562899999999996
50.99192728239342 7.86033
51.01659478166073 7.898610000000001
51.04126481489051 7.86959
51.06593738400761 7.851839999999999
51.090805275207074 7.8398699999999995
51.11548294172845 7.79967
51.14016314993547 7.788469999999999
51.164845901758845 7.8075399999999995
51.18972406304274 7.75835
51.21441192780656 7.716
51.23910234200271 7.71024
51.2637953075678 7.68261
51.288683770237945 7.6775899999999995
51.31338186432707 7.671239999999999
51.33808251561888 7.642060000000001
51.362978729967345 7.6967300000000005
51.387684521509755 7.6761800000000004
51.41239287610203 7.62343
51.437103795691165 7.5944199999999995
51.46201036644977 7.56575
51.486726441956634 7.5441899999999995
51.51144508832545 7.55015
51.536166307509156 7.54605
51.56108326624387 7.521389999999999
51.58580965706056 7.527360000000001
51.61053862657523 7.4969
51.635270176746864 7.4423699999999995
51.66019755512065 7.428660000000001
51.68493429268881 7.470330000000001
51.70967361681515 7.42116
51.73441552946465 7.44337
51.759353359237934 7.440860000000001
51.7841004750961 7.411510000000001
51.80885018539685 7.36448
51.833602492111254 7.3282300000000005
51.8585508051424 7.332380000000001
51.883308330926425 7.342810000000001
51.90806845906181 7.28015
51.932831191525715 7.3228800000000005
51.95779001977161 7.26883
51.98255798721516 7.24758
52.00732856494335 7.2198899999999995
52.03229530577543 7.25436
52.057071130455945 7.236160000000001
52.081849571391054 7.20874
52.106630630568695 7.18439
52.13160794279417 7.179880000000001
52.15639426492067 7.13858
52.18118321127822 7.1334100000000005
52.205974783860896 7.09647
52.23096269971011 7.11267
52.255759551287994 7.09598
52.280559035098186 7.09428
52.30536115314103 7.06255
52.33035970494467 7.03539
52.35516711807904 7.04485
52.37997717147198 7.03592
52.40478986713005 7.02575
52.42979908731974 6.966010000000001
52.454617094216 6.981560000000001
52.47943774942214 6.988510000000001
52.50426105495102 6.96335
52.529280976059844 6.916110000000001
52.554109609024096 6.90897
52.57894089837482 6.89708
52.60377484613117 6.88138
52.62880550079408 6.859319999999999
52.65364479223379 6.87546
52.67848674816189 6.863460000000001
52.70352547971946 6.8485
52.72837279155837 6.83855
52.753222773982785 6.786739999999999
52.778075429022984 6.81694
52.80312495150885 6.76841
52.827982978797436 6.765339999999999
52.85284368481815 6.7532
52.87770707160767 6.71882
52.90276741793998 6.733810000000001
52.92763619336701 6.71467
52.952507655698504 6.70975
52.977381806977576 6.62834
53.00245301017842 6.6605
53.02733256653592 6.67058
53.052214817996074 6.65412
53.077099766608484 6.666860000000001
53.102181859804446 6.627560000000001
53.127072229988265 6.58902
53.15196530349892 6.57852
53.17686108239249 6.59541
53.20195409881522 6.5974699999999995
53.22685531582556 6.53331
53.25175924441303 6.51157
53.27666588664027 6.5492
53.30176985962693 6.51031
53.3266819565689 6.50547
53.35159677336455 6.5041400000000005
53.376514312083096 6.4665
53.40162927507703 6.44601
53.42655228516116 6.4115
53.45147802340193 6.3798
53.47660125628886 6.37268
53.50153247842639 6.3761
53.52646643496923 6.34945
53.55140312799818 6.37681
53.576537409691696 6.35735
53.60147960336152 6.30216
53.626424539786164 6.3028900000000005
53.65137222105307 6.32223
53.67651758529126 6.31281
53.70147078399681 6.30403
53.72642673383343 6.293419999999999
53.75138543689533 6.2251199999999995
53.776541917524526 6.25026
53.801506154876755 6.24179
53.826473151763246 6.18196
53.851442910284916 6.18398
53.87661054126026 6.1981
53.9015858509782 6.17579
53.92656392866066 6.133780000000001
53.95154477641532 6.1647
53.976723591801296 6.1128
54.00171000771266 6.15165
54.02669920004598 6.10034
54.051691170915745 6.07751
54.076881204886796 6.06353
54.101878760928514 6.05898
54.12687910187696 6.02108
54.152077577768296 5.9827699999999995
54.1770835166946 6.00946
54.20209224691339 6.06224
54.22710377055121 6.02643
54.25231352511594 6.01692
54.27733066384342 5.92505
54.30235060239643 5.97323
54.32737334290836 5.90816
54.35259441062629 5.8961
54.377622783395324 5.90756
54.40265396455061 5.8548599999999995
54.42768795623251 5.8221
54.45292037169559 5.87221
54.477960012857906 5.8327800000000005
54.50300247099511 5.82987
54.52804774825457 5.803780000000001
54.55329154616743 5.74466
54.57834249018678 5.7748099999999996
54.6033962597977 5.72662
54.6284528571545 5.68569
54.653708072335164 5.66977
54.67877035378786 5.70899
54.70383546947698 5.64968
54.72890342156389 5.60182
54.7541700889442 5.542619999999999
54.77924374251975 5.524769999999999
54.8043202390049 5.57704
54.82959552413022 5.54293
54.8546777351945 5.48902
54.87976279569621 5.4764
54.90485070780914 5.50422
54.930137506558005 5.45231
54.95523115074295 5.52886
54.98032765308844 5.44108
55.005427015775496 5.42601
55.03072536339621 5.3864
55.05583047570572 5.35208
55.080938454927676 5.3438099999999995
55.10604930325027 5.29108
55.131359235107396 5.33657
55.15647585066083 5.3167800000000005
55.181595341907496 5.2464699999999995
55.20671771104285 5.25393
55.232039262617704 5.2089300000000005
55.25716741665048 5.1946900000000005
55.28229845518636 5.19859
55.30743238042802 5.12864
55.33276558731939 5.10151
55.357905315183636 5.13924
55.383047936390035 5.10626
55.40819345314859 5.08157
55.433538351073295 5.06376
55.458689688238415 4.99801
55.483843927614096 4.92349
55.509197623043605 4.9678
55.53435769621134 4.95886
55.55952067826466 4.95364
55.5846865714265 4.93025
55.61005202069737 4.86942
55.63522376553902 4.8918099999999995
55.66039842818645 4.88799
55.68557601087004 4.875369999999999
55.7109532500271 4.82722
55.73613670233794 4.885619999999999
