TT I
1.2716486653135266 7.22226
1.2939594142134223 6.51121
1.3162702121660406 6.51779
1.3385810600174564 6.87475
1.3608919586137629 6.303640000000001
1.383202908801069 5.71344
1.405513911425503 5.87769
1.4278249673332093 6.429819999999999
1.4501343378461518 6.50924
1.4724455028545926 6.10157
1.4947567236847858 6.23401
1.517068001182951 6.435969999999999
1.5393793361953272 5.71931
1.5616907295681737 4.8259
1.5840021821477681 5.32062
1.60631369478041 4.81101
1.6286252683124185 5.27489
1.6509369035901333 4.66392
1.6732468618895553 4.94751
1.695558623192809 4.79208
1.7178704487808514 4.3327
1.7401823395001077 4.087269999999999
1.7625012545597203 4.980980000000001
1.7848028405262486 4.60136
1.8071218901122095 4.72734
1.8294236121921872 4.86653
1.8517427996910911 4.71977
1.8740620574440425 4.90394
1.8963639900671978 4.7659
1.9186833908139995 4.79584
1.9409854680117449 4.53491
1.9633050151394713 5.31353
1.9856246367570705 4.58214
2.0079269371922672 4.3484300000000005
2.03024671027244 4.877680000000001
2.0525491637446027 4.81602
2.074869091674931 4.26728
2.097171701569106 4.48451
2.1194917877373847 4.62632
2.141811954326636 5.26003
2.164114805233074 4.54996
2.186435135143035 5.39044
2.208738150935709 10.9208
2.231058647554722 21.6687
2.2533792288321184 15.9777
2.275682498336085 7.99598
2.298003251406138 5.799519999999999
2.3203066942619714 5.24796
2.3426276225136022 5.2942
2.3649486396617507 5.6451199999999995
2.387252348930071 5.91421
2.4095735463442893 5.7983
2.4318774374315884 5.59649
2.4541988185014043 6.40747
2.476502894794693 7.32308
2.498824462909887 7.43372
2.521146125856138 7.1936800000000005
2.5434504863470337 7.928719999999999
2.5657723414244717 8.6149
2.588076895590662 8.453439999999999
2.610398946189713 8.15713
2.6327210958598384 7.51653
2.6550259469304716 7.892010000000001
2.6773482972090137 7.82458
2.6996533504259 7.86788
2.7219759047039602 8.393469999999999
2.744298562293959 8.1116
2.7666039251246595 7.774430000000001
2.7889267918020164 8.26675
2.8112323652516555 8.64056
2.833555444408179 8.71451
2.8558786311183852 8.32548
2.8781845268938557 8.2945
2.9005079311721484 8.91018
2.9228140460410397 9.22902
2.9451376712799635 9.26454
2.967444008632326 9.61138
2.9897678582247247 9.63372
3.0120918213106695 10.2496
3.0343984987899373 11.4124
3.0567226913198637 10.9744
3.079029599759726 11.9091
3.101354025127254 12.1366
3.123678568232338 12.6802
3.145985829517914 12.9555
3.16831061055229 13.6787
3.1906181112775593 13.7483
3.212943133635653 14.9329
3.2352682779763207 15.4383
3.2575761442691227 14.9527
3.2799015350264273 15.3999
3.302209649240067 16.377
3.3245352898092655 16.6685
3.3468436553365257 17.1245
3.369169549113219 17.9602
3.3914955708171384 18.7327
3.413804319727358 18.5499
3.4361305997334863 18.7583
3.4584396084414553 19.3025
3.4807661501462652 19.7161
3.503092824025881 20.5059
3.5254022288463154 20.862
3.5477291695206588 21.146
3.5700388426251948 21.9873
3.5923660534916446 23.5852
3.6146934007816114 34.6805
3.637003482731501 68.795
3.6593311053109985 74.6099
3.681641464033634 45.9758
3.7039693653009733 28.3043
3.726297407241705 25.8643
3.7486081875460804 25.3783
3.7709365132734978 25.9511
3.793247578841633 26.0712
3.8155761917550093 26.9006
3.8378875459837216 27.1493
3.8602164494827234 27.2272
3.882545499606844 27.7175
3.9048572932539183 28.4804
3.9271866390645718 29.1726
3.9494987298666713 29.5992
3.971828374764527 30.1462
3.9941581705403255 30.5326
4.016470713506008 30.9547
4.038800813471445 31.9013
4.061113662089144 32.3554
4.0834440696459176 33.0273
4.105774632334751 33.56
4.128087945865126 34.6212
4.150418821249301 35.4686
4.172732448931298 36.1745
4.195063640413578 38.0877
4.2173775856475215 41.2416
4.239709096631102 65.5824
4.262040768704612 180.49099999999999
4.284355196706267 234.793
4.306687193387355 153.154
4.329001947444346 68.439
4.35133427213731 46.3785
4.373666762177566 44.0481
4.395982011761091 43.8588
4.418314834921175 45.0776
4.44063041906622 50.9834
4.4629635787515625 59.0714
4.4852969080429785 58.6912
4.5076130004776225 52.3878
4.529946671403969 52.3728
4.552263106909177 53.3912
4.574597122877047 52.7803
4.596931312711224 52.7907
4.619248269273446 53.0296
4.6415828092605835 54.1531
4.663900117405352 55.1693
4.686235010953232 56.8133
4.708552674085913 57.7122
4.730887924602802 59.4706
4.753223354952695 61.047
4.775541557023902 62.7341
4.797877349456786 65.1803
4.820195915032126 66.2119
4.842532072957498 67.1959
4.864868414979744 69.9179
4.88718753227192 72.3942
4.909524244902505 74.0496
4.931843734218147 75.2307
4.954180820867835 76.7489
4.976518095879839 80.3636
4.998838149695359 83.1905
5.021175803844231 86.2055
5.043496238205739 89.4697
5.065834274903528 93.4147
5.088172504230693 97.85700000000001
5.1104935158799565 104.49799999999999
5.132832132875765 125.383
5.155153533596801 158.44799999999998
5.1774925416746225 187.757
5.199814334878411 329.07599999999996
5.2221537374521505 898.7189999999999
5.244493338631803 2730.13
5.266815727034316 7653.19
5.289155727832427 12346.2
5.311478517248165 8613.44
5.333818921080011 2753.46
5.356159527788849 526.9169999999999
5.3784829252032536 182.873
5.400823940070432 143.94899999999998
5.423147747031976 126.88799999999999
5.445489173474152 117.501
5.467830807066149 113.806
5.490155234831516 111.05799999999999
5.512497285125229 107.306
5.534822130975162 103.46799999999999
5.557164601388673 101.141
5.579489868738879 98.9141
5.601832762690846 97.7985
5.6241758697774475 96.6851
5.646501775867269 95.9697
5.668845311622074 94.3717
5.691171647754637 93.5968
5.713515615597765 92.6367
5.735859800852677 91.8398
5.758186788542988 91.3952
5.780531411018185 92.9143
5.802858837297399 92.5521
5.825203900414495 92.7604
5.8475491852224 94.0874
5.869877275883075 94.54899999999999
5.892223006467101 93.2219
5.914551544266608 93.5261
5.936897724049891 95.1132
5.959244129804903 100.37299999999999
5.981573344815301 116.74799999999999
6.0039202049061 201.149
6.026249875609095 428.985
6.04859719346037 920.4910000000001
6.070927323278297 2186.53
6.093275102315365 4394.4
6.115623113320588 5212.61
6.137953938319995 3088.43
6.160302415650845 938.05
6.182633708324452 225.34
6.2049826554078376 109.596
6.227331838745022 89.9728
6.249663839443684 83.4421
6.27201349767565 80.5247
6.294345974611799 84.4561
6.316696111167083 91.5688
6.339046488263839 87.3423
6.361379686074702 76.2734
6.383730546639482 70.9462
6.406064229255215 68.844
6.428415576718203 68.6596
6.450749747566656 67.3792
6.47310158535871 66.0562
6.495453669698332 64.529
6.517788579421056 64.1498
6.540141159237969 63.2572
6.562476565766648 62.3861
6.5848296444934045 62.4648
6.607182974060425 61.9954
6.6295191323281015 62.2085
6.651872965955752 64.7724
6.6742096296068985 83.4304
6.6965639707294615 113.70299999999999
6.71891856698715 111.431
6.741255995248479 82.4319
6.763611104154477 64.2284
6.785949046381137 59.5024
6.808304671371482 58.3893
6.8306605557940046 58.4268
6.852999275508618 58.0072
6.875355681171544 57.1037
6.897694923437771 56.4007
6.92005185377892 56.3707
6.9423916220322655 55.758
6.964749080490181 55.6342
6.987106804399774 55.1803
7.009447368180821 55.1046
7.031805625367033 55.0827
7.054146723727803 54.9248
7.076505517631004 54.3806
7.098864581288365 54.4736
7.121206488070854 54.6691
7.143566093607822 54.8685
7.165908543567245 55.0432
7.188268694426048 55.3505
7.2106291193438095 54.9002
7.232972390625943 55.8599
7.255333366030969 66.2668
7.277677189091925 103.20299999999999
7.300038718428332 133.325
7.322400526130865 114.052
7.344745183422596 76.5592
7.367107550224791 58.6611
7.389452767901992 55.0472
7.411815697249891 54.6332
7.434161478756298 53.7913
7.456524974096713 53.9135
7.478888753837185 53.5447
7.501235387657368 54.0193
7.523599738562711 54.1731
7.545946944825532 54.3633
7.568311870344528 54.3307
7.5906770845765665 54.7186
7.613025156078678 56.0017
7.635390950099687 56.9556
7.657739602662809 56.133
7.680105979923558 55.435
7.702472650212829 55.8309
7.724822180948224 55.6655
7.747189439655568 55.8813
7.769539560075357 55.8762
7.791907410653562 56.3497
7.81425812420825 55.7652
7.836626570110925 56.2208
7.858995315087906 57.2946
7.881346924933401 57.1452
7.903716270417482 58.235
7.926068482028405 58.0825
7.948438431475253 58.6225
7.9708086843180235 59.2488
7.993161805171116 59.7746
8.015532667162402 60.6427
8.037886398416653 61.5778
8.060257873014221 61.9508
8.082629655331942 62.5218
8.104984308787587 63.4926
8.127356708900503 66.3312
8.149711981398308 71.1362
8.172085002766314 73.2373
8.194458336181368 70.8431
8.216814543847752 68.9008
8.23918850371002 69.1011
8.26154533906492 69.9875
8.283919928836452 70.8907
8.306277395339652 72.0046
8.328652618483376 73.08800000000001
8.351028159736202 75.2364
8.373386579575245 77.413
8.395762759396959 79.1685
8.418121819038275 83.5438
8.440498640894003 93.6195
8.462875785192262 105.14299999999999
8.485235811156207 118.189
8.507613602688501 159.069
8.529974277114228 242.95
8.552352719347912 373.14599999999996
8.574731488360351 645.85
8.59709314210385 1190.69
8.619472567021075 1894.44
8.64183487789147 2171.35
8.664214962183097 1737.35
8.686577933647762 905.716
8.708958680784317 354.42
8.731339760774953 157.665
8.753703729764451 108.359
8.77608547780821 97.1254
8.798450116065078 94.09100000000001
8.820832535634787 91.4854
8.843215292401656 90.8601
8.865580941199045 89.6822
8.887964374703538 89.1498
8.910330701447199 89.6495
8.932714815164482 90.7661
8.955099270424924 89.6481
8.977466620733543 86.8483
8.999851761421976 84.5102
9.022219798361645 83.3001
9.04460562795561 83.1083
9.066991803441677 82.6507
9.089360876979615 82.60600000000001
9.111747746589993 82.7169
9.13411751544971 81.26100000000001
9.156505082664324 80.9749
9.178875550323522 81.47800000000001
9.20126381862328 81.4825
9.223652438908596 81.7513
9.246023961427412 81.8195
9.26841328802173 81.4096
9.290785518039224 81.5083
9.313175554425882 82.7822
9.335565947154315 83.1774
9.357939245086508 83.3472
9.380330352834827 83.7108
9.40270436697103 83.7115
9.425096193225055 83.2545
9.447488380180165 83.6989
9.469863475295412 83.7695
9.492256385987508 83.9626
9.514632206018318 84.7311
9.537025843935714 85.3093
9.559402392368193 85.7864
9.581796761000229 87.3162
9.604191496441521 89.2421
9.626569144158516 92.0598
9.648964615551032 94.9756
9.671343000390081 95.1337
9.693739211225699 93.7762
9.716135793237463 92.2659
9.738515290448102 92.4165
9.760912617143402 93.6142
9.783292860202891 95.1318
9.805690935076182 96.5792
9.828089385495742 97.5464
9.850470754023561 99.5395
9.872869957865444 105.33
9.89525208097539 116.67299999999999
9.917652041736662 125.689
9.940052382417589 126.21700000000001
9.962435644102392 137.136
9.984836746950979 171.676
10.007220771957746 232.37400000000002
10.029622640473708 331.369
10.052007432299963 512.059
10.074410069984072 826.078
10.096813093716005 1279.87
10.119199042482517 1740.27
10.141602840636468 1921.15
10.163989564971628 1529.06
10.186394141051062 870.301
10.208799107559706 396.00199999999995
10.231187001965623 185.38099999999997
10.253592751657669 123.964
10.275981430388155 111.28
10.298387966769793 110.40899999999999
10.320794897965431 111.63600000000001
10.343184759907361 110.255
10.36559248305461 105.61399999999999
10.387983138083852 102.954
10.410391656691655 106.384
10.432800574501677 116.454
10.455192425893369 132.588
10.47760214443012 158.313
10.499994797678786 205.52599999999998
10.522405320453982 290.763
10.54479877906917 418.228
10.567210109595656 525.41
10.5896218454736 572.9780000000001
10.612016518879773 487.001
10.634429067781074 337.53
10.656824555333241 196.69799999999998
10.679237920773568 122.412
10.701651695961992 95.8319
10.724048411481384 88.314
10.746463008485165 85.5746
10.768860546937125 84.0403
10.791275969274796 82.5643
10.81369180576079 81.5812
10.836090585366925 80.7678
10.858507252467449 79.3692
10.88090686379991 78.1545
10.903324365036394 77.7331
10.925724811614439 77.7371
10.948143150509463 78.4912
10.970561909719066 77.45
10.992963615930844 76.1695
11.015383218085756 74.5514
11.037785768347074 72.8153
11.06020621697282 72.3138
11.082627090322113 71.8344
11.105030913430326 71.2418
11.12745263854165 71.3074
11.149857314510728 73.6223
11.172279894912576 77.9062
11.194702904450653 77.9895
11.217108866490921 74.4474
11.239532736615194 71.6556
11.26193956033512 70.2506
11.284364294577085 68.847
11.306789462371718 67.5195
11.329197585398376 66.609
11.351623622610898 66.4633
11.37403261614354 65.7518
11.396459526308487 65.4077
11.418869393879497 64.9377
11.441297180532617 64.6854
11.463725406927658 64.1454
11.486136592353875 64.0975
11.508565700543707 64.3612
11.530977768845315 65.8149
11.553407762368774 66.2497
11.575838200059769 65.6004
11.598251599479612 64.1894
11.620682927815501 63.2812
11.64309721895548 63.0671
11.665529441478206 62.568999999999996
11.687962112597958 62.4037
11.710377748130886 62.7133
11.732811318753434 62.3689
11.755227854859067 62.3566
11.777662328529495 62.2538
11.800079768750786 62.1177
11.822515149015453 61.9904
11.844950984084935 62.0325
11.867369787303163 61.4548
11.889806534289491 61.8025
11.912226250487029 61.9726
11.934663912939751 62.1579
11.9571020346363 62.2229
11.979523127133968 62.3922
12.001962169624331 63.2939
12.024384183972964 64.1207
12.046824150809913 67.223
12.069264581333726 71.7987
12.091687985297767 77.4362
12.11412934550045 86.6474
12.136553680195208 102.70200000000001
12.158995973632788 126.785
12.181438735204349 155.985
12.20386447284199 189.815
12.226308172985636 207.672
12.24873485024193 201.935
12.271179492516982 168.27599999999998
12.293607112949127 124.094
12.316052700916226 92.9196
12.338498763250042 75.5906
12.360927805303868 67.8278
12.383374818673879 64.9271
12.405804812803074 63.8576
12.428252780773262 63.4708
12.45070122756722 63.5362
12.473132656675375 63.3711
12.49558206341869 64.0123
12.518014453510101 63.8542
12.540464823770117 64.0894
12.562915677315177 64.4077
12.58534951575545 64.84899999999999
12.607801338171472 66.4218
12.630236146511358 70.1405
12.652688941369085 73.1608
12.675124723177234 73.3835
12.697578494048786 71.0731
12.720032754458185 68.0452
12.742470003354093 66.977
12.764925245138771 67.1583
12.787363476431278 67.411
12.809819703166806 67.8298
12.83227642391173 68.4097
12.854716135692716 68.9014
12.877173846755147 70.044
12.899614549869717 70.3808
12.9220732548287 71.2193
12.94453245827299 71.8643
12.966974655289818 72.7877
12.989434858002571 73.402
13.011878055298721 74.436
13.034339260862497 75.2619
13.056800969391883 76.2751
13.079245674017244 78.4308
13.101708390774869 80.6758
13.12415410463411 87.3773
13.146617833206086 97.8882
13.169064559883248 108.844
13.191529303857127 123.713
13.213994557076367 146.989
13.236442809902437 186.27900000000002
13.258909083908291 245.47400000000002
13.28135835851934 311.449
13.30382565690295 382.879
13.326293469022952 419.54900000000004
13.348744283242008 413.233
13.371213125129904 345.48400000000004
13.39366497011003 252.671
13.416134845360597 167.31
13.438605238843131 122.417
13.46105863690397 104.189
13.483530069144786 103.86200000000001
13.505984506951902 108.56
13.528456981549432 118.05
13.550929978879088 132.998
13.573385983253365 158.63
13.595860028340867 198.545
13.618317081455832 252.574
13.64079217790333 309.582
13.663250283359057 356.505
13.685726434770173 362.111
13.708203115221277 329.01099999999997
13.730662806148091 256.512
13.75314054697177 179.13299999999998
13.775601299246777 125.647
13.798080104050406 96.0965
13.820559442405358 84.624
13.843021793671388 80.9254
13.865502201420897 79.1623
13.887965623051947 78.4845
13.910447103807167 77.648
13.932929122629764 76.4524
13.955394156785959 76.1106
13.977877254034569 75.258
14.000343367582113 74.2692
14.022827546871707 73.8456
14.045294743423524 73.0901
14.06778000837062 72.4958
14.090265817715476 72.1754
14.112734645763819 71.9795
14.13522154619454 71.5102
14.157691466286913 71.2229
14.180179461423874 71.2543
14.202668005486178 70.5813
14.22513957064374 70.0182
14.247629214846473 69.547
14.270101881097517 69.4536
14.29259262906496 69.5212
14.315083930490205 69.8138
14.337558255389705 70.196
14.360050666019726 69.8712
14.382526101071944 69.0849
14.405019624534942 68.7237
14.427513705993134 68.5304
14.449990813291825 68.3064
14.47248601302899 67.9773
14.49496423954951 68.2041
14.517460561197822 68.3075
14.539939910570322 68.0032
14.562437357763558 68.3498
14.58493536931253 69.3865
14.607416409993311 70.1333
14.62991555254159 70.3675
14.652397725157423 70.3481
14.674898002342799 69.9668
14.697398848433282 69.6177
14.719882725991326 70.4942
14.74238471217934 71.5088
14.764869730765593 74.6045
14.787372860692983 77.5476
14.809876564079925 81.7603
14.83236330125751 87.426
14.854868153850365 96.3532
14.877356041159485 110.68
14.899862046604186 130.57299999999998
14.922351087688757 157.459
14.944858249632887 186.312
14.967365991421232 211.71400000000003
14.989856770231246 221.74599999999998
15.012365673994204 214.071
15.03485761569738 186.378
15.05736768508665 144.252
15.07987833888692 111.92399999999999
15.102372032001655 89.288
15.124883856909658 76.6029
15.14737872204565 71.59100000000001
15.169891721717274 69.8526
15.192405310371893 69.6661
15.214901940621196 69.8468
15.237416709527137 69.4365
15.259914520936249 69.571
15.282430473753607 68.8011
15.304947020131227 67.7815
15.327446610371178 67.2398
15.349964346154254 66.4008
15.372465126703139 65.9553
15.394984055556009 65.7317
15.417486030076159 65.7485
15.44000615566487 65.5374
15.462526881230803 65.2042
15.485030653812652 65.3039
15.507552581617434 65.347
15.530057557334603 65.372
15.55258069104857 65.3892
15.575104429329837 65.6773
15.597611216864632 65.0351
15.620136166564563 65.4718
15.6426441664095 66.2884
15.665170331202765 68.5317
15.687697105158826 71.292
15.710206930593545 74.6033
15.732734925158933 78.7265
15.755245972089478 85.1268
15.77777519094324 94.859
15.800287463046663 108.744
15.822817909869592 128.471
15.84534897229804 150.966
15.867863089299354 172.84799999999998
15.890395385222186 188.326
15.912910736597423 189.53099999999998
15.935444269699861 179.0
15.957978423016485 149.732
15.980495633101265 118.79299999999999
16.003031029129367 93.5088
16.02554948280019 75.5752
16.048086125229432 66.8197
16.070623392487107 64.2421
16.09314371869582 63.3118
16.11568223789321 62.1528
16.13820381691126 61.2798
16.160743591742527 60.4928
16.183283996022084 59.7347
16.205807461423195 58.9753
16.228349126881973 58.3588
16.25087385432698 58.4151
16.27341678466365 57.9617
16.29594277784926 57.9401
16.31848697676433 57.8096
16.341031811604868 57.6954
16.36355971058487 57.9859
16.3861058195587 57.6911
16.40863499352978 56.7334
16.431182380342005 55.9867
16.453730407713202 55.3928
16.476261501364792 55.1001
16.498810812136167 54.8456
16.52134319004079 54.9535
16.54389378792203 54.9502
16.566445031001553 54.6609
16.588979342490088 54.453
16.61153187824822 54.458999999999996
16.634067483263312 54.3964
16.656621315414416 54.328
16.679175797408888 53.9238
16.701713349928728 54.0502
16.72426913389191 54.1456
16.74680798922351 54.3564
16.76936507887444 54.1743
16.791905240734874 54.3714
16.814463639794468 54.2163
16.837022695210294 54.1396
16.859564824093756 54.5828
16.882125194503903 55.3676
16.904668639217885 55.6605
16.927230328348003 55.8266
16.949792678493612 55.6272
16.972338104193863 55.0693
16.994901778652235 54.8
17.017448529496576 54.9223
17.040013531998152 55.3526
17.06257920018044 55.7047
17.0851279459922 56.4135
17.107694947817667 57.2362
17.130245028099072 57.9124
17.15281336730298 59.0347
17.17536478578733 60.9507
17.19793446610687 63.602
17.220504818648422 66.6978
17.243058251703697 70.1024
17.265629950971032 74.4808
17.288184731571736 78.919
17.310757781306908 82.2355
17.33333150794385 82.3418
17.355888317140174 80.5915
17.37846339986244 75.3416
17.401021565958885 69.6349
17.42359800851343 64.4677
17.44617513265564 61.153999999999996
17.468735341390783 59.6063
17.491261035594565 58.5692
17.51396340099364 58.2533
17.536490463869136 58.5392
17.559018209820174 58.4858
17.58154663977963 58.4686
17.604251766089718 58.8257
17.626781572227713 58.9152
17.64931206518155 59.1747
17.671843245885103 59.8282
17.69455114821572 59.8062
17.717083712612634 60.1772
17.739616967569667 60.4515
17.762150914021706 60.5972
17.78486160749854 60.7514
17.807396945166804 61.458999999999996
17.829932977143503 62.2301
17.85246970436452 63.661
17.875183204129467 65.4335
17.897721330097664 67.3961
17.920260154126645 69.6643
17.942799677153296 72.5061
17.9655159983646 76.4998
17.988056927677544 82.2823
18.010598558807683 90.4036
18.033140892692916 100.90899999999999
18.05586005052525 112.07700000000001
18.07840379824407 123.11
18.10094825154059 132.357
18.12366954819864 137.648
18.146215420998306 135.872
18.16876200220057 127.083
18.191309292745153 114.185
18.214033452627167 101.9
18.236582170236648 91.081
18.259131600016456 86.1896
18.281681742907335 86.7538
18.304408781233683 91.2337
18.32696035875955 96.5951
18.349512652227624 100.23100000000001
18.372065662579683 104.113
18.394795594587553 103.762
18.41735004715306 100.39
18.43990521943684 93.0397
18.46246111238171 84.4102
18.485193953325208 75.7387
18.507751296070428 68.9347
18.530309362314178 65.0234
18.552868153000343 62.7771
18.57560391815056 61.2952
18.59816416623245 60.9992
18.620725141597372 60.6291
18.643286845190268 60.2218
18.666025549835414 59.9916
18.688588718427933 59.1164
18.711152618092243 58.8229
18.73389353884365 58.6675
18.75645890921984 58.3453
18.77902501351406 58.0103
18.801591852673102 58.1175
18.824335739722738 57.6656
18.846904057212626 57.3926
18.8694731124168 57.0963
18.89204290628315 57.1853
18.914789774966803 57.0533
18.937361054791623 56.826
18.959933076131318 56.4655
18.982505839934877 56.4693
19.00525570560582 56.4022
19.027829963004184 56.2269
19.05040496572238 56.1568
19.072980714710468 56.1433
19.095733592739563 56.4234
19.11831084296757 56.6347
19.140888842324735 57.0178
19.16346759176222 57.4032
19.18622349753803 57.8406
19.208803755869358 58.786
19.231384767143577 59.9605
19.253966532312948 61.5638
19.276725481241822 63.8555
19.29930876296784 66.5197
19.3218928014549 69.3267
19.34465404436217 71.9913
19.36723960516257 74.3834
19.389825925592426 74.6309
19.412413006605938 74.0868
19.43517731967805 70.1741
19.457765930683355 66.1824
19.48035530514408 61.845
19.50294544401556 58.5174
19.525712842708348 55.9442
19.54830451925909 54.4836
19.570896963095727 53.5746
19.593490175174704 53.1581
19.616260674962184 53.2132
19.638855432416964 53.1186
19.661450960992624 53.3207
19.68404726164677 52.9582
19.706820878021247 52.7813
19.729418731756834 53.1013
19.752017360452857 52.9801
19.77461676506804 52.8812
19.797393513540218 52.9106
19.819994478951667 53.2518
19.84259622316767 53.7525
19.8651987471481 54.2335
19.887978643247177 54.4576
19.91058273574792 54.7376
19.933187610901943 55.3906
19.955969879466828 56.8093
19.97857632894404 58.3611
20.00118356396599 60.1184
20.023791585494575 62.3093
20.046577028914875 65.1951
20.069186632506966 67.1084
20.091797025500632 68.6837
20.114408208858933 69.0607
20.137196842715273 68.6448
20.159809615886765 67.3312
20.18242318232135 64.7739
20.20503754298326 63.006
20.227829382875154 61.8814
20.250445341109344 61.91
20.27306209647285 62.6652
20.29567964993108 63.7304
20.31847471147704 64.5664
20.34109387027612 64.8252
20.363713830075454 64.2529
20.386334591841646 62.7926
20.409132890679302 60.3486
20.431755265564437 57.3187
20.454378445325528 54.982
20.477002430930366 52.89
20.499803982716553 51.765
20.522429589228004 50.9358
20.54505600449589 50.4091
20.567683229489194 50.1889
20.590488049900088 49.9634
20.61311690359731 49.6008
20.63574656993626 49.5753
20.658553853717297 49.2494
20.681185154618298 49.1251
20.703817271080066 49.0836
20.72645020407368 48.6526
20.749260783967177 48.4334
20.771895359337133 48.3858
20.794530754161617 48.3892
20.817166969412938 48.353
20.83998086114876 48.3351
20.86261872660049 48.358999999999995
20.885257415405402 48.1604
20.90789692853701 48.1248
20.930714147864748 48.1339
20.953355319030678 48.1032
20.97599731745334 48.1804
20.99864014410749 47.983000000000004
21.021460706796564 48.2339
21.044105199328826 48.4274
21.06675052302631 48.5247
21.089396678865015 48.6701
21.112220600704806 48.9852
21.134868430275347 49.1894
21.15751709492456 49.6439
21.180166595629693 50.001999999999995
21.202993892429635 50.2881
21.22564507473034 50.5981
21.24829709602816 50.7291
21.27112693608965 50.6793
21.293780644891275 50.7373
21.316435195634053 50.2086
21.339090589297417 49.5053
21.361923832041875 49.1603
21.384580921090404 48.2445
21.407238856007325 48.0573
21.429897637773326 47.9666
21.45273429906592 47.8164
21.475394784108598 47.8722
21.498056118951983 47.7508
21.520718304578022 48.0017
21.543558400304388 47.9851
21.566222297108816 48.2849
21.58888704765135 48.3644
21.61155265291521 48.6236
21.63439619898156 49.0376
21.657063523335786 49.1877
21.67973170537063 49.681999999999995
21.7024007460706 50.1893
21.72524775840385 51.0379
21.747918526116475 52.1217
21.770590155457388 53.4724
21.79326264741238 55.0315
21.816113141960237 56.7588
21.838787368860547 58.7701
21.861462461341976 60.5159
21.884315579735777 62.1323
21.90699241312273 63.0568
21.92967011506078 63.6124
21.95234868653799 63.1061
21.9752053151131 62.0512
21.997885635446785 60.2462
22.020566828293532 58.5779
22.04324889464272 57.1922
22.066109049404666 56.1073
22.088792872571794 55.4373
22.111477572219204 55.3718
22.1341631493376 55.3484
22.157026846313123 55.032
22.179714188221507 54.3879
22.202402410582668 53.3454
22.22509151438863 52.0708
22.24795876962584 50.7619
22.270649646204486 49.8803
22.293341407213727 49.2106
22.316034053646906 48.7217
22.338904883215342 48.6073
22.36159931041458 48.4291
22.38429462602756 48.4733
22.40699083104897 48.2493
22.429865251039757 48.2374
22.452563244831367 48.2201
22.47526213102522 48.4342
22.49813925616515 48.1331
22.520839937143307 48.0216
22.543541513520587 48.0952
22.56624398629403 48.0583
22.589124730075895 48.0248
22.611829005656723 48.1192
22.63453418063466 48.0191
22.657240256008077 48.2759
22.680124634582935 48.4995
22.70283252079775 48.5909
22.725541310413075 48.9304
22.74825100442868 49.0683
22.771139033969575 49.5797
22.79385054687155 49.9435
22.81656296718292 50.715
22.83927629590484 51.5835
22.862167992606945 52.7945
22.88488314827121 53.8951
22.907599215359284 54.6877
22.93031619487366 55.894
22.953211574954405 56.6524
22.975930389478226 56.9306
22.998650119445763 57.0
23.02137076586092 56.3396
23.044269845560063 55.1191
23.06699233506288 53.6187
23.089715744034912 52.0308
23.112617610931565 50.4688
23.135342869061212 49.3043
23.158069049684816 48.72
23.1807961538087 48.3416
23.20370174880544 48.3182
23.226430710184808 48.3003
23.249160598093425 48.2806
23.271891413539002 48.1815
23.294800752937697 48.2035
23.31753343374794 48.4997
23.340267045128353 48.5536
23.36300158808808 49.0378
23.38591468821339 49.4039
23.408651104658304 49.7703
23.431388455719986 50.2324
23.454126742409 51.288999999999994
23.4770436196085 52.3411
23.499783787914662 53.5884
23.522524894889884 54.6826
23.54526694154616 55.6107
23.56818761219047 56.4648
23.59093154860734 56.8652
23.613676427751283 57.1659
23.636422250635754 56.0915
23.659346731118656 54.7923
23.68209445191868 52.8919
23.704843119509587 50.8143
23.72759273490623 49.0041
23.750521041644767 47.7773
23.77327256312355 46.8204
23.796025035462787 46.1784
23.818956224555475 45.6229
23.841710609113413 45.4573
23.86446594758979 45.4012
23.887222241002014 45.0663
23.910157285144578 44.7873
23.932915498962537 44.8572
23.955674670778713 44.5519
23.978434801611975 44.3627
24.001373717286125 44.2179
24.024135776723917 44.1114
24.046898798245582 44.0752
24.06966278287146 44.0539
24.092605586582614 43.6758
24.115371508023642 43.6454
24.1381383956401 43.474
24.16090625045381 43.6481
24.183852958731244 43.593
24.206622758582608 43.3391
24.229393528706886 43.099
24.252165270127392 43.2011
24.27511589952438 43.1061
24.297889594216997 42.8966
24.32066426328598 42.8142
24.34343990775613 42.8169
24.36639447485003 42.6329
24.38917208083877 42.6636
24.41195066531332 42.7156
24.43490819850244 42.63399999999999
24.457688750692377 42.4325
24.48047028445616 42.5603
24.503252800821233 42.6331
24.526214300784112 42.7053
24.548998793132213 42.7432
24.57178427117417 42.5165
24.59457073593893 42.5139
24.617536219319863 42.3386
24.64032466834748 42.4716
24.663114107195035 42.4608
24.685904536893013 42.1724
24.708874020360852 41.9786
24.731666442613744 41.9883
24.754459858818787 41.9801
24.777254270007962 41.8097
24.80022777025625 41.8356
24.82302418230472 41.8749
24.845821592443674 41.7178
24.86862000170663 41.8261
24.891597535453727 41.5847
24.914397953892728 41.8861
24.93719937456671 41.7202
24.96000179851076 41.8452
24.98298338249997 42.0262
25.00578782394922 42.3587
25.028593271784167 42.4391
25.05157790644186 42.7207
25.07438537804115 42.9381
25.097193859145293 43.1237
25.120003350792075 43.3892
25.142992065061257 43.7436
25.165803588823465 43.9018
25.18861612625217 44.161
25.211429678386736 44.1038
25.234422489079968 44.2199
25.257238081693636 44.4354
25.280054692141732 44.5101
25.3028723214652 44.4087
25.325869245420463 44.4641
25.348688923599397 44.4246
25.371509623787006 44.3631
25.394331347025812 44.0725
25.41733240110666 43.5513
25.440156181590016 42.9272
25.46298098826268 42.4914
25.48580682216873 41.9418
25.50881202326435 41.3574
25.53163992281684 40.9514
25.55446885274561 40.7785
25.577298814096377 40.4607
25.600308179121807 40.3102
25.623140214533745 40.4951
25.64597328451537 40.2795
25.66898578564376 39.9822
25.691820936010206 40.1803
25.714657124097695 40.0897
25.737494350954734 40.0764
25.760511045684957 39.8813
25.783350361364224 40.0294
25.806190718969255 40.1324
25.82903211955018 40.1213
25.852053024868923 40.0357
25.874896522722523 40.176
25.897741066713106 40.1966
25.920586657892454 40.367
25.943611790812668 40.4126
25.966459487728237 40.5571
25.989308234998564 40.5547
26.01215803367705 40.887
26.03518741123814 41.003
26.05803932412957 41.2912
26.080892291600094 41.1911
26.10374631470478 41.1757
26.12677995397268 41.326
26.14963609978026 41.1795
26.172493304397875 40.8781
26.19535156888223 40.7225
26.218389486949604 40.3579
26.241249882640123 40.0032
26.26411134137826 39.8574
26.28715248187403 39.7769
26.31001607820869 39.6187
26.3328807407756 39.4995
26.35574647063438 39.7011
26.37879191991473 39.6302
26.401659795896734 39.7084
26.424528742360263 39.7989
26.447398760366614 39.9599
26.470448535598294 40.0937
26.49332070826805 40.3403
26.516193955675355 40.6333
26.53906827888316 40.8784
26.562122397260108 41.1478
26.584998883685063 41.339
26.607876449110325 41.4599
26.63075509460056 41.6907
26.65381357334404 41.7999
26.67669439061878 41.7009
26.699576291163382 41.6405
26.722459276044212 41.5233
26.745522132402975 41.2962
26.768407297649354 41.0386
26.791293550442003 40.6033
26.814180891848974 40.3916
26.837248143099337 40.0202
26.860137673466657 39.9981
26.88302829566349 39.6586
26.90592001075963 39.5618
26.92899167420566 39.5284
26.951885586870763 39.09
26.974780595655517 38.8912
26.99785558178161 38.8552
27.020752794605112 38.7136
27.043651106772522 38.4827
27.06655051935668 38.494
27.089629948036183 38.3602
27.112531573292053 38.3153
27.135434302194138 38.3073
27.158338135817015 38.1272
27.181422024430987 38.2839
27.204328079372566 38.2085
27.22723524226965 38.0724
27.250143514198573 38.0986
27.273231880156334 38.0851
27.296142382065014 37.9147
27.319053996245536 37.8686
27.341966723775965 38.0011
27.365059584515222 38.1446
27.38797455070062 38.1458
27.410890633481237 37.9475
27.433807833936918 38.1128
27.456905206923906 38.0253
27.47982465472398 38.0358
27.502745223449743 38.2076
27.525666914182825 38.4001
27.548768816912457 38.2848
27.571692763693633 38.041
27.59461783573812 37.9706
27.617723149491244 37.8044
27.640650484125285 37.7931
27.66357894728264 37.6803
27.686508540048052 37.7395
27.709618414237887 37.6285
27.732550278321757 37.4107
27.755483275279115 37.5786
27.778417406196485 37.4159
27.801531858397514 37.4641
27.824468269376716 37.3998
27.847405817586786 37.428000000000004
27.870344504116094 37.5871
27.893463551932008 37.7909
27.916404527281053 37.9842
27.93934664422563 37.9921
27.962289903855886 38.1344
27.98541356491974 38.2262
28.00835912214229 38.2624
28.03130582533231 38.5424
28.054253675581805 38.6593
28.077381967556104 38.658
28.100332124185126 38.5862
28.123283431160893 38.6052
28.146235889577238 38.4526
28.169368830154156 38.2698
28.192323603752033 38.0884
28.215279532083304 37.7258
28.238415973016764 37.4918
28.261374223145094 37.3695
28.284333631303806 37.121
28.307294198589954 37.0862
28.330435319167677 36.6747
28.353398217078915 36.4485
28.376362277420153 36.296
28.39932750129032 36.2203
28.422473319286713 36.052
28.44544088262495 35.9651
28.468409612800283 35.9027
28.491379510913497 35.6333
28.51453004413313 35.6184
28.53750229057244 35.5019
28.56047570826344 35.5828
28.583450298308804 35.5643
28.606605564586562 35.3262
28.629582511831156 35.358000000000004
28.65256063474956 35.2516
28.675539934446338 35.1935
28.698699951647605 35.1991
28.72168161743193 35.0866
28.74466446331978 35.1531
28.767648490417624 35.0883
28.790813276438353 35.027
28.813799678527303 35.0307
28.836787265157085 35.0332
28.859955641890075 35.0861
28.882945610203045 35.0235
28.905936766392035 34.9063
28.928929111566863 34.9956
28.952102288520145 34.8172
28.975097024308607 34.7221
28.998092952423807 34.5914
29.021090073977508 34.5156
29.04426806913204 34.4904
29.067267590245258 34.2427
29.090268308143695 34.1969
29.11327022394099 34.1714
29.13645305530891 34.0985
29.159457379627167 34.0364
29.18246290519685 33.9818
29.20546963313352 33.9835
29.22865731875826 33.9505
29.25166646419296 33.9283
29.27467681535305 33.8139
29.29768837335608 33.9934
29.320880931312562 33.9849
29.34389491580634 34.0228
29.366910110507334 33.9246
29.38992651653503 33.8504
29.41312396492981 33.9095
29.436142806456754 33.7091
29.45916286268059 33.6302
29.48236399319994 33.6027
29.50538649169417 33.3614
29.528410208259935 33.3684
29.55143514402014 33.1702
29.574641196749695 33.0755
29.597668583816574 32.9219
29.6206971934585 32.8519
29.64372702680042 32.8855
29.666938019934474 32.8405
29.689970313635285 32.6286
29.713003834422636 32.5564
29.73603858342347 32.5455
29.759254535188578 32.5962
29.78229175361658 32.5384
29.80533020365064 32.4198
29.82836988641968 32.536
29.85159081507472 32.4789
29.874632976355343 32.3404
29.89767637376955 32.3881
29.920721008448314 32.3021
29.9439469322847 32.3388
29.96699405457564 32.2731
29.9900424175358 32.3195
30.013092022298157 32.2829
30.03632295963995 32.1554
30.059375061131373 32.1789
30.08242840783577 32.215
30.105483000888153 32.2318
30.128718970092244 32.0004
30.151776069006917 32.0129
30.17483441768648 32.0435
30.198074175317235 32.1084
30.221135036724256 32.1695
30.24419715131772 32.0118
30.267260520236203 31.9004
30.290505341942243 32.0198
30.313571232750228 32.0717
30.336638381310948 32.0564
30.35970678876503 32.0073
30.38295669299435 31.8957
30.40602763151657 31.7786
30.429099832366074 31.7991
30.452173296685572 31.6586
30.47542830191959 31.6337
30.498504306502497 31.7107
30.521581577995562 31.79
30.544660117543582 31.7694
30.56792024229725 31.8224
30.59100133132069 31.8376
30.614083691845494 31.8487
30.637167325018545 31.9105
30.660432587840603 31.9793
30.683518779717886 31.8448
30.70660624769615 31.925
30.729694992924372 31.8505
30.75296541239743 31.8025
30.77605672557558 31.811
30.799149319462742 31.8037
30.8224236211637 31.5635
30.845518789950724 31.5684
30.868615242910597 31.4939
30.891712981195973 31.2636
30.91499247215866 31.3245
30.938092794619365 31.3091
30.96119440587579 31.124000000000002
30.984297307082752 31.0765
31.00758200598383 31.0401
31.030687500658694 30.9747
31.053794288760695 30.9004
31.076902371446767 30.8066
31.100192296997445 30.8157
31.12330298246119 30.8092
31.14641496599209 30.5992
31.169528248749216 30.6769
31.19282341969534 30.6031
31.215939314557186 30.6474
31.239056512134788 30.6057
31.262175013589378 30.6433
31.28547544871168 30.4913
31.30859657161541 30.4341
31.331719001892175 30.5589
31.35484274070538 30.6292
31.378148458819545 30.6707
31.401274828443725 30.5313
31.424402510106933 30.5339
31.447712205419993 30.6397
31.470842524931633 30.5838
31.493974159989783 30.4686
31.51710711176168 30.4176
31.54042212308802 30.413
31.563557722100917 30.3929
31.586694641341655 30.2592
31.609832881979628 30.2816
31.63315322823208 30.2526
31.656294125521327 30.0601
31.679436347728515 29.9301
31.70257989602529 29.9132
31.725905596152327 29.8453
31.74905181052835 29.8147
31.772199354521323 29.9356
31.79534822930507 29.8477
31.818679302290967 29.8276
31.84183085259981 29.8279
31.864983737233473 29.8263
31.88813795736804 29.8785
31.911474422233013 29.7474
31.934631327356435 29.7895
31.9577895715215 29.728
31.980949155906522 29.7349
32.004291031706956 29.7199
32.027453310562606 29.5945
32.05061693318573 29.5017
32.07396288236386 29.601999999999997
32.09712920658542 29.3979
32.12029687812702 29.2242
32.14346589817093 29.3101
32.166817291729984 29.2549
32.18998902288583 29.1278
32.21316210610336 28.9686
32.23633654256711 28.9818
32.259693399663725 28.8376
32.282870556771144 28.8299
32.30604907069099 28.8607
32.329228942610065 28.805999999999997
32.35259128243769 28.7336
32.375773884550505 28.6529
32.398957848235646 28.5992
32.422143174682176 28.5016
32.445511016471215 28.4914
32.468699082679954 28.4831
32.49188851523011 28.362
32.51507931531304 28.2944
32.538452678331 28.3172
32.56164622776311 28.1934
32.58484114831493 28.1339
32.60803744118015 28.2308
32.631416344731896 28.2235
32.654615396551876 28.1738
32.67781582427913 28.2327
32.701198898634416 28.0543
32.72440209253756 27.9987
32.747606665947124 27.9054
32.77081262006088 27.8158
32.79420126883317 27.8252
32.81740999876112 27.8885
32.840620112999424 27.7369
32.86383161274818 27.7804
32.88722585534586 27.7858
32.91044014056596 27.8118
32.933655814909734 27.7178
32.95687287957963 27.7578
32.98027273544904 27.618000000000002
33.00349259526636 27.5493
33.026713849030116 27.6554
33.04993649794511 27.5613
33.073341986570746 27.6183
33.09656744032826 27.5348
33.11979429286444 27.5424
33.14302254538647 27.5165
33.166433686291185 27.4606
33.18966475336992 27.4092
33.212897224069096 27.3049
33.23613109959831 27.3768
33.259547912343415 27.2386
33.2827846121627 27.3794
33.306022720453775 27.2376
33.32926223842861 27.1994
33.352684742614166 27.1008
33.37592709463173 27.0709
33.399170859982064 26.9759
33.422597648419426 26.9715
33.44584425514446 26.8658
33.46909227885668 26.8638
33.4923417207723 26.8065
33.51577423505344 26.7773
33.539026528130385 26.6676
33.56228024307245 26.6303
33.585535381098246 26.5121
33.60897364093058 26.4898
33.63223163992385 26.4884
33.6554910656699 26.4068
33.678751919389796 26.4132
33.702195944520106 26.3043
33.72545966903325 26.3395
33.74872482519663 26.2568
33.771991414233746 26.2594
33.79544122444841 26.2122
33.81871069412428 26.1428
33.84198160035767 26.1303
33.86525394437455 26.1476
33.88870955949969 25.9854
33.911984794020626 25.9729
33.93526147001624 25.9713
33.958539588715006 25.9039
33.98200102861669 25.8778
34.0052820477047 25.8437
34.02856451319451 25.7476
34.05203033759056 25.6679
34.07531571090147 25.6415
34.09860253431845 25.7168
34.121890809074316 25.6302
34.145362493118924 25.6684
34.16865368561615 25.5659
34.191946333164054 25.5967
34.21524043699793 25.4077
34.23871800066799 25.4418
34.26201503218366 25.35
34.28531352370466 25.375
34.30861347646881 25.3196
34.33209693978188 25.3132
34.3553998301885 25.3134
34.378704185565205 25.1884
34.402010007152356 25.1307
34.42549939016683 25.1873
34.44880815937748 24.9935
34.472118398533134 24.9547
34.49543010887669 24.9597
34.51892543169198 24.9198
34.54224009966052 24.9422
34.56555624255917 24.9183
34.58887386163339 24.7949
34.61237514439016 24.7314
34.6356957311114 24.6965
34.65901779775809 24.6466
34.68252356662995 24.5958
34.705848608458616 24.6606
34.72917513396849 24.5574
34.75250314440949 24.4834
34.77601490857862 24.4602
34.799345904259795 24.3812
34.82267838863559 24.4474
34.846012362958525 24.377
34.869530142679984 24.4038
34.89286711232212 24.3045
34.91620557568269 24.3494
34.93954553401677 24.266
34.9630693495876 24.2334
34.986412313340814 24.2526
35.00975677584668 24.2436
35.033102738362956 24.1995
35.05663261012228 24.0462
35.0799815881786 24.057
35.10333207003229 24.031999999999996
35.12668405694369 24.0061
35.150220005273056 24.0438
35.17357501786656 24.013
35.19693153931268 24.0621
35.220289570874385 23.9075
35.24383161619786 23.8225
35.267192683604904 23.8444
35.290555264930376 23.935
35.314101899412165 23.7896
35.33746752422433 23.8078
35.36083466676374 23.8629
35.38420332829803 23.7714
35.407756095629054 23.7807
35.43112781085063 23.764
35.45450104888391 23.6949
35.477875810999194 23.704
35.50143473172161 23.7114
35.52481255774625 23.6697
35.54819191167777 23.4991
35.57157279478914 23.5208
35.595137889488406 23.4285
35.61852184675279 23.4189
35.641907337029984 23.3513
35.665294361595684 23.3759
35.68886565090076 23.293000000000003
35.7122557598848 23.2645
35.73564740699838 23.2972
35.759040593519934 23.2357
35.78261809810353 23.2293
35.80601437933051 23.1099
35.829412203814705 23.0229
35.85281157283719 23.0359
35.876395313415884 23.0877
35.8997977874528 22.9528
35.92320180988546 22.9729
35.946790244133936 22.8866
35.97019737933222 22.8858
35.993606066789866 22.9182
36.01701630779276 22.8138
36.04061101440684 22.7461
36.06402437852291 22.7694
36.08743930005611 22.7715
36.1108557802951 22.6915
36.13445678011326 22.6142
36.15787639383515 22.5732
36.18129757014299 22.5934
36.20472031032821 22.5955
36.22832762423364 22.4916
36.25175350829375 22.4564
36.275180960119776 22.3409
36.298609981005924 22.4833
36.32222362992669 22.4794
36.34565580510207 22.3623
36.36908955323448 22.3779
36.39252487562093 22.2469
36.416144880530226 22.2222
36.43958336764275 22.2106
36.463023432914625 22.183000000000003
36.486465077645676 22.1972
36.51009145956204 22.1702
36.53353627947859 22.1253
36.55698268276811 22.0861
36.58043067073321 22.0274
36.60406345072071 21.9074
36.62751462435344 21.9709
36.65096738658405 21.9287
36.67460498210655 21.9453
36.69806093788647 21.910999999999998
36.72151848619297 21.8558
36.744977628333636 21.851999999999997
36.76862165890998 21.7825
36.79208400512205 21.8196
36.81554794910557 21.7508
36.83901349217101 21.6678
36.862663978991606 21.6549
36.88613273667352 21.6412
36.90960309738324 21.6473
36.933075062434064 21.5069
36.95673202673572 21.4406
36.98020721697122 21.4466
37.003684015502365 21.4119
37.027162423645365 21.3644
37.050825886711465 21.3748
37.07430753063053 21.2463
37.09779078812467 21.3195
37.121275660513014 21.1955
37.144945643673694 21.1955
37.16843376245278 21.23
37.19192350009803 21.1667
37.215414857931435 21.2011
37.239091382563885 21.05
37.262585997426164 21.0394
37.28608223645736 21.0858
37.309763684451696 20.9911
37.33326318851098 21.0233
37.356764320726555 20.9914
37.380267082425526 20.901
37.40395510942588 20.8268
37.42746114683234 20.8208
37.45096881771841 20.7429
37.474478123414166 20.788
37.49817275092816 20.7346
37.52168534303452 20.6607
37.54519957395567 20.5943
37.568715445024665 20.6117
37.592416694607714 20.5784
37.61593586281424 20.6159
37.63945667518264 20.6243
37.66297913304891 20.49
37.68668702630454 20.5029
37.710212792059274 20.3851
37.733740207334854 20.3227
37.757269273470364 20.4141
37.780983832050374 20.2973
37.80451621684926 20.3651
37.82805025654007 20.2679
37.851585952464795 20.2271
37.8753071980695 20.238
37.89884622345676 20.1165
37.92238690911902 20.1011
37.94611318753442 20.0473
37.969657210779765 20.0773
37.99320289834801 20.0558
38.016750251586465 19.9011
38.04048325513017 19.9147
38.06403395679343 19.8495
38.087586328183946 19.893
38.11114037065203 19.8846
38.13488012115898 19.8621
38.1584375229181 19.7802
38.181996599821 19.738
38.205557353221124 19.7549
38.229303872575656 19.74
38.2528679961576 19.6718
38.27643380031219 19.6329
38.30000128639589 19.633
38.32375459653193 19.6005
38.34732546371299 19.6192
38.37089801690786 19.5761
38.39447225747609 19.5308
38.418232380377425 19.502
38.441810012983396 19.4672
38.46538933705673 19.4171
38.488970353960084 19.3818
38.51273731166058 19.3622
38.536321731567014 19.3169
38.55990784840681 19.3176
38.58367995004091 19.3127
38.60726947812959 19.2106
38.63086070726198 19.1528
38.654453638806274 19.1632
38.678232613930824 19.1776
38.70182896773327 19.0778
38.72542702806741 19.0723
38.7490267963045 19.0997
38.77281266709232 18.9772
38.79641586862214 18.9734
38.8200207821842 18.9376
38.843627409152944 18.9428
38.86742019782782 18.8649
38.891030269149255 18.7918
38.914642058016156 18.8659
38.938255565806124 18.7972
38.96205529464307 18.7594
38.98567225787121 18.7579
39.00929094417078 18.739
39.03291135492255 18.704
39.05671804624804 18.6874
39.080341923549106 18.6606
39.103967529460334 18.6232
39.127594865365744 18.547
39.15140854155791 18.5313
39.17503935514948 18.548
39.19867190290282 18.5388
39.22249083587951 18.5048
39.24612686969409 18.5075
39.269764641845306 18.3885
39.293404153722804 18.3571
39.317230110864074 18.3061
39.34087311998506 18.2373
39.36451787301696 18.2519
39.388164371352595 18.2241
39.41199737518003 18.1902
39.43564738196752 18.1285
39.45929913825317 18.152
39.48295264543308 18.2039
39.506792718520884 18.1275
39.530449745387216 18.0552
39.55410852735203 18.094
39.57776906581474 18.0917
39.60161623079 18.0262
39.625280300200025 17.972
39.64894613032202 17.9022
39.67261372255866 17.9406
39.6964680021016 17.9132
39.72013913657293 17.8885
39.74381203738292 17.8386
39.76748670593756 17.8155
39.79134812278169 17.7876
39.81502634488497 17.765
39.83870633896685 17.7003
39.862388106436654 17.6283
39.88625668336918 17.5782
39.90994201572829 17.664
39.933629125719285 17.6503
39.957503091207826 17.602
39.9811937746168 17.6235
40.00488623990914 17.5364
40.02858048850006 17.4739
40.05246165409549 17.4485
40.076159487492085 17.4104
40.099859108448875 17.3778
40.123560518384345 17.3957
40.1474489070226 17.3418
40.171153913178564 17.3167
40.194860712584955 17.3262
40.2185693066637 17.2627
40.242464941335314 17.2285
40.26617714307655 17.2057
40.289891143772046 17.162
40.3136069448471 17.1394
40.33750984859743 17.0968
40.3612292688043 17.1063
40.3849504936829 17.0309
40.40867352466194 17.0419
40.43258372059144 16.9985
40.45631038219906 17.012
40.48003885420956 16.9236
40.503769138055105 16.9187
40.52768664931955 16.8932
40.55142057531802 16.895
40.57515631746428 16.8386
40.599079334038514 16.8094
40.62281872700477 16.7377
40.64655994043941 16.7379
40.67030297578061 16.746
40.69423334835778 16.7293
40.71798004609188 16.6926
40.74172857006355 16.664
40.76547892171441 16.6555
40.7894166736039 16.6587
40.813170699248566 16.5774
40.83692655691388 16.5439
40.86068424804498 16.5234
40.884629402612525 16.4935
40.908390779366385 16.504
40.932153993938 16.4739
40.95591904777605 16.4727
40.979871628443995 16.4661
41.003640379561936 16.3844
41.02741097430883 16.3717
41.05118341413683 16.3023
41.075143444384416 16.2873
41.098919593177826 16.3756
41.1226975914255 16.2351
41.14647744058318 16.2434
41.170444943946755 16.1956
41.19422851378379 16.1785
41.218013938914645 16.1418
41.24198706625173 16.1367
41.26577622087193 16.0749
41.289567235177785 16.033
41.31336011063129 16.0483
41.337340752422875 15.9904
41.361137369129835 16.0274
41.38493585138705 15.9048
41.40873620066004 15.8915
41.43272438060107 15.8704
41.45652848292052 15.7709
41.48033445666918 15.793
41.50414230331616 15.7896
41.528138045159764 15.7841
41.551949656675205 15.7257
41.575763145513235 15.7254
41.59957851314666 15.7594
41.62358184070442 15.7167
41.64740098505737 15.6309
41.6712220126409 15.6791
41.69504492493139 15.6394
41.71905586207357 15.5415
41.74288256296395 15.5309
41.766711153007456 15.5295
41.79054163368412 15.5086
41.814560204340054 15.4817
41.838394485526365 15.4169
41.86223066180303 15.4248
41.88625497706819 15.3809
41.910094962812 15.342
41.93393684811168 15.3466
41.95778063445365 15.2734
41.981812625263366 15.2676
42.00566023303407 15.2729
42.029509746323676 15.2473
42.05336116662236 15.2487
42.077400857069705 15.1934
42.10125611078846 15.1561
42.12511327600405 15.14
42.14897235421036 15.1403
42.173019768448455 15.1196
42.19688269209613 15.0708
42.22074753323349 15.0358
42.24461429335818 15.0621
42.268669455600495 14.9467
42.292540073217886 14.9821
42.31641261433284 14.9444
42.34028708044675 14.9072
42.36435001496739 14.9023
42.38822835065557 14.8475
42.41210861586426 14.8305
42.4359908120986 14.8608
42.46006154323262 14.7678
42.48394762115317 14.751
42.507835634632315 14.7385
42.531912233047436 14.7489
42.55580413732265 14.7058
42.579697981698 14.6442
42.60359376768525 14.6389
42.62767820545945 14.6248
42.65157789440821 14.574000000000002
42.67547952952185 14.5219
42.699383112316 14.5373
42.72347541395347 14.5026
42.74738291190531 14.4277
42.771292362102166 14.4576
42.795203766063516 14.4603
42.819303956130405 14.3842
42.843219287476536 14.3748
42.86713657716324 14.3471
42.89105582671383 14.3503
42.91516392983864 14.3788
42.939087119032166 14.3101
42.963012272677304 14.2168
42.98693939230129 14.2226
43.01105543317513 14.214
43.034986504731386 14.1465
43.05891954686589 14.168
43.08285456110972 14.1441
43.10697856448665 14.1554
43.130917542983475 14.0154
43.15485849820081 14.0983
43.17880143167367 14.0857
43.20293342237094 14.0195
43.226880332449 14.0059
43.25082922540554 14.0068
43.27496722682525 13.9547
43.29892010567796 13.887
43.32287497204102 13.9383
43.34683182745632 13.8767
43.370977859791836 13.8376
43.39493871351105 13.8292
43.41890156092628 13.8072
43.44286640358341 13.8255
43.46702049182749 13.7333
43.49098934522816 13.6831
43.51496019852649 13.6374
43.5389330532723 13.652999999999999
43.56309522248204 13.6421
43.58707210044314 13.6402
43.61105098451946 13.5824
43.63503187626491 13.5804
43.659202151562134 13.5846
43.68318707902681 13.5379
43.70717401884041 13.5219
43.731162972560874 13.4654
43.75534137913236 13.4549
43.779334381108384 13.4246
43.803329401683186 13.4907
43.82732644241872 13.398
43.8515130055166 13.4207
43.87551410707659 13.3773
43.89951723350145 13.3668
43.923709934595614 13.3226
43.94771713129917 13.2895
43.97172635758096 13.2943
43.99573761501002 13.2531
44.0199385169922 13.2272
44.04395385732619 13.2039
44.067971233533086 13.1925
44.09199064718605 13.1353
44.11619977548961 13.1006
44.14022328470671 13.1104
44.16424883610785 13.1207
44.18827643127035 13.1131
44.21249381139513 13.0397
44.236525514814076 13.0562
44.26055926674478 13.0705
44.28459506876863 13.022
44.3088207262813 12.98
44.33286064928722 12.9329
44.35690262714919 12.8774
44.38094666145278 12.8567
44.4051806219871 12.8821
44.42922879003185 12.845
44.45327901929361 12.8048
44.477331311362136 12.8264
44.501573600619416 12.7728
44.525630039221795 12.7487
44.54968854541895 12.7404
44.573937102200176 12.7052
44.5979997645541 12.6711
44.622064499300315 12.712
44.64613130803592 12.6464
44.67038823869318 12.6262
44.69445921643748 12.5819
44.718532272981385 12.5414
44.742607409926194 12.5501
44.76687274034801 12.5284
44.79095205918753 12.4847
44.81503346325094 12.5142
44.839116954143876 12.46
44.86339071028742 12.4178
44.88747839599524 12.4224
44.91156817336837 12.3772
44.93566004401666 12.3684
44.959942251908146 12.3527
44.984038330325966 12.3422
45.00813650686762 12.2867
45.03223678314731 12.267999999999999
45.05652746888232 12.2765
45.08063196592069 12.2228
45.104738567558705 12.2094
45.128847275414856 12.1773
45.15314646515866 12.1909
45.17725940679741 12.1654
45.20137445952892 12.1663
45.22568004865265 12.1135
45.24979934496396 12.0945
45.27392075725247 12.0662
45.29804428714431 12.0294
45.322358426247604 12.0237
45.346486212804315 12.0567
45.370616121861914 12.0142
45.39474815505086 12.007
45.41907087049246 11.9242
45.4432071734666 11.8897
45.46734560548283 11.9009
45.49148616817604 11.9047
45.51581748638564 11.8498
45.5399623320197 11.8379
45.56410931325473 11.8302
45.58825843173002 11.8323
45.61259837920865 11.7642
45.636751793816 11.7495
45.66090735060093 11.7142
45.68506505120716 11.7012
45.7094136545275 11.6657
45.73357566449271 11.6041
45.75773982322992 11.6423
45.78190613238733 11.6171
45.806263418194064 11.5693
45.83043404997326 11.5675
45.85460683713677 11.5533
45.87897065658495 11.539000000000001
45.90314777634752 11.5401
45.92732705646868 11.5379
45.9515084986045 11.4978
45.97588104735473 11.5184
46.00006683541565 11.4274
46.02425479047904 11.4232
46.04844491420549 11.3675
46.0728262191024 11.3592
46.09702070211635 11.3787
46.12121735879483 11.3894
46.14541619080294 11.3176
46.169806278764455 11.3108
46.194009483459034 11.309000000000001
46.21821486849841 11.2891
46.24242243555223 11.2172
46.266821333570014 11.2223
46.29103328674601 11.1973
46.31524742696538 11.1765
46.33946375590237 11.1478
46.36387149104216 11.117
46.38809221957392 11.1092
46.41231514186606 11.1023
46.436540259597464 11.1054
46.460956858999374 11.0899
46.48518638983522 11.0054
46.509418121166966 10.9786
46.533652054678114 11.0105
46.55807754555709 10.9725
46.58231590571962 10.9325
46.60655647313217 10.9578
46.630988654873654 10.9268
46.655233659129024 10.8834
46.67948087571551 10.8931
46.70373030632484 10.841
46.72817142736393 10.8345
46.752425308428684 10.8255
46.77668140861147 10.8002
46.80093972960865 10.7673
46.82538981736788 10.7722
46.849652602470904 10.7283
46.87391761349769 10.6973
46.8981848521493 10.698
46.9226439341274 10.6794
46.946915650573224 10.6389
46.97118959976749 10.6161
46.99546578341598 10.5802
47.019933887188216 10.5747
47.04421456235744 10.5927
47.06849747711879 10.575
47.09278263318286 10.5288
47.11725978640143 10.4938
47.14154944775105 10.4604
47.165841355555656 10.4727
47.1901355115306 10.4819
47.214621741924994 10.4671
47.23892041698887 10.4275
47.26322134538975 10.4009
47.28771440635075 10.3827
47.31201986422527 10.3601
47.33632758061436 10.3378
47.360637557241866 10.3015
47.38513974410611 10.3153
47.40945426407847 10.2582
47.43377104948137 10.3352
47.45809010204344 10.2772
47.48260144275502 10.2546
47.506925052572285 10.2242
47.53125093475548 10.1425
47.55557909103813 10.1572
47.58009961361992 10.1491
47.60443234110732 10.1263
47.62876734791564 10.1102
47.65310463578333 10.1155
47.6776343683373 10.0965
47.7019762413987 10.0875
47.72632040075572 10.0275
47.75066684815169 10.0194
47.77520581885936 10.0252
47.799556865477655 9.9667
47.823910205386 9.98099
47.84826584033272 9.94792
47.87281407745551 9.91566
47.89717432569297 9.926639999999999
47.92153687423484 9.895439999999999
47.94609208429692 9.93033
47.97045925671401 9.882539999999999
47.99482873471275 9.84258
48.01920052005013 9.8425
48.04376504619224 9.84048
48.068141469543484 9.81059
48.09252020552573 9.7806
48.11690125590099 9.772730000000001
48.1414751266064 9.728810000000001
48.16586082917454 9.722719999999999
48.19024885144316 9.66868
48.2146391951793 9.68593
48.239222439012764 9.71208
48.26361744916137 9.64301
48.28801478610016 9.636569999999999
48.31241445160131 9.62095
48.337007097209366 9.622689999999999
48.36141144338331 9.60131
48.38581812345755 9.58342
48.41022713920929 9.59908
48.434829215320704 9.53462
48.45924292604658 9.51571
48.48365897780325 9.53166
48.50807737237308 9.44507
48.532688907799276 9.475019999999999
48.55711201168574 9.446
48.581537463754074 9.43862
48.60615611725119 9.43704
48.63058628942721 9.410839999999999
48.65501881516546 9.364230000000001
48.6794536962573 9.34619
48.70408185970339 9.3796
48.72852147531801 9.35325
48.75296345168211 9.29921
48.77740779059232 9.32136
48.80204549302823 9.272310000000001
48.82649458091802 9.263580000000001
48.85094603676547 9.24578
48.87539986237231 9.19299
48.90004713292306 9.1872
48.92450572200832 9.19047
48.94896668628025 9.140089999999999
48.97343002754588 9.13753
48.99808689542115 9.1247
49.02255501470614 9.13045
49.04702551642794 9.09035
49.0714984023988 9.088610000000001
49.096164896893235 9.09445
49.120642575466796 9.03939
49.145122643748394 9.020539999999999
49.16960510355558 9.018130000000001
49.19428125404938 9.007610000000001
49.2187685210852 9.00018
49.243258185121555 8.97102
49.26794160167084 8.942169999999999
49.2924360839405 8.91645
49.31693296869764 8.92475
49.34143225776915 8.884210000000001
49.36612538195438 8.86995
49.39062950396021 8.85913
49.41513603578346 8.86897
49.4396449792564 8.853769999999999
49.46434784069503 8.81264
49.488861631846454 8.81023
49.513377840166804 8.78566
49.537896467493745 8.7419
49.56260909589029 8.70583
49.587132585683285 8.71464
49.611658500018365 8.709810000000001
49.636186840738596 8.65144
49.66090926588511 8.6724
49.685442483902584 8.64224
49.70997813385706 8.59872
49.734516217597076 8.63298
49.75924846937352 8.59067
49.7837914452858 8.571
49.80833686055187 8.53627
49.83288471702571 8.534089999999999
49.85762682540054 8.5262
49.882179588965734 8.50256
49.9067347993235 8.494580000000001
49.93129245833333 8.49055
49.95604445336378 8.51442
49.98060703442832 8.49653
50.005172069746266 8.456439999999999
50.02993150438364 8.43398
50.05450147301533 8.39465
50.07907390151433 8.35825
50.10364879174981 8.3825
50.12841816587289 8.37582
50.1529980044635 8.3391
50.17758031042124 8.355310000000001
50.20216508562089 8.31986
50.22694442953363 8.29748
50.25153416817468 8.25813
50.27612638170508 8.27406
50.300721072005196 8.25014
50.325510416102105 8.23301
50.350110084975064 8.1994
50.37471223628208 8.21084
50.39931687190919 8.20261
50.424116246675766 8.18525
50.44872587605249 8.17558
50.47333799543065 8.149519999999999
50.49795260670191 8.11477
50.52276204271512 8.11737
50.54738166295838 8.08179
50.57200378079314 8.089089999999999
50.596628398116835 8.08488
50.62144792604559 8.01098
50.646077567609396 8.053180000000001
50.670709714377715 8.030510000000001
50.69553683636198 8.02161
50.72017401885922 8.00787
50.7448137122895 7.97235
50.76945591856022 7.9214199999999995
50.79429318636823 7.9303300000000005
50.818940443716784 7.88678
50.84359021965163 7.880719999999999
50.868242516085964 7.89151
50.893089960641895 7.88673
50.917747323549435 7.877269999999999
50.94240721271973 7.854189999999999
50.96706963007175 7.82834
50.99192728239342 7.80025
51.01659478166073 7.8135699999999995
51.04126481489051 7.79295
51.06593738400761 7.756539999999999
51.090805275207074 7.766719999999999
51.11548294172845 7.72836
51.14016314993547 7.70148
51.164845901758845 7.68962
51.18972406304274 7.692360000000001
51.21441192780656 7.660810000000001
51.23910234200271 7.625889999999999
51.2637953075678 7.64571
51.288683770237945 7.58945
51.31338186432707 7.58064
51.33808251561888 7.557980000000001
51.362978729967345 7.57365
51.387684521509755 7.580439999999999
51.41239287610203 7.5558
51.437103795691165 7.54515
51.46201036644977 7.52256
51.486726441956634 7.4926
51.51144508832545 7.5275
51.536166307509156 7.49096
51.56108326624387 7.44729
51.58580965706056 7.431960000000001
51.61053862657523 7.41678
51.635270176746864 7.40545
51.66019755512065 7.404839999999999
51.68493429268881 7.37207
51.70967361681515 7.3719600000000005
51.73441552946465 7.377489999999999
51.759353359237934 7.369610000000001
51.7841004750961 7.35438
51.80885018539685 7.304639999999999
51.833602492111254 7.267989999999999
51.8585508051424 7.256589999999999
51.883308330926425 7.264289999999999
51.90806845906181 7.248639999999999
51.932831191525715 7.23445
51.95779001977161 7.20483
51.98255798721516 7.192139999999999
52.00732856494335 7.16096
52.03229530577543 7.16489
52.057071130455945 7.158810000000001
52.081849571391054 7.120589999999999
52.106630630568695 7.10159
52.13160794279417 7.087460000000001
52.15639426492067 7.08749
52.18118321127822 7.1129
52.205974783860896 7.067189999999999
52.23096269971011 7.05996
52.255759551287994 7.0624
52.280559035098186 7.0235199999999995
52.30536115314103 6.99085
52.33035970494467 7.01653
52.35516711807904 6.98413
52.37997717147198 6.96519
52.40478986713005 6.951280000000001
52.42979908731974 6.9172899999999995
52.454617094216 6.91118
52.47943774942214 6.91005
52.50426105495102 6.90798
52.529280976059844 6.86065
52.554109609024096 6.87545
52.57894089837482 6.84634
52.60377484613117 6.80808
52.62880550079408 6.842789999999999
52.65364479223379 6.81197
52.67848674816189 6.77654
52.70352547971946 6.766789999999999
52.72837279155837 6.7199
52.753222773982785 6.7253
52.778075429022984 6.754689999999999
52.80312495150885 6.71312
52.827982978797436 6.7065600000000005
52.85284368481815 6.69942
52.87770707160767 6.69689
52.90276741793998 6.689889999999999
52.92763619336701 6.66206
52.952507655698504 6.64152
52.977381806977576 6.64677
53.00245301017842 6.58487
53.02733256653592 6.5823
53.052214817996074 6.575080000000001
53.077099766608484 6.55578
53.102181859804446 6.57883
53.127072229988265 6.57803
53.15196530349892 6.5492300000000006
53.17686108239249 6.50749
53.20195409881522 6.4763
53.22685531582556 6.4957
53.25175924441303 6.4572
53.27666588664027 6.44926
53.30176985962693 6.46539
53.3266819565689 6.4391099999999994
53.35159677336455 6.40664
53.376514312083096 6.4054
53.40162927507703 6.3653900000000005
53.42655228516116 6.34126
53.45147802340193 6.344119999999999
53.47660125628886 6.336069999999999
53.50153247842639 6.33176
53.52646643496923 6.33131
53.55140312799818 6.30448
53.576537409691696 6.32336
53.60147960336152 6.310230000000001
53.626424539786164 6.2613
53.65137222105307 6.2653099999999995
53.67651758529126 6.2234
53.70147078399681 6.20242
53.72642673383343 6.20538
53.75138543689533 6.196359999999999
53.776541917524526 6.193
53.801506154876755 6.15164
53.826473151763246 6.1457
53.851442910284916 6.13239
53.87661054126026 6.113180000000001
53.9015858509782 6.097230000000001
53.92656392866066 6.11091
53.95154477641532 6.1081
53.976723591801296 6.10993
54.00171000771266 6.04818
54.02669920004598 6.07491
54.051691170915745 6.00895
54.076881204886796 6.0574
54.101878760928514 6.002619999999999
54.12687910187696 5.99343
54.152077577768296 6.00203
54.1770835166946 5.99092
54.20209224691339 5.94226
54.22710377055121 5.942419999999999
54.25231352511594 5.90897
54.27733066384342 5.88668
54.30235060239643 5.89107
54.32737334290836 5.84262
54.35259441062629 5.81768
54.377622783395324 5.81926
54.40265396455061 5.78675
54.42768795623251 5.8165
54.45292037169559 5.79598
54.477960012857906 5.776680000000001
54.50300247099511 5.81462
54.52804774825457 5.73285
54.55329154616743 5.7340599999999995
54.57834249018678 5.69362
54.6033962597977 5.6998
54.6284528571545 5.66098
54.653708072335164 5.6399
54.67877035378786 5.59609
54.70383546947698 5.60229
54.72890342156389 5.58366
54.7541700889442 5.56719
54.77924374251975 5.57043
54.8043202390049 5.50571
54.82959552413022 5.5136
54.8546777351945 5.47905
54.87976279569621 5.43613
54.90485070780914 5.502680000000001
54.930137506558005 5.45904
54.95523115074295 5.43679
54.98032765308844 5.4412199999999995
55.005427015775496 5.3654
55.03072536339621 5.35917
55.05583047570572 5.38242
55.080938454927676 5.26699
55.10604930325027 5.27629
55.131359235107396 5.32142
55.15647585066083 5.24814
55.181595341907496 5.18299
55.20671771104285 5.16876
55.232039262617704 5.23179
55.25716741665048 5.1910099999999995
55.28229845518636 5.1586
55.30743238042802 5.11141
55.33276558731939 5.09278
55.357905315183636 5.11444
55.383047936390035 5.08174
55.40819345314859 5.0233
55.433538351073295 5.01837
55.458689688238415 4.97388
55.483843927614096 4.97548
55.509197623043605 4.91576
55.53435769621134 4.92169
55.55952067826466 4.86499
55.5846865714265 4.88431
55.61005202069737 4.86191
55.63522376553902 4.88816
55.66039842818645 4.83204
55.68557601087004 4.8337699999999995
55.7109532500271 4.68332
55.73613670233794 4.78065
