TT I
1.2716486653135266 8.42653
1.2939594142134223 7.627860000000001
1.3162702121660406 7.2896399999999995
1.3385810600174564 6.87938
1.3608919586137629 6.82265
1.383202908801069 6.719810000000001
1.405513911425503 6.5940199999999995
1.4278249673332093 6.19348
1.4501343378461518 6.7911399999999995
1.4724455028545926 6.46747
1.4947567236847858 6.644419999999999
1.517068001182951 6.51238
1.5393793361953272 6.614730000000001
1.5616907295681737 6.772930000000001
1.5840021821477681 6.15461
1.60631369478041 5.74527
1.6286252683124185 6.11186
1.6509369035901333 5.81861
1.6732468618895553 5.82364
1.695558623192809 5.89608
1.7178704487808514 6.03345
1.7401823395001077 6.00962
1.7625012545597203 5.26369
1.7848028405262486 5.43743
1.8071218901122095 5.57664
1.8294236121921872 5.52526
1.8517427996910911 5.29911
1.8740620574440425 5.1862
1.8963639900671978 5.17483
1.9186833908139995 5.02142
1.9409854680117449 5.2893
1.9633050151394713 5.72548
1.9856246367570705 5.01896
2.0079269371922672 5.35775
2.03024671027244 5.1612
2.0525491637446027 5.74571
2.074869091674931 5.1016
2.097171701569106 4.53072
2.1194917877373847 5.05335
2.141811954326636 4.98386
2.164114805233074 4.51923
2.186435135143035 4.94214
2.208738150935709 4.64591
2.231058647554722 5.18231
2.2533792288321184 4.83789
2.275682498336085 4.7045900000000005
2.298003251406138 4.4044300000000005
2.3203066942619714 5.39444
2.3426276225136022 4.45107
2.3649486396617507 4.50137
2.387252348930071 4.9665
2.4095735463442893 4.40699
2.4318774374315884 4.083819999999999
2.4541988185014043 4.04884
2.476502894794693 5.12101
2.498824462909887 4.45158
2.521146125856138 4.36297
2.5434504863470337 4.70167
2.5657723414244717 4.935309999999999
2.588076895590662 5.42063
2.610398946189713 5.989380000000001
2.6327210958598384 5.45482
2.6550259469304716 4.97124
2.6773482972090137 5.6119699999999995
2.6996533504259 5.75059
2.7219759047039602 5.78683
2.744298562293959 6.30679
2.7666039251246595 6.33765
2.7889267918020164 6.83862
2.8112323652516555 6.82145
2.833555444408179 7.305339999999999
2.8558786311183852 7.98319
2.8781845268938557 8.25895
2.9005079311721484 8.04476
2.9228140460410397 8.86046
2.9451376712799635 8.77469
2.967444008632326 9.59958
2.9897678582247247 10.0996
3.0120918213106695 10.2269
3.0343984987899373 10.7313
3.0567226913198637 11.2153
3.079029599759726 11.7949
3.101354025127254 12.5001
3.123678568232338 12.5977
3.145985829517914 12.924000000000001
3.16831061055229 13.4818
3.1906181112775593 13.8639
3.212943133635653 14.6629
3.2352682779763207 14.9151
3.2575761442691227 15.6778
3.2799015350264273 16.4306
3.302209649240067 16.721
3.3245352898092655 17.3032
3.3468436553365257 17.6641
3.369169549113219 18.0458
3.3914955708171384 18.552
3.413804319727358 19.2605
3.4361305997334863 20.0282
3.4584396084414553 20.0175
3.4807661501462652 20.8832
3.503092824025881 20.955
3.5254022288463154 21.0656
3.5477291695206588 21.8623
3.5700388426251948 21.8933
3.5923660534916446 22.3499
3.6146934007816114 22.7016
3.637003482731501 22.9291
3.6593311053109985 23.9563
3.681641464033634 24.1265
3.7039693653009733 24.401999999999997
3.726297407241705 24.8384
3.7486081875460804 25.3044
3.7709365132734978 25.7567
3.793247578841633 26.4563
3.8155761917550093 26.7134
3.8378875459837216 27.1224
3.8602164494827234 27.7349
3.882545499606844 27.9586
3.9048572932539183 29.1127
3.9271866390645718 29.596
3.9494987298666713 29.921999999999997
3.971828374764527 30.2685
3.9941581705403255 30.9887
4.016470713506008 31.8441
4.038800813471445 32.3116
4.061113662089144 32.9529
4.0834440696459176 33.8634
4.105774632334751 33.7603
4.128087945865126 34.6875
4.150418821249301 35.0399
4.172732448931298 36.2396
4.195063640413578 36.6989
4.2173775856475215 37.5626
4.239709096631102 38.4435
4.262040768704612 38.5289
4.284355196706267 39.3801
4.306687193387355 40.3827
4.329001947444346 41.3981
4.35133427213731 42.5315
4.373666762177566 43.266000000000005
4.395982011761091 43.6247
4.418314834921175 44.8324
4.44063041906622 46.1356
4.4629635787515625 47.3694
4.4852969080429785 47.7078
4.5076130004776225 49.5796
4.529946671403969 50.6062
4.552263106909177 51.0976
4.574597122877047 53.2691
4.596931312711224 54.2912
4.619248269273446 55.3187
4.6415828092605835 56.4195
4.663900117405352 57.7493
4.686235010953232 58.8511
4.708552674085913 60.6234
4.730887924602802 62.6317
4.753223354952695 63.9246
4.775541557023902 65.3913
4.797877349456786 67.09
4.820195915032126 68.7413
4.842532072957498 70.8873
4.864868414979744 73.0615
4.88718753227192 75.5767
4.909524244902505 78.3321
4.931843734218147 80.7703
4.954180820867835 84.3153
4.976518095879839 88.2961
4.998838149695359 92.33
5.021175803844231 96.6576
5.043496238205739 101.09700000000001
5.065834274903528 107.27600000000001
5.088172504230693 114.46600000000001
5.1104935158799565 123.08200000000001
5.132832132875765 138.425
5.155153533596801 162.335
5.1774925416746225 223.076
5.199814334878411 634.635
5.2221537374521505 2080.83
5.244493338631803 4035.77
5.266815727034316 6340.27
5.289155727832427 9632.65
5.311478517248165 9575.02
5.333818921080011 4999.82
5.356159527788849 1351.77
5.3784829252032536 341.79400000000004
5.400823940070432 195.708
5.423147747031976 159.792
5.445489173474152 141.26
5.467830807066149 130.423
5.490155234831516 123.74600000000001
5.512497285125229 118.773
5.534822130975162 116.33
5.557164601388673 113.089
5.579489868738879 109.38
5.601832762690846 107.286
5.6241758697774475 105.686
5.646501775867269 105.133
5.668845311622074 104.00299999999999
5.691171647754637 103.426
5.713515615597765 101.84700000000001
5.735859800852677 101.11
5.758186788542988 100.399
5.780531411018185 100.656
5.802858837297399 100.552
5.825203900414495 100.941
5.8475491852224 102.165
5.869877275883075 103.48899999999999
5.892223006467101 106.713
5.914551544266608 110.43799999999999
5.936897724049891 116.87899999999999
5.959244129804903 129.429
5.981573344815301 165.053
6.0039202049061 329.272
6.026249875609095 821.535
6.04859719346037 1467.31
6.070927323278297 2165.86
6.093275102315365 3307.42
6.115623113320588 4243.38
6.137953938319995 3829.78
6.160302415650845 1712.69
6.182633708324452 475.82
6.2049826554078376 172.019
6.227331838745022 115.575
6.249663839443684 99.1647
6.27201349767565 90.7619
6.294345974611799 85.1983
6.316696111167083 81.2882
6.339046488263839 79.006
6.361379686074702 76.1779
6.383730546639482 74.5095
6.406064229255215 72.2684
6.428415576718203 71.4868
6.450749747566656 70.343
6.47310158535871 69.0134
6.495453669698332 68.4893
6.517788579421056 67.5047
6.540141159237969 66.3959
6.562476565766648 65.2131
6.5848296444934045 64.6893
6.607182974060425 63.9333
6.6295191323281015 63.6184
6.651872965955752 63.1093
6.6742096296068985 62.1313
6.6965639707294615 61.7314
6.71891856698715 61.3863
6.741255995248479 60.4095
6.763611104154477 60.2803
6.785949046381137 60.199
6.808304671371482 59.3266
6.8306605557940046 59.1148
6.852999275508618 58.5015
6.875355681171544 58.2373
6.897694923437771 57.8714
6.92005185377892 58.0495
6.9423916220322655 57.8766
6.964749080490181 56.9372
6.987106804399774 56.7718
7.009447368180821 56.6255
7.031805625367033 56.5199
7.054146723727803 56.5694
7.076505517631004 56.1696
7.098864581288365 56.3579
7.121206488070854 56.0009
7.143566093607822 55.6759
7.165908543567245 55.8733
7.188268694426048 55.996
7.2106291193438095 55.3191
7.232972390625943 55.1892
7.255333366030969 55.4418
7.277677189091925 55.0875
7.300038718428332 55.6307
7.322400526130865 55.1419
7.344745183422596 55.0525
7.367107550224791 55.3443
7.389452767901992 55.7565
7.411815697249891 55.5869
7.434161478756298 54.6567
7.456524974096713 55.1325
7.478888753837185 55.2989
7.501235387657368 56.1175
7.523599738562711 58.4806
7.545946944825532 61.8625
7.568311870344528 62.103
7.5906770845765665 59.5744
7.613025156078678 57.7272
7.635390950099687 57.4906
7.657739602662809 56.8461
7.680105979923558 56.6906
7.702472650212829 57.3509
7.724822180948224 57.6396
7.747189439655568 57.6468
7.769539560075357 57.7057
7.791907410653562 58.2596
7.81425812420825 58.0093
7.836626570110925 58.4854
7.858995315087906 59.7093
7.881346924933401 59.8493
7.903716270417482 60.4055
7.926068482028405 60.7897
7.948438431475253 61.5979
7.9708086843180235 61.9316
7.993161805171116 62.8088
8.015532667162402 63.5826
8.037886398416653 64.2238
8.060257873014221 64.8741
8.082629655331942 65.7193
8.104984308787587 65.9853
8.127356708900503 66.8664
8.149711981398308 68.0507
8.172085002766314 69.1767
8.194458336181368 69.9828
8.216814543847752 71.2658
8.23918850371002 72.7471
8.26154533906492 73.9698
8.283919928836452 75.8634
8.306277395339652 76.8913
8.328652618483376 78.3823
8.351028159736202 80.9208
8.373386579575245 83.3199
8.395762759396959 85.8593
8.418121819038275 89.4198
8.440498640894003 94.0818
8.462875785192262 102.04899999999999
8.485235811156207 122.32799999999999
8.507613602688501 207.981
8.529974277114228 412.335
8.552352719347912 624.576
8.574731488360351 801.408
8.59709314210385 1020.71
8.619472567021075 1351.97
8.64183487789147 1760.78
8.664214962183097 1911.82
8.686577933647762 1375.26
8.708958680784317 674.467
8.731339760774953 279.653
8.753703729764451 145.694
8.77608547780821 114.18299999999999
8.798450116065078 106.24700000000001
8.820832535634787 101.23200000000001
8.843215292401656 97.9257
8.865580941199045 95.9558
8.887964374703538 94.0066
8.910330701447199 92.8182
8.932714815164482 91.9272
8.955099270424924 90.3559
8.977466620733543 89.9101
8.999851761421976 89.1217
9.022219798361645 88.4792
9.04460562795561 87.8986
9.066991803441677 87.6802
9.089360876979615 87.4693
9.111747746589993 87.3225
9.13411751544971 86.5396
9.156505082664324 86.1755
9.178875550323522 86.3528
9.20126381862328 86.8511
9.223652438908596 91.1156
9.246023961427412 95.38799999999999
9.26841328802173 94.7457
9.290785518039224 91.49700000000001
9.313175554425882 89.2971
9.335565947154315 87.6317
9.357939245086508 87.4364
9.380330352834827 87.2966
9.40270436697103 87.6052
9.425096193225055 87.2681
9.447488380180165 88.4605
9.469863475295412 88.7806
9.492256385987508 89.15
9.514632206018318 89.7909
9.537025843935714 90.08
9.559402392368193 90.9375
9.581796761000229 91.6866
9.604191496441521 92.2343
9.626569144158516 92.8882
9.648964615551032 93.9127
9.671343000390081 95.0773
9.693739211225699 96.0337
9.716135793237463 97.2167
9.738515290448102 97.8339
9.760912617143402 99.3091
9.783292860202891 100.29700000000001
9.805690935076182 102.089
9.828089385495742 103.309
9.850470754023561 105.501
9.872869957865444 108.26899999999999
9.89525208097539 111.24600000000001
9.917652041736662 115.23299999999999
9.940052382417589 122.479
9.962435644102392 146.532
9.984836746950979 222.513
10.007220771957746 384.733
10.029622640473708 560.354
10.052007432299963 689.3739999999999
10.074410069984072 799.4110000000001
10.096813093716005 980.704
10.119199042482517 1274.35
10.141602840636468 1616.81
10.163989564971628 1728.44
10.186394141051062 1337.28
10.208799107559706 725.3660000000001
10.231187001965623 331.746
10.253592751657669 172.785
10.275981430388155 129.56799999999998
10.298387966769793 119.383
10.320794897965431 115.58
10.343184759907361 112.887
10.36559248305461 111.18299999999999
10.387983138083852 110.6
10.410391656691655 115.17
10.432800574501677 136.6
10.455192425893369 179.69400000000002
10.47760214443012 223.05
10.499994797678786 253.805
10.522405320453982 280.884
10.54479877906917 327.558
10.567210109595656 395.356
10.5896218454736 477.97900000000004
10.612016518879773 524.655
10.634429067781074 452.084
10.656824555333241 307.401
10.679237920773568 183.64
10.701651695961992 118.609
10.724048411481384 99.3209
10.746463008485165 93.5095
10.768860546937125 90.5315
10.791275969274796 88.0278
10.81369180576079 86.5593
10.836090585366925 85.3544
10.858507252467449 83.88600000000001
10.88090686379991 82.4938
10.903324365036394 81.8164
10.925724811614439 80.4442
10.948143150509463 80.1167
10.970561909719066 78.8599
10.992963615930844 78.14699999999999
11.015383218085756 77.423
11.037785768347074 76.3503
11.06020621697282 75.6777
11.082627090322113 75.33800000000001
11.105030913430326 74.3993
11.12745263854165 74.0634
11.149857314510728 72.85600000000001
11.172279894912576 73.0211
11.194702904450653 72.0573
11.217108866490921 71.1663
11.239532736615194 70.8659
11.26193956033512 70.569
11.284364294577085 70.2728
11.306789462371718 69.8692
11.329197585398376 69.4306
11.351623622610898 69.3925
11.37403261614354 68.5072
11.396459526308487 68.5882
11.418869393879497 68.2337
11.441297180532617 68.2948
11.463725406927658 67.6244
11.486136592353875 67.0677
11.508565700543707 66.6341
11.530977768845315 66.6368
11.553407762368774 66.2327
11.575838200059769 66.1008
11.598251599479612 65.8741
11.620682927815501 65.5895
11.64309721895548 66.1165
11.665529441478206 65.7826
11.687962112597958 65.4029
11.710377748130886 65.4792
11.732811318753434 65.3064
11.755227854859067 65.134
11.777662328529495 65.0283
11.800079768750786 64.9589
11.822515149015453 65.1372
11.844950984084935 65.0261
11.867369787303163 65.0229
11.889806534289491 65.2515
11.912226250487029 66.2382
11.934663912939751 67.5959
11.9571020346363 67.9061
11.979523127133968 67.7314
12.001962169624331 67.8852
12.024384183972964 68.7778
12.046824150809913 73.3485
12.069264581333726 84.1774
12.091687985297767 95.584
12.11412934550045 105.04799999999999
12.136553680195208 112.654
12.158995973632788 120.62
12.181438735204349 133.183
12.20386447284199 150.439
12.226308172985636 174.033
12.24873485024193 193.896
12.271179492516982 189.388
12.293607112949127 162.317
12.316052700916226 119.80799999999999
12.338498763250042 87.8782
12.360927805303868 73.0012
12.383374818673879 68.6121
12.405804812803074 67.295
12.428252780773262 67.1309
12.45070122756722 67.15899999999999
12.473132656675375 66.8168
12.49558206341869 66.7606
12.518014453510101 66.8922
12.540464823770117 66.9262
12.562915677315177 67.3005
12.58534951575545 67.6315
12.607801338171472 67.2956
12.630236146511358 67.7278
12.652688941369085 68.1795
12.675124723177234 68.3914
12.697578494048786 69.2247
12.720032754458185 69.1072
12.742470003354093 69.8779
12.764925245138771 70.1713
12.787363476431278 70.3714
12.809819703166806 71.0433
12.83227642391173 72.1256
12.854716135692716 72.5725
12.877173846755147 73.4428
12.899614549869717 74.1583
12.9220732548287 75.1415
12.94453245827299 75.5322
12.966974655289818 76.5785
12.989434858002571 78.06
13.011878055298721 78.6671
13.034339260862497 79.9143
13.056800969391883 81.339
13.079245674017244 83.9627
13.101708390774869 86.5902
13.12415410463411 94.4329
13.146617833206086 115.885
13.169064559883248 144.48
13.191529303857127 169.37
13.213994557076367 188.62599999999998
13.236442809902437 203.467
13.258909083908291 223.139
13.28135835851934 249.53799999999998
13.30382565690295 290.219
13.326293469022952 343.681
13.348744283242008 392.12
13.371213125129904 396.494
13.39366497011003 341.17400000000004
13.416134845360597 249.172
13.438605238843131 168.704
13.46105863690397 127.334
13.483530069144786 122.791
13.505984506951902 138.83
13.528456981549432 159.344
13.550929978879088 173.69799999999998
13.573385983253365 184.25900000000001
13.595860028340867 196.23
13.618317081455832 214.967
13.64079217790333 243.43099999999998
13.663250283359057 280.031
13.685726434770173 322.124
13.708203115221277 351.31300000000005
13.730662806148091 323.369
13.75314054697177 258.807
13.775601299246777 184.13
13.798080104050406 126.367
13.820559442405358 98.4657
13.843021793671388 88.7263
13.865502201420897 85.2971
13.887965623051947 84.2446
13.910447103807167 82.9591
13.932929122629764 81.5104
13.955394156785959 81.0004
13.977877254034569 79.9209
14.000343367582113 79.0564
14.022827546871707 78.10300000000001
14.045294743423524 77.617
14.06778000837062 77.0098
14.090265817715476 76.6667
14.112734645763819 76.625
14.13522154619454 76.7911
14.157691466286913 76.7863
14.180179461423874 76.1929
14.202668005486178 75.61
14.22513957064374 74.5692
14.247629214846473 74.1137
14.270101881097517 73.8021
14.29259262906496 73.1901
14.315083930490205 73.0627
14.337558255389705 72.6245
14.360050666019726 72.8404
14.382526101071944 72.4617
14.405019624534942 72.3099
14.427513705993134 72.01
14.449990813291825 72.1442
14.47248601302899 71.8925
14.49496423954951 72.3485
14.517460561197822 72.3498
14.539939910570322 71.8861
14.562437357763558 72.157
14.58493536931253 72.4731
14.607416409993311 72.385
14.62991555254159 72.8047
14.652397725157423 72.9499
14.674898002342799 73.4468
14.697398848433282 73.5053
14.719882725991326 74.9628
14.74238471217934 75.6539
14.764869730765593 80.0985
14.787372860692983 88.6252
14.809876564079925 100.491
14.83236330125751 110.566
14.854868153850365 118.149
14.877356041159485 123.633
14.899862046604186 129.644
14.922351087688757 139.30200000000002
14.944858249632887 152.72899999999998
14.967365991421232 170.22400000000002
14.989856770231246 190.766
15.012365673994204 209.3
15.03485761569738 211.38299999999998
15.05736768508665 187.91
15.07987833888692 151.46200000000002
15.102372032001655 117.488
15.124883856909658 90.7867
15.14737872204565 79.4145
15.169891721717274 75.1252
15.192405310371893 73.9537
15.214901940621196 73.2847
15.237416709527137 72.3144
15.259914520936249 71.9706
15.282430473753607 71.2088
15.304947020131227 70.5073
15.327446610371178 70.3956
15.349964346154254 70.0496
15.372465126703139 69.8862
15.394984055556009 69.7026
15.417486030076159 69.5993
15.44000615566487 69.3665
15.462526881230803 69.2632
15.485030653812652 69.067
15.507552581617434 68.9474
15.530057557334603 68.9038
15.55258069104857 69.0456
15.575104429329837 69.3155
15.597611216864632 69.4456
15.620136166564563 69.6011
15.6426441664095 70.1646
15.665170331202765 73.3184
15.687697105158826 80.3852
15.710206930593545 89.98100000000001
15.732734925158933 98.1392
15.755245972089478 103.931
15.77777519094324 108.555
15.800287463046663 112.74600000000001
15.822817909869592 119.118
15.84534897229804 127.537
15.867863089299354 140.74200000000002
15.890395385222186 156.262
15.912910736597423 173.40200000000002
15.935444269699861 184.933
15.957978423016485 179.03900000000002
15.980495633101265 157.866
16.003031029129367 128.179
16.02554948280019 97.8421
16.048086125229432 79.0598
16.070623392487107 70.4324
16.09314371869582 66.9221
16.11568223789321 65.1403
16.13820381691126 64.0778
16.160743591742527 63.4837
16.183283996022084 63.3686
16.205807461423195 62.3059
16.228349126881973 61.3391
16.25087385432698 61.5588
16.27341678466365 60.7813
16.29594277784926 60.6316
16.31848697676433 60.2418
16.341031811604868 59.6797
16.36355971058487 59.5146
16.3861058195587 59.2967
16.40863499352978 58.7731
16.431182380342005 58.7744
16.453730407713202 58.3771
16.476261501364792 58.0433
16.498810812136167 57.9187
16.52134319004079 57.8813
16.54389378792203 57.7457
16.566445031001553 57.531000000000006
16.588979342490088 57.6029
16.61153187824822 57.463
16.634067483263312 57.3748
16.656621315414416 57.2918
16.679175797408888 56.723
16.701713349928728 56.8903
16.72426913389191 56.9351
16.74680798922351 56.7675
16.76936507887444 56.9344
16.791905240734874 57.1758
16.814463639794468 56.9241
16.837022695210294 56.9002
16.859564824093756 57.2822
16.882125194503903 57.306000000000004
16.904668639217885 57.3975
16.927230328348003 57.3752
16.949792678493612 57.563
16.972338104193863 57.5733
16.994901778652235 57.5845
17.017448529496576 58.0459
17.040013531998152 58.3443
17.06257920018044 58.9784
17.0851279459922 60.3041
17.107694947817667 62.1286
17.130245028099072 63.788999999999994
17.15281336730298 65.6938
17.17536478578733 66.8341
17.19793446610687 67.4618
17.220504818648422 68.7351
17.243058251703697 69.6556
17.265629950971032 72.0858
17.288184731571736 74.7739
17.310757781306908 78.5665
17.33333150794385 81.3761
17.355888317140174 83.6239
17.37846339986244 83.4975
17.401021565958885 79.89699999999999
17.42359800851343 74.1045
17.44617513265564 69.0931
17.468735341390783 65.2446
17.491261035594565 62.8235
17.51396340099364 61.9986
17.536490463869136 61.8472
17.559018209820174 61.5748
17.58154663977963 61.9834
17.604251766089718 62.0507
17.626781572227713 62.4329
17.64931206518155 62.3972
17.671843245885103 62.7542
17.69455114821572 62.7751
17.717083712612634 63.2214
17.739616967569667 63.7505
17.762150914021706 64.2235
17.78486160749854 64.5327
17.807396945166804 65.1424
17.829932977143503 66.1168
17.85246970436452 67.7298
17.875183204129467 71.5858
17.897721330097664 76.7181
17.920260154126645 81.8262
17.942799677153296 85.5349
17.9655159983646 88.0181
17.988056927677544 89.9192
18.010598558807683 92.7216
18.033140892692916 96.9728
18.05586005052525 101.71
18.07840379824407 108.36200000000001
18.10094825154059 116.96
18.12366954819864 127.88
18.146215420998306 138.747
18.16876200220057 144.107
18.191309292745153 140.29
18.214033452627167 129.24200000000002
18.236582170236648 114.35600000000001
18.259131600016456 100.67
18.281681742907335 92.5094
18.304408781233683 89.7883
18.32696035875955 90.3258
18.349512652227624 92.9251
18.372065662579683 97.8415
18.394795594587553 102.012
18.41735004715306 104.87799999999999
18.43990521943684 103.588
18.46246111238171 97.8673
18.485193953325208 89.0441
18.507751296070428 80.2206
18.530309362314178 72.9965
18.552868153000343 68.3393
18.57560391815056 65.9356
18.59816416623245 65.3348
18.620725141597372 64.6921
18.643286845190268 63.7507
18.666025549835414 63.1008
18.688588718427933 62.8215
18.711152618092243 62.6105
18.73389353884365 62.256
18.75645890921984 61.9118
18.77902501351406 61.4967
18.801591852673102 61.31
18.824335739722738 60.8761
18.846904057212626 60.8564
18.8694731124168 60.3957
18.89204290628315 60.4155
18.914789774966803 60.3194
18.937361054791623 60.0586
18.959933076131318 59.6371
18.982505839934877 59.6886
19.00525570560582 59.5495
19.027829963004184 59.2787
19.05040496572238 59.3086
19.072980714710468 59.4945
19.095733592739563 59.7045
19.11831084296757 60.1753
19.140888842324735 61.2722
19.16346759176222 62.223
19.18622349753803 62.931000000000004
19.208803755869358 63.8344
19.231384767143577 64.2126
19.253966532312948 64.8298
19.276725481241822 65.5343
19.29930876296784 66.5404
19.3218928014549 67.8478
19.34465404436217 69.3593
19.36723960516257 71.3653
19.389825925592426 73.5825
19.412413006605938 75.4402
19.43517731967805 75.5638
19.457765930683355 73.9146
19.48035530514408 70.3807
19.50294544401556 66.2493
19.525712842708348 62.1867
19.54830451925909 59.3485
19.570896963095727 57.2933
19.593490175174704 56.8146
19.616260674962184 56.5644
19.638855432416964 56.0188
19.661450960992624 56.2488
19.68404726164677 56.1592
19.706820878021247 55.8974
19.729418731756834 55.9579
19.752017360452857 55.5939
19.77461676506804 56.0613
19.797393513540218 56.0665
19.819994478951667 56.3547
19.84259622316767 57.6836
19.8651987471481 58.6982
19.887978643247177 59.1082
19.91058273574792 59.5815
19.933187610901943 60.0901
19.955969879466828 60.6808
19.97857632894404 61.1102
20.00118356396599 61.58
20.023791585494575 62.5866
20.046577028914875 64.0772
20.069186632506966 66.0538
20.091797025500632 68.7291
20.114408208858933 70.8195
20.137196842715273 72.8303
20.159809615886765 73.4818
20.18242318232135 71.99600000000001
20.20503754298326 69.521
20.227829382875154 67.2494
20.250445341109344 65.0661
20.27306209647285 63.7351
20.29567964993108 63.7052
20.31847471147704 63.8937
20.34109387027612 65.0414
20.363713830075454 66.3862
20.386334591841646 67.2952
20.409132890679302 66.2116
20.431755265564437 64.1261
20.454378445325528 61.2166
20.477002430930366 58.1595
20.499803982716553 55.7476
20.522429589228004 54.1671
20.54505600449589 53.117
20.567683229489194 52.8908
20.590488049900088 52.683
20.61311690359731 52.5132
20.63574656993626 52.4133
20.658553853717297 51.9362
20.681185154618298 51.8977
20.703817271080066 51.75899999999999
20.72645020407368 51.4253
20.749260783967177 51.5145
20.771895359337133 51.3781
20.794530754161617 51.39
20.817166969412938 51.1845
20.83998086114876 51.0987
20.86261872660049 51.0284
20.885257415405402 51.0046
20.90789692853701 50.7803
20.930714147864748 50.6348
20.953355319030678 50.8264
20.97599731745334 51.1934
20.99864014410749 51.0666
21.021460706796564 51.2441
21.044105199328826 51.5339
21.06675052302631 51.6417
21.089396678865015 51.4375
21.112220600704806 51.7522
21.134868430275347 51.8563
21.15751709492456 51.8235
21.180166595629693 51.9575
21.202993892429635 52.1783
21.22564507473034 52.3858
21.24829709602816 52.7344
21.27112693608965 53.1758
21.293780644891275 53.6259
21.316435195634053 53.5021
21.339090589297417 52.9535
21.361923832041875 52.6791
21.384580921090404 51.7487
21.407238856007325 51.1955
21.429897637773326 51.052
21.45273429906592 50.6545
21.475394784108598 50.6144
21.498056118951983 50.5127
21.520718304578022 50.8552
21.543558400304388 51.0117
21.566222297108816 51.1809
21.58888704765135 51.3041
21.61155265291521 51.891000000000005
21.63439619898156 52.8047
21.657063523335786 53.4714
21.67973170537063 54.3459
21.7024007460706 54.9429
21.72524775840385 55.257
21.747918526116475 55.7911
21.770590155457388 56.2199
21.79326264741238 56.8178
21.816113141960237 57.6141
21.838787368860547 58.8778
21.861462461341976 60.1868
21.884315579735777 62.07
21.90699241312273 63.5079
21.92967011506078 65.0724
21.95234868653799 66.3843
21.9752053151131 66.9458
21.997885635446785 66.1324
22.020566828293532 64.5612
22.04324889464272 62.111999999999995
22.066109049404666 59.832
22.088792872571794 58.1177
22.111477572219204 57.4641
22.1341631493376 57.4066
22.157026846313123 57.6871
22.179714188221507 57.8801
22.202402410582668 57.6943
22.22509151438863 56.798
22.24795876962584 55.4171
22.270649646204486 54.2174
22.293341407213727 52.9927
22.316034053646906 52.0841
22.338904883215342 51.5778
22.36159931041458 51.3965
22.38429462602756 51.3093
22.40699083104897 50.7163
22.429865251039757 50.7643
22.452563244831367 50.8209
22.47526213102522 50.746
22.49813925616515 50.8083
22.520839937143307 50.7926
22.543541513520587 50.8217
22.56624398629403 50.6906
22.589124730075895 50.6041
22.611829005656723 50.9132
22.63453418063466 50.9749
22.657240256008077 51.1918
22.680124634582935 51.7433
22.70283252079775 52.3057
22.725541310413075 52.7946
22.74825100442868 53.0366
22.771139033969575 53.6138
22.79385054687155 53.4122
22.81656296718292 53.6621
22.83927629590484 53.9943
22.862167992606945 54.3843
22.88488314827121 55.0242
22.907599215359284 55.5319
22.93031619487366 56.0441
22.953211574954405 56.7505
22.975930389478226 57.7859
22.998650119445763 58.8519
23.02137076586092 59.3426
23.044269845560063 59.4455
23.06699233506288 58.5015
23.089715744034912 57.1534
23.112617610931565 55.4078
23.135342869061212 53.85
23.158069049684816 52.6892
23.1807961538087 51.6618
23.20370174880544 51.2966
23.226430710184808 51.2133
23.249160598093425 51.0988
23.271891413539002 51.273
23.294800752937697 51.81
23.31753343374794 52.3379
23.340267045128353 52.6722
23.36300158808808 53.0616
23.38591468821339 53.0816
23.408651104658304 53.1432
23.431388455719986 53.2422
23.454126742409 53.4368
23.4770436196085 53.7363
23.499783787914662 54.4974
23.522524894889884 54.8364
23.54526694154616 55.3933
23.56818761219047 56.315
23.59093154860734 57.0962
23.613676427751283 58.4292
23.636422250635754 58.8894
23.659346731118656 58.8838
23.68209445191868 57.9996
23.704843119509587 56.3627
23.72759273490623 54.3261
23.750521041644767 52.3714
23.77327256312355 50.6963
23.796025035462787 49.6508
23.818956224555475 48.7332
23.841710609113413 48.3936
23.86446594758979 47.9999
23.887222241002014 47.77
23.910157285144578 47.383
23.932915498962537 47.3094
23.955674670778713 47.1531
23.978434801611975 46.8609
24.001373717286125 46.8332
24.024135776723917 46.6856
24.046898798245582 46.5591
24.06966278287146 46.4731
24.092605586582614 46.2538
24.115371508023642 46.2747
24.1381383956401 46.0423
24.16090625045381 45.9116
24.183852958731244 45.72
24.206622758582608 45.7869
24.229393528706886 45.5135
24.252165270127392 45.6163
24.27511589952438 45.663999999999994
24.297889594216997 45.5147
24.32066426328598 45.1751
24.34343990775613 45.3156
24.36639447485003 45.1259
24.38917208083877 45.1847
24.41195066531332 44.9659
24.43490819850244 45.0281
24.457688750692377 44.8931
24.48047028445616 44.8198
24.503252800821233 44.8827
24.526214300784112 44.9558
24.548998793132213 44.8172
24.57178427117417 44.7372
24.59457073593893 44.7876
24.617536219319863 44.6831
24.64032466834748 44.8524
24.663114107195035 44.6035
24.685904536893013 44.4678
24.708874020360852 44.3842
24.731666442613744 44.4405
24.754459858818787 44.4414
24.777254270007962 44.1092
24.80022777025625 44.14
24.82302418230472 44.2323
24.845821592443674 44.248999999999995
24.86862000170663 44.2349
24.891597535453727 44.1265
24.914397953892728 44.3398
24.93719937456671 44.3518
24.96000179851076 44.4218
24.98298338249997 44.5749
25.00578782394922 44.71
25.028593271784167 44.8077
25.05157790644186 45.0597
25.07438537804115 45.2651
25.097193859145293 45.4139
25.120003350792075 45.5114
25.142992065061257 45.736999999999995
25.165803588823465 45.9603
25.18861612625217 46.2316
25.211429678386736 46.278999999999996
25.234422489079968 46.2644
25.257238081693636 46.3428
25.280054692141732 46.4413
25.3028723214652 46.2849
25.325869245420463 46.0954
25.348688923599397 46.2866
25.371509623787006 46.3307
25.394331347025812 46.2235
25.41733240110666 46.2201
25.440156181590016 46.0444
25.46298098826268 45.7179
25.48580682216873 45.6488
25.50881202326435 45.0593
25.53163992281684 44.4456
25.55446885274561 43.5336
25.577298814096377 43.5788
25.600308179121807 42.8583
25.623140214533745 42.7975
25.64597328451537 42.7751
25.66898578564376 42.5349
25.691820936010206 42.4391
25.714657124097695 42.4127
25.737494350954734 42.4468
25.760511045684957 42.2635
25.783350361364224 42.3546
25.806190718969255 42.3817
25.82903211955018 42.5531
25.852053024868923 42.5686
25.874896522722523 42.5491
25.897741066713106 42.3603
25.920586657892454 42.5258
25.943611790812668 42.6084
25.966459487728237 42.5564
25.989308234998564 42.4992
26.01215803367705 42.766000000000005
26.03518741123814 42.8612
26.05803932412957 42.8123
26.080892291600094 42.81
26.10374631470478 42.9968
26.12677995397268 43.2248
26.14963609978026 43.3944
26.172493304397875 43.3214
26.19535156888223 43.2835
26.218389486949604 43.0572
26.241249882640123 42.6762
26.26411134137826 42.417
26.28715248187403 42.4329
26.31001607820869 42.1958
26.3328807407756 42.0038
26.35574647063438 42.1288
26.37879191991473 42.1908
26.401659795896734 42.0757
26.424528742360263 42.1636
26.447398760366614 42.3697
26.470448535598294 42.2965
26.49332070826805 42.4177
26.516193955675355 42.6636
26.53906827888316 42.7156
26.562122397260108 42.8262
26.584998883685063 42.9326
26.607876449110325 43.1418
26.63075509460056 43.2056
26.65381357334404 43.4653
26.67669439061878 43.6228
26.699576291163382 43.8094
26.722459276044212 43.869
26.745522132402975 43.7455
26.768407297649354 43.6152
26.791293550442003 43.1301
26.814180891848974 42.7286
26.837248143099337 42.3155
26.860137673466657 42.4504
26.88302829566349 42.0991
26.90592001075963 42.041000000000004
26.92899167420566 41.9049
26.951885586870763 41.4765
26.974780595655517 41.372
26.99785558178161 41.2981
27.020752794605112 41.0517
27.043651106772522 40.7092
27.06655051935668 40.7625
27.089629948036183 40.5655
27.112531573292053 40.5865
27.135434302194138 40.5669
27.158338135817015 40.2653
27.181422024430987 40.3193
27.204328079372566 40.371
27.22723524226965 40.372
27.250143514198573 40.4393
27.273231880156334 40.3092
27.296142382065014 40.1718
27.319053996245536 40.0847
27.341966723775965 40.1594
27.365059584515222 40.150999999999996
27.38797455070062 40.2241
27.410890633481237 39.9938
27.433807833936918 39.986999999999995
27.456905206923906 39.9998
27.47982465472398 40.1203
27.502745223449743 40.1966
27.525666914182825 40.2879
27.548768816912457 40.1747
27.571692763693633 40.1329
27.59461783573812 40.1355
27.617723149491244 39.9627
27.640650484125285 39.894
27.66357894728264 39.9935
27.686508540048052 39.9417
27.709618414237887 39.915
27.732550278321757 39.7071
27.755483275279115 39.8108
27.778417406196485 39.8135
27.801531858397514 39.704
27.824468269376716 39.5431
27.847405817586786 39.5056
27.870344504116094 39.7205
27.893463551932008 39.72
27.916404527281053 39.9368
27.93934664422563 39.8555
27.962289903855886 39.9001
27.98541356491974 39.9573
28.00835912214229 39.9772
28.03130582533231 40.2964
28.054253675581805 40.3276
28.077381967556104 40.3677
28.100332124185126 40.3786
28.123283431160893 40.4649
28.146235889577238 40.4732
28.169368830154156 40.3527
28.192323603752033 40.1181
28.215279532083304 39.9277
28.238415973016764 39.7823
28.261374223145094 39.5714
28.284333631303806 39.3312
28.307294198589954 39.2004
28.330435319167677 38.8906
28.353398217078915 38.7139
28.376362277420153 38.5268
28.39932750129032 38.3785
28.422473319286713 38.1554
28.44544088262495 38.0419
28.468409612800283 37.8736
28.491379510913497 37.7485
28.51453004413313 37.5285
28.53750229057244 37.4641
28.56047570826344 37.4465
28.583450298308804 37.5694
28.606605564586562 37.3073
28.629582511831156 37.4255
28.65256063474956 37.3395
28.675539934446338 37.2915
28.698699951647605 37.1265
28.72168161743193 37.0165
28.74466446331978 37.104
28.767648490417624 36.9149
28.790813276438353 36.8152
28.813799678527303 36.8147
28.836787265157085 36.8342
28.859955641890075 36.8105
28.882945610203045 36.8529
28.905936766392035 36.653
28.928929111566863 36.6965
28.952102288520145 36.6415
28.975097024308607 36.6591
28.998092952423807 36.5481
29.021090073977508 36.5674
29.04426806913204 36.5685
29.067267590245258 36.3584
29.090268308143695 36.2647
29.11327022394099 36.2138
29.13645305530891 35.9905
29.159457379627167 35.9777
29.18246290519685 35.8383
29.20546963313352 35.8464
29.22865731875826 35.7493
29.25166646419296 35.7849
29.27467681535305 35.5911
29.29768837335608 35.6139
29.320880931312562 35.635999999999996
29.34389491580634 35.6214
29.366910110507334 35.5751
29.38992651653503 35.6219
29.41312396492981 35.5312
29.436142806456754 35.4633
29.45916286268059 35.5005
29.48236399319994 35.4474
29.50538649169417 35.2985
29.528410208259935 35.302
29.55143514402014 35.145
29.574641196749695 34.8859
29.597668583816574 34.7393
29.6206971934585 34.6322
29.64372702680042 34.7791
29.666938019934474 34.5448
29.689970313635285 34.4216
29.713003834422636 34.4254
29.73603858342347 34.4437
29.759254535188578 34.2155
29.78229175361658 34.1334
29.80533020365064 34.2041
29.82836988641968 34.2422
29.85159081507472 34.2002
29.874632976355343 34.1504
29.89767637376955 34.2426
29.920721008448314 34.056999999999995
29.9439469322847 34.0088
29.96699405457564 33.9863
29.9900424175358 33.9311
30.013092022298157 33.9158
30.03632295963995 33.9124
30.059375061131373 33.9045
30.08242840783577 33.8971
30.105483000888153 33.8711
30.128718970092244 33.8365
30.151776069006917 33.7743
30.17483441768648 33.724000000000004
30.198074175317235 33.6641
30.221135036724256 33.7658
30.24419715131772 33.741
30.267260520236203 33.6962
30.290505341942243 33.819
30.313571232750228 33.7918
30.336638381310948 33.7514
30.35970678876503 33.7778
30.38295669299435 33.7
30.40602763151657 33.7055
30.429099832366074 33.6221
30.452173296685572 33.5646
30.47542830191959 33.4833
30.498504306502497 33.4553
30.521581577995562 33.5705
30.544660117543582 33.5545
30.56792024229725 33.4827
30.59100133132069 33.3921
30.614083691845494 33.3589
30.637167325018545 33.4137
30.660432587840603 33.5399
30.683518779717886 33.334
30.70660624769615 33.4531
30.729694992924372 33.5208
30.75296541239743 33.4622
30.77605672557558 33.5121
30.799149319462742 33.5646
30.8224236211637 33.3604
30.845518789950724 33.3669
30.868615242910597 33.2473
30.891712981195973 33.1404
30.91499247215866 33.0365
30.938092794619365 32.9831
30.96119440587579 32.9679
30.984297307082752 32.8148
31.00758200598383 32.718
31.030687500658694 32.7063
31.053794288760695 32.6178
31.076902371446767 32.5354
31.100192296997445 32.6092
31.12330298246119 32.5297
31.14641496599209 32.3363
31.169528248749216 32.2984
31.19282341969534 32.2315
31.215939314557186 32.2552
31.239056512134788 32.3017
31.262175013589378 32.3274
31.28547544871168 32.2418
31.30859657161541 32.1379
31.331719001892175 32.2405
31.35484274070538 32.274
31.378148458819545 32.2173
31.401274828443725 32.1128
31.424402510106933 32.2112
31.447712205419993 32.2677
31.470842524931633 31.9901
31.493974159989783 32.0185
31.51710711176168 32.0538
31.54042212308802 32.1494
31.563557722100917 32.1181
31.586694641341655 32.0417
31.609832881979628 31.9908
31.63315322823208 31.8536
31.656294125521327 31.7087
31.679436347728515 31.7447
31.70257989602529 31.6429
31.725905596152327 31.5606
31.74905181052835 31.4215
31.772199354521323 31.4532
31.79534822930507 31.4858
31.818679302290967 31.4771
31.84183085259981 31.5242
31.864983737233473 31.4467
31.88813795736804 31.3269
31.911474422233013 31.1952
31.934631327356435 31.2185
31.9577895715215 31.32
31.980949155906522 31.3309
32.004291031706956 31.1812
32.027453310562606 31.171999999999997
32.05061693318573 31.1011
32.07396288236386 31.1906
32.09712920658542 31.0352
32.12029687812702 30.8983
32.14346589817093 30.8482
32.166817291729984 30.8297
32.18998902288583 30.7889
32.21316210610336 30.6166
32.23633654256711 30.6019
32.259693399663725 30.5576
32.282870556771144 30.4284
32.30604907069099 30.4482
32.329228942610065 30.4447
32.35259128243769 30.2095
32.375773884550505 30.1488
32.398957848235646 30.2191
32.422143174682176 30.1293
32.445511016471215 30.0183
32.468699082679954 29.9484
32.49188851523011 29.9314
32.51507931531304 29.8517
32.538452678331 29.9232
32.56164622776311 29.858
32.58484114831493 29.761999999999997
32.60803744118015 29.7784
32.631416344731896 29.698
32.654615396551876 29.6941
32.67781582427913 29.6209
32.701198898634416 29.5455
32.72440209253756 29.5291
32.747606665947124 29.5163
32.77081262006088 29.4149
32.79420126883317 29.3945
32.81740999876112 29.353
32.840620112999424 29.2357
32.86383161274818 29.1719
32.88722585534586 29.214000000000002
32.91044014056596 29.173000000000002
32.933655814909734 29.2278
32.95687287957963 29.2055
32.98027273544904 29.185
33.00349259526636 29.0622
33.026713849030116 29.0184
33.04993649794511 28.9782
33.073341986570746 28.9912
33.09656744032826 28.9472
33.11979429286444 28.9588
33.14302254538647 28.9273
33.166433686291185 28.8359
33.18966475336992 28.7814
33.212897224069096 28.7403
33.23613109959831 28.7641
33.259547912343415 28.715
33.2827846121627 28.7555
33.306022720453775 28.6325
33.32926223842861 28.5295
33.352684742614166 28.5548
33.37592709463173 28.5861
33.399170859982064 28.5068
33.422597648419426 28.4124
33.44584425514446 28.3436
33.46909227885668 28.3344
33.4923417207723 28.1599
33.51577423505344 28.2667
33.539026528130385 28.0685
33.56228024307245 28.0685
33.585535381098246 27.9058
33.60897364093058 27.8669
33.63223163992385 27.961
33.6554910656699 27.8002
33.678751919389796 27.7333
33.702195944520106 27.7526
33.72545966903325 27.8626
33.74872482519663 27.6909
33.771991414233746 27.6897
33.79544122444841 27.6284
33.81871069412428 27.5663
33.84198160035767 27.4817
33.86525394437455 27.4815
33.88870955949969 27.4012
33.911984794020626 27.3858
33.93526147001624 27.4115
33.958539588715006 27.4054
33.98200102861669 27.2435
34.0052820477047 27.1602
34.02856451319451 27.2264
34.05203033759056 27.1893
34.07531571090147 27.1518
34.09860253431845 27.1025
34.121890809074316 27.0323
34.145362493118924 27.0143
34.16865368561615 26.889
34.191946333164054 26.8784
34.21524043699793 26.8429
34.23871800066799 26.807
34.26201503218366 26.7328
34.28531352370466 26.6921
34.30861347646881 26.6926
34.33209693978188 26.6215
34.3553998301885 26.5342
34.378704185565205 26.4728
34.402010007152356 26.4283
34.42549939016683 26.4962
34.44880815937748 26.3811
34.472118398533134 26.4149
34.49543010887669 26.4302
34.51892543169198 26.2841
34.54224009966052 26.2469
34.56555624255917 26.2021
34.58887386163339 26.0591
34.61237514439016 26.06
34.6356957311114 26.0612
34.65901779775809 26.0929
34.68252356662995 26.0379
34.705848608458616 25.9482
34.72917513396849 25.8978
34.75250314440949 25.8472
34.77601490857862 25.7559
34.799345904259795 25.7126
34.82267838863559 25.7331
34.846012362958525 25.7413
34.869530142679984 25.6765
34.89286711232212 25.5767
34.91620557568269 25.6536
34.93954553401677 25.5313
34.9630693495876 25.5531
34.986412313340814 25.5379
35.00975677584668 25.54
35.033102738362956 25.4522
35.05663261012228 25.295
35.0799815881786 25.4038
35.10333207003229 25.3531
35.12668405694369 25.4003
35.150220005273056 25.3464
35.17357501786656 25.361
35.19693153931268 25.1935
35.220289570874385 25.1476
35.24383161619786 25.1159
35.267192683604904 25.1738
35.290555264930376 25.0806
35.314101899412165 25.0879
35.33746752422433 24.9682
35.36083466676374 25.0096
35.38420332829803 25.0134
35.407756095629054 24.9978
35.43112781085063 24.9649
35.45450104888391 24.9495
35.477875810999194 24.9431
35.50143473172161 24.8031
35.52481255774625 24.8105
35.54819191167777 24.8183
35.57157279478914 24.7503
35.595137889488406 24.7503
35.61852184675279 24.7002
35.641907337029984 24.6429
35.665294361595684 24.6348
35.68886565090076 24.4822
35.7122557598848 24.5051
35.73564740699838 24.5408
35.759040593519934 24.459
35.78261809810353 24.4684
35.80601437933051 24.3975
35.829412203814705 24.2475
35.85281157283719 24.1944
35.876395313415884 24.2313
35.8997977874528 24.1158
35.92320180988546 24.177
35.946790244133936 24.1034
35.97019737933222 24.087
35.993606066789866 24.1177
36.01701630779276 24.0131
36.04061101440684 23.9574
36.06402437852291 23.9648
36.08743930005611 23.9348
36.1108557802951 23.8338
36.13445678011326 23.8189
36.15787639383515 23.8409
36.18129757014299 23.7939
36.20472031032821 23.7779
36.22832762423364 23.6417
36.25175350829375 23.6687
36.275180960119776 23.5778
36.298609981005924 23.5864
36.32222362992669 23.5806
36.34565580510207 23.5411
36.36908955323448 23.4682
36.39252487562093 23.4009
36.416144880530226 23.4024
36.43958336764275 23.3365
36.463023432914625 23.3691
36.486465077645676 23.3297
36.51009145956204 23.4123
36.53353627947859 23.2916
36.55698268276811 23.2344
36.58043067073321 23.205
36.60406345072071 23.1097
36.62751462435344 23.0811
36.65096738658405 23.1199
36.67460498210655 23.0542
36.69806093788647 23.0278
36.72151848619297 22.9972
36.744977628333636 22.9818
36.76862165890998 22.9352
36.79208400512205 22.9768
36.81554794910557 22.9192
36.83901349217101 22.8252
36.862663978991606 22.7948
36.88613273667352 22.7663
36.90960309738324 22.7111
36.933075062434064 22.6877
36.95673202673572 22.6531
36.98020721697122 22.5439
37.003684015502365 22.5279
37.027162423645365 22.5169
37.050825886711465 22.5202
37.07430753063053 22.4259
37.09779078812467 22.395
37.121275660513014 22.3949
37.144945643673694 22.2878
37.16843376245278 22.2946
37.19192350009803 22.2864
37.215414857931435 22.1243
37.239091382563885 22.1309
37.262585997426164 22.2404
37.28608223645736 22.2154
37.309763684451696 22.151
37.33326318851098 22.0638
37.356764320726555 22.0733
37.380267082425526 22.0625
37.40395510942588 22.0353
37.42746114683234 21.9139
37.45096881771841 21.8457
37.474478123414166 21.886999999999997
37.49817275092816 21.7986
37.52168534303452 21.8341
37.54519957395567 21.6822
37.568715445024665 21.7979
37.592416694607714 21.6838
37.61593586281424 21.6603
37.63945667518264 21.7133
37.66297913304891 21.5631
37.68668702630454 21.5867
37.710212792059274 21.4636
37.733740207334854 21.4872
37.757269273470364 21.3824
37.780983832050374 21.4257
37.80451621684926 21.4308
37.82805025654007 21.4101
37.851585952464795 21.3368
37.8753071980695 21.3159
37.89884622345676 21.1906
37.92238690911902 21.154
37.94611318753442 21.1177
37.969657210779765 21.1353
37.99320289834801 21.1003
38.016750251586465 21.0475
38.04048325513017 21.0138
38.06403395679343 20.95
38.087586328183946 20.9402
38.11114037065203 20.9803
38.13488012115898 20.8932
38.1584375229181 20.8933
38.181996599821 20.9013
38.205557353221124 20.8173
38.229303872575656 20.826
38.2528679961576 20.7342
38.27643380031219 20.6593
38.30000128639589 20.6772
38.32375459653193 20.68
38.34732546371299 20.6226
38.37089801690786 20.5566
38.39447225747609 20.5148
38.418232380377425 20.4185
38.441810012983396 20.4021
38.46538933705673 20.3903
38.488970353960084 20.3391
38.51273731166058 20.3602
38.536321731567014 20.3336
38.55990784840681 20.3431
38.58367995004091 20.2716
38.60726947812959 20.1369
38.63086070726198 20.1731
38.654453638806274 20.1442
38.678232613930824 20.1157
38.70182896773327 20.0708
38.72542702806741 20.0687
38.7490267963045 20.0668
38.77281266709232 19.9979
38.79641586862214 20.0222
38.8200207821842 19.9445
38.843627409152944 19.9317
38.86742019782782 19.844
38.891030269149255 19.8588
38.914642058016156 19.9216
38.938255565806124 19.7913
38.96205529464307 19.7787
38.98567225787121 19.6935
39.00929094417078 19.6452
39.03291135492255 19.7149
39.05671804624804 19.6653
39.080341923549106 19.6006
39.103967529460334 19.5947
39.127594865365744 19.5228
39.15140854155791 19.4471
39.17503935514948 19.4705
39.19867190290282 19.477
39.22249083587951 19.3996
39.24612686969409 19.4215
39.269764641845306 19.4319
39.293404153722804 19.3513
39.317230110864074 19.2933
39.34087311998506 19.2928
39.36451787301696 19.2613
39.388164371352595 19.1758
39.41199737518003 19.0904
39.43564738196752 19.0968
39.45929913825317 19.1047
39.48295264543308 19.0949
39.506792718520884 19.025
39.530449745387216 18.998
39.55410852735203 18.8874
39.57776906581474 18.9753
39.60161623079 18.9569
39.625280300200025 18.9052
39.64894613032202 18.8581
39.67261372255866 18.8401
39.6964680021016 18.8116
39.72013913657293 18.8068
39.74381203738292 18.7481
39.76748670593756 18.6874
39.79134812278169 18.703
39.81502634488497 18.7013
39.83870633896685 18.6592
39.862388106436654 18.5671
39.88625668336918 18.597
39.90994201572829 18.586
39.933629125719285 18.6031
39.957503091207826 18.5062
39.9811937746168 18.4261
40.00488623990914 18.4643
40.02858048850006 18.4092
40.05246165409549 18.368
40.076159487492085 18.3414
40.099859108448875 18.2903
40.123560518384345 18.2973
40.1474489070226 18.2714
40.171153913178564 18.1945
40.194860712584955 18.2236
40.2185693066637 18.2
40.242464941335314 18.1259
40.26617714307655 18.1298
40.289891143772046 18.0459
40.3136069448471 18.0366
40.33750984859743 18.0289
40.3612292688043 17.9754
40.3849504936829 17.9385
40.40867352466194 17.9503
40.43258372059144 17.9287
40.45631038219906 17.8976
40.48003885420956 17.8311
40.503769138055105 17.814
40.52768664931955 17.7875
40.55142057531802 17.7399
40.57515631746428 17.7709
40.599079334038514 17.7791
40.62281872700477 17.5981
40.64655994043941 17.6602
40.67030297578061 17.6519
40.69423334835778 17.634
40.71798004609188 17.6093
40.74172857006355 17.5558
40.76547892171441 17.5546
40.7894166736039 17.4536
40.813170699248566 17.4397
40.83692655691388 17.3971
40.86068424804498 17.3825
40.884629402612525 17.3352
40.908390779366385 17.3397
40.932153993938 17.3697
40.95591904777605 17.3413
40.979871628443995 17.3152
41.003640379561936 17.2246
41.02741097430883 17.1945
41.05118341413683 17.1742
41.075143444384416 17.1889
41.098919593177826 17.1916
41.1226975914255 17.097
41.14647744058318 17.0601
41.170444943946755 17.0279
41.19422851378379 16.9992
41.218013938914645 16.9064
41.24198706625173 16.855999999999998
41.26577622087193 16.8477
41.289567235177785 16.913
41.31336011063129 16.8947
41.337340752422875 16.8032
41.361137369129835 16.8402
41.38493585138705 16.8239
41.40873620066004 16.769000000000002
41.43272438060107 16.7684
41.45652848292052 16.7042
41.48033445666918 16.6293
41.50414230331616 16.5968
41.528138045159764 16.5896
41.551949656675205 16.5198
41.575763145513235 16.5384
41.59957851314666 16.5214
41.62358184070442 16.509
41.64740098505737 16.5026
41.6712220126409 16.4435
41.69504492493139 16.4286
41.71905586207357 16.3654
41.74288256296395 16.381
41.766711153007456 16.3486
41.79054163368412 16.3014
41.814560204340054 16.2736
41.838394485526365 16.2738
41.86223066180303 16.2375
41.88625497706819 16.1921
41.910094962812 16.1842
41.93393684811168 16.1867
41.95778063445365 16.072
41.981812625263366 16.0426
42.00566023303407 16.0662
42.029509746323676 16.0517
42.05336116662236 15.9954
42.077400857069705 15.9914
42.10125611078846 15.9386
42.12511327600405 15.9102
42.14897235421036 15.887
42.173019768448455 15.8908
42.19688269209613 15.8893
42.22074753323349 15.8229
42.24461429335818 15.8561
42.268669455600495 15.7862
42.292540073217886 15.7227
42.31641261433284 15.7144
42.34028708044675 15.6571
42.36435001496739 15.610999999999999
42.38822835065557 15.6276
42.41210861586426 15.5946
42.4359908120986 15.5641
42.46006154323262 15.5478
42.48394762115317 15.5155
42.507835634632315 15.5253
42.531912233047436 15.4878
42.55580413732265 15.4752
42.579697981698 15.3961
42.60359376768525 15.4269
42.62767820545945 15.3439
42.65157789440821 15.3387
42.67547952952185 15.3464
42.699383112316 15.3241
42.72347541395347 15.2655
42.74738291190531 15.2207
42.771292362102166 15.1934
42.795203766063516 15.1673
42.819303956130405 15.1555
42.843219287476536 15.1004
42.86713657716324 15.0925
42.89105582671383 15.0896
42.91516392983864 15.0917
42.939087119032166 15.0776
42.963012272677304 15.0402
42.98693939230129 14.9864
43.01105543317513 14.9758
43.034986504731386 14.8882
43.05891954686589 14.850999999999999
43.08285456110972 14.8788
43.10697856448665 14.8941
43.130917542983475 14.8641
43.15485849820081 14.8092
43.17880143167367 14.7518
43.20293342237094 14.7408
43.226880332449 14.664000000000001
43.25082922540554 14.7375
43.27496722682525 14.7028
43.29892010567796 14.6622
43.32287497204102 14.6202
43.34683182745632 14.5981
43.370977859791836 14.5813
43.39493871351105 14.5388
43.41890156092628 14.5212
43.44286640358341 14.4856
43.46702049182749 14.5034
43.49098934522816 14.4174
43.51496019852649 14.3898
43.5389330532723 14.4478
43.56309522248204 14.3851
43.58707210044314 14.3605
43.61105098451946 14.3263
43.63503187626491 14.318
43.659202151562134 14.2734
43.68318707902681 14.2495
43.70717401884041 14.1768
43.731162972560874 14.2344
43.75534137913236 14.2342
43.779334381108384 14.1519
43.803329401683186 14.1469
43.82732644241872 14.0916
43.8515130055166 14.0413
43.87551410707659 14.0251
43.89951723350145 14.0577
43.923709934595614 14.0201
43.94771713129917 13.9767
43.97172635758096 13.9967
43.99573761501002 13.9507
44.0199385169922 13.9189
44.04395385732619 13.8783
44.067971233533086 13.8906
44.09199064718605 13.8571
44.11619977548961 13.8348
44.14022328470671 13.8018
44.16424883610785 13.788
44.18827643127035 13.7713
44.21249381139513 13.702
44.236525514814076 13.703
44.26055926674478 13.6969
44.28459506876863 13.6958
44.3088207262813 13.5884
44.33286064928722 13.5934
44.35690262714919 13.6015
44.38094666145278 13.5215
44.4051806219871 13.5485
44.42922879003185 13.4723
44.45327901929361 13.4449
44.477331311362136 13.4566
44.501573600619416 13.3737
44.525630039221795 13.3426
44.54968854541895 13.3697
44.573937102200176 13.3815
44.5979997645541 13.3431
44.622064499300315 13.2957
44.64613130803592 13.259
44.67038823869318 13.2519
44.69445921643748 13.2474
44.718532272981385 13.2226
44.742607409926194 13.1754
44.76687274034801 13.1752
44.79095205918753 13.1291
44.81503346325094 13.1026
44.839116954143876 13.1235
44.86339071028742 13.092
44.88747839599524 13.0012
44.91156817336837 12.9792
44.93566004401666 13.0207
44.959942251908146 12.998
44.984038330325966 12.9412
45.00813650686762 12.9398
45.03223678314731 12.9342
45.05652746888232 12.8954
45.08063196592069 12.8797
45.104738567558705 12.8666
45.128847275414856 12.8249
45.15314646515866 12.8087
45.17725940679741 12.8057
45.20137445952892 12.7364
45.22568004865265 12.7434
45.24979934496396 12.7483
45.27392075725247 12.6896
45.29804428714431 12.6671
45.322358426247604 12.6266
45.346486212804315 12.6522
45.370616121861914 12.6331
45.39474815505086 12.5311
45.41907087049246 12.5322
45.4432071734666 12.532
45.46734560548283 12.5006
45.49148616817604 12.5063
45.51581748638564 12.4349
45.5399623320197 12.4323
45.56410931325473 12.395
45.58825843173002 12.3747
45.61259837920865 12.3506
45.636751793816 12.3402
45.66090735060093 12.3436
45.68506505120716 12.2601
45.7094136545275 12.2448
45.73357566449271 12.2509
45.75773982322992 12.2369
45.78190613238733 12.2604
45.806263418194064 12.1694
45.83043404997326 12.1929
45.85460683713677 12.1664
45.87897065658495 12.1546
45.90314777634752 12.0763
45.92732705646868 12.0572
45.9515084986045 12.0722
45.97588104735473 12.0259
46.00006683541565 12.0392
46.02425479047904 12.0209
46.04844491420549 11.9859
46.0728262191024 11.9659
46.09702070211635 11.9492
46.12121735879483 11.922
46.14541619080294 11.915
46.169806278764455 11.8863
46.194009483459034 11.8986
46.21821486849841 11.8411
46.24242243555223 11.8376
46.266821333570014 11.7884
46.29103328674601 11.8187
46.31524742696538 11.8093
46.33946375590237 11.7145
46.36387149104216 11.6822
46.38809221957392 11.6743
46.41231514186606 11.6825
46.436540259597464 11.6528
46.460956858999374 11.6705
46.48518638983522 11.6113
46.509418121166966 11.5525
46.533652054678114 11.5425
46.55807754555709 11.5333
46.58231590571962 11.5305
46.60655647313217 11.5116
46.630988654873654 11.4218
46.655233659129024 11.4589
46.67948087571551 11.4602
46.70373030632484 11.3817
46.72817142736393 11.3725
46.752425308428684 11.3376
46.77668140861147 11.3445
46.80093972960865 11.3134
46.82538981736788 11.2849
46.849652602470904 11.3146
46.87391761349769 11.265999999999998
46.8981848521493 11.2484
46.9226439341274 11.2458
46.946915650573224 11.2304
46.97118959976749 11.1679
46.99546578341598 11.1622
47.019933887188216 11.1484
47.04421456235744 11.1518
47.06849747711879 11.0362
47.09278263318286 11.0498
47.11725978640143 11.0382
47.14154944775105 11.0238
47.165841355555656 10.9742
47.1901355115306 10.9612
47.214621741924994 10.9841
47.23892041698887 10.9731
47.26322134538975 10.912
47.28771440635075 10.9322
47.31201986422527 10.927
47.33632758061436 10.8385
47.360637557241866 10.855
47.38513974410611 10.8646
47.40945426407847 10.8175
47.43377104948137 10.7882
47.45809010204344 10.796
47.48260144275502 10.7561
47.506925052572285 10.7261
47.53125093475548 10.6841
47.55557909103813 10.6874
47.58009961361992 10.6478
47.60443234110732 10.6373
47.62876734791564 10.6442
47.65310463578333 10.5962
47.6776343683373 10.5907
47.7019762413987 10.5699
47.72632040075572 10.5569
47.75066684815169 10.547
47.77520581885936 10.51
47.799556865477655 10.5036
47.823910205386 10.5301
47.84826584033272 10.4552
47.87281407745551 10.4072
47.89717432569297 10.4216
47.92153687423484 10.3899
47.94609208429692 10.3664
47.97045925671401 10.3673
47.99482873471275 10.3323
48.01920052005013 10.2949
48.04376504619224 10.2603
48.068141469543484 10.3165
48.09252020552573 10.3111
48.11690125590099 10.2775
48.1414751266064 10.2783
48.16586082917454 10.2397
48.19024885144316 10.1741
48.2146391951793 10.1811
48.239222439012764 10.158
48.26361744916137 10.122
48.28801478610016 10.1425
48.31241445160131 10.119
48.337007097209366 10.1026
48.36141144338331 10.1069
48.38581812345755 10.0649
48.41022713920929 10.0707
48.434829215320704 9.98592
48.45924292604658 10.0236
48.48365897780325 9.99157
48.50807737237308 9.9669
48.532688907799276 9.96648
48.55711201168574 9.909889999999999
48.581537463754074 9.92562
48.60615611725119 9.91666
48.63058628942721 9.90807
48.65501881516546 9.83809
48.6794536962573 9.8638
48.70408185970339 9.84415
48.72852147531801 9.7988
48.75296345168211 9.80434
48.77740779059232 9.78781
48.80204549302823 9.756160000000001
48.82649458091802 9.76389
48.85094603676547 9.72335
48.87539986237231 9.691980000000001
48.90004713292306 9.693760000000001
48.92450572200832 9.65273
48.94896668628025 9.61801
48.97343002754588 9.6199
48.99808689542115 9.61326
49.02255501470614 9.58895
49.04702551642794 9.58145
49.0714984023988 9.572189999999999
49.096164896893235 9.52947
49.120642575466796 9.50348
49.145122643748394 9.52323
49.16960510355558 9.48068
49.19428125404938 9.4505
49.2187685210852 9.45149
49.243258185121555 9.45913
49.26794160167084 9.410160000000001
49.2924360839405 9.37125
49.31693296869764 9.349739999999999
49.34143225776915 9.33943
49.36612538195438 9.28487
49.39062950396021 9.32879
49.41513603578346 9.282960000000001
49.4396449792564 9.29144
49.46434784069503 9.26821
49.488861631846454 9.21567
49.513377840166804 9.24535
49.537896467493745 9.20294
49.56260909589029 9.20645
49.587132585683285 9.21187
49.611658500018365 9.19022
49.636186840738596 9.14897
49.66090926588511 9.14146
49.685442483902584 9.10253
49.70997813385706 9.06258
49.734516217597076 9.06328
49.75924846937352 9.01886
49.7837914452858 9.03939
49.80833686055187 8.98975
49.83288471702571 8.98175
49.85762682540054 9.02178
49.882179588965734 8.98665
49.9067347993235 8.975530000000001
49.93129245833333 8.9566
49.95604445336378 8.93652
49.98060703442832 8.919139999999999
50.005172069746266 8.89807
50.02993150438364 8.84485
50.05450147301533 8.84855
50.07907390151433 8.83562
50.10364879174981 8.83517
50.12841816587289 8.80011
50.1529980044635 8.79176
50.17758031042124 8.77232
50.20216508562089 8.774
50.22694442953363 8.68929
50.25153416817468 8.68773
50.27612638170508 8.71183
50.300721072005196 8.6884
50.325510416102105 8.653260000000001
50.350110084975064 8.632660000000001
50.37471223628208 8.65097
50.39931687190919 8.58129
50.424116246675766 8.60783
50.44872587605249 8.58354
50.47333799543065 8.56963
50.49795260670191 8.56483
50.52276204271512 8.53175
50.54738166295838 8.49491
50.57200378079314 8.50451
50.596628398116835 8.48432
50.62144792604559 8.46759
50.646077567609396 8.450439999999999
50.670709714377715 8.42323
50.69553683636198 8.46326
50.72017401885922 8.41535
50.7448137122895 8.396989999999999
50.76945591856022 8.39522
50.79429318636823 8.37308
50.818940443716784 8.37112
50.84359021965163 8.33822
50.868242516085964 8.30016
50.893089960641895 8.28833
50.917747323549435 8.24854
50.94240721271973 8.24633
50.96706963007175 8.23808
50.99192728239342 8.24216
51.01659478166073 8.20703
51.04126481489051 8.19691
51.06593738400761 8.14988
51.090805275207074 8.138
51.11548294172845 8.14659
51.14016314993547 8.13229
51.164845901758845 8.13583
51.18972406304274 8.10864
51.21441192780656 8.03656
51.23910234200271 8.04514
51.2637953075678 8.031080000000001
51.288683770237945 8.03731
51.31338186432707 8.01721
51.33808251561888 7.98845
51.362978729967345 7.99061
51.387684521509755 7.9807
51.41239287610203 7.937760000000001
51.437103795691165 7.89496
51.46201036644977 7.8904
51.486726441956634 7.88076
51.51144508832545 7.88457
51.536166307509156 7.868530000000001
51.56108326624387 7.80012
51.58580965706056 7.810560000000001
51.61053862657523 7.8086199999999995
51.635270176746864 7.7887
51.66019755512065 7.76876
51.68493429268881 7.74868
51.70967361681515 7.7206
51.73441552946465 7.72399
51.759353359237934 7.7217
51.7841004750961 7.6772100000000005
51.80885018539685 7.69009
51.833602492111254 7.6486
51.8585508051424 7.65038
51.883308330926425 7.628310000000001
51.90806845906181 7.58661
51.932831191525715 7.5668
51.95779001977161 7.577610000000001
51.98255798721516 7.542260000000001
52.00732856494335 7.504630000000001
52.03229530577543 7.52371
52.057071130455945 7.53205
52.081849571391054 7.52601
52.106630630568695 7.49707
52.13160794279417 7.47688
52.15639426492067 7.46126
52.18118321127822 7.45255
52.205974783860896 7.412960000000001
52.23096269971011 7.384930000000001
52.255759551287994 7.398910000000001
52.280559035098186 7.366339999999999
52.30536115314103 7.38957
52.33035970494467 7.38298
52.35516711807904 7.323869999999999
52.37997717147198 7.32835
52.40478986713005 7.2971699999999995
52.42979908731974 7.258719999999999
52.454617094216 7.2687800000000005
52.47943774942214 7.24379
52.50426105495102 7.246239999999999
52.529280976059844 7.2273
52.554109609024096 7.2481800000000005
52.57894089837482 7.1646399999999995
52.60377484613117 7.16635
52.62880550079408 7.184639999999999
52.65364479223379 7.12498
52.67848674816189 7.1203899999999996
52.70352547971946 7.10743
52.72837279155837 7.129689999999999
52.753222773982785 7.099260000000001
52.778075429022984 7.10111
52.80312495150885 7.0607
52.827982978797436 7.049930000000001
52.85284368481815 7.00013
52.87770707160767 7.0213
52.90276741793998 6.975630000000001
52.92763619336701 7.00131
52.952507655698504 6.998880000000001
52.977381806977576 6.97123
53.00245301017842 6.9686699999999995
53.02733256653592 6.9508600000000005
53.052214817996074 6.9687600000000005
53.077099766608484 6.95273
53.102181859804446 6.88921
53.127072229988265 6.878189999999999
53.15196530349892 6.843389999999999
53.17686108239249 6.807410000000001
53.20195409881522 6.846089999999999
53.22685531582556 6.843
53.25175924441303 6.8098
53.27666588664027 6.79787
53.30176985962693 6.77355
53.3266819565689 6.78367
53.35159677336455 6.756819999999999
53.376514312083096 6.76593
53.40162927507703 6.71708
53.42655228516116 6.723319999999999
53.45147802340193 6.72508
53.47660125628886 6.6803
53.50153247842639 6.6445300000000005
53.52646643496923 6.64093
53.55140312799818 6.63381
53.576537409691696 6.61326
53.60147960336152 6.60929
53.626424539786164 6.574839999999999
53.65137222105307 6.56115
53.67651758529126 6.52785
53.70147078399681 6.52871
53.72642673383343 6.522959999999999
53.75138543689533 6.51697
53.776541917524526 6.50914
53.801506154876755 6.502999999999999
53.826473151763246 6.461040000000001
53.851442910284916 6.4718599999999995
53.87661054126026 6.43992
53.9015858509782 6.39811
53.92656392866066 6.4143300000000005
53.95154477641532 6.42058
53.976723591801296 6.39139
54.00171000771266 6.32861
54.02669920004598 6.32965
54.051691170915745 6.31417
54.076881204886796 6.28518
54.101878760928514 6.30063
54.12687910187696 6.29244
54.152077577768296 6.28189
54.1770835166946 6.25316
54.20209224691339 6.2443800000000005
54.22710377055121 6.1819
54.25231352511594 6.1856
54.27733066384342 6.15755
54.30235060239643 6.11584
54.32737334290836 6.14893
54.35259441062629 6.100230000000001
54.377622783395324 6.12782
54.40265396455061 6.1284
54.42768795623251 6.09053
54.45292037169559 6.04674
54.477960012857906 5.9891
54.50300247099511 6.01548
54.52804774825457 5.98853
54.55329154616743 5.962359999999999
54.57834249018678 5.96963
54.6033962597977 5.92931
54.6284528571545 5.88416
54.653708072335164 5.93124
54.67877035378786 5.90525
54.70383546947698 5.84018
54.72890342156389 5.84205
54.7541700889442 5.81378
54.77924374251975 5.76914
54.8043202390049 5.74463
54.82959552413022 5.70563
54.8546777351945 5.6765
54.87976279569621 5.66438
54.90485070780914 5.68645
54.930137506558005 5.6193599999999995
54.95523115074295 5.6263
54.98032765308844 5.64812
55.005427015775496 5.6315
55.03072536339621 5.5623
55.05583047570572 5.529
55.080938454927676 5.52629
55.10604930325027 5.53114
55.131359235107396 5.4659
55.15647585066083 5.44077
55.181595341907496 5.43116
55.20671771104285 5.4215599999999995
55.232039262617704 5.38483
55.25716741665048 5.36716
55.28229845518636 5.317769999999999
55.30743238042802 5.272069999999999
55.33276558731939 5.25124
55.357905315183636 5.224130000000001
55.383047936390035 5.15902
55.40819345314859 5.13588
55.433538351073295 5.17031
55.458689688238415 5.17579
55.483843927614096 5.13248
55.509197623043605 5.102609999999999
55.53435769621134 5.10119
55.55952067826466 5.05051
55.5846865714265 5.0693
55.61005202069737 5.00206
55.63522376553902 4.99855
55.66039842818645 4.9404900000000005
55.68557601087004 4.94775
55.7109532500271 4.91397
55.73613670233794 4.95236
