TT I
1.2716486653135266 8.00796
1.2939594142134223 7.89388
1.3162702121660406 6.93992
1.3385810600174564 7.3240300000000005
1.3608919586137629 7.1711800000000006
1.383202908801069 6.6911
1.405513911425503 6.473669999999999
1.4278249673332093 6.60487
1.4501343378461518 7.38795
1.4724455028545926 6.7367
1.4947567236847858 6.35345
1.517068001182951 6.15372
1.5393793361953272 6.24529
1.5616907295681737 5.6992400000000005
1.5840021821477681 5.84629
1.60631369478041 6.051159999999999
1.6286252683124185 6.043419999999999
1.6509369035901333 4.6858900000000006
1.6732468618895553 5.34429
1.695558623192809 4.78065
1.7178704487808514 5.09465
1.7401823395001077 5.39665
1.7625012545597203 5.38737
1.7848028405262486 5.34627
1.8071218901122095 5.28935
1.8294236121921872 5.22008
1.8517427996910911 4.81914
1.8740620574440425 5.34898
1.8963639900671978 5.5948199999999995
1.9186833908139995 4.92464
1.9409854680117449 5.42024
1.9633050151394713 5.13564
1.9856246367570705 4.99734
2.0079269371922672 4.86798
2.03024671027244 4.74635
2.0525491637446027 4.61219
2.074869091674931 4.47474
2.097171701569106 4.92901
2.1194917877373847 4.95076
2.141811954326636 4.48153
2.164114805233074 4.18459
2.186435135143035 5.11889
2.208738150935709 4.549119999999999
2.231058647554722 4.43375
2.2533792288321184 4.21606
2.275682498336085 4.65256
2.298003251406138 4.92497
2.3203066942619714 4.2211
2.3426276225136022 4.6913
2.3649486396617507 4.38885
2.387252348930071 4.543159999999999
2.4095735463442893 3.71945
2.4318774374315884 4.21279
2.4541988185014043 4.54774
2.476502894794693 4.35928
2.498824462909887 4.59411
2.521146125856138 4.35521
2.5434504863470337 4.96901
2.5657723414244717 4.29364
2.588076895590662 5.14222
2.610398946189713 5.96298
2.6327210958598384 5.6662300000000005
2.6550259469304716 5.61762
2.6773482972090137 5.35963
2.6996533504259 5.68047
2.7219759047039602 6.500290000000001
2.744298562293959 5.89807
2.7666039251246595 5.9263
2.7889267918020164 6.95783
2.8112323652516555 6.910760000000001
2.833555444408179 7.42546
2.8558786311183852 6.98548
2.8781845268938557 7.57195
2.9005079311721484 8.812289999999999
2.9228140460410397 8.12156
2.9451376712799635 8.75885
2.967444008632326 9.721
2.9897678582247247 9.407
3.0120918213106695 10.1392
3.0343984987899373 11.0464
3.0567226913198637 11.2847
3.079029599759726 11.9914
3.101354025127254 12.4646
3.123678568232338 13.386
3.145985829517914 13.0836
3.16831061055229 13.7254
3.1906181112775593 14.1393
3.212943133635653 14.7484
3.2352682779763207 15.1675
3.2575761442691227 15.4925
3.2799015350264273 16.0398
3.302209649240067 16.4913
3.3245352898092655 16.8917
3.3468436553365257 17.4982
3.369169549113219 17.4337
3.3914955708171384 18.7277
3.413804319727358 18.492
3.4361305997334863 19.0518
3.4584396084414553 19.7421
3.4807661501462652 20.4088
3.503092824025881 20.5453
3.5254022288463154 20.5071
3.5477291695206588 20.9659
3.5700388426251948 21.3373
3.5923660534916446 22.0141
3.6146934007816114 22.3687
3.637003482731501 22.4625
3.6593311053109985 23.0639
3.681641464033634 23.4427
3.7039693653009733 23.8997
3.726297407241705 24.1924
3.7486081875460804 24.2908
3.7709365132734978 24.9648
3.793247578841633 25.42
3.8155761917550093 25.9478
3.8378875459837216 25.984
3.8602164494827234 26.1557
3.882545499606844 27.1838
3.9048572932539183 27.526999999999997
3.9271866390645718 27.8591
3.9494987298666713 28.7578
3.971828374764527 28.5369
3.9941581705403255 29.1247
4.016470713506008 29.9777
4.038800813471445 30.278000000000002
4.061113662089144 30.6381
4.0834440696459176 31.4631
4.105774632334751 31.6917
4.128087945865126 32.45
4.150418821249301 33.4099
4.172732448931298 33.7533
4.195063640413578 34.3826
4.2173775856475215 34.8571
4.239709096631102 35.8292
4.262040768704612 36.4182
4.284355196706267 37.0515
4.306687193387355 37.3972
4.329001947444346 38.5681
4.35133427213731 39.741
4.373666762177566 40.1524
4.395982011761091 41.1652
4.418314834921175 41.9757
4.44063041906622 42.9884
4.4629635787515625 43.3137
4.4852969080429785 44.778
4.5076130004776225 45.8383
4.529946671403969 47.3379
4.552263106909177 47.9065
4.574597122877047 49.214
4.596931312711224 50.532
4.619248269273446 51.6677
4.6415828092605835 52.4488
4.663900117405352 53.6185
4.686235010953232 55.2332
4.708552674085913 56.216
4.730887924602802 57.3886
4.753223354952695 59.8183
4.775541557023902 60.7741
4.797877349456786 62.3617
4.820195915032126 64.3399
4.842532072957498 65.735
4.864868414979744 68.0309
4.88718753227192 70.372
4.909524244902505 72.4999
4.931843734218147 74.9815
4.954180820867835 78.4619
4.976518095879839 82.1421
4.998838149695359 85.5636
5.021175803844231 90.9912
5.043496238205739 95.3785
5.065834274903528 101.524
5.088172504230693 108.695
5.1104935158799565 117.90100000000001
5.132832132875765 132.95
5.155153533596801 157.118
5.1774925416746225 214.12400000000002
5.199814334878411 570.1569999999999
5.2221537374521505 1991.79
5.244493338631803 3776.39
5.266815727034316 5253.15
5.289155727832427 7969.54
5.311478517248165 9491.99
5.333818921080011 6370.77
5.356159527788849 2020.99
5.3784829252032536 473.545
5.400823940070432 219.416
5.423147747031976 166.183
5.445489173474152 141.942
5.467830807066149 128.882
5.490155234831516 120.624
5.512497285125229 114.906
5.534822130975162 111.689
5.557164601388673 108.036
5.579489868738879 104.295
5.601832762690846 102.32700000000001
5.6241758697774475 99.7904
5.646501775867269 98.85
5.668845311622074 98.1122
5.691171647754637 97.5385
5.713515615597765 96.3774
5.735859800852677 95.4495
5.758186788542988 94.6415
5.780531411018185 95.0119
5.802858837297399 94.5039
5.825203900414495 95.2775
5.8475491852224 96.5741
5.869877275883075 98.1999
5.892223006467101 101.13799999999999
5.914551544266608 105.296
5.936897724049891 112.383
5.959244129804903 125.57
5.981573344815301 158.332
6.0039202049061 295.954
6.026249875609095 765.5830000000001
6.04859719346037 1391.41
6.070927323278297 1889.3
6.093275102315365 2629.17
6.115623113320588 3641.67
6.137953938319995 3938.6
6.160302415650845 2236.88
6.182633708324452 709.6439999999999
6.2049826554078376 222.40900000000002
6.227331838745022 125.58200000000001
6.249663839443684 100.522
6.27201349767565 89.8152
6.294345974611799 83.4463
6.316696111167083 78.4327
6.339046488263839 75.7624
6.361379686074702 72.7324
6.383730546639482 70.8013
6.406064229255215 68.2684
6.428415576718203 67.7701
6.450749747566656 66.1446
6.47310158535871 64.9165
6.495453669698332 64.1273
6.517788579421056 63.5079
6.540141159237969 62.2936
6.562476565766648 61.4767
6.5848296444934045 61.0063
6.607182974060425 60.0952
6.6295191323281015 59.663000000000004
6.651872965955752 58.9493
6.6742096296068985 58.2786
6.6965639707294615 58.1304
6.71891856698715 57.1964
6.741255995248479 56.7254
6.763611104154477 56.1853
6.785949046381137 55.9909
6.808304671371482 55.3434
6.8306605557940046 55.3475
6.852999275508618 54.5169
6.875355681171544 54.1814
6.897694923437771 54.1851
6.92005185377892 54.2956
6.9423916220322655 54.2915
6.964749080490181 53.27
6.987106804399774 52.827
7.009447368180821 53.041000000000004
7.031805625367033 52.7818
7.054146723727803 52.8954
7.076505517631004 52.6042
7.098864581288365 52.4423
7.121206488070854 52.3411
7.143566093607822 52.1886
7.165908543567245 52.4225
7.188268694426048 52.1462
7.2106291193438095 51.8947
7.232972390625943 51.762
7.255333366030969 51.7673
7.277677189091925 51.4675
7.300038718428332 51.503
7.322400526130865 51.364
7.344745183422596 51.7328
7.367107550224791 51.6224
7.389452767901992 51.8699
7.411815697249891 52.0458
7.434161478756298 51.6192
7.456524974096713 51.5629
7.478888753837185 51.9588
7.501235387657368 52.7491
7.523599738562711 56.3372
7.545946944825532 62.9478
7.568311870344528 65.1334
7.5906770845765665 60.0637
7.613025156078678 55.4339
7.635390950099687 54.0966
7.657739602662809 52.9996
7.680105979923558 53.0659
7.702472650212829 53.6031
7.724822180948224 53.782
7.747189439655568 53.9658
7.769539560075357 53.9322
7.791907410653562 54.7359
7.81425812420825 54.5399
7.836626570110925 54.8032
7.858995315087906 55.7078
7.881346924933401 56.4087
7.903716270417482 56.7952
7.926068482028405 56.8636
7.948438431475253 57.4627
7.9708086843180235 57.7235
7.993161805171116 58.5044
8.015532667162402 58.8741
8.037886398416653 59.9394
8.060257873014221 60.4133
8.082629655331942 61.1416
8.104984308787587 61.7386
8.127356708900503 62.5677
8.149711981398308 63.4865
8.172085002766314 64.0182
8.194458336181368 64.9746
8.216814543847752 66.1546
8.23918850371002 67.7938
8.26154533906492 68.547
8.283919928836452 70.4094
8.306277395339652 71.8801
8.328652618483376 73.5501
8.351028159736202 75.4281
8.373386579575245 77.968
8.395762759396959 80.3245
8.418121819038275 83.4226
8.440498640894003 88.0578
8.462875785192262 95.6458
8.485235811156207 110.645
8.507613602688501 175.546
8.529974277114228 372.629
8.552352719347912 610.692
8.574731488360351 773.217
8.59709314210385 863.079
8.619472567021075 1059.19
8.64183487789147 1430.43
8.664214962183097 1827.57
8.686577933647762 1667.68
8.708958680784317 988.622
8.731339760774953 433.45
8.753703729764451 181.392
8.77608547780821 117.402
8.798450116065078 104.053
8.820832535634787 97.68799999999999
8.843215292401656 93.7573
8.865580941199045 91.4222
8.887964374703538 89.0363
8.910330701447199 87.4709
8.932714815164482 86.3282
8.955099270424924 84.726
8.977466620733543 83.8664
8.999851761421976 83.3927
9.022219798361645 82.8891
9.04460562795561 82.4831
9.066991803441677 81.8647
9.089360876979615 81.694
9.111747746589993 81.8778
9.13411751544971 81.1252
9.156505082664324 80.7058
9.178875550323522 80.96300000000001
9.20126381862328 81.8113
9.223652438908596 87.2124
9.246023961427412 97.2335
9.26841328802173 99.4907
9.290785518039224 93.8979
9.313175554425882 87.3684
9.335565947154315 83.2386
9.357939245086508 81.9684
9.380330352834827 81.546
9.40270436697103 82.0349
9.425096193225055 81.6123
9.447488380180165 82.2226
9.469863475295412 82.9196
9.492256385987508 83.2546
9.514632206018318 83.6333
9.537025843935714 84.2103
9.559402392368193 84.734
9.581796761000229 85.7537
9.604191496441521 85.7831
9.626569144158516 86.64399999999999
9.648964615551032 87.1037
9.671343000390081 87.9059
9.693739211225699 88.964
9.716135793237463 90.5955
9.738515290448102 90.8455
9.760912617143402 92.1434
9.783292860202891 93.7165
9.805690935076182 95.0504
9.828089385495742 96.3366
9.850470754023561 98.3721
9.872869957865444 100.598
9.89525208097539 103.65100000000001
9.917652041736662 108.08
9.940052382417589 113.863
9.962435644102392 131.0
9.984836746950979 187.685
10.007220771957746 346.73699999999997
10.029622640473708 552.3530000000001
10.052007432299963 679.929
10.074410069984072 722.9910000000001
10.096813093716005 797.929
10.119199042482517 989.085
10.141602840636468 1327.2
10.163989564971628 1642.36
10.186394141051062 1551.39
10.208799107559706 1008.84
10.231187001965623 497.77
10.253592751657669 225.668
10.275981430388155 136.32399999999998
10.298387966769793 116.84200000000001
10.320794897965431 111.78200000000001
10.343184759907361 108.23
10.36559248305461 105.318
10.387983138083852 103.85600000000001
10.410391656691655 106.26899999999999
10.432800574501677 121.61399999999999
10.455192425893369 164.571
10.47760214443012 217.013
10.499994797678786 249.17700000000002
10.522405320453982 258.351
10.54479877906917 274.985
10.567210109595656 319.494
10.5896218454736 394.663
10.612016518879773 484.73199999999997
10.634429067781074 494.709
10.656824555333241 383.75699999999995
10.679237920773568 237.19
10.701651695961992 137.97299999999998
10.724048411481384 101.459
10.746463008485165 90.9095
10.768860546937125 86.4155
10.791275969274796 83.4348
10.81369180576079 81.7848
10.836090585366925 80.516
10.858507252467449 78.7233
10.88090686379991 77.5083
10.903324365036394 76.7389
10.925724811614439 75.5631
10.948143150509463 75.1314
10.970561909719066 74.0364
10.992963615930844 73.1848
11.015383218085756 72.6888
11.037785768347074 71.2767
11.06020621697282 70.8342
11.082627090322113 70.5495
11.105030913430326 69.9521
11.12745263854165 69.3566
11.149857314510728 68.1682
11.172279894912576 68.25
11.194702904450653 67.5404
11.217108866490921 66.6347
11.239532736615194 66.2121
11.26193956033512 66.2097
11.284364294577085 66.015
11.306789462371718 65.4013
11.329197585398376 64.9226
11.351623622610898 64.8289
11.37403261614354 64.1838
11.396459526308487 64.3312
11.418869393879497 63.9009
11.441297180532617 63.8393
11.463725406927658 63.5257
11.486136592353875 62.905
11.508565700543707 62.2101
11.530977768845315 62.3864
11.553407762368774 61.998000000000005
11.575838200059769 62.185
11.598251599479612 61.8125
11.620682927815501 61.708
11.64309721895548 61.6334
11.665529441478206 61.3116
11.687962112597958 61.1218
11.710377748130886 61.3292
11.732811318753434 61.0564
11.755227854859067 60.8581
11.777662328529495 60.7497
11.800079768750786 60.6161
11.822515149015453 60.687
11.844950984084935 61.2113
11.867369787303163 60.8947
11.889806534289491 61.2485
11.912226250487029 62.3577
11.934663912939751 64.4871
11.9571020346363 66.0404
11.979523127133968 65.9743
12.001962169624331 65.8059
12.024384183972964 65.1275
12.046824150809913 67.5228
12.069264581333726 77.521
12.091687985297767 90.8045
12.11412934550045 101.40100000000001
12.136553680195208 107.249
12.158995973632788 110.39
12.181438735204349 114.67
12.20386447284199 126.412
12.226308172985636 146.156
12.24873485024193 172.885
12.271179492516982 190.27200000000002
12.293607112949127 177.949
12.316052700916226 141.486
12.338498763250042 99.8316
12.360927805303868 76.0323
12.383374818673879 66.9108
12.405804812803074 64.1995
12.428252780773262 63.5693
12.45070122756722 63.0528
12.473132656675375 62.8645
12.49558206341869 62.6755
12.518014453510101 62.6558
12.540464823770117 62.661
12.562915677315177 62.7808
12.58534951575545 63.2691
12.607801338171472 62.966
12.630236146511358 63.4095
12.652688941369085 63.8695
12.675124723177234 64.119
12.697578494048786 64.6192
12.720032754458185 64.6798
12.742470003354093 65.2011
12.764925245138771 65.569
12.787363476431278 65.9525
12.809819703166806 66.5488
12.83227642391173 67.1576
12.854716135692716 67.7564
12.877173846755147 69.0522
12.899614549869717 69.5564
12.9220732548287 70.1259
12.94453245827299 70.7675
12.966974655289818 71.8857
12.989434858002571 72.666
13.011878055298721 73.3676
13.034339260862497 74.7149
13.056800969391883 76.1775
13.079245674017244 78.9726
13.101708390774869 80.9699
13.12415410463411 86.4036
13.146617833206086 102.821
13.169064559883248 133.709
13.191529303857127 164.955
13.213994557076367 187.585
13.236442809902437 196.13400000000001
13.258909083908291 200.19099999999997
13.28135835851934 211.09900000000002
13.30382565690295 236.785
13.326293469022952 280.373
13.348744283242008 339.091
13.371213125129904 388.54
13.39366497011003 383.07199999999995
13.416134845360597 312.498
13.438605238843131 218.726
13.46105863690397 148.68
13.483530069144786 120.92299999999999
13.505984506951902 130.764
13.528456981549432 155.33
13.550929978879088 173.062
13.573385983253365 181.733
13.595860028340867 182.704
13.618317081455832 187.512
13.64079217790333 202.226
13.663250283359057 229.493
13.685726434770173 270.84
13.708203115221277 321.219
13.730662806148091 340.286
13.75314054697177 309.541
13.775601299246777 235.225
13.798080104050406 158.805
13.820559442405358 109.529
13.843021793671388 88.8324
13.865502201420897 81.8518
13.887965623051947 80.1661
13.910447103807167 78.8866
13.932929122629764 77.2146
13.955394156785959 76.7231
13.977877254034569 75.585
14.000343367582113 75.0582
14.022827546871707 73.8101
14.045294743423524 73.1122
14.06778000837062 72.5189
14.090265817715476 72.4185
14.112734645763819 72.6626
14.13522154619454 73.5611
14.157691466286913 74.4788
14.180179461423874 73.8142
14.202668005486178 72.663
14.22513957064374 71.1082
14.247629214846473 70.0364
14.270101881097517 69.5131
14.29259262906496 68.7572
14.315083930490205 68.9062
14.337558255389705 68.7383
14.360050666019726 68.5003
14.382526101071944 68.1216
14.405019624534942 67.9508
14.427513705993134 67.9928
14.449990813291825 67.8699
14.47248601302899 67.7884
14.49496423954951 68.0544
14.517460561197822 68.1814
14.539939910570322 67.6896
14.562437357763558 67.9687
14.58493536931253 68.2092
14.607416409993311 68.0821
14.62991555254159 68.641
14.652397725157423 68.6889
14.674898002342799 69.0365
14.697398848433282 69.3348
14.719882725991326 70.472
14.74238471217934 71.0606
14.764869730765593 74.1207
14.787372860692983 80.4776
14.809876564079925 93.6632
14.83236330125751 107.464
14.854868153850365 116.477
14.877356041159485 120.387
14.899862046604186 121.196
14.922351087688757 124.155
14.944858249632887 131.16899999999998
14.967365991421232 143.885
14.989856770231246 161.906
15.012365673994204 186.34099999999998
15.03485761569738 205.60299999999998
15.05736768508665 203.544
15.07987833888692 179.33700000000002
15.102372032001655 140.585
15.124883856909658 103.604
15.14737872204565 82.1795
15.169891721717274 73.5769
15.192405310371893 71.2144
15.214901940621196 69.9149
15.237416709527137 68.8439
15.259914520936249 68.1616
15.282430473753607 67.6085
15.304947020131227 66.8549
15.327446610371178 66.5555
15.349964346154254 66.3106
15.372465126703139 66.0116
15.394984055556009 65.7442
15.417486030076159 65.6704
15.44000615566487 65.4917
15.462526881230803 65.3547
15.485030653812652 65.0839
15.507552581617434 64.7848
15.530057557334603 65.2581
15.55258069104857 65.1401
15.575104429329837 65.1449
15.597611216864632 64.8769
15.620136166564563 65.3884
15.6426441664095 66.2112
15.665170331202765 68.0183
15.687697105158826 73.5469
15.710206930593545 84.0687
15.732734925158933 95.01299999999999
15.755245972089478 103.069
15.77777519094324 107.01700000000001
15.800287463046663 107.788
15.822817909869592 108.809
15.84534897229804 112.492
15.867863089299354 121.04
15.890395385222186 132.532
15.912910736597423 149.62
15.935444269699861 170.93200000000002
15.957978423016485 182.923
15.980495633101265 177.935
16.003031029129367 154.189
16.02554948280019 119.664
16.048086125229432 90.2808
16.070623392487107 73.7947
16.09314371869582 66.1573
16.11568223789321 63.0036
16.13820381691126 61.5514
16.160743591742527 60.8693
16.183283996022084 60.3484
16.205807461423195 59.2747
16.228349126881973 58.5942
16.25087385432698 58.3531
16.27341678466365 57.7376
16.29594277784926 57.5302
16.31848697676433 56.9774
16.341031811604868 56.4181
16.36355971058487 56.1739
16.3861058195587 56.1663
16.40863499352978 55.7248
16.431182380342005 55.5537
16.453730407713202 55.2699
16.476261501364792 54.9995
16.498810812136167 54.9689
16.52134319004079 54.9661
16.54389378792203 54.4671
16.566445031001553 54.4597
16.588979342490088 54.3182
16.61153187824822 54.1506
16.634067483263312 54.1599
16.656621315414416 53.835
16.679175797408888 53.6286
16.701713349928728 53.6662
16.72426913389191 54.1101
16.74680798922351 53.8338
16.76936507887444 53.8703
16.791905240734874 53.9297
16.814463639794468 53.6514
16.837022695210294 53.82
16.859564824093756 54.1268
16.882125194503903 54.0047
16.904668639217885 54.3179
16.927230328348003 54.5454
16.949792678493612 54.7005
16.972338104193863 54.6469
16.994901778652235 54.7408
17.017448529496576 54.8021
17.040013531998152 55.0402
17.06257920018044 55.2105
17.0851279459922 56.2476
17.107694947817667 58.6267
17.130245028099072 60.7697
17.15281336730298 62.7056
17.17536478578733 64.1473
17.19793446610687 64.5809
17.220504818648422 64.8199
17.243058251703697 64.8727
17.265629950971032 66.2601
17.288184731571736 68.122
17.310757781306908 71.2845
17.33333150794385 74.1122
17.355888317140174 78.1362
17.37846339986244 81.3215
17.401021565958885 81.1276
17.42359800851343 77.0181
17.44617513265564 71.3636
17.468735341390783 65.4916
17.491261035594565 61.4291
17.51396340099364 59.4081
17.536490463869136 58.8315
17.559018209820174 58.6451
17.58154663977963 58.5926
17.604251766089718 58.9071
17.626781572227713 59.1882
17.64931206518155 59.0843
17.671843245885103 59.3973
17.69455114821572 59.5668
17.717083712612634 59.8758
17.739616967569667 60.3915
17.762150914021706 61.1047
17.78486160749854 61.1391
17.807396945166804 61.8831
17.829932977143503 62.5317
17.85246970436452 63.4327
17.875183204129467 66.2189
17.897721330097664 71.7886
17.920260154126645 78.4756
17.942799677153296 83.7668
17.9655159983646 86.8423
17.988056927677544 88.3364
18.010598558807683 88.3308
18.033140892692916 89.57
18.05586005052525 91.5569
18.07840379824407 96.0296
18.10094825154059 102.729
18.12366954819864 112.18
18.146215420998306 125.046
18.16876200220057 138.805
18.191309292745153 145.444
18.214033452627167 142.32399999999998
18.236582170236648 129.093
18.259131600016456 112.495
18.281681742907335 96.5497
18.304408781233683 87.8219
18.32696035875955 84.6712
18.349512652227624 85.3193
18.372065662579683 88.6282
18.394795594587553 93.2727
18.41735004715306 98.9678
18.43990521943684 102.23
18.46246111238171 101.404
18.485193953325208 95.3895
18.507751296070428 85.8106
18.530309362314178 76.4814
18.552868153000343 69.1614
18.57560391815056 64.9787
18.59816416623245 62.8687
18.620725141597372 61.8884
18.643286845190268 61.1252
18.666025549835414 60.5555
18.688588718427933 59.8911
18.711152618092243 59.6162
18.73389353884365 59.3103
18.75645890921984 58.8308
18.77902501351406 58.5949
18.801591852673102 58.5281
18.824335739722738 57.9799
18.846904057212626 57.8153
18.8694731124168 57.5328
18.89204290628315 57.3336
18.914789774966803 57.1205
18.937361054791623 57.0791
18.959933076131318 56.6953
18.982505839934877 56.6094
19.00525570560582 56.583
19.027829963004184 56.3211
19.05040496572238 56.4494
19.072980714710468 56.4907
19.095733592739563 56.4619
19.11831084296757 56.9742
19.140888842324735 58.0282
19.16346759176222 59.2265
19.18622349753803 60.356
19.208803755869358 61.4626
19.231384767143577 61.8981
19.253966532312948 62.0846
19.276725481241822 62.0264
19.29930876296784 62.3926
19.3218928014549 63.3711
19.34465404436217 64.2921
19.36723960516257 66.1729
19.389825925592426 68.0818
19.412413006605938 70.8717
19.43517731967805 73.0998
19.457765930683355 74.0724
19.48035530514408 72.5957
19.50294544401556 68.9061
19.525712842708348 64.1174
19.54830451925909 59.9271
19.570896963095727 56.291000000000004
19.593490175174704 54.6697
19.616260674962184 53.9806
19.638855432416964 53.5659
19.661450960992624 53.4701
19.68404726164677 53.2793
19.706820878021247 52.9963
19.729418731756834 53.2358
19.752017360452857 52.9457
19.77461676506804 53.239
19.797393513540218 53.2309
19.819994478951667 53.3841
19.84259622316767 54.5104
19.8651987471481 55.6665
19.887978643247177 56.5609
19.91058273574792 57.2978
19.933187610901943 57.8034
19.955969879466828 58.1706
19.97857632894404 58.1637
20.00118356396599 58.0825
20.023791585494575 58.6439
20.046577028914875 59.8304
20.069186632506966 61.098
20.091797025500632 63.6297
20.114408208858933 66.2357
20.137196842715273 69.0007
20.159809615886765 71.7975
20.18242318232135 72.1316
20.20503754298326 70.9187
20.227829382875154 68.2757
20.250445341109344 65.127
20.27306209647285 62.4002
20.29567964993108 60.6009
20.31847471147704 60.2938
20.34109387027612 61.183
20.363713830075454 62.4074
20.386334591841646 63.8389
20.409132890679302 64.809
20.431755265564437 64.3986
20.454378445325528 62.0503
20.477002430930366 59.2655
20.499803982716553 56.2588
20.522429589228004 53.2778
20.54505600449589 51.412
20.567683229489194 50.6497
20.590488049900088 50.2505
20.61311690359731 50.1697
20.63574656993626 50.0686
20.658553853717297 49.5646
20.681185154618298 49.5362
20.703817271080066 49.3221
20.72645020407368 48.9267
20.749260783967177 48.8408
20.771895359337133 49.0274
20.794530754161617 48.9682
20.817166969412938 48.864
20.83998086114876 48.8031
20.86261872660049 48.6046
20.885257415405402 48.5493
20.90789692853701 48.5406
20.930714147864748 48.4739
20.953355319030678 48.5626
20.97599731745334 48.6437
20.99864014410749 48.7008
21.021460706796564 48.8659
21.044105199328826 49.0961
21.06675052302631 49.1919
21.089396678865015 49.2444
21.112220600704806 49.3447
21.134868430275347 49.3849
21.15751709492456 49.185
21.180166595629693 49.2375
21.202993892429635 49.4832
21.22564507473034 49.6589
21.24829709602816 50.0268
21.27112693608965 50.5113
21.293780644891275 50.9311
21.316435195634053 51.0887
21.339090589297417 51.0053
21.361923832041875 51.0037
21.384580921090404 50.1966
21.407238856007325 49.4304
21.429897637773326 49.0387
21.45273429906592 48.6807
21.475394784108598 48.3984
21.498056118951983 48.2768
21.520718304578022 48.4691
21.543558400304388 48.4408
21.566222297108816 48.6494
21.58888704765135 48.5108
21.61155265291521 49.1564
21.63439619898156 50.0539
21.657063523335786 51.0373
21.67973170537063 52.2799
21.7024007460706 52.8265
21.72524775840385 53.3965
21.747918526116475 53.8183
21.770590155457388 53.8326
21.79326264741238 54.0295
21.816113141960237 54.4
21.838787368860547 55.1004
21.861462461341976 56.3647
21.884315579735777 57.9573
21.90699241312273 59.5034
21.92967011506078 61.3318
21.95234868653799 63.4047
21.9752053151131 65.2062
21.997885635446785 65.7677
22.020566828293532 65.3733
22.04324889464272 63.4808
22.066109049404666 60.7494
22.088792872571794 57.833999999999996
22.111477572219204 55.856
22.1341631493376 55.0722
22.157026846313123 55.1942
22.179714188221507 55.6687
22.202402410582668 56.1749
22.22509151438863 55.7645
22.24795876962584 54.8419
22.270649646204486 53.6304
22.293341407213727 52.2745
22.316034053646906 50.9778
22.338904883215342 49.7538
22.36159931041458 49.3967
22.38429462602756 49.1582
22.40699083104897 48.6592
22.429865251039757 48.5681
22.452563244831367 48.5647
22.47526213102522 48.6511
22.49813925616515 48.583
22.520839937143307 48.6277
22.543541513520587 48.5974
22.56624398629403 48.5063
22.589124730075895 48.4554
22.611829005656723 48.5892
22.63453418063466 48.4459
22.657240256008077 48.7633
22.680124634582935 49.1948
22.70283252079775 50.1232
22.725541310413075 50.5947
22.74825100442868 51.0768
22.771139033969575 51.7356
22.79385054687155 51.55
22.81656296718292 51.6766
22.83927629590484 51.7564
22.862167992606945 51.8394
22.88488314827121 52.1715
22.907599215359284 52.3624
22.93031619487366 52.9347
22.953211574954405 53.4395
22.975930389478226 54.5536
22.998650119445763 55.5853
23.02137076586092 56.4459
23.044269845560063 57.4878
23.06699233506288 57.9712
23.089715744034912 57.4268
23.112617610931565 56.02
23.135342869061212 54.3529
23.158069049684816 52.3561
23.1807961538087 50.8172
23.20370174880544 49.7275
23.226430710184808 49.2531
23.249160598093425 49.2389
23.271891413539002 48.9954
23.294800752937697 49.4782
23.31753343374794 50.2635
23.340267045128353 50.8328
23.36300158808808 51.321999999999996
23.38591468821339 51.6215
23.408651104658304 51.519
23.431388455719986 51.4466
23.454126742409 51.3697
23.4770436196085 51.5404
23.499783787914662 51.8717
23.522524894889884 51.9045
23.54526694154616 52.1709
23.56818761219047 53.1811
23.59093154860734 53.875
23.613676427751283 55.2235
23.636422250635754 56.2983
23.659346731118656 57.2925
23.68209445191868 57.8101
23.704843119509587 57.1041
23.72759273490623 55.5485
23.750521041644767 53.397
23.77327256312355 51.1193
23.796025035462787 49.1638
23.818956224555475 47.538000000000004
23.841710609113413 46.8021
23.86446594758979 46.1425
23.887222241002014 45.7758
23.910157285144578 45.3174
23.932915498962537 45.373000000000005
23.955674670778713 45.1364
23.978434801611975 44.9778
24.001373717286125 44.9633
24.024135776723917 44.6532
24.046898798245582 44.6754
24.06966278287146 44.6245
24.092605586582614 44.3682
24.115371508023642 44.2051
24.1381383956401 44.0612
24.16090625045381 43.8945
24.183852958731244 43.958999999999996
24.206622758582608 43.8064
24.229393528706886 43.5759
24.252165270127392 43.8927
24.27511589952438 43.8096
24.297889594216997 43.5185
24.32066426328598 43.1695
24.34343990775613 43.2948
24.36639447485003 43.3039
24.38917208083877 43.1475
24.41195066531332 43.0523
24.43490819850244 43.068000000000005
24.457688750692377 42.8877
24.48047028445616 42.8225
24.503252800821233 42.9348
24.526214300784112 43.0723
24.548998793132213 42.9617
24.57178427117417 42.6618
24.59457073593893 42.7326
24.617536219319863 42.7834
24.64032466834748 42.9419
24.663114107195035 42.9485
24.685904536893013 42.7796
24.708874020360852 42.7127
24.731666442613744 42.693000000000005
24.754459858818787 42.4508
24.777254270007962 42.3419
24.80022777025625 42.2067
24.82302418230472 42.2433
24.845821592443674 42.3521
24.86862000170663 42.3124
24.891597535453727 42.2212
24.914397953892728 42.5081
24.93719937456671 42.358999999999995
24.96000179851076 42.5246
24.98298338249997 42.7161
25.00578782394922 42.6976
25.028593271784167 42.8242
25.05157790644186 43.0859
25.07438537804115 43.2424
25.097193859145293 43.4977
25.120003350792075 43.6759
25.142992065061257 43.989
25.165803588823465 44.1057
25.18861612625217 44.0665
25.211429678386736 44.3849
25.234422489079968 44.5709
25.257238081693636 44.6599
25.280054692141732 44.955
25.3028723214652 44.7492
25.325869245420463 44.5253
25.348688923599397 44.4655
25.371509623787006 44.463
25.394331347025812 44.5648
25.41733240110666 44.6835
25.440156181590016 44.7416
25.46298098826268 44.7185
25.48580682216873 44.4223
25.50881202326435 43.7566
25.53163992281684 43.0627
25.55446885274561 42.2637
25.577298814096377 41.5921
25.600308179121807 41.2273
25.623140214533745 41.1931
25.64597328451537 41.0254
25.66898578564376 40.7153
25.691820936010206 40.7328
25.714657124097695 40.6878
25.737494350954734 40.7368
25.760511045684957 40.5708
25.783350361364224 40.7923
25.806190718969255 40.7761
25.82903211955018 40.997
25.852053024868923 40.9336
25.874896522722523 40.9283
25.897741066713106 40.7764
25.920586657892454 40.922
25.943611790812668 40.9622
25.966459487728237 40.7927
25.989308234998564 40.7108
26.01215803367705 40.8702
26.03518741123814 40.995
26.05803932412957 41.0176
26.080892291600094 40.9946
26.10374631470478 41.14
26.12677995397268 41.3281
26.14963609978026 41.6843
26.172493304397875 41.8142
26.19535156888223 41.9485
26.218389486949604 41.7696
26.241249882640123 41.5473
26.26411134137826 41.323
26.28715248187403 41.0974
26.31001607820869 40.7189
26.3328807407756 40.4712
26.35574647063438 40.7412
26.37879191991473 40.7153
26.401659795896734 40.5714
26.424528742360263 40.766
26.447398760366614 40.7756
26.470448535598294 40.7017
26.49332070826805 40.7987
26.516193955675355 40.9724
26.53906827888316 40.9837
26.562122397260108 40.9589
26.584998883685063 41.1187
26.607876449110325 41.2713
26.63075509460056 41.6099
26.65381357334404 41.5802
26.67669439061878 41.7506
26.699576291163382 41.9708
26.722459276044212 42.2934
26.745522132402975 42.5112
26.768407297649354 42.3982
26.791293550442003 42.1417
26.814180891848974 41.7714
26.837248143099337 41.3825
26.860137673466657 41.0831
26.88302829566349 40.7391
26.90592001075963 40.6224
26.92899167420566 40.5117
26.951885586870763 40.1546
26.974780595655517 40.1058
26.99785558178161 39.9703
27.020752794605112 39.8709
27.043651106772522 39.4475
27.06655051935668 39.1063
27.089629948036183 39.1083
27.112531573292053 38.9899
27.135434302194138 38.9784
27.158338135817015 38.7309
27.181422024430987 38.7424
27.204328079372566 38.8495
27.22723524226965 38.8211
27.250143514198573 38.7628
27.273231880156334 38.7666
27.296142382065014 38.678000000000004
27.319053996245536 38.5152
27.341966723775965 38.5191
27.365059584515222 38.6373
27.38797455070062 38.7228
27.410890633481237 38.5037
27.433807833936918 38.4333
27.456905206923906 38.5635
27.47982465472398 38.3722
27.502745223449743 38.3447
27.525666914182825 38.5355
27.548768816912457 38.3614
27.571692763693633 38.5164
27.59461783573812 38.5031
27.617723149491244 38.5336
27.640650484125285 38.539
27.66357894728264 38.5604
27.686508540048052 38.7478
27.709618414237887 38.5315
27.732550278321757 38.3796
27.755483275279115 38.3348
27.778417406196485 38.3584
27.801531858397514 38.2958
27.824468269376716 38.1503
27.847405817586786 38.086999999999996
27.870344504116094 38.1097
27.893463551932008 38.3028
27.916404527281053 38.3847
27.93934664422563 38.2877
27.962289903855886 38.2694
27.98541356491974 38.5521
28.00835912214229 38.4514
28.03130582533231 38.6064
28.054253675581805 38.7196
28.077381967556104 38.7544
28.100332124185126 38.8739
28.123283431160893 38.9996
28.146235889577238 39.2484
28.169368830154156 39.2371
28.192323603752033 39.1513
28.215279532083304 38.8976
28.238415973016764 38.635999999999996
28.261374223145094 38.5798
28.284333631303806 38.2756
28.307294198589954 38.0809
28.330435319167677 37.8584
28.353398217078915 37.6323
28.376362277420153 37.3546
28.39932750129032 37.2103
28.422473319286713 37.0574
28.44544088262495 36.8761
28.468409612800283 36.6561
28.491379510913497 36.2448
28.51453004413313 36.1009
28.53750229057244 36.0545
28.56047570826344 36.1219
28.583450298308804 36.0738
28.606605564586562 35.876
28.629582511831156 35.8658
28.65256063474956 35.7731
28.675539934446338 35.7846
28.698699951647605 35.8024
28.72168161743193 35.6297
28.74466446331978 35.5929
28.767648490417624 35.5488
28.790813276438353 35.4659
28.813799678527303 35.4803
28.836787265157085 35.4473
28.859955641890075 35.4324
28.882945610203045 35.3965
28.905936766392035 35.241
28.928929111566863 35.1988
28.952102288520145 35.3052
28.975097024308607 35.1669
28.998092952423807 35.1301
29.021090073977508 35.195
29.04426806913204 35.1141
29.067267590245258 34.9931
29.090268308143695 34.9709
29.11327022394099 34.9619
29.13645305530891 34.747
29.159457379627167 34.6249
29.18246290519685 34.384
29.20546963313352 34.5234
29.22865731875826 34.3817
29.25166646419296 34.3148
29.27467681535305 34.0956
29.29768837335608 34.1838
29.320880931312562 34.248000000000005
29.34389491580634 34.1906
29.366910110507334 34.1655
29.38992651653503 34.1527
29.41312396492981 34.1465
29.436142806456754 34.077
29.45916286268059 34.102
29.48236399319994 34.1158
29.50538649169417 34.1622
29.528410208259935 34.0417
29.55143514402014 34.0035
29.574641196749695 33.7665
29.597668583816574 33.679
29.6206971934585 33.4882
29.64372702680042 33.4041
29.666938019934474 33.2307
29.689970313635285 33.0427
29.713003834422636 33.0461
29.73603858342347 33.0555
29.759254535188578 32.9703
29.78229175361658 32.8053
29.80533020365064 32.9075
29.82836988641968 32.8393
29.85159081507472 32.8683
29.874632976355343 32.7583
29.89767637376955 32.7941
29.920721008448314 32.6041
29.9439469322847 32.674
29.96699405457564 32.5753
29.9900424175358 32.5006
30.013092022298157 32.5196
30.03632295963995 32.5368
30.059375061131373 32.5059
30.08242840783577 32.5437
30.105483000888153 32.3969
30.128718970092244 32.3916
30.151776069006917 32.3961
30.17483441768648 32.327
30.198074175317235 32.3587
30.221135036724256 32.3386
30.24419715131772 32.3326
30.267260520236203 32.1686
30.290505341942243 32.2803
30.313571232750228 32.5203
30.336638381310948 32.5159
30.35970678876503 32.5041
30.38295669299435 32.4353
30.40602763151657 32.4341
30.429099832366074 32.3862
30.452173296685572 32.3409
30.47542830191959 32.2667
30.498504306502497 32.1954
30.521581577995562 32.2357
30.544660117543582 32.1436
30.56792024229725 32.1151
30.59100133132069 32.1331
30.614083691845494 32.0179
30.637167325018545 32.0851
30.660432587840603 32.1064
30.683518779717886 32.1226
30.70660624769615 32.2041
30.729694992924372 32.1721
30.75296541239743 32.2496
30.77605672557558 32.2716
30.799149319462742 32.1975
30.8224236211637 32.1906
30.845518789950724 32.1862
30.868615242910597 32.178000000000004
30.891712981195973 31.9663
30.91499247215866 31.9852
30.938092794619365 31.8989
30.96119440587579 31.7924
30.984297307082752 31.7682
31.00758200598383 31.5099
31.030687500658694 31.5443
31.053794288760695 31.39
31.076902371446767 31.256
31.100192296997445 31.331
31.12330298246119 31.2597
31.14641496599209 31.116999999999997
31.169528248749216 31.1353
31.19282341969534 31.1331
31.215939314557186 31.1302
31.239056512134788 31.0261
31.262175013589378 30.9848
31.28547544871168 30.9673
31.30859657161541 30.9237
31.331719001892175 30.8769
31.35484274070538 30.9772
31.378148458819545 30.9827
31.401274828443725 30.8152
31.424402510106933 30.8268
31.447712205419993 30.9416
31.470842524931633 30.7562
31.493974159989783 30.8114
31.51710711176168 30.8185
31.54042212308802 30.8794
31.563557722100917 30.9679
31.586694641341655 30.8259
31.609832881979628 30.7267
31.63315322823208 30.8199
31.656294125521327 30.6774
31.679436347728515 30.6392
31.70257989602529 30.5595
31.725905596152327 30.5262
31.74905181052835 30.3548
31.772199354521323 30.3736
31.79534822930507 30.2578
31.818679302290967 30.2316
31.84183085259981 30.191999999999997
31.864983737233473 30.1955
31.88813795736804 30.209
31.911474422233013 30.0226
31.934631327356435 29.9957
31.9577895715215 30.1662
31.980949155906522 30.1662
32.004291031706956 30.0611
32.027453310562606 29.9931
32.05061693318573 29.9907
32.07396288236386 29.8933
32.09712920658542 29.9674
32.12029687812702 29.9217
32.14346589817093 29.8329
32.166817291729984 29.7531
32.18998902288583 29.7695
32.21316210610336 29.6483
32.23633654256711 29.4995
32.259693399663725 29.4207
32.282870556771144 29.4002
32.30604907069099 29.4582
32.329228942610065 29.3437
32.35259128243769 29.0855
32.375773884550505 29.0433
32.398957848235646 29.0657
32.422143174682176 28.930999999999997
32.445511016471215 28.8327
32.468699082679954 28.8178
32.49188851523011 28.7347
32.51507931531304 28.6763
32.538452678331 28.6409
32.56164622776311 28.6413
32.58484114831493 28.5155
32.60803744118015 28.5392
32.631416344731896 28.5411
32.654615396551876 28.4952
32.67781582427913 28.5567
32.701198898634416 28.4664
32.72440209253756 28.3889
32.747606665947124 28.4069
32.77081262006088 28.2089
32.79420126883317 28.2264
32.81740999876112 28.2654
32.840620112999424 28.1672
32.86383161274818 28.0593
32.88722585534586 28.1249
32.91044014056596 28.158
32.933655814909734 28.0267
32.95687287957963 28.1764
32.98027273544904 28.0691
33.00349259526636 27.9874
33.026713849030116 28.0227
33.04993649794511 27.8961
33.073341986570746 27.9081
33.09656744032826 27.848000000000003
33.11979429286444 27.875
33.14302254538647 27.8726
33.166433686291185 27.7296
33.18966475336992 27.7942
33.212897224069096 27.6779
33.23613109959831 27.6961
33.259547912343415 27.6231
33.2827846121627 27.6057
33.306022720453775 27.6316
33.32926223842861 27.5067
33.352684742614166 27.5607
33.37592709463173 27.5143
33.399170859982064 27.3953
33.422597648419426 27.3931
33.44584425514446 27.3461
33.46909227885668 27.2242
33.4923417207723 27.1587
33.51577423505344 27.2135
33.539026528130385 27.0302
33.56228024307245 27.0286
33.585535381098246 26.8819
33.60897364093058 26.7565
33.63223163992385 26.8525
33.6554910656699 26.8064
33.678751919389796 26.73
33.702195944520106 26.6411
33.72545966903325 26.6934
33.74872482519663 26.5588
33.771991414233746 26.6174
33.79544122444841 26.5534
33.81871069412428 26.432
33.84198160035767 26.436999999999998
33.86525394437455 26.4031
33.88870955949969 26.1838
33.911984794020626 26.3375
33.93526147001624 26.3707
33.958539588715006 26.3477
33.98200102861669 26.3157
34.0052820477047 26.1436
34.02856451319451 26.1371
34.05203033759056 26.154
34.07531571090147 26.1046
34.09860253431845 26.089000000000002
34.121890809074316 25.9584
34.145362493118924 25.9256
34.16865368561615 25.9666
34.191946333164054 25.8627
34.21524043699793 25.8206
34.23871800066799 25.8143
34.26201503218366 25.7952
34.28531352370466 25.7156
34.30861347646881 25.5603
34.33209693978188 25.5633
34.3553998301885 25.5165
34.378704185565205 25.4695
34.402010007152356 25.4774
34.42549939016683 25.4631
34.44880815937748 25.3944
34.472118398533134 25.3708
34.49543010887669 25.3795
34.51892543169198 25.2455
34.54224009966052 25.2446
34.56555624255917 25.236
34.58887386163339 25.226
34.61237514439016 25.0931
34.6356957311114 25.0703
34.65901779775809 25.0734
34.68252356662995 24.8921
34.705848608458616 24.8714
34.72917513396849 24.8812
34.75250314440949 24.7997
34.77601490857862 24.7288
34.799345904259795 24.7304
34.82267838863559 24.72
34.846012362958525 24.7017
34.869530142679984 24.6854
34.89286711232212 24.6525
34.91620557568269 24.6903
34.93954553401677 24.5902
34.9630693495876 24.4412
34.986412313340814 24.5653
35.00975677584668 24.6661
35.033102738362956 24.5033
35.05663261012228 24.3703
35.0799815881786 24.3977
35.10333207003229 24.385
35.12668405694369 24.3429
35.150220005273056 24.3347
35.17357501786656 24.2813
35.19693153931268 24.2393
35.220289570874385 24.2025
35.24383161619786 24.1985
35.267192683604904 24.1788
35.290555264930376 24.1784
35.314101899412165 24.0954
35.33746752422433 24.0972
35.36083466676374 24.1283
35.38420332829803 24.0284
35.407756095629054 23.9742
35.43112781085063 23.9586
35.45450104888391 23.8525
35.477875810999194 23.901
35.50143473172161 23.8565
35.52481255774625 23.8318
35.54819191167777 23.7146
35.57157279478914 23.8255
35.595137889488406 23.7828
35.61852184675279 23.74
35.641907337029984 23.7632
35.665294361595684 23.6803
35.68886565090076 23.6529
35.7122557598848 23.6106
35.73564740699838 23.6294
35.759040593519934 23.5663
35.78261809810353 23.5607
35.80601437933051 23.4685
35.829412203814705 23.3457
35.85281157283719 23.3077
35.876395313415884 23.3384
35.8997977874528 23.3316
35.92320180988546 23.2318
35.946790244133936 23.1825
35.97019737933222 23.1768
35.993606066789866 23.1101
36.01701630779276 23.2037
36.04061101440684 23.095
36.06402437852291 23.0857
36.08743930005611 23.0352
36.1108557802951 22.9453
36.13445678011326 22.9527
36.15787639383515 22.8716
36.18129757014299 22.8637
36.20472031032821 22.8356
36.22832762423364 22.7399
36.25175350829375 22.7562
36.275180960119776 22.7237
36.298609981005924 22.7467
36.32222362992669 22.7701
36.34565580510207 22.6855
36.36908955323448 22.6147
36.39252487562093 22.5252
36.416144880530226 22.5092
36.43958336764275 22.5229
36.463023432914625 22.4897
36.486465077645676 22.4261
36.51009145956204 22.4861
36.53353627947859 22.4552
36.55698268276811 22.4202
36.58043067073321 22.381999999999998
36.60406345072071 22.2104
36.62751462435344 22.1822
36.65096738658405 22.1775
36.67460498210655 22.2022
36.69806093788647 22.1712
36.72151848619297 22.0851
36.744977628333636 22.1582
36.76862165890998 22.0461
36.79208400512205 22.0123
36.81554794910557 21.988000000000003
36.83901349217101 21.9425
36.862663978991606 21.8601
36.88613273667352 21.8571
36.90960309738324 21.8996
36.933075062434064 21.8349
36.95673202673572 21.802
36.98020721697122 21.7481
37.003684015502365 21.6081
37.027162423645365 21.6318
37.050825886711465 21.5979
37.07430753063053 21.53
37.09779078812467 21.5159
37.121275660513014 21.5434
37.144945643673694 21.531999999999996
37.16843376245278 21.4675
37.19192350009803 21.4489
37.215414857931435 21.4122
37.239091382563885 21.3173
37.262585997426164 21.3124
37.28608223645736 21.2967
37.309763684451696 21.2822
37.33326318851098 21.2362
37.356764320726555 21.2644
37.380267082425526 21.1781
37.40395510942588 21.2388
37.42746114683234 21.092
37.45096881771841 21.0442
37.474478123414166 21.0204
37.49817275092816 20.9835
37.52168534303452 20.9283
37.54519957395567 20.9036
37.568715445024665 20.8724
37.592416694607714 20.7818
37.61593586281424 20.8509
37.63945667518264 20.8379
37.66297913304891 20.829
37.68668702630454 20.7458
37.710212792059274 20.651
37.733740207334854 20.6733
37.757269273470364 20.5928
37.780983832050374 20.6161
37.80451621684926 20.5564
37.82805025654007 20.5056
37.851585952464795 20.4659
37.8753071980695 20.4302
37.89884622345676 20.3564
37.92238690911902 20.3846
37.94611318753442 20.3155
37.969657210779765 20.3246
37.99320289834801 20.3122
38.016750251586465 20.2567
38.04048325513017 20.2224
38.06403395679343 20.1678
38.087586328183946 20.1626
38.11114037065203 20.1663
38.13488012115898 20.1012
38.1584375229181 20.0569
38.181996599821 20.045
38.205557353221124 20.0258
38.229303872575656 20.002
38.2528679961576 19.9756
38.27643380031219 19.8933
38.30000128639589 19.8141
38.32375459653193 19.8216
38.34732546371299 19.8517
38.37089801690786 19.7623
38.39447225747609 19.7771
38.418232380377425 19.7356
38.441810012983396 19.7452
38.46538933705673 19.6717
38.488970353960084 19.6718
38.51273731166058 19.5928
38.536321731567014 19.5183
38.55990784840681 19.4233
38.58367995004091 19.4506
38.60726947812959 19.3854
38.63086070726198 19.4317
38.654453638806274 19.4148
38.678232613930824 19.3358
38.70182896773327 19.319000000000003
38.72542702806741 19.296
38.7490267963045 19.2917
38.77281266709232 19.2986
38.79641586862214 19.2027
38.8200207821842 19.1993
38.843627409152944 19.2251
38.86742019782782 19.1667
38.891030269149255 19.0673
38.914642058016156 19.0165
38.938255565806124 19.0305
38.96205529464307 19.0182
38.98567225787121 18.9525
39.00929094417078 18.9208
39.03291135492255 18.9939
39.05671804624804 18.9387
39.080341923549106 18.8058
39.103967529460334 18.8296
39.127594865365744 18.7637
39.15140854155791 18.7311
39.17503935514948 18.72
39.19867190290282 18.6687
39.22249083587951 18.6151
39.24612686969409 18.6391
39.269764641845306 18.7177
39.293404153722804 18.5557
39.317230110864074 18.5089
39.34087311998506 18.4713
39.36451787301696 18.4991
39.388164371352595 18.4589
39.41199737518003 18.4722
39.43564738196752 18.4025
39.45929913825317 18.2892
39.48295264543308 18.2641
39.506792718520884 18.3311
39.530449745387216 18.3264
39.55410852735203 18.2619
39.57776906581474 18.2803
39.60161623079 18.2497
39.625280300200025 18.2331
39.64894613032202 18.1905
39.67261372255866 18.1633
39.6964680021016 18.1258
39.72013913657293 18.0593
39.74381203738292 18.0678
39.76748670593756 17.9841
39.79134812278169 17.9964
39.81502634488497 17.9621
39.83870633896685 17.9406
39.862388106436654 17.8721
39.88625668336918 17.8524
39.90994201572829 17.885
39.933629125719285 17.7625
39.957503091207826 17.7572
39.9811937746168 17.7818
40.00488623990914 17.7557
40.02858048850006 17.6815
40.05246165409549 17.6754
40.076159487492085 17.6497
40.099859108448875 17.6564
40.123560518384345 17.5554
40.1474489070226 17.5551
40.171153913178564 17.4973
40.194860712584955 17.459
40.2185693066637 17.4559
40.242464941335314 17.397000000000002
40.26617714307655 17.3877
40.289891143772046 17.3762
40.3136069448471 17.3624
40.33750984859743 17.398
40.3612292688043 17.2912
40.3849504936829 17.2857
40.40867352466194 17.2571
40.43258372059144 17.1814
40.45631038219906 17.2116
40.48003885420956 17.1539
40.503769138055105 17.1757
40.52768664931955 17.1048
40.55142057531802 17.0884
40.57515631746428 17.076
40.599079334038514 17.0049
40.62281872700477 17.0015
40.64655994043941 16.9809
40.67030297578061 16.9998
40.69423334835778 16.9365
40.71798004609188 16.9205
40.74172857006355 16.9322
40.76547892171441 16.9213
40.7894166736039 16.873
40.813170699248566 16.7591
40.83692655691388 16.7294
40.86068424804498 16.808
40.884629402612525 16.7291
40.908390779366385 16.6973
40.932153993938 16.7324
40.95591904777605 16.6815
40.979871628443995 16.5996
41.003640379561936 16.5705
41.02741097430883 16.5562
41.05118341413683 16.5756
41.075143444384416 16.5172
41.098919593177826 16.4481
41.1226975914255 16.4358
41.14647744058318 16.4055
41.170444943946755 16.4097
41.19422851378379 16.3669
41.218013938914645 16.3015
41.24198706625173 16.2987
41.26577622087193 16.237000000000002
41.289567235177785 16.2457
41.31336011063129 16.1955
41.337340752422875 16.1424
41.361137369129835 16.2021
41.38493585138705 16.1441
41.40873620066004 16.1806
41.43272438060107 16.1012
41.45652848292052 16.0619
41.48033445666918 16.0487
41.50414230331616 15.9859
41.528138045159764 15.9689
41.551949656675205 15.8992
41.575763145513235 15.9806
41.59957851314666 15.9207
41.62358184070442 15.8644
41.64740098505737 15.8468
41.6712220126409 15.7834
41.69504492493139 15.7769
41.71905586207357 15.7288
41.74288256296395 15.7736
41.766711153007456 15.7375
41.79054163368412 15.6672
41.814560204340054 15.7066
41.838394485526365 15.6715
41.86223066180303 15.5997
41.88625497706819 15.5438
41.910094962812 15.5353
41.93393684811168 15.4802
41.95778063445365 15.457
41.981812625263366 15.4862
42.00566023303407 15.4244
42.029509746323676 15.408
42.05336116662236 15.4121
42.077400857069705 15.4452
42.10125611078846 15.3856
42.12511327600405 15.3159
42.14897235421036 15.2569
42.173019768448455 15.2491
42.19688269209613 15.2238
42.22074753323349 15.1925
42.24461429335818 15.1735
42.268669455600495 15.1347
42.292540073217886 15.1099
42.31641261433284 15.1612
42.34028708044675 15.1043
42.36435001496739 15.0663
42.38822835065557 15.0942
42.41210861586426 15.0396
42.4359908120986 15.0083
42.46006154323262 14.9841
42.48394762115317 14.8872
42.507835634632315 14.9214
42.531912233047436 14.9223
42.55580413732265 14.8852
42.579697981698 14.8864
42.60359376768525 14.8245
42.62767820545945 14.8102
42.65157789440821 14.7707
42.67547952952185 14.7528
42.699383112316 14.7197
42.72347541395347 14.6852
42.74738291190531 14.6803
42.771292362102166 14.6475
42.795203766063516 14.6187
42.819303956130405 14.6331
42.843219287476536 14.6139
42.86713657716324 14.5779
42.89105582671383 14.5253
42.91516392983864 14.4532
42.939087119032166 14.425
42.963012272677304 14.3872
42.98693939230129 14.4255
43.01105543317513 14.3619
43.034986504731386 14.3279
43.05891954686589 14.3501
43.08285456110972 14.3278
43.10697856448665 14.2987
43.130917542983475 14.2911
43.15485849820081 14.2545
43.17880143167367 14.2182
43.20293342237094 14.2091
43.226880332449 14.175999999999998
43.25082922540554 14.2042
43.27496722682525 14.1831
43.29892010567796 14.1088
43.32287497204102 14.0649
43.34683182745632 13.9962
43.370977859791836 13.9936
43.39493871351105 14.0128
43.41890156092628 14.0164
43.44286640358341 13.93
43.46702049182749 13.9081
43.49098934522816 13.9227
43.51496019852649 13.8797
43.5389330532723 13.8496
43.56309522248204 13.8217
43.58707210044314 13.8407
43.61105098451946 13.7854
43.63503187626491 13.7314
43.659202151562134 13.7272
43.68318707902681 13.7525
43.70717401884041 13.7022
43.731162972560874 13.6779
43.75534137913236 13.6213
43.779334381108384 13.6485
43.803329401683186 13.6014
43.82732644241872 13.6074
43.8515130055166 13.5729
43.87551410707659 13.4842
43.89951723350145 13.5297
43.923709934595614 13.4617
43.94771713129917 13.4562
43.97172635758096 13.457
43.99573761501002 13.4431
44.0199385169922 13.4317
44.04395385732619 13.3269
44.067971233533086 13.3666
44.09199064718605 13.3338
44.11619977548961 13.2659
44.14022328470671 13.280999999999999
44.16424883610785 13.2878
44.18827643127035 13.2561
44.21249381139513 13.1811
44.236525514814076 13.171
44.26055926674478 13.1603
44.28459506876863 13.1421
44.3088207262813 13.1305
44.33286064928722 13.0625
44.35690262714919 13.0696
44.38094666145278 13.0038
44.4051806219871 13.0354
44.42922879003185 12.9565
44.45327901929361 12.9534
44.477331311362136 12.915
44.501573600619416 12.8723
44.525630039221795 12.9013
44.54968854541895 12.8901
44.573937102200176 12.8939
44.5979997645541 12.8695
44.622064499300315 12.8173
44.64613130803592 12.7507
44.67038823869318 12.767999999999999
44.69445921643748 12.7737
44.718532272981385 12.7267
44.742607409926194 12.6956
44.76687274034801 12.682
44.79095205918753 12.6351
44.81503346325094 12.6442
44.839116954143876 12.6421
44.86339071028742 12.574000000000002
44.88747839599524 12.5617
44.91156817336837 12.5121
44.93566004401666 12.4894
44.959942251908146 12.5029
44.984038330325966 12.4868
45.00813650686762 12.4396
45.03223678314731 12.3851
45.05652746888232 12.4061
45.08063196592069 12.3484
45.104738567558705 12.3971
45.128847275414856 12.3499
45.15314646515866 12.2577
45.17725940679741 12.243
45.20137445952892 12.2716
45.22568004865265 12.2581
45.24979934496396 12.2322
45.27392075725247 12.2057
45.29804428714431 12.1799
45.322358426247604 12.2144
45.346486212804315 12.1907
45.370616121861914 12.1525
45.39474815505086 12.1667
45.41907087049246 12.0972
45.4432071734666 12.0439
45.46734560548283 12.0446
45.49148616817604 12.0648
45.51581748638564 12.0429
45.5399623320197 11.9869
45.56410931325473 11.9883
45.58825843173002 11.9574
45.61259837920865 11.9563
45.636751793816 11.8962
45.66090735060093 11.8498
45.68506505120716 11.8784
45.7094136545275 11.8092
45.73357566449271 11.785
45.75773982322992 11.7888
45.78190613238733 11.7584
45.806263418194064 11.7411
45.83043404997326 11.7142
45.85460683713677 11.7034
45.87897065658495 11.6821
45.90314777634752 11.6295
45.92732705646868 11.6249
45.9515084986045 11.6505
45.97588104735473 11.6198
46.00006683541565 11.5685
46.02425479047904 11.549000000000001
46.04844491420549 11.5334
46.0728262191024 11.56
46.09702070211635 11.4837
46.12121735879483 11.519
46.14541619080294 11.5157
46.169806278764455 11.4879
46.194009483459034 11.4329
46.21821486849841 11.4188
46.24242243555223 11.3889
46.266821333570014 11.3437
46.29103328674601 11.3262
46.31524742696538 11.3654
46.33946375590237 11.3358
46.36387149104216 11.2738
46.38809221957392 11.2498
46.41231514186606 11.2368
46.436540259597464 11.2398
46.460956858999374 11.181
46.48518638983522 11.1596
46.509418121166966 11.0798
46.533652054678114 11.0971
46.55807754555709 11.0969
46.58231590571962 11.0859
46.60655647313217 11.0823
46.630988654873654 11.0645
46.655233659129024 11.0303
46.67948087571551 10.9894
46.70373030632484 10.9696
46.72817142736393 10.9864
46.752425308428684 10.9455
46.77668140861147 10.9338
46.80093972960865 10.9374
46.82538981736788 10.9141
46.849652602470904 10.8794
46.87391761349769 10.8139
46.8981848521493 10.8442
46.9226439341274 10.8307
46.946915650573224 10.8092
46.97118959976749 10.7694
46.99546578341598 10.7263
47.019933887188216 10.7357
47.04421456235744 10.694
47.06849747711879 10.7201
47.09278263318286 10.7019
47.11725978640143 10.6582
47.14154944775105 10.6318
47.165841355555656 10.6507
47.1901355115306 10.5706
47.214621741924994 10.5637
47.23892041698887 10.5849
47.26322134538975 10.5057
47.28771440635075 10.497
47.31201986422527 10.4759
47.33632758061436 10.4274
47.360637557241866 10.4081
47.38513974410611 10.4287
47.40945426407847 10.407
47.43377104948137 10.4051
47.45809010204344 10.4055
47.48260144275502 10.3439
47.506925052572285 10.3323
47.53125093475548 10.3678
47.55557909103813 10.2728
47.58009961361992 10.3037
47.60443234110732 10.264000000000001
47.62876734791564 10.2396
47.65310463578333 10.2176
47.6776343683373 10.2041
47.7019762413987 10.1684
47.72632040075572 10.1716
47.75066684815169 10.1733
47.77520581885936 10.1319
47.799556865477655 10.0886
47.823910205386 10.0848
47.84826584033272 10.0758
47.87281407745551 10.0691
47.89717432569297 10.0292
47.92153687423484 10.0402
47.94609208429692 9.999369999999999
47.97045925671401 9.97746
47.99482873471275 9.94575
48.01920052005013 9.95232
48.04376504619224 9.92351
48.068141469543484 9.94107
48.09252020552573 9.91474
48.11690125590099 9.8734
48.1414751266064 9.88735
48.16586082917454 9.857460000000001
48.19024885144316 9.83451
48.2146391951793 9.85378
48.239222439012764 9.82042
48.26361744916137 9.7856
48.28801478610016 9.78533
48.31241445160131 9.7349
48.337007097209366 9.75102
48.36141144338331 9.718169999999999
48.38581812345755 9.70153
48.41022713920929 9.68726
48.434829215320704 9.665980000000001
48.45924292604658 9.6618
48.48365897780325 9.63622
48.50807737237308 9.59747
48.532688907799276 9.54521
48.55711201168574 9.54706
48.581537463754074 9.54143
48.60615611725119 9.54674
48.63058628942721 9.55844
48.65501881516546 9.48605
48.6794536962573 9.486469999999999
48.70408185970339 9.47517
48.72852147531801 9.429780000000001
48.75296345168211 9.37385
48.77740779059232 9.39748
48.80204549302823 9.42343
48.82649458091802 9.41204
48.85094603676547 9.37176
48.87539986237231 9.337019999999999
48.90004713292306 9.311580000000001
48.92450572200832 9.27875
48.94896668628025 9.26568
48.97343002754588 9.25227
48.99808689542115 9.28995
49.02255501470614 9.263580000000001
49.04702551642794 9.23022
49.0714984023988 9.16835
49.096164896893235 9.1556
49.120642575466796 9.14702
49.145122643748394 9.13504
49.16960510355558 9.134730000000001
49.19428125404938 9.10425
49.2187685210852 9.09785
49.243258185121555 9.076989999999999
49.26794160167084 9.07602
49.2924360839405 9.05
49.31693296869764 9.04157
49.34143225776915 8.99259
49.36612538195438 8.98344
49.39062950396021 8.97788
49.41513603578346 8.93095
49.4396449792564 8.93919
49.46434784069503 8.911769999999999
49.488861631846454 8.89151
49.513377840166804 8.869
49.537896467493745 8.88728
49.56260909589029 8.83337
49.587132585683285 8.84715
49.611658500018365 8.80664
49.636186840738596 8.76919
49.66090926588511 8.791839999999999
49.685442483902584 8.78405
49.70997813385706 8.75475
49.734516217597076 8.72851
49.75924846937352 8.70877
49.7837914452858 8.7019
49.80833686055187 8.6294
49.83288471702571 8.64403
49.85762682540054 8.65977
49.882179588965734 8.6232
49.9067347993235 8.60015
49.93129245833333 8.612060000000001
49.95604445336378 8.63683
49.98060703442832 8.59605
50.005172069746266 8.5591
50.02993150438364 8.51013
50.05450147301533 8.5423
50.07907390151433 8.53308
50.10364879174981 8.46725
50.12841816587289 8.487810000000001
50.1529980044635 8.49286
50.17758031042124 8.44553
50.20216508562089 8.42382
50.22694442953363 8.39506
50.25153416817468 8.396560000000001
50.27612638170508 8.39114
50.300721072005196 8.348310000000001
50.325510416102105 8.34282
50.350110084975064 8.364180000000001
50.37471223628208 8.34272
50.39931687190919 8.31904
50.424116246675766 8.27496
50.44872587605249 8.27191
50.47333799543065 8.29434
50.49795260670191 8.243269999999999
50.52276204271512 8.20055
50.54738166295838 8.20175
50.57200378079314 8.1987
50.596628398116835 8.133560000000001
50.62144792604559 8.149410000000001
50.646077567609396 8.142560000000001
50.670709714377715 8.13814
50.69553683636198 8.104330000000001
50.72017401885922 8.08446
50.7448137122895 8.07362
50.76945591856022 8.09147
50.79429318636823 8.03578
50.818940443716784 8.04359
50.84359021965163 8.016539999999999
50.868242516085964 7.991560000000001
50.893089960641895 8.0147
50.917747323549435 8.00274
50.94240721271973 7.96875
50.96706963007175 7.92645
50.99192728239342 7.9188
51.01659478166073 7.945410000000001
51.04126481489051 7.903410000000001
51.06593738400761 7.8985899999999996
51.090805275207074 7.81758
51.11548294172845 7.8148800000000005
51.14016314993547 7.83712
51.164845901758845 7.83827
51.18972406304274 7.81434
51.21441192780656 7.79311
51.23910234200271 7.7769
51.2637953075678 7.74835
51.288683770237945 7.71853
51.31338186432707 7.6892
51.33808251561888 7.6563
51.362978729967345 7.68428
51.387684521509755 7.668830000000001
51.41239287610203 7.63545
51.437103795691165 7.604080000000001
51.46201036644977 7.6352899999999995
51.486726441956634 7.60263
51.51144508832545 7.59883
51.536166307509156 7.563510000000001
51.56108326624387 7.5452699999999995
51.58580965706056 7.5354
51.61053862657523 7.479489999999999
51.635270176746864 7.48221
51.66019755512065 7.47443
51.68493429268881 7.45868
51.70967361681515 7.48065
51.73441552946465 7.45947
51.759353359237934 7.4675
51.7841004750961 7.45471
51.80885018539685 7.4264600000000005
51.833602492111254 7.376460000000001
51.8585508051424 7.3579
51.883308330926425 7.3678
51.90806845906181 7.3525100000000005
51.932831191525715 7.296860000000001
51.95779001977161 7.26093
51.98255798721516 7.26805
52.00732856494335 7.2596
52.03229530577543 7.27935
52.057071130455945 7.2467
52.081849571391054 7.20499
52.106630630568695 7.18992
52.13160794279417 7.18625
52.15639426492067 7.1883
52.18118321127822 7.19797
52.205974783860896 7.14573
52.23096269971011 7.1291899999999995
52.255759551287994 7.1012
52.280559035098186 7.091360000000001
52.30536115314103 7.10925
52.33035970494467 7.07711
52.35516711807904 7.04743
52.37997717147198 7.039569999999999
52.40478986713005 7.039160000000001
52.42979908731974 6.98976
52.454617094216 7.01428
52.47943774942214 6.967969999999999
52.50426105495102 7.008430000000001
52.529280976059844 6.96205
52.554109609024096 6.994219999999999
52.57894089837482 6.9204
52.60377484613117 6.89997
52.62880550079408 6.9179699999999995
52.65364479223379 6.93013
52.67848674816189 6.9082300000000005
52.70352547971946 6.87816
52.72837279155837 6.89625
52.753222773982785 6.86105
52.778075429022984 6.841360000000001
52.80312495150885 6.809019999999999
52.827982978797436 6.78845
52.85284368481815 6.7641100000000005
52.87770707160767 6.7420100000000005
52.90276741793998 6.73861
52.92763619336701 6.76014
52.952507655698504 6.72438
52.977381806977576 6.7123800000000005
53.00245301017842 6.70275
53.02733256653592 6.68202
53.052214817996074 6.65682
53.077099766608484 6.66207
53.102181859804446 6.655360000000001
53.127072229988265 6.63524
53.15196530349892 6.602639999999999
53.17686108239249 6.5898699999999995
53.20195409881522 6.57055
53.22685531582556 6.58799
53.25175924441303 6.5515300000000005
53.27666588664027 6.55201
53.30176985962693 6.52861
53.3266819565689 6.53873
53.35159677336455 6.47147
53.376514312083096 6.44951
53.40162927507703 6.487830000000001
53.42655228516116 6.442880000000001
53.45147802340193 6.4435
53.47660125628886 6.4324
53.50153247842639 6.37903
53.52646643496923 6.38908
53.55140312799818 6.44024
53.576537409691696 6.39144
53.60147960336152 6.34808
53.626424539786164 6.37138
53.65137222105307 6.30296
53.67651758529126 6.29255
53.70147078399681 6.32344
53.72642673383343 6.33933
53.75138543689533 6.29074
53.776541917524526 6.2628
53.801506154876755 6.2355
53.826473151763246 6.22331
53.851442910284916 6.20035
53.87661054126026 6.20137
53.9015858509782 6.20407
53.92656392866066 6.19304
53.95154477641532 6.19115
53.976723591801296 6.1742
54.00171000771266 6.14305
54.02669920004598 6.12106
54.051691170915745 6.08207
54.076881204886796 6.09638
54.101878760928514 6.0810699999999995
54.12687910187696 6.01403
54.152077577768296 6.0534300000000005
54.1770835166946 6.0349900000000005
54.20209224691339 6.030869999999999
54.22710377055121 5.97835
54.25231352511594 5.96855
54.27733066384342 5.9372
54.30235060239643 5.98048
54.32737334290836 5.94822
54.35259441062629 5.85425
54.377622783395324 5.863980000000001
54.40265396455061 5.886080000000001
54.42768795623251 5.879659999999999
54.45292037169559 5.85232
54.477960012857906 5.81452
54.50300247099511 5.77307
54.52804774825457 5.767119999999999
54.55329154616743 5.71438
54.57834249018678 5.71732
54.6033962597977 5.66029
54.6284528571545 5.6513
54.653708072335164 5.62116
54.67877035378786 5.65244
54.70383546947698 5.58942
54.72890342156389 5.60365
54.7541700889442 5.54214
54.77924374251975 5.525180000000001
54.8043202390049 5.51196
54.82959552413022 5.4889
54.8546777351945 5.507619999999999
54.87976279569621 5.4528
54.90485070780914 5.466559999999999
54.930137506558005 5.45694
54.95523115074295 5.4404900000000005
54.98032765308844 5.39911
55.005427015775496 5.34529
55.03072536339621 5.36788
55.05583047570572 5.295719999999999
55.080938454927676 5.27398
55.10604930325027 5.2659
55.131359235107396 5.3022800000000005
55.15647585066083 5.21934
55.181595341907496 5.21559
55.20671771104285 5.2277
55.232039262617704 5.20292
55.25716741665048 5.14998
55.28229845518636 5.14363
55.30743238042802 5.095
55.33276558731939 5.02497
55.357905315183636 5.01523
55.383047936390035 4.98635
55.40819345314859 4.96636
55.433538351073295 4.98464
55.458689688238415 4.976369999999999
55.483843927614096 4.90185
55.509197623043605 4.89647
55.53435769621134 4.83535
55.55952067826466 4.83162
55.5846865714265 4.85076
55.61005202069737 4.77904
55.63522376553902 4.8099
55.66039842818645 4.735530000000001
55.68557601087004 4.82188
55.7109532500271 4.70805
55.73613670233794 4.70796
