TT I
1.2716486653135266 7.45298
1.2939594142134223 7.27573
1.3162702121660406 6.43144
1.3385810600174564 6.30538
1.3608919586137629 6.474480000000001
1.383202908801069 6.0967
1.405513911425503 5.24316
1.4278249673332093 5.89107
1.4501343378461518 6.31837
1.4724455028545926 5.76768
1.4947567236847858 5.82771
1.517068001182951 5.69359
1.5393793361953272 6.18152
1.5616907295681737 5.427969999999999
1.5840021821477681 5.67435
1.60631369478041 5.0206800000000005
1.6286252683124185 4.7287
1.6509369035901333 4.77764
1.6732468618895553 5.11782
1.695558623192809 4.93145
1.7178704487808514 4.993530000000001
1.7401823395001077 4.5849400000000005
1.7625012545597203 4.87054
1.7848028405262486 4.87517
1.8071218901122095 4.6384099999999995
1.8294236121921872 4.46249
1.8517427996910911 4.98884
1.8740620574440425 5.08748
1.8963639900671978 4.6715
1.9186833908139995 4.04063
1.9409854680117449 4.3121
1.9633050151394713 4.88566
1.9856246367570705 4.35774
2.0079269371922672 4.78862
2.03024671027244 4.82878
2.0525491637446027 4.32597
2.074869091674931 4.30465
2.097171701569106 4.684
2.1194917877373847 5.24717
2.141811954326636 5.12012
2.164114805233074 4.63908
2.186435135143035 6.60858
2.208738150935709 15.7725
2.231058647554722 34.0897
2.2533792288321184 25.4091
2.275682498336085 11.7652
2.298003251406138 6.42005
2.3203066942619714 6.36972
2.3426276225136022 5.4650099999999995
2.3649486396617507 5.7268
2.387252348930071 5.743040000000001
2.4095735463442893 5.897530000000001
2.4318774374315884 6.4244699999999995
2.4541988185014043 6.85497
2.476502894794693 6.7949399999999995
2.498824462909887 7.356610000000001
2.521146125856138 7.51168
2.5434504863470337 7.95265
2.5657723414244717 8.06905
2.588076895590662 8.28943
2.610398946189713 8.9579
2.6327210958598384 8.57923
2.6550259469304716 7.830489999999999
2.6773482972090137 8.68177
2.6996533504259 8.24348
2.7219759047039602 8.22284
2.744298562293959 8.34405
2.7666039251246595 8.03209
2.7889267918020164 8.56533
2.8112323652516555 8.39588
2.833555444408179 9.24364
2.8558786311183852 8.34253
2.8781845268938557 9.341560000000001
2.9005079311721484 8.957139999999999
2.9228140460410397 9.224910000000001
2.9451376712799635 9.70963
2.967444008632326 10.1662
2.9897678582247247 10.5859
3.0120918213106695 10.2681
3.0343984987899373 11.1191
3.0567226913198637 10.9493
3.079029599759726 11.5101
3.101354025127254 12.6807
3.123678568232338 14.0149
3.145985829517914 13.6567
3.16831061055229 14.0058
3.1906181112775593 14.9574
3.212943133635653 15.18
3.2352682779763207 15.3977
3.2575761442691227 15.7126
3.2799015350264273 16.0818
3.302209649240067 16.5205
3.3245352898092655 17.073
3.3468436553365257 17.4045
3.369169549113219 17.8306
3.3914955708171384 18.6887
3.413804319727358 18.9396
3.4361305997334863 18.7253
3.4584396084414553 19.9068
3.4807661501462652 20.162
3.503092824025881 20.4307
3.5254022288463154 20.8125
3.5477291695206588 21.3898
3.5700388426251948 22.1093
3.5923660534916446 24.3376
3.6146934007816114 41.1575
3.637003482731501 101.36
3.6593311053109985 114.19
3.681641464033634 63.8561
3.7039693653009733 32.3753
3.726297407241705 26.6054
3.7486081875460804 25.7809
3.7709365132734978 26.2866
3.793247578841633 26.6027
3.8155761917550093 26.3632
3.8378875459837216 26.725
3.8602164494827234 27.4817
3.882545499606844 28.0928
3.9048572932539183 28.8493
3.9271866390645718 29.421999999999997
3.9494987298666713 29.7147
3.971828374764527 30.1109
3.9941581705403255 30.5411
4.016470713506008 31.1719
4.038800813471445 31.8731
4.061113662089144 32.4508
4.0834440696459176 33.522
4.105774632334751 34.0677
4.128087945865126 35.1534
4.150418821249301 35.775999999999996
4.172732448931298 37.0266
4.195063640413578 38.7867
4.2173775856475215 43.3475
4.239709096631102 80.0532
4.262040768704612 278.965
4.284355196706267 378.915
4.306687193387355 242.36700000000002
4.329001947444346 89.6357
4.35133427213731 48.5505
4.373666762177566 44.7121
4.395982011761091 44.2246
4.418314834921175 45.0557
4.44063041906622 54.4814
4.4629635787515625 67.5287
4.4852969080429785 67.7906
4.5076130004776225 54.8691
4.529946671403969 49.8365
4.552263106909177 49.3139
4.574597122877047 50.4682
4.596931312711224 51.757
4.619248269273446 52.4584
4.6415828092605835 53.8113
4.663900117405352 54.6822
4.686235010953232 56.1564
4.708552674085913 57.3913
4.730887924602802 58.7061
4.753223354952695 59.8228
4.775541557023902 61.343
4.797877349456786 62.5569
4.820195915032126 64.0794
4.842532072957498 65.4681
4.864868414979744 67.5447
4.88718753227192 69.7308
4.909524244902505 71.3887
4.931843734218147 72.9005
4.954180820867835 75.7502
4.976518095879839 78.1271
4.998838149695359 81.1067
5.021175803844231 84.0232
5.043496238205739 87.4716
5.065834274903528 90.9895
5.088172504230693 95.1184
5.1104935158799565 100.931
5.132832132875765 122.90700000000001
5.155153533596801 168.567
5.1774925416746225 198.675
5.199814334878411 271.35900000000004
5.2221537374521505 716.5319999999999
5.244493338631803 2234.31
5.266815727034316 7261.1
5.289155727832427 13629.5
5.311478517248165 9165.34
5.333818921080011 2760.46
5.356159527788849 504.875
5.3784829252032536 172.96099999999998
5.400823940070432 137.30200000000002
5.423147747031976 124.15899999999999
5.445489173474152 115.15799999999999
5.467830807066149 109.72200000000001
5.490155234831516 106.398
5.512497285125229 103.12299999999999
5.534822130975162 102.235
5.557164601388673 99.366
5.579489868738879 96.6566
5.601832762690846 95.8251
5.6241758697774475 95.9294
5.646501775867269 94.8659
5.668845311622074 93.2022
5.691171647754637 91.7937
5.713515615597765 90.9903
5.735859800852677 90.1954
5.758186788542988 89.2412
5.780531411018185 89.421
5.802858837297399 88.2877
5.825203900414495 87.8886
5.8475491852224 88.0849
5.869877275883075 88.9304
5.892223006467101 89.5831
5.914551544266608 90.205
5.936897724049891 91.5854
5.959244129804903 94.9735
5.981573344815301 106.08200000000001
6.0039202049061 164.13099999999997
6.026249875609095 342.824
6.04859719346037 767.97
6.070927323278297 2010.32
6.093275102315365 4576.83
6.115623113320588 5515.42
6.137953938319995 3293.72
6.160302415650845 911.137
6.182633708324452 210.31400000000002
6.2049826554078376 108.039
6.227331838745022 89.542
6.249663839443684 82.8504
6.27201349767565 81.2408
6.294345974611799 89.6342
6.316696111167083 104.00299999999999
6.339046488263839 97.6431
6.361379686074702 80.1893
6.383730546639482 71.2967
6.406064229255215 67.9995
6.428415576718203 67.2496
6.450749747566656 66.3926
6.47310158535871 65.3692
6.495453669698332 64.4441
6.517788579421056 64.2566
6.540141159237969 63.0799
6.562476565766648 62.5833
6.5848296444934045 61.958999999999996
6.607182974060425 61.5296
6.6295191323281015 62.0603
6.651872965955752 66.4768
6.6742096296068985 97.9958
6.6965639707294615 154.22
6.71891856698715 153.784
6.741255995248479 101.044
6.763611104154477 69.1004
6.785949046381137 60.1114
6.808304671371482 58.2334
6.8306605557940046 57.2948
6.852999275508618 56.6712
6.875355681171544 56.3538
6.897694923437771 55.8599
6.92005185377892 55.8658
6.9423916220322655 56.2879
6.964749080490181 55.2089
6.987106804399774 54.8725
7.009447368180821 54.8795
7.031805625367033 54.9678
7.054146723727803 54.8395
7.076505517631004 54.76
7.098864581288365 54.6884
7.121206488070854 54.4018
7.143566093607822 54.8521
7.165908543567245 54.9176
7.188268694426048 54.6257
7.2106291193438095 55.2478
7.232972390625943 57.1509
7.255333366030969 72.9292
7.277677189091925 138.833
7.300038718428332 193.812
7.322400526130865 161.607
7.344745183422596 96.0379
7.367107550224791 63.0625
7.389452767901992 56.1229
7.411815697249891 55.0058
7.434161478756298 54.0008
7.456524974096713 53.878
7.478888753837185 53.9443
7.501235387657368 53.8174
7.523599738562711 54.1485
7.545946944825532 54.1876
7.568311870344528 54.8274
7.5906770845765665 55.0163
7.613025156078678 56.6631
7.635390950099687 57.9045
7.657739602662809 56.8288
7.680105979923558 55.5769
7.702472650212829 55.4647
7.724822180948224 54.9331
7.747189439655568 55.333999999999996
7.769539560075357 55.581
7.791907410653562 56.3555
7.81425812420825 55.8799
7.836626570110925 56.0337
7.858995315087906 56.8805
7.881346924933401 56.8515
7.903716270417482 57.4717
7.926068482028405 57.5927
7.948438431475253 58.1086
7.9708086843180235 59.006
7.993161805171116 59.662
8.015532667162402 59.5744
8.037886398416653 60.4563
8.060257873014221 61.4047
8.082629655331942 61.9165
8.104984308787587 63.106
8.127356708900503 66.5469
8.149711981398308 73.4018
8.172085002766314 76.3845
8.194458336181368 72.057
8.216814543847752 68.7324
8.23918850371002 68.4129
8.26154533906492 68.7937
8.283919928836452 70.7622
8.306277395339652 71.1874
8.328652618483376 72.2636
8.351028159736202 74.3642
8.373386579575245 76.5004
8.395762759396959 78.3457
8.418121819038275 83.1446
8.440498640894003 98.0718
8.462875785192262 113.1
8.485235811156207 118.904
8.507613602688501 139.69899999999998
8.529974277114228 204.53599999999997
8.552352719347912 316.59
8.574731488360351 555.413
8.59709314210385 1118.5
8.619472567021075 1911.12
8.64183487789147 2313.82
8.664214962183097 1872.21
8.686577933647762 921.498
8.708958680784317 342.74699999999996
8.731339760774953 157.565
8.753703729764451 108.095
8.77608547780821 96.5541
8.798450116065078 93.2599
8.820832535634787 90.3606
8.843215292401656 89.1477
8.865580941199045 87.6709
8.887964374703538 86.8723
8.910330701447199 88.241
8.932714815164482 91.4791
8.955099270424924 90.757
8.977466620733543 87.0086
8.999851761421976 83.7924
9.022219798361645 82.2019
9.04460562795561 82.1448
9.066991803441677 81.4773
9.089360876979615 81.2495
9.111747746589993 81.1516
9.13411751544971 80.2121
9.156505082664324 80.381
9.178875550323522 80.6874
9.20126381862328 81.0623
9.223652438908596 81.1572
9.246023961427412 81.0382
9.26841328802173 80.5211
9.290785518039224 80.3643
9.313175554425882 80.8999
9.335565947154315 80.8135
9.357939245086508 81.3419
9.380330352834827 81.1474
9.40270436697103 81.4262
9.425096193225055 81.4608
9.447488380180165 82.0795
9.469863475295412 82.3073
9.492256385987508 82.61200000000001
9.514632206018318 83.1948
9.537025843935714 83.7584
9.559402392368193 84.1188
9.581796761000229 85.7257
9.604191496441521 86.7006
9.626569144158516 90.4005
9.648964615551032 95.9616
9.671343000390081 97.9515
9.693739211225699 95.1033
9.716135793237463 91.7661
9.738515290448102 91.5691
9.760912617143402 91.9659
9.783292860202891 92.8237
9.805690935076182 94.1934
9.828089385495742 95.1987
9.850470754023561 97.8091
9.872869957865444 106.85700000000001
9.89525208097539 123.809
9.917652041736662 137.639
9.940052382417589 134.703
9.962435644102392 131.781
9.984836746950979 151.852
10.007220771957746 200.577
10.029622640473708 288.308
10.052007432299963 458.366
10.074410069984072 738.6110000000001
10.096813093716005 1251.65
10.119199042482517 1769.59
10.141602840636468 2036.53
10.163989564971628 1557.36
10.186394141051062 855.539
10.208799107559706 363.719
10.231187001965623 175.62099999999998
10.253592751657669 122.05
10.275981430388155 110.914
10.298387966769793 111.46799999999999
10.320794897965431 114.667
10.343184759907361 113.633
10.36559248305461 107.155
10.387983138083852 102.079
10.410391656691655 102.00399999999999
10.432800574501677 109.852
10.455192425893369 122.054
10.47760214443012 143.845
10.499994797678786 185.264
10.522405320453982 266.566
10.54479877906917 402.83
10.567210109595656 535.509
10.5896218454736 602.985
10.612016518879773 511.659
10.634429067781074 341.327
10.656824555333241 196.248
10.679237920773568 121.166
10.701651695961992 94.4519
10.724048411481384 87.6131
10.746463008485165 84.5677
10.768860546937125 83.0331
10.791275969274796 81.1919
10.81369180576079 80.5567
10.836090585366925 79.5315
10.858507252467449 78.2471
10.88090686379991 77.7905
10.903324365036394 76.9595
10.925724811614439 77.3247
10.948143150509463 78.8314
10.970561909719066 77.7887
10.992963615930844 75.67399999999999
11.015383218085756 73.5312
11.037785768347074 72.1694
11.06020621697282 71.6468
11.082627090322113 71.2536
11.105030913430326 70.4024
11.12745263854165 71.319
11.149857314510728 75.6914
11.172279894912576 83.227
11.194702904450653 84.2136
11.217108866490921 79.292
11.239532736615194 74.1793
11.26193956033512 71.5164
11.284364294577085 69.6563
11.306789462371718 67.4815
11.329197585398376 66.3048
11.351623622610898 65.9577
11.37403261614354 65.1329
11.396459526308487 64.8813
11.418869393879497 64.3349
11.441297180532617 64.195
11.463725406927658 63.8916
11.486136592353875 63.6956
11.508565700543707 64.3916
11.530977768845315 66.6568
11.553407762368774 67.8144
11.575838200059769 67.153
11.598251599479612 64.479
11.620682927815501 62.989
11.64309721895548 62.4681
11.665529441478206 61.9699
11.687962112597958 61.5188
11.710377748130886 61.8234
11.732811318753434 61.8139
11.755227854859067 61.7834
11.777662328529495 61.8601
11.800079768750786 61.6578
11.822515149015453 61.4628
11.844950984084935 61.5554
11.867369787303163 61.455
11.889806534289491 61.3286
11.912226250487029 61.4277
11.934663912939751 61.5028
11.9571020346363 61.8129
11.979523127133968 61.5363
12.001962169624331 61.9395
12.024384183972964 62.4458
12.046824150809913 64.7741
12.069264581333726 68.9017
12.091687985297767 74.1781
12.11412934550045 82.6669
12.136553680195208 97.4197
12.158995973632788 118.67200000000001
12.181438735204349 150.829
12.20386447284199 182.43400000000003
12.226308172985636 203.69400000000002
12.24873485024193 197.197
12.271179492516982 160.713
12.293607112949127 121.374
12.316052700916226 94.7685
12.338498763250042 78.5488
12.360927805303868 69.7293
12.383374818673879 65.6762
12.405804812803074 63.7334
12.428252780773262 63.0146
12.45070122756722 63.138000000000005
12.473132656675375 62.8872
12.49558206341869 63.1539
12.518014453510101 62.9727
12.540464823770117 63.4268
12.562915677315177 63.4147
12.58534951575545 64.3926
12.607801338171472 66.914
12.630236146511358 73.5081
12.652688941369085 79.1897
12.675124723177234 79.1059
12.697578494048786 74.4892
12.720032754458185 69.3677
12.742470003354093 67.2457
12.764925245138771 66.6901
12.787363476431278 66.8028
12.809819703166806 66.98899999999999
12.83227642391173 67.6452
12.854716135692716 67.9117
12.877173846755147 69.4173
12.899614549869717 69.5569
12.9220732548287 70.1141
12.94453245827299 70.6083
12.966974655289818 71.6219
12.989434858002571 72.1669
13.011878055298721 72.9135
13.034339260862497 74.0523
13.056800969391883 75.0426
13.079245674017244 76.7156
13.101708390774869 78.2536
13.12415410463411 83.2573
13.146617833206086 92.7032
13.169064559883248 102.434
13.191529303857127 115.37899999999999
13.213994557076367 135.162
13.236442809902437 169.767
13.258909083908291 226.438
13.28135835851934 297.311
13.30382565690295 376.673
13.326293469022952 436.54699999999997
13.348744283242008 432.65
13.371213125129904 350.83
13.39366497011003 249.50400000000002
13.416134845360597 166.62099999999998
13.438605238843131 119.197
13.46105863690397 100.678
13.483530069144786 99.0307
13.505984506951902 102.976
13.528456981549432 111.34
13.550929978879088 125.00399999999999
13.573385983253365 147.128
13.595860028340867 185.412
13.618317081455832 240.917
13.64079217790333 304.835
13.663250283359057 357.12199999999996
13.685726434770173 378.24800000000005
13.708203115221277 332.08099999999996
13.730662806148091 250.90099999999998
13.75314054697177 175.986
13.775601299246777 122.214
13.798080104050406 94.4537
13.820559442405358 83.3213
13.843021793671388 80.0461
13.865502201420897 78.5612
13.887965623051947 77.8728
13.910447103807167 76.4532
13.932929122629764 75.2562
13.955394156785959 75.2855
13.977877254034569 74.2143
14.000343367582113 73.32
14.022827546871707 72.85600000000001
14.045294743423524 72.1922
14.06778000837062 71.3658
14.090265817715476 71.1995
14.112734645763819 71.0554
14.13522154619454 70.8639
14.157691466286913 71.0029
14.180179461423874 70.6497
14.202668005486178 70.1312
14.22513957064374 69.5174
14.247629214846473 68.7515
14.270101881097517 68.8572
14.29259262906496 69.3949
14.315083930490205 70.2667
14.337558255389705 70.4316
14.360050666019726 69.945
14.382526101071944 69.2139
14.405019624534942 67.9609
14.427513705993134 67.4302
14.449990813291825 67.5539
14.47248601302899 67.0694
14.49496423954951 66.9921
14.517460561197822 67.3705
14.539939910570322 66.9829
14.562437357763558 67.469
14.58493536931253 68.98
14.607416409993311 70.0637
14.62991555254159 70.5364
14.652397725157423 70.6234
14.674898002342799 69.495
14.697398848433282 68.8377
14.719882725991326 69.2002
14.74238471217934 69.6151
14.764869730765593 71.766
14.787372860692983 74.5601
14.809876564079925 78.2474
14.83236330125751 83.0181
14.854868153850365 90.7094
14.877356041159485 103.515
14.899862046604186 121.555
14.922351087688757 148.20600000000002
14.944858249632887 180.83700000000002
14.967365991421232 210.96200000000002
14.989856770231246 228.96099999999998
15.012365673994204 217.87099999999998
15.03485761569738 186.481
15.05736768508665 146.214
15.07987833888692 111.302
15.102372032001655 88.0496
15.124883856909658 75.225
15.14737872204565 70.5247
15.169891721717274 69.0254
15.192405310371893 68.9313
15.214901940621196 69.4677
15.237416709527137 69.7609
15.259914520936249 69.9985
15.282430473753607 69.0128
15.304947020131227 67.8665
15.327446610371178 66.7926
15.349964346154254 65.9537
15.372465126703139 65.5935
15.394984055556009 65.194
15.417486030076159 65.0418
15.44000615566487 64.4337
15.462526881230803 64.6214
15.485030653812652 64.7899
15.507552581617434 64.9638
15.530057557334603 64.9635
15.55258069104857 64.6522
15.575104429329837 64.7415
15.597611216864632 64.229
15.620136166564563 64.2441
15.6426441664095 64.6874
15.665170331202765 65.9385
15.687697105158826 68.671
15.710206930593545 71.4886
15.732734925158933 74.8854
15.755245972089478 80.3881
15.77777519094324 89.23
15.800287463046663 101.545
15.822817909869592 120.46799999999999
15.84534897229804 145.765
15.867863089299354 171.829
15.890395385222186 190.023
15.912910736597423 196.487
15.935444269699861 181.018
15.957978423016485 150.708
15.980495633101265 119.414
16.003031029129367 92.8636
16.02554948280019 75.4689
16.048086125229432 66.832
16.070623392487107 64.2737
16.09314371869582 63.7269
16.11568223789321 62.7613
16.13820381691126 61.4581
16.160743591742527 60.4669
16.183283996022084 59.5055
16.205807461423195 58.4494
16.228349126881973 57.9594
16.25087385432698 58.0799
16.27341678466365 57.4258
16.29594277784926 57.3852
16.31848697676433 57.7262
16.341031811604868 58.1509
16.36355971058487 58.7184
16.3861058195587 58.2014
16.40863499352978 56.8609
16.431182380342005 55.9421
16.453730407713202 55.133
16.476261501364792 54.7394
16.498810812136167 54.4813
16.52134319004079 54.5159
16.54389378792203 54.3476
16.566445031001553 54.1955
16.588979342490088 54.2442
16.61153187824822 53.9233
16.634067483263312 53.755
16.656621315414416 53.8142
16.679175797408888 53.3318
16.701713349928728 53.4953
16.72426913389191 53.8746
16.74680798922351 53.8234
16.76936507887444 53.9483
16.791905240734874 53.8941
16.814463639794468 53.7404
16.837022695210294 53.8058
16.859564824093756 54.2173
16.882125194503903 55.1564
16.904668639217885 55.9886
16.927230328348003 56.1474
16.949792678493612 56.0241
16.972338104193863 55.2501
16.994901778652235 54.696000000000005
17.017448529496576 54.3368
17.040013531998152 54.5654
17.06257920018044 54.5892
17.0851279459922 55.3638
17.107694947817667 56.2805
17.130245028099072 56.9502
17.15281336730298 58.1324
17.17536478578733 59.5893
17.19793446610687 61.8824
17.220504818648422 64.6989
17.243058251703697 68.1038
17.265629950971032 73.0004
17.288184731571736 77.6113
17.310757781306908 81.8366
17.33333150794385 82.2185
17.355888317140174 80.441
17.37846339986244 74.5657
17.401021565958885 68.6279
17.42359800851343 63.6444
17.44617513265564 60.3986
17.468735341390783 58.5011
17.491261035594565 57.6327
17.51396340099364 57.4227
17.536490463869136 57.7424
17.559018209820174 57.7679
17.58154663977963 57.9993
17.604251766089718 57.9741
17.626781572227713 58.1767
17.64931206518155 58.4323
17.671843245885103 59.0412
17.69455114821572 59.3062
17.717083712612634 59.5766
17.739616967569667 59.8017
17.762150914021706 59.9718
17.78486160749854 59.6081
17.807396945166804 60.2433
17.829932977143503 60.9212
17.85246970436452 61.9775
17.875183204129467 63.2842
17.897721330097664 65.4119
17.920260154126645 67.3526
17.942799677153296 70.1113
17.9655159983646 73.6107
17.988056927677544 78.4012
18.010598558807683 85.9767
18.033140892692916 96.182
18.05586005052525 108.48899999999999
18.07840379824407 120.819
18.10094825154059 131.336
18.12366954819864 138.399
18.146215420998306 135.637
18.16876200220057 125.436
18.191309292745153 111.946
18.214033452627167 98.6946
18.236582170236648 87.4129
18.259131600016456 82.7331
18.281681742907335 83.3398
18.304408781233683 88.2283
18.32696035875955 94.2862
18.349512652227624 99.6888
18.372065662579683 104.90899999999999
18.394795594587553 106.35600000000001
18.41735004715306 101.84700000000001
18.43990521943684 93.7349
18.46246111238171 84.1469
18.485193953325208 75.0155
18.507751296070428 68.3173
18.530309362314178 64.4689
18.552868153000343 62.1108
18.57560391815056 61.0217
18.59816416623245 60.2561
18.620725141597372 59.9299
18.643286845190268 59.5535
18.666025549835414 59.0516
18.688588718427933 58.4887
18.711152618092243 58.4369
18.73389353884365 58.0149
18.75645890921984 57.5977
18.77902501351406 57.1869
18.801591852673102 57.3083
18.824335739722738 56.6934
18.846904057212626 56.7735
18.8694731124168 56.467
18.89204290628315 56.4542
18.914789774966803 56.3245
18.937361054791623 55.9038
18.959933076131318 55.7379
18.982505839934877 55.7994
19.00525570560582 55.8452
19.027829963004184 55.6521
19.05040496572238 55.5322
19.072980714710468 55.6878
19.095733592739563 55.6822
19.11831084296757 55.8861
19.140888842324735 56.4517
19.16346759176222 56.6282
19.18622349753803 57.1586
19.208803755869358 58.0249
19.231384767143577 58.6581
19.253966532312948 60.1972
19.276725481241822 62.4863
19.29930876296784 64.9329
19.3218928014549 68.1105
19.34465404436217 71.7795
19.36723960516257 74.7812
19.389825925592426 75.1797
19.412413006605938 74.3498
19.43517731967805 70.1513
19.457765930683355 65.7768
19.48035530514408 61.4528
19.50294544401556 57.7648
19.525712842708348 55.3036
19.54830451925909 54.0126
19.570896963095727 53.1341
19.593490175174704 52.6689
19.616260674962184 52.8058
19.638855432416964 52.3689
19.661450960992624 52.736000000000004
19.68404726164677 52.3449
19.706820878021247 52.1734
19.729418731756834 52.2687
19.752017360452857 52.1427
19.77461676506804 52.3178
19.797393513540218 52.353
19.819994478951667 52.66
19.84259622316767 53.0444
19.8651987471481 53.277
19.887978643247177 53.4594
19.91058273574792 54.0493
19.933187610901943 54.5727
19.955969879466828 55.5157
19.97857632894404 57.0161
20.00118356396599 58.6977
20.023791585494575 61.0402
20.046577028914875 64.0313
20.069186632506966 66.2714
20.091797025500632 68.2692
20.114408208858933 68.5907
20.137196842715273 68.1842
20.159809615886765 66.2287
20.18242318232135 63.6091
20.20503754298326 61.757
20.227829382875154 60.4764
20.250445341109344 60.5943
20.27306209647285 61.8409
20.29567964993108 63.0116
20.31847471147704 64.0527
20.34109387027612 64.7426
20.363713830075454 64.2658
20.386334591841646 62.7274
20.409132890679302 59.7651
20.431755265564437 56.9399
20.454378445325528 54.2314
20.477002430930366 52.4585
20.499803982716553 51.4144
20.522429589228004 50.7719
20.54505600449589 50.2428
20.567683229489194 50.1122
20.590488049900088 49.6608
20.61311690359731 49.1899
20.63574656993626 49.021
20.658553853717297 48.5618
20.681185154618298 48.6289
20.703817271080066 48.7146
20.72645020407368 48.3782
20.749260783967177 48.0731
20.771895359337133 47.9808
20.794530754161617 48.0622
20.817166969412938 47.8019
20.83998086114876 47.7717
20.86261872660049 47.6418
20.885257415405402 47.5626
20.90789692853701 47.6176
20.930714147864748 47.4673
20.953355319030678 47.5682
20.97599731745334 47.7658
20.99864014410749 47.5028
21.021460706796564 47.5894
21.044105199328826 47.8739
21.06675052302631 48.0049
21.089396678865015 47.9573
21.112220600704806 48.3439
21.134868430275347 48.8282
21.15751709492456 49.0266
21.180166595629693 49.3328
21.202993892429635 50.0164
21.22564507473034 50.1101
21.24829709602816 50.4612
21.27112693608965 50.4197
21.293780644891275 50.2568
21.316435195634053 49.5426
21.339090589297417 48.9044
21.361923832041875 48.5409
21.384580921090404 47.8302
21.407238856007325 47.3952
21.429897637773326 47.2943
21.45273429906592 47.3224
21.475394784108598 47.2635
21.498056118951983 47.205
21.520718304578022 47.4268
21.543558400304388 47.5784
21.566222297108816 47.5609
21.58888704765135 47.6233
21.61155265291521 47.8555
21.63439619898156 48.3652
21.657063523335786 48.452
21.67973170537063 48.7848
21.7024007460706 49.2112
21.72524775840385 49.9557
21.747918526116475 51.1463
21.770590155457388 52.1848
21.79326264741238 53.8624
21.816113141960237 55.4422
21.838787368860547 57.6615
21.861462461341976 59.7431
21.884315579735777 61.5504
21.90699241312273 63.0781
21.92967011506078 63.3473
21.95234868653799 62.8671
21.9752053151131 61.2444
21.997885635446785 59.5601
22.020566828293532 57.7916
22.04324889464272 56.3668
22.066109049404666 55.3245
22.088792872571794 54.9889
22.111477572219204 55.1658
22.1341631493376 55.0805
22.157026846313123 54.9646
22.179714188221507 54.0812
22.202402410582668 52.9041
22.22509151438863 51.4727
22.24795876962584 50.2542
22.270649646204486 49.4021
22.293341407213727 48.849
22.316034053646906 48.4282
22.338904883215342 48.0592
22.36159931041458 48.1071
22.38429462602756 48.0322
22.40699083104897 47.841
22.429865251039757 48.0488
22.452563244831367 48.001999999999995
22.47526213102522 47.9506
22.49813925616515 47.8129
22.520839937143307 47.5268
22.543541513520587 47.6117
22.56624398629403 47.4424
22.589124730075895 47.5577
22.611829005656723 47.5206
22.63453418063466 47.5039
22.657240256008077 47.7945
22.680124634582935 47.7465
22.70283252079775 48.1187
22.725541310413075 48.3042
22.74825100442868 48.343999999999994
22.771139033969575 48.8212
22.79385054687155 48.9729
22.81656296718292 49.648
22.83927629590484 50.5131
22.862167992606945 51.5575
22.88488314827121 52.7551
22.907599215359284 53.8129
22.93031619487366 55.1151
22.953211574954405 56.24
22.975930389478226 57.0527
22.998650119445763 57.0519
23.02137076586092 56.4041
23.044269845560063 55.0962
23.06699233506288 53.18899999999999
23.089715744034912 51.5571
23.112617610931565 49.8964
23.135342869061212 48.6725
23.158069049684816 48.0763
23.1807961538087 47.7926
23.20370174880544 47.5785
23.226430710184808 47.6543
23.249160598093425 47.6134
23.271891413539002 47.6726
23.294800752937697 47.5494
23.31753343374794 47.7054
23.340267045128353 47.7959
23.36300158808808 48.2278
23.38591468821339 48.4638
23.408651104658304 48.8381
23.431388455719986 49.5508
23.454126742409 50.2274
23.4770436196085 51.2319
23.499783787914662 52.7358
23.522524894889884 53.9079
23.54526694154616 55.0287
23.56818761219047 56.3748
23.59093154860734 56.7241
23.613676427751283 56.9616
23.636422250635754 55.9402
23.659346731118656 54.2305
23.68209445191868 52.3361
23.704843119509587 50.2172
23.72759273490623 48.5781
23.750521041644767 47.2675
23.77327256312355 46.3612
23.796025035462787 45.7192
23.818956224555475 45.2679
23.841710609113413 45.1661
23.86446594758979 44.8479
23.887222241002014 44.6509
23.910157285144578 44.1715
23.932915498962537 44.261
23.955674670778713 44.0809
23.978434801611975 44.0758
24.001373717286125 43.8012
24.024135776723917 43.707
24.046898798245582 43.5952
24.06966278287146 43.5792
24.092605586582614 43.4459
24.115371508023642 43.3394
24.1381383956401 43.1523
24.16090625045381 43.1773
24.183852958731244 42.9979
24.206622758582608 42.9746
24.229393528706886 42.6137
24.252165270127392 42.7177
24.27511589952438 42.7694
24.297889594216997 42.4948
24.32066426328598 42.3244
24.34343990775613 42.5701
24.36639447485003 42.4427
24.38917208083877 42.4371
24.41195066531332 42.2488
24.43490819850244 42.278999999999996
24.457688750692377 41.994
24.48047028445616 42.1201
24.503252800821233 42.1979
24.526214300784112 42.3396
24.548998793132213 42.2343
24.57178427117417 42.0977
24.59457073593893 42.2485
24.617536219319863 41.9592
24.64032466834748 41.9889
24.663114107195035 41.9188
24.685904536893013 41.8127
24.708874020360852 41.6748
24.731666442613744 41.599
24.754459858818787 41.541000000000004
24.777254270007962 41.4873
24.80022777025625 41.3246
24.82302418230472 41.3119
24.845821592443674 41.373999999999995
24.86862000170663 41.2199
24.891597535453727 41.0004
24.914397953892728 41.3435
24.93719937456671 41.2493
24.96000179851076 41.4654
24.98298338249997 41.6344
25.00578782394922 41.8923
25.028593271784167 41.8334
25.05157790644186 42.2966
25.07438537804115 42.3199
25.097193859145293 42.4755
25.120003350792075 42.8142
25.142992065061257 43.3329
25.165803588823465 43.458
25.18861612625217 43.629
25.211429678386736 43.6415
25.234422489079968 43.8651
25.257238081693636 43.7667
25.280054692141732 44.018
25.3028723214652 44.1787
25.325869245420463 44.2136
25.348688923599397 44.0471
25.371509623787006 44.1101
25.394331347025812 43.8647
25.41733240110666 43.3542
25.440156181590016 42.571000000000005
25.46298098826268 42.114
25.48580682216873 41.5045
25.50881202326435 41.0414
25.53163992281684 40.6535
25.55446885274561 40.3173
25.577298814096377 40.1944
25.600308179121807 40.0175
25.623140214533745 40.0815
25.64597328451537 39.8826
25.66898578564376 39.7135
25.691820936010206 39.6375
25.714657124097695 39.674
25.737494350954734 39.6528
25.760511045684957 39.6284
25.783350361364224 39.6824
25.806190718969255 39.7377
25.82903211955018 39.7681
25.852053024868923 39.8841
25.874896522722523 39.7324
25.897741066713106 39.7586
25.920586657892454 39.8808
25.943611790812668 39.9479
25.966459487728237 39.9681
25.989308234998564 40.0361
26.01215803367705 40.5051
26.03518741123814 40.760999999999996
26.05803932412957 40.8232
26.080892291600094 40.7318
26.10374631470478 40.9563
26.12677995397268 40.9416
26.14963609978026 40.845
26.172493304397875 40.6378
26.19535156888223 40.3182
26.218389486949604 39.8462
26.241249882640123 39.6542
26.26411134137826 39.3646
26.28715248187403 39.4251
26.31001607820869 39.2364
26.3328807407756 39.139
26.35574647063438 39.3801
26.37879191991473 39.1749
26.401659795896734 39.1858
26.424528742360263 39.3194
26.447398760366614 39.4669
26.470448535598294 39.5448
26.49332070826805 39.7919
26.516193955675355 40.1823
26.53906827888316 40.5415
26.562122397260108 40.5367
26.584998883685063 40.953
26.607876449110325 41.0791
26.63075509460056 41.3377
26.65381357334404 41.3049
26.67669439061878 41.2155
26.699576291163382 41.1118
26.722459276044212 41.1891
26.745522132402975 40.7949
26.768407297649354 40.434
26.791293550442003 40.2328
26.814180891848974 39.9688
26.837248143099337 39.5737
26.860137673466657 39.672
26.88302829566349 39.3879
26.90592001075963 39.1069
26.92899167420566 38.9009
26.951885586870763 38.6297
26.974780595655517 38.5437
26.99785558178161 38.4556
27.020752794605112 38.2164
27.043651106772522 38.0581
27.06655051935668 38.0897
27.089629948036183 37.9227
27.112531573292053 37.8673
27.135434302194138 37.8274
27.158338135817015 37.674
27.181422024430987 37.8296
27.204328079372566 37.7337
27.22723524226965 37.7125
27.250143514198573 37.7287
27.273231880156334 37.6518
27.296142382065014 37.5954
27.319053996245536 37.6087
27.341966723775965 37.6039
27.365059584515222 37.6484
27.38797455070062 37.6806
27.410890633481237 37.545
27.433807833936918 37.49
27.456905206923906 37.6368
27.47982465472398 37.7016
27.502745223449743 37.8273
27.525666914182825 37.9341
27.548768816912457 37.865
27.571692763693633 37.7047
27.59461783573812 37.5789
27.617723149491244 37.4129
27.640650484125285 37.3807
27.66357894728264 37.3143
27.686508540048052 37.2383
27.709618414237887 37.1429
27.732550278321757 36.9904
27.755483275279115 36.9849
27.778417406196485 37.0842
27.801531858397514 36.9739
27.824468269376716 37.0289
27.847405817586786 36.9622
27.870344504116094 37.1392
27.893463551932008 37.3774
27.916404527281053 37.5616
27.93934664422563 37.5775
27.962289903855886 37.6357
27.98541356491974 37.797
28.00835912214229 37.9248
28.03130582533231 38.3231
28.054253675581805 38.4474
28.077381967556104 38.2716
28.100332124185126 38.141
28.123283431160893 38.179
28.146235889577238 38.0132
28.169368830154156 37.8222
28.192323603752033 37.6221
28.215279532083304 37.2344
28.238415973016764 37.1489
28.261374223145094 37.0573
28.284333631303806 36.871
28.307294198589954 36.7045
28.330435319167677 36.4171
28.353398217078915 36.2237
28.376362277420153 36.0929
28.39932750129032 35.8473
28.422473319286713 35.666
28.44544088262495 35.6841
28.468409612800283 35.3856
28.491379510913497 35.2716
28.51453004413313 35.2937
28.53750229057244 35.2711
28.56047570826344 35.1887
28.583450298308804 35.2398
28.606605564586562 35.0574
28.629582511831156 34.9491
28.65256063474956 34.8671
28.675539934446338 34.9743
28.698699951647605 34.972
28.72168161743193 34.7865
28.74466446331978 34.8679
28.767648490417624 34.7995
28.790813276438353 34.5735
28.813799678527303 34.7245
28.836787265157085 34.7698
28.859955641890075 34.7169
28.882945610203045 34.8015
28.905936766392035 34.6524
28.928929111566863 34.657
28.952102288520145 34.5993
28.975097024308607 34.3628
28.998092952423807 34.3395
29.021090073977508 34.3204
29.04426806913204 34.1548
29.067267590245258 33.9947
29.090268308143695 33.9007
29.11327022394099 33.9106
29.13645305530891 33.7555
29.159457379627167 33.6643
29.18246290519685 33.6453
29.20546963313352 33.6709
29.22865731875826 33.6778
29.25166646419296 33.7195
29.27467681535305 33.5853
29.29768837335608 33.6769
29.320880931312562 33.6061
29.34389491580634 33.6369
29.366910110507334 33.5258
29.38992651653503 33.6194
29.41312396492981 33.6717
29.436142806456754 33.5589
29.45916286268059 33.4134
29.48236399319994 33.2143
29.50538649169417 33.1448
29.528410208259935 33.0187
29.55143514402014 32.8277
29.574641196749695 32.6594
29.597668583816574 32.5407
29.6206971934585 32.461
29.64372702680042 32.4821
29.666938019934474 32.3598
29.689970313635285 32.3297
29.713003834422636 32.3775
29.73603858342347 32.3255
29.759254535188578 32.2672
29.78229175361658 32.2206
29.80533020365064 32.3014
29.82836988641968 32.2451
29.85159081507472 32.1157
29.874632976355343 32.1322
29.89767637376955 32.1664
29.920721008448314 32.0289
29.9439469322847 31.9343
29.96699405457564 31.8886
29.9900424175358 31.7465
30.013092022298157 31.7794
30.03632295963995 31.8352
30.059375061131373 31.9016
30.08242840783577 31.8547
30.105483000888153 31.8717
30.128718970092244 31.838
30.151776069006917 31.7073
30.17483441768648 31.8186
30.198074175317235 31.7433
30.221135036724256 31.7725
30.24419715131772 31.7288
30.267260520236203 31.5992
30.290505341942243 31.6344
30.313571232750228 31.6707
30.336638381310948 31.5952
30.35970678876503 31.5314
30.38295669299435 31.4894
30.40602763151657 31.5443
30.429099832366074 31.4081
30.452173296685572 31.2646
30.47542830191959 31.4029
30.498504306502497 31.448
30.521581577995562 31.5408
30.544660117543582 31.4904
30.56792024229725 31.5391
30.59100133132069 31.4901
30.614083691845494 31.4483
30.637167325018545 31.4201
30.660432587840603 31.5802
30.683518779717886 31.461
30.70660624769615 31.615
30.729694992924372 31.615
30.75296541239743 31.5627
30.77605672557558 31.5065
30.799149319462742 31.4315
30.8224236211637 31.1906
30.845518789950724 31.1751
30.868615242910597 31.1672
30.891712981195973 30.9821
30.91499247215866 31.0182
30.938092794619365 31.0452
30.96119440587579 30.8086
30.984297307082752 30.7822
31.00758200598383 30.7018
31.030687500658694 30.576999999999998
31.053794288760695 30.5583
31.076902371446767 30.4406
31.100192296997445 30.3856
31.12330298246119 30.4977
31.14641496599209 30.2435
31.169528248749216 30.3117
31.19282341969534 30.2633
31.215939314557186 30.3495
31.239056512134788 30.3604
31.262175013589378 30.2934
31.28547544871168 30.1697
31.30859657161541 30.2266
31.331719001892175 30.2038
31.35484274070538 30.3118
31.378148458819545 30.2656
31.401274828443725 30.3016
31.424402510106933 30.2691
31.447712205419993 30.2955
31.470842524931633 30.2384
31.493974159989783 30.1821
31.51710711176168 30.1342
31.54042212308802 30.1423
31.563557722100917 30.1021
31.586694641341655 29.9516
31.609832881979628 29.8296
31.63315322823208 29.8458
31.656294125521327 29.6401
31.679436347728515 29.7374
31.70257989602529 29.7298
31.725905596152327 29.5555
31.74905181052835 29.3984
31.772199354521323 29.4898
31.79534822930507 29.6384
31.818679302290967 29.5899
31.84183085259981 29.5373
31.864983737233473 29.4671
31.88813795736804 29.5505
31.911474422233013 29.4418
31.934631327356435 29.4647
31.9577895715215 29.3782
31.980949155906522 29.4646
32.004291031706956 29.3539
32.027453310562606 29.3746
32.05061693318573 29.1852
32.07396288236386 29.276999999999997
32.09712920658542 29.2579
32.12029687812702 29.0716
32.14346589817093 28.956999999999997
32.166817291729984 28.910999999999998
32.18998902288583 28.8369
32.21316210610336 28.7621
32.23633654256711 28.6537
32.259693399663725 28.6911
32.282870556771144 28.5885
32.30604907069099 28.6155
32.329228942610065 28.5101
32.35259128243769 28.3547
32.375773884550505 28.4208
32.398957848235646 28.3991
32.422143174682176 28.218000000000004
32.445511016471215 28.1949
32.468699082679954 28.2147
32.49188851523011 28.0781
32.51507931531304 28.1222
32.538452678331 28.1008
32.56164622776311 27.9872
32.58484114831493 27.8928
32.60803744118015 27.8897
32.631416344731896 27.9724
32.654615396551876 27.9474
32.67781582427913 27.9187
32.701198898634416 27.8293
32.72440209253756 27.6465
32.747606665947124 27.5734
32.77081262006088 27.6032
32.79420126883317 27.5945
32.81740999876112 27.6413
32.840620112999424 27.5335
32.86383161274818 27.5253
32.88722585534586 27.4893
32.91044014056596 27.5733
32.933655814909734 27.5152
32.95687287957963 27.4983
32.98027273544904 27.3595
33.00349259526636 27.3268
33.026713849030116 27.3518
33.04993649794511 27.3141
33.073341986570746 27.2274
33.09656744032826 27.2282
33.11979429286444 27.3127
33.14302254538647 27.1782
33.166433686291185 27.2358
33.18966475336992 27.1668
33.212897224069096 27.0166
33.23613109959831 27.0428
33.259547912343415 26.9342
33.2827846121627 27.0167
33.306022720453775 26.9187
33.32926223842861 26.771
33.352684742614166 26.9024
33.37592709463173 26.8628
33.399170859982064 26.77
33.422597648419426 26.6449
33.44584425514446 26.5263
33.46909227885668 26.5732
33.4923417207723 26.5202
33.51577423505344 26.5245
33.539026528130385 26.4225
33.56228024307245 26.3147
33.585535381098246 26.3565
33.60897364093058 26.2315
33.63223163992385 26.2093
33.6554910656699 26.1521
33.678751919389796 26.2001
33.702195944520106 26.0768
33.72545966903325 26.0323
33.74872482519663 26.0684
33.771991414233746 26.0401
33.79544122444841 25.9542
33.81871069412428 25.8291
33.84198160035767 25.8614
33.86525394437455 25.9023
33.88870955949969 25.8081
33.911984794020626 25.7636
33.93526147001624 25.7524
33.958539588715006 25.7315
33.98200102861669 25.6493
34.0052820477047 25.4651
34.02856451319451 25.555
34.05203033759056 25.5029
34.07531571090147 25.5036
34.09860253431845 25.4642
34.121890809074316 25.438000000000002
34.145362493118924 25.4191
34.16865368561615 25.2948
34.191946333164054 25.2675
34.21524043699793 25.221999999999998
34.23871800066799 25.2466
34.26201503218366 25.2159
34.28531352370466 25.1543
34.30861347646881 25.1069
34.33209693978188 25.0484
34.3553998301885 25.017
34.378704185565205 24.9298
34.402010007152356 24.9009
34.42549939016683 24.9195
34.44880815937748 24.8114
34.472118398533134 24.6971
34.49543010887669 24.7528
34.51892543169198 24.6451
34.54224009966052 24.5809
34.56555624255917 24.6412
34.58887386163339 24.543000000000003
34.61237514439016 24.6059
34.6356957311114 24.394000000000002
34.65901779775809 24.451999999999998
34.68252356662995 24.4875
34.705848608458616 24.4602
34.72917513396849 24.2716
34.75250314440949 24.2756
34.77601490857862 24.2836
34.799345904259795 24.2411
34.82267838863559 24.2746
34.846012362958525 24.1469
34.869530142679984 24.1737
34.89286711232212 24.0983
34.91620557568269 24.1156
34.93954553401677 24.0353
34.9630693495876 23.9509
34.986412313340814 24.0174
35.00975677584668 23.9595
35.033102738362956 23.9946
35.05663261012228 23.8786
35.0799815881786 23.8654
35.10333207003229 23.7451
35.12668405694369 23.8825
35.150220005273056 23.7966
35.17357501786656 23.7637
35.19693153931268 23.6893
35.220289570874385 23.6776
35.24383161619786 23.7695
35.267192683604904 23.6638
35.290555264930376 23.6299
35.314101899412165 23.656999999999996
35.33746752422433 23.6694
35.36083466676374 23.5825
35.38420332829803 23.5772
35.407756095629054 23.5672
35.43112781085063 23.5054
35.45450104888391 23.4295
35.477875810999194 23.5327
35.50143473172161 23.3951
35.52481255774625 23.3713
35.54819191167777 23.3418
35.57157279478914 23.3364
35.595137889488406 23.2623
35.61852184675279 23.2618
35.641907337029984 23.1803
35.665294361595684 23.169
35.68886565090076 23.087
35.7122557598848 23.0456
35.73564740699838 23.1376
35.759040593519934 23.0557
35.78261809810353 23.0495
35.80601437933051 22.8921
35.829412203814705 22.8861
35.85281157283719 22.8421
35.876395313415884 22.7583
35.8997977874528 22.7295
35.92320180988546 22.6607
35.946790244133936 22.6101
35.97019737933222 22.7602
35.993606066789866 22.6591
36.01701630779276 22.5583
36.04061101440684 22.6216
36.06402437852291 22.5513
36.08743930005611 22.5309
36.1108557802951 22.4879
36.13445678011326 22.4354
36.15787639383515 22.3319
36.18129757014299 22.374000000000002
36.20472031032821 22.4217
36.22832762423364 22.3507
36.25175350829375 22.2695
36.275180960119776 22.1597
36.298609981005924 22.2634
36.32222362992669 22.1983
36.34565580510207 22.1541
36.36908955323448 22.0423
36.39252487562093 22.0601
36.416144880530226 22.0373
36.43958336764275 22.0159
36.463023432914625 21.9997
36.486465077645676 21.9459
36.51009145956204 22.0505
36.53353627947859 21.9541
36.55698268276811 21.8552
36.58043067073321 21.8303
36.60406345072071 21.7564
36.62751462435344 21.7852
36.65096738658405 21.7125
36.67460498210655 21.753
36.69806093788647 21.6504
36.72151848619297 21.6267
36.744977628333636 21.636999999999997
36.76862165890998 21.5408
36.79208400512205 21.4924
36.81554794910557 21.5442
36.83901349217101 21.4062
36.862663978991606 21.33
36.88613273667352 21.3117
36.90960309738324 21.3468
36.933075062434064 21.3238
36.95673202673572 21.3317
36.98020721697122 21.2703
37.003684015502365 21.250999999999998
37.027162423645365 21.1674
37.050825886711465 21.1867
37.07430753063053 21.0849
37.09779078812467 20.9965
37.121275660513014 20.979
37.144945643673694 20.9793
37.16843376245278 20.9967
37.19192350009803 20.9823
37.215414857931435 20.9341
37.239091382563885 20.885
37.262585997426164 20.8493
37.28608223645736 20.7696
37.309763684451696 20.7599
37.33326318851098 20.703000000000003
37.356764320726555 20.6798
37.380267082425526 20.7421
37.40395510942588 20.7235
37.42746114683234 20.7077
37.45096881771841 20.5812
37.474478123414166 20.5621
37.49817275092816 20.5056
37.52168534303452 20.4461
37.54519957395567 20.3923
37.568715445024665 20.4746
37.592416694607714 20.3739
37.61593586281424 20.4216
37.63945667518264 20.4521
37.66297913304891 20.3104
37.68668702630454 20.3274
37.710212792059274 20.2203
37.733740207334854 20.1733
37.757269273470364 20.1151
37.780983832050374 20.0882
37.80451621684926 20.0937
37.82805025654007 20.0539
37.851585952464795 19.9775
37.8753071980695 20.0604
37.89884622345676 19.9978
37.92238690911902 19.9228
37.94611318753442 19.8572
37.969657210779765 19.8945
37.99320289834801 19.8503
38.016750251586465 19.8057
38.04048325513017 19.7859
38.06403395679343 19.817999999999998
38.087586328183946 19.7325
38.11114037065203 19.7349
38.13488012115898 19.7639
38.1584375229181 19.6203
38.181996599821 19.5738
38.205557353221124 19.5435
38.229303872575656 19.5729
38.2528679961576 19.4944
38.27643380031219 19.4156
38.30000128639589 19.3955
38.32375459653193 19.4139
38.34732546371299 19.3787
38.37089801690786 19.3077
38.39447225747609 19.2865
38.418232380377425 19.2236
38.441810012983396 19.2734
38.46538933705673 19.259
38.488970353960084 19.2278
38.51273731166058 19.2592
38.536321731567014 19.1756
38.55990784840681 19.1088
38.58367995004091 19.0713
38.60726947812959 19.05
38.63086070726198 19.0636
38.654453638806274 19.0335
38.678232613930824 19.0035
38.70182896773327 18.9403
38.72542702806741 18.8703
38.7490267963045 18.8507
38.77281266709232 18.8202
38.79641586862214 18.8001
38.8200207821842 18.7477
38.843627409152944 18.794
38.86742019782782 18.7836
38.891030269149255 18.7082
38.914642058016156 18.6717
38.938255565806124 18.6531
38.96205529464307 18.5803
38.98567225787121 18.5713
39.00929094417078 18.5706
39.03291135492255 18.514
39.05671804624804 18.5226
39.080341923549106 18.5236
39.103967529460334 18.3568
39.127594865365744 18.3453
39.15140854155791 18.3497
39.17503935514948 18.3226
39.19867190290282 18.3623
39.22249083587951 18.3203
39.24612686969409 18.2541
39.269764641845306 18.2472
39.293404153722804 18.2217
39.317230110864074 18.1629
39.34087311998506 18.1314
39.36451787301696 18.0798
39.388164371352595 18.0184
39.41199737518003 18.0394
39.43564738196752 18.0255
39.45929913825317 18.0094
39.48295264543308 17.9901
39.506792718520884 17.9657
39.530449745387216 17.8814
39.55410852735203 17.8561
39.57776906581474 17.977999999999998
39.60161623079 17.8853
39.625280300200025 17.7671
39.64894613032202 17.7664
39.67261372255866 17.7395
39.6964680021016 17.7036
39.72013913657293 17.7019
39.74381203738292 17.6861
39.76748670593756 17.6688
39.79134812278169 17.6543
39.81502634488497 17.5982
39.83870633896685 17.5713
39.862388106436654 17.5256
39.88625668336918 17.4697
39.90994201572829 17.5067
39.933629125719285 17.4312
39.957503091207826 17.3676
39.9811937746168 17.4438
40.00488623990914 17.312
40.02858048850006 17.303
40.05246165409549 17.2662
40.076159487492085 17.2322
40.099859108448875 17.2539
40.123560518384345 17.1555
40.1474489070226 17.1815
40.171153913178564 17.1828
40.194860712584955 17.1432
40.2185693066637 17.1684
40.242464941335314 17.0461
40.26617714307655 17.0105
40.289891143772046 16.9738
40.3136069448471 16.9829
40.33750984859743 16.9719
40.3612292688043 16.9661
40.3849504936829 16.8888
40.40867352466194 16.8994
40.43258372059144 16.8725
40.45631038219906 16.8629
40.48003885420956 16.7987
40.503769138055105 16.782
40.52768664931955 16.8103
40.55142057531802 16.7942
40.57515631746428 16.7304
40.599079334038514 16.7358
40.62281872700477 16.6919
40.64655994043941 16.6786
40.67030297578061 16.6223
40.69423334835778 16.5962
40.71798004609188 16.5521
40.74172857006355 16.5424
40.76547892171441 16.5302
40.7894166736039 16.4558
40.813170699248566 16.4324
40.83692655691388 16.4522
40.86068424804498 16.4583
40.884629402612525 16.3306
40.908390779366385 16.3576
40.932153993938 16.2817
40.95591904777605 16.2718
40.979871628443995 16.295
41.003640379561936 16.2459
41.02741097430883 16.2327
41.05118341413683 16.2034
41.075143444384416 16.1943
41.098919593177826 16.1929
41.1226975914255 16.0782
41.14647744058318 16.0411
41.170444943946755 16.0877
41.19422851378379 16.0351
41.218013938914645 16.0066
41.24198706625173 15.9417
41.26577622087193 15.9199
41.289567235177785 15.8942
41.31336011063129 15.8391
41.337340752422875 15.8627
41.361137369129835 15.8449
41.38493585138705 15.873
41.40873620066004 15.8372
41.43272438060107 15.7767
41.45652848292052 15.7504
41.48033445666918 15.7013
41.50414230331616 15.6719
41.528138045159764 15.6555
41.551949656675205 15.5876
41.575763145513235 15.5889
41.59957851314666 15.5587
41.62358184070442 15.5002
41.64740098505737 15.5635
41.6712220126409 15.5581
41.69504492493139 15.4775
41.71905586207357 15.47
41.74288256296395 15.3839
41.766711153007456 15.368
41.79054163368412 15.3913
41.814560204340054 15.3929
41.838394485526365 15.3313
41.86223066180303 15.3019
41.88625497706819 15.2989
41.910094962812 15.2825
41.93393684811168 15.2081
41.95778063445365 15.1195
41.981812625263366 15.1784
42.00566023303407 15.1674
42.029509746323676 15.0929
42.05336116662236 15.0871
42.077400857069705 15.0667
42.10125611078846 15.0247
42.12511327600405 14.9812
42.14897235421036 15.0162
42.173019768448455 14.9542
42.19688269209613 14.9137
42.22074753323349 14.9015
42.24461429335818 14.8924
42.268669455600495 14.8195
42.292540073217886 14.8377
42.31641261433284 14.7904
42.34028708044675 14.7609
42.36435001496739 14.7954
42.38822835065557 14.7492
42.41210861586426 14.7023
42.4359908120986 14.7142
42.46006154323262 14.6686
42.48394762115317 14.6423
42.507835634632315 14.6493
42.531912233047436 14.5723
42.55580413732265 14.5719
42.579697981698 14.5489
42.60359376768525 14.5207
42.62767820545945 14.5048
42.65157789440821 14.5074
42.67547952952185 14.4766
42.699383112316 14.4787
42.72347541395347 14.3829
42.74738291190531 14.3174
42.771292362102166 14.3919
42.795203766063516 14.3266
42.819303956130405 14.3085
42.843219287476536 14.262
42.86713657716324 14.1984
42.89105582671383 14.2169
42.91516392983864 14.2237
42.939087119032166 14.2065
42.963012272677304 14.1849
42.98693939230129 14.1095
43.01105543317513 14.0874
43.034986504731386 14.0987
43.05891954686589 14.0678
43.08285456110972 14.0831
43.10697856448665 13.9806
43.130917542983475 13.9423
43.15485849820081 13.9784
43.17880143167367 13.9137
43.20293342237094 13.8876
43.226880332449 13.8307
43.25082922540554 13.8232
43.27496722682525 13.7844
43.29892010567796 13.7829
43.32287497204102 13.802
43.34683182745632 13.7534
43.370977859791836 13.7676
43.39493871351105 13.7392
43.41890156092628 13.6838
43.44286640358341 13.6773
43.46702049182749 13.7156
43.49098934522816 13.6335
43.51496019852649 13.6359
43.5389330532723 13.6213
43.56309522248204 13.5441
43.58707210044314 13.5286
43.61105098451946 13.5036
43.63503187626491 13.5176
43.659202151562134 13.4861
43.68318707902681 13.4636
43.70717401884041 13.4358
43.731162972560874 13.3728
43.75534137913236 13.3979
43.779334381108384 13.3443
43.803329401683186 13.3241
43.82732644241872 13.3344
43.8515130055166 13.3119
43.87551410707659 13.2205
43.89951723350145 13.2498
43.923709934595614 13.2195
43.94771713129917 13.1589
43.97172635758096 13.1693
43.99573761501002 13.1184
44.0199385169922 13.0655
44.04395385732619 13.062000000000001
44.067971233533086 13.0896
44.09199064718605 13.0929
44.11619977548961 13.0658
44.14022328470671 13.0098
44.16424883610785 13.0394
44.18827643127035 13.0057
44.21249381139513 12.9198
44.236525514814076 12.9391
44.26055926674478 12.9088
44.28459506876863 12.8906
44.3088207262813 12.8689
44.33286064928722 12.7809
44.35690262714919 12.7798
44.38094666145278 12.7747
44.4051806219871 12.7672
44.42922879003185 12.7417
44.45327901929361 12.6903
44.477331311362136 12.6347
44.501573600619416 12.6155
44.525630039221795 12.6006
44.54968854541895 12.5853
44.573937102200176 12.584000000000001
44.5979997645541 12.6063
44.622064499300315 12.6373
44.64613130803592 12.5679
44.67038823869318 12.5304
44.69445921643748 12.5034
44.718532272981385 12.4597
44.742607409926194 12.4394
44.76687274034801 12.4264
44.79095205918753 12.3735
44.81503346325094 12.384
44.839116954143876 12.382
44.86339071028742 12.3349
44.88747839599524 12.2767
44.91156817336837 12.3091
44.93566004401666 12.2977
44.959942251908146 12.2385
44.984038330325966 12.2602
45.00813650686762 12.2138
45.03223678314731 12.1516
45.05652746888232 12.1507
45.08063196592069 12.0682
45.104738567558705 12.0783
45.128847275414856 12.0659
45.15314646515866 12.0311
45.17725940679741 12.0433
45.20137445952892 12.0151
45.22568004865265 12.0527
45.24979934496396 11.988
45.27392075725247 11.9691
45.29804428714431 11.9403
45.322358426247604 11.8936
45.346486212804315 11.9088
45.370616121861914 11.9219
45.39474815505086 11.8623
45.41907087049246 11.8175
45.4432071734666 11.8055
45.46734560548283 11.8554
45.49148616817604 11.806
45.51581748638564 11.7428
45.5399623320197 11.7087
45.56410931325473 11.6938
45.58825843173002 11.7183
45.61259837920865 11.7021
45.636751793816 11.6534
45.66090735060093 11.6714
45.68506505120716 11.5975
45.7094136545275 11.5883
45.73357566449271 11.5484
45.75773982322992 11.5502
45.78190613238733 11.5337
45.806263418194064 11.4858
45.83043404997326 11.5182
45.85460683713677 11.4552
45.87897065658495 11.4589
45.90314777634752 11.4617
45.92732705646868 11.3967
45.9515084986045 11.4195
45.97588104735473 11.3788
46.00006683541565 11.3207
46.02425479047904 11.2757
46.04844491420549 11.2794
46.0728262191024 11.3289
46.09702070211635 11.3141
46.12121735879483 11.2803
46.14541619080294 11.2344
46.169806278764455 11.2248
46.194009483459034 11.1893
46.21821486849841 11.1698
46.24242243555223 11.1754
46.266821333570014 11.1528
46.29103328674601 11.097000000000001
46.31524742696538 11.13
46.33946375590237 11.0933
46.36387149104216 11.0499
46.38809221957392 11.0323
46.41231514186606 10.9956
46.436540259597464 11.0276
46.460956858999374 10.9687
46.48518638983522 10.9333
46.509418121166966 10.9401
46.533652054678114 10.9135
46.55807754555709 10.8823
46.58231590571962 10.8539
46.60655647313217 10.8059
46.630988654873654 10.788
46.655233659129024 10.8161
46.67948087571551 10.8034
46.70373030632484 10.7664
46.72817142736393 10.7895
46.752425308428684 10.7264
46.77668140861147 10.7579
46.80093972960865 10.6678
46.82538981736788 10.6773
46.849652602470904 10.6148
46.87391761349769 10.6473
46.8981848521493 10.6074
46.9226439341274 10.5764
46.946915650573224 10.5594
46.97118959976749 10.5626
46.99546578341598 10.5104
47.019933887188216 10.5316
47.04421456235744 10.4887
47.06849747711879 10.4768
47.09278263318286 10.4798
47.11725978640143 10.4307
47.14154944775105 10.3667
47.165841355555656 10.401
47.1901355115306 10.3876
47.214621741924994 10.355
47.23892041698887 10.3524
47.26322134538975 10.3032
47.28771440635075 10.2369
47.31201986422527 10.2887
47.33632758061436 10.2712
47.360637557241866 10.2491
47.38513974410611 10.1788
47.40945426407847 10.1932
47.43377104948137 10.1739
47.45809010204344 10.1527
47.48260144275502 10.1146
47.506925052572285 10.1046
47.53125093475548 10.1155
47.55557909103813 10.0964
47.58009961361992 10.0524
47.60443234110732 10.047
47.62876734791564 10.0155
47.65310463578333 10.0416
47.6776343683373 9.99664
47.7019762413987 9.984630000000001
47.72632040075572 9.94117
47.75066684815169 9.9879
47.77520581885936 9.88086
47.799556865477655 9.8738
47.823910205386 9.88678
47.84826584033272 9.920689999999999
47.87281407745551 9.87005
47.89717432569297 9.8204
47.92153687423484 9.80368
47.94609208429692 9.810189999999999
47.97045925671401 9.79834
47.99482873471275 9.74566
48.01920052005013 9.75147
48.04376504619224 9.72906
48.068141469543484 9.72907
48.09252020552573 9.70071
48.11690125590099 9.66244
48.1414751266064 9.65543
48.16586082917454 9.63083
48.19024885144316 9.59544
48.2146391951793 9.605410000000001
48.239222439012764 9.635710000000001
48.26361744916137 9.601410000000001
48.28801478610016 9.59347
48.31241445160131 9.57415
48.337007097209366 9.55863
48.36141144338331 9.54531
48.38581812345755 9.49611
48.41022713920929 9.49845
48.434829215320704 9.45509
48.45924292604658 9.46315
48.48365897780325 9.466389999999999
48.50807737237308 9.41455
48.532688907799276 9.373660000000001
48.55711201168574 9.34675
48.581537463754074 9.37
48.60615611725119 9.31899
48.63058628942721 9.29295
48.65501881516546 9.36172
48.6794536962573 9.268460000000001
48.70408185970339 9.2585
48.72852147531801 9.27425
48.75296345168211 9.21942
48.77740779059232 9.23205
48.80204549302823 9.19243
48.82649458091802 9.18571
48.85094603676547 9.18614
48.87539986237231 9.15221
48.90004713292306 9.12438
48.92450572200832 9.11829
48.94896668628025 9.1261
48.97343002754588 9.05246
48.99808689542115 9.07478
49.02255501470614 9.06119
49.04702551642794 9.04612
49.0714984023988 9.02122
49.096164896893235 8.97631
49.120642575466796 9.006260000000001
49.145122643748394 8.976460000000001
49.16960510355558 8.9472
49.19428125404938 8.92559
49.2187685210852 8.91056
49.243258185121555 8.888689999999999
49.26794160167084 8.881960000000001
49.2924360839405 8.86232
49.31693296869764 8.8616
49.34143225776915 8.80964
49.36612538195438 8.79718
49.39062950396021 8.77717
49.41513603578346 8.7695
49.4396449792564 8.73667
49.46434784069503 8.734960000000001
49.488861631846454 8.71059
49.513377840166804 8.72903
49.537896467493745 8.6829
49.56260909589029 8.62985
49.587132585683285 8.654160000000001
49.611658500018365 8.657789999999999
49.636186840738596 8.64603
49.66090926588511 8.62172
49.685442483902584 8.55682
49.70997813385706 8.57067
49.734516217597076 8.589830000000001
49.75924846937352 8.53486
49.7837914452858 8.4718
49.80833686055187 8.496839999999999
49.83288471702571 8.4829
49.85762682540054 8.514619999999999
49.882179588965734 8.48758
49.9067347993235 8.4436
49.93129245833333 8.419260000000001
49.95604445336378 8.41035
49.98060703442832 8.40369
50.005172069746266 8.390889999999999
50.02993150438364 8.35387
50.05450147301533 8.35442
50.07907390151433 8.32467
50.10364879174981 8.2997
50.12841816587289 8.26952
50.1529980044635 8.25779
50.17758031042124 8.23501
50.20216508562089 8.26923
50.22694442953363 8.23686
50.25153416817468 8.19747
50.27612638170508 8.23577
50.300721072005196 8.18272
50.325510416102105 8.15057
50.350110084975064 8.13947
50.37471223628208 8.15466
50.39931687190919 8.10706
50.424116246675766 8.15402
50.44872587605249 8.05785
50.47333799543065 8.09448
50.49795260670191 8.0502
50.52276204271512 8.02079
50.54738166295838 8.01018
50.57200378079314 8.00961
50.596628398116835 7.9821100000000005
50.62144792604559 7.9875300000000005
50.646077567609396 8.0001
50.670709714377715 7.946560000000001
50.69553683636198 7.921869999999999
50.72017401885922 7.930860000000001
50.7448137122895 7.924860000000001
50.76945591856022 7.939019999999999
50.79429318636823 7.893039999999999
50.818940443716784 7.86568
50.84359021965163 7.82838
50.868242516085964 7.8284899999999995
50.893089960641895 7.775980000000001
50.917747323549435 7.81493
50.94240721271973 7.785410000000001
50.96706963007175 7.742489999999999
50.99192728239342 7.76081
51.01659478166073 7.7464699999999995
51.04126481489051 7.740239999999999
51.06593738400761 7.72779
51.090805275207074 7.68474
51.11548294172845 7.6662300000000005
51.14016314993547 7.668639999999999
51.164845901758845 7.63029
51.18972406304274 7.6203
51.21441192780656 7.5842600000000004
51.23910234200271 7.6268899999999995
51.2637953075678 7.597180000000001
51.288683770237945 7.53492
51.31338186432707 7.562069999999999
51.33808251561888 7.57947
51.362978729967345 7.527410000000001
51.387684521509755 7.5292
51.41239287610203 7.495539999999999
51.437103795691165 7.47703
51.46201036644977 7.4561399999999995
51.486726441956634 7.42167
51.51144508832545 7.42657
51.536166307509156 7.4347199999999996
51.56108326624387 7.41609
51.58580965706056 7.386260000000001
51.61053862657523 7.379239999999999
51.635270176746864 7.31296
51.66019755512065 7.33171
51.68493429268881 7.33017
51.70967361681515 7.34098
51.73441552946465 7.31588
51.759353359237934 7.24078
51.7841004750961 7.2595600000000005
51.80885018539685 7.2563699999999995
51.833602492111254 7.19275
51.8585508051424 7.237310000000001
51.883308330926425 7.2537899999999995
51.90806845906181 7.159439999999999
51.932831191525715 7.17593
51.95779001977161 7.18615
51.98255798721516 7.14837
52.00732856494335 7.1257600000000005
52.03229530577543 7.11292
52.057071130455945 7.07862
52.081849571391054 7.06922
52.106630630568695 7.048719999999999
52.13160794279417 7.01208
52.15639426492067 7.066160000000001
52.18118321127822 7.03967
52.205974783860896 7.02195
52.23096269971011 7.00767
52.255759551287994 6.96863
52.280559035098186 6.9553199999999995
52.30536115314103 6.9731
52.33035970494467 6.96552
52.35516711807904 6.9359399999999996
52.37997717147198 6.89832
52.40478986713005 6.916589999999999
52.42979908731974 6.921760000000001
52.454617094216 6.88513
52.47943774942214 6.89708
52.50426105495102 6.82799
52.529280976059844 6.79437
52.554109609024096 6.80063
52.57894089837482 6.8068
52.60377484613117 6.8110800000000005
52.62880550079408 6.772139999999999
52.65364479223379 6.77163
52.67848674816189 6.750189999999999
52.70352547971946 6.73895
52.72837279155837 6.74596
52.753222773982785 6.68382
52.778075429022984 6.71975
52.80312495150885 6.674010000000001
52.827982978797436 6.6587
52.85284368481815 6.6713
52.87770707160767 6.640680000000001
52.90276741793998 6.6580699999999995
52.92763619336701 6.6262300000000005
52.952507655698504 6.59123
52.977381806977576 6.60267
53.00245301017842 6.616560000000001
53.02733256653592 6.6078600000000005
53.052214817996074 6.52185
53.077099766608484 6.50211
53.102181859804446 6.49086
53.127072229988265 6.50817
53.15196530349892 6.5236
53.17686108239249 6.47535
53.20195409881522 6.455369999999999
53.22685531582556 6.43755
53.25175924441303 6.38617
53.27666588664027 6.38923
53.30176985962693 6.39895
53.3266819565689 6.41236
53.35159677336455 6.3327800000000005
53.376514312083096 6.367999999999999
53.40162927507703 6.3653699999999995
53.42655228516116 6.35251
53.45147802340193 6.31773
53.47660125628886 6.33171
53.50153247842639 6.25456
53.52646643496923 6.24488
53.55140312799818 6.25534
53.576537409691696 6.30309
53.60147960336152 6.25512
53.626424539786164 6.27377
53.65137222105307 6.2144900000000005
53.67651758529126 6.18401
53.70147078399681 6.164680000000001
53.72642673383343 6.22295
53.75138543689533 6.14794
53.776541917524526 6.1481900000000005
53.801506154876755 6.12368
53.826473151763246 6.10899
53.851442910284916 6.07724
53.87661054126026 6.0853
53.9015858509782 6.063219999999999
53.92656392866066 6.0622300000000005
53.95154477641532 6.09195
53.976723591801296 6.04439
54.00171000771266 6.02966
54.02669920004598 5.9913300000000005
54.051691170915745 5.99305
54.076881204886796 5.9995400000000005
54.101878760928514 5.96914
54.12687910187696 5.9278900000000005
54.152077577768296 5.94586
54.1770835166946 5.9299800000000005
54.20209224691339 5.91513
54.22710377055121 5.88974
54.25231352511594 5.85827
54.27733066384342 5.84546
54.30235060239643 5.89944
54.32737334290836 5.8245
54.35259441062629 5.7868
54.377622783395324 5.81291
54.40265396455061 5.77839
54.42768795623251 5.72686
54.45292037169559 5.77594
54.477960012857906 5.78669
54.50300247099511 5.76591
54.52804774825457 5.73493
54.55329154616743 5.66242
54.57834249018678 5.65334
54.6033962597977 5.62817
54.6284528571545 5.6230400000000005
54.653708072335164 5.61771
54.67877035378786 5.57295
54.70383546947698 5.58421
54.72890342156389 5.54062
54.7541700889442 5.52206
54.77924374251975 5.49035
54.8043202390049 5.48997
54.82959552413022 5.47272
54.8546777351945 5.44519
54.87976279569621 5.38121
54.90485070780914 5.395919999999999
54.930137506558005 5.36766
54.95523115074295 5.38783
54.98032765308844 5.36994
55.005427015775496 5.3390699999999995
55.03072536339621 5.35541
55.05583047570572 5.2706
55.080938454927676 5.27447
55.10604930325027 5.22965
55.131359235107396 5.298690000000001
55.15647585066083 5.255269999999999
55.181595341907496 5.19244
55.20671771104285 5.10081
55.232039262617704 5.1748400000000006
55.25716741665048 5.10757
55.28229845518636 5.11209
55.30743238042802 5.01272
55.33276558731939 5.08327
55.357905315183636 5.037030000000001
55.383047936390035 5.02407
55.40819345314859 5.01756
55.433538351073295 5.00985
55.458689688238415 4.97105
55.483843927614096 4.90079
55.509197623043605 4.8376
55.53435769621134 4.87789
55.55952067826466 4.830419999999999
55.5846865714265 4.86407
55.61005202069737 4.7912300000000005
55.63522376553902 4.83038
55.66039842818645 4.80146
55.68557601087004 4.79515
55.7109532500271 4.64561
55.73613670233794 4.69756
