TT I
1.2716486653135266 7.35923
1.2939594142134223 6.825419999999999
1.3162702121660406 6.817019999999999
1.3385810600174564 6.91328
1.3608919586137629 6.93867
1.383202908801069 5.98259
1.405513911425503 6.13163
1.4278249673332093 6.5643
1.4501343378461518 6.593839999999999
1.4724455028545926 6.20699
1.4947567236847858 6.27335
1.517068001182951 5.98367
1.5393793361953272 5.911519999999999
1.5616907295681737 5.83245
1.5840021821477681 5.4358
1.60631369478041 5.6140300000000005
1.6286252683124185 5.75
1.6509369035901333 5.4082300000000005
1.6732468618895553 5.24636
1.695558623192809 4.791530000000001
1.7178704487808514 5.18089
1.7401823395001077 5.01253
1.7625012545597203 5.03967
1.7848028405262486 4.7328
1.8071218901122095 5.02358
1.8294236121921872 4.13014
1.8517427996910911 4.84007
1.8740620574440425 4.53498
1.8963639900671978 4.81175
1.9186833908139995 4.834569999999999
1.9409854680117449 4.983569999999999
1.9633050151394713 4.33695
1.9856246367570705 4.518330000000001
2.0079269371922672 4.8539
2.03024671027244 5.0206
2.0525491637446027 4.897130000000001
2.074869091674931 5.124630000000001
2.097171701569106 4.317019999999999
2.1194917877373847 4.58251
2.141811954326636 4.748419999999999
2.164114805233074 4.83058
2.186435135143035 5.83635
2.208738150935709 12.0549
2.231058647554722 23.8854
2.2533792288321184 19.2596
2.275682498336085 8.9894
2.298003251406138 5.9106
2.3203066942619714 5.49085
2.3426276225136022 4.83413
2.3649486396617507 5.22728
2.387252348930071 5.61585
2.4095735463442893 5.5871699999999995
2.4318774374315884 5.91333
2.4541988185014043 5.10889
2.476502894794693 6.036230000000001
2.498824462909887 5.54407
2.521146125856138 5.95087
2.5434504863470337 6.21985
2.5657723414244717 6.873469999999999
2.588076895590662 6.82843
2.610398946189713 7.690410000000001
2.6327210958598384 7.667889999999999
2.6550259469304716 7.770980000000001
2.6773482972090137 7.731260000000001
2.6996533504259 7.8444199999999995
2.7219759047039602 8.40403
2.744298562293959 8.24516
2.7666039251246595 8.37601
2.7889267918020164 8.3851
2.8112323652516555 8.16423
2.833555444408179 8.07629
2.8558786311183852 8.32949
2.8781845268938557 8.51413
2.9005079311721484 8.92792
2.9228140460410397 8.99875
2.9451376712799635 9.42178
2.967444008632326 9.67263
2.9897678582247247 9.86203
3.0120918213106695 10.3422
3.0343984987899373 10.6915
3.0567226913198637 11.0409
3.079029599759726 11.9193
3.101354025127254 12.0658
3.123678568232338 12.4771
3.145985829517914 13.4012
3.16831061055229 13.8419
3.1906181112775593 14.353
3.212943133635653 14.9421
3.2352682779763207 15.1731
3.2575761442691227 15.2966
3.2799015350264273 15.7075
3.302209649240067 16.2004
3.3245352898092655 16.9718
3.3468436553365257 17.5443
3.369169549113219 17.457
3.3914955708171384 18.6023
3.413804319727358 18.9
3.4361305997334863 19.3701
3.4584396084414553 19.6499
3.4807661501462652 20.4115
3.503092824025881 20.9686
3.5254022288463154 21.8998
3.5477291695206588 22.2925
3.5700388426251948 22.6659
3.5923660534916446 24.3653
3.6146934007816114 36.2769
3.637003482731501 78.1064
3.6593311053109985 86.2389
3.681641464033634 51.1586
3.7039693653009733 29.95
3.726297407241705 26.2972
3.7486081875460804 25.9696
3.7709365132734978 26.105999999999998
3.793247578841633 26.694000000000003
3.8155761917550093 26.6155
3.8378875459837216 27.324
3.8602164494827234 27.6794
3.882545499606844 28.1772
3.9048572932539183 28.8044
3.9271866390645718 29.2149
3.9494987298666713 30.4788
3.971828374764527 30.5379
3.9941581705403255 31.1285
4.016470713506008 32.0508
4.038800813471445 32.5223
4.061113662089144 33.0602
4.0834440696459176 34.0395
4.105774632334751 34.1414
4.128087945865126 35.419000000000004
4.150418821249301 36.303000000000004
4.172732448931298 37.0307
4.195063640413578 38.816
4.2173775856475215 42.6363
4.239709096631102 69.3293
4.262040768704612 204.021
4.284355196706267 272.319
4.306687193387355 174.268
4.329001947444346 73.5045
4.35133427213731 47.6609
4.373666762177566 45.0911
4.395982011761091 44.8485
4.418314834921175 46.088
4.44063041906622 52.5105
4.4629635787515625 62.2839
4.4852969080429785 61.6817
4.5076130004776225 53.6512
4.529946671403969 51.0765
4.552263106909177 50.8796
4.574597122877047 51.9143
4.596931312711224 53.3552
4.619248269273446 53.8098
4.6415828092605835 54.9756
4.663900117405352 56.229
4.686235010953232 57.5094
4.708552674085913 58.8777
4.730887924602802 60.7323
4.753223354952695 62.4908
4.775541557023902 63.7174
4.797877349456786 64.7107
4.820195915032126 66.3704
4.842532072957498 68.6094
4.864868414979744 70.6838
4.88718753227192 72.7653
4.909524244902505 74.7651
4.931843734218147 77.0526
4.954180820867835 79.5469
4.976518095879839 82.4804
4.998838149695359 85.6885
5.021175803844231 89.4263
5.043496238205739 93.2986
5.065834274903528 97.9307
5.088172504230693 103.965
5.1104935158799565 111.054
5.132832132875765 133.497
5.155153533596801 177.167
5.1774925416746225 222.18599999999998
5.199814334878411 466.2
5.2221537374521505 1330.51
5.244493338631803 3304.61
5.266815727034316 7452.75
5.289155727832427 11857.5
5.311478517248165 8789.98
5.333818921080011 3106.08
5.356159527788849 646.216
5.3784829252032536 205.893
5.400823940070432 152.659
5.423147747031976 134.22
5.445489173474152 122.825
5.467830807066149 116.488
5.490155234831516 112.238
5.512497285125229 108.152
5.534822130975162 106.87299999999999
5.557164601388673 104.119
5.579489868738879 101.262
5.601832762690846 100.20200000000001
5.6241758697774475 99.5797
5.646501775867269 98.4741
5.668845311622074 96.9686
5.691171647754637 96.0069
5.713515615597765 95.0127
5.735859800852677 94.5094
5.758186788542988 93.9466
5.780531411018185 94.1896
5.802858837297399 93.6505
5.825203900414495 93.8441
5.8475491852224 94.4456
5.869877275883075 95.1172
5.892223006467101 96.785
5.914551544266608 98.3704
5.936897724049891 102.052
5.959244129804903 109.98200000000001
5.981573344815301 137.411
6.0039202049061 259.453
6.026249875609095 566.6419999999999
6.04859719346037 1140.2
6.070927323278297 2302.14
6.093275102315365 4236.89
6.115623113320588 5238.88
6.137953938319995 3464.56
6.160302415650845 1197.62
6.182633708324452 281.403
6.2049826554078376 121.48100000000001
6.227331838745022 97.2684
6.249663839443684 88.0921
6.27201349767565 84.3492
6.294345974611799 88.8617
6.316696111167083 97.5763
6.339046488263839 92.5797
6.361379686074702 79.4333
6.383730546639482 73.0566
6.406064229255215 70.2578
6.428415576718203 69.5775
6.450749747566656 68.4734
6.47310158535871 67.184
6.495453669698332 66.4745
6.517788579421056 65.61
6.540141159237969 64.5064
6.562476565766648 64.2995
6.5848296444934045 63.47
6.607182974060425 63.3682
6.6295191323281015 63.3971
6.651872965955752 65.7971
6.6742096296068985 87.339
6.6965639707294615 125.706
6.71891856698715 125.118
6.741255995248479 89.2279
6.763611104154477 67.032
6.785949046381137 60.6643
6.808304671371482 59.1874
6.8306605557940046 58.3674
6.852999275508618 57.8913
6.875355681171544 57.7449
6.897694923437771 57.6016
6.92005185377892 57.4976
6.9423916220322655 57.3084
6.964749080490181 56.3986
6.987106804399774 56.2218
7.009447368180821 56.5477
7.031805625367033 55.92100000000001
7.054146723727803 56.0277
7.076505517631004 55.8491
7.098864581288365 55.6104
7.121206488070854 55.8189
7.143566093607822 55.4631
7.165908543567245 55.9448
7.188268694426048 56.1585
7.2106291193438095 56.1958
7.232972390625943 57.1218
7.255333366030969 67.6771
7.277677189091925 111.488
7.300038718428332 149.541
7.322400526130865 129.985
7.344745183422596 84.1056
7.367107550224791 61.6114
7.389452767901992 56.6903
7.411815697249891 55.9261
7.434161478756298 55.2706
7.456524974096713 54.9526
7.478888753837185 54.8743
7.501235387657368 55.3909
7.523599738562711 55.3983
7.545946944825532 55.6301
7.568311870344528 56.0811
7.5906770845765665 56.4634
7.613025156078678 57.1407
7.635390950099687 58.2414
7.657739602662809 57.7027
7.680105979923558 56.9194
7.702472650212829 56.9694
7.724822180948224 56.6613
7.747189439655568 56.8427
7.769539560075357 56.8897
7.791907410653562 57.5684
7.81425812420825 57.6746
7.836626570110925 57.6204
7.858995315087906 58.5737
7.881346924933401 58.7007
7.903716270417482 59.1599
7.926068482028405 59.6977
7.948438431475253 60.3243
7.9708086843180235 60.7697
7.993161805171116 61.5527
8.015532667162402 61.5911
8.037886398416653 62.7786
8.060257873014221 63.601000000000006
8.082629655331942 63.974
8.104984308787587 65.0968
8.127356708900503 68.0643
8.149711981398308 72.7602
8.172085002766314 75.2406
8.194458336181368 72.4888
8.216814543847752 70.5043
8.23918850371002 70.9418
8.26154533906492 71.8177
8.283919928836452 73.3389
8.306277395339652 74.2407
8.328652618483376 75.6035
8.351028159736202 77.5865
8.373386579575245 80.0136
8.395762759396959 81.7153
8.418121819038275 86.6991
8.440498640894003 98.9978
8.462875785192262 113.29299999999999
8.485235811156207 133.525
8.507613602688501 192.535
8.529974277114228 298.863
8.552352719347912 447.423
8.574731488360351 718.827
8.59709314210385 1219.17
8.619472567021075 1782.05
8.64183487789147 2112.91
8.664214962183097 1849.1
8.686577933647762 1020.27
8.708958680784317 394.55699999999996
8.731339760774953 173.162
8.753703729764451 115.738
8.77608547780821 102.23299999999999
8.798450116065078 97.7007
8.820832535634787 94.4786
8.843215292401656 92.5945
8.865580941199045 91.2392
8.887964374703538 90.1278
8.910330701447199 90.7554
8.932714815164482 92.5829
8.955099270424924 91.6238
8.977466620733543 88.7697
8.999851761421976 86.6703
9.022219798361645 85.223
9.04460562795561 84.8113
9.066991803441677 84.4594
9.089360876979615 84.2747
9.111747746589993 83.9594
9.13411751544971 83.1684
9.156505082664324 83.1219
9.178875550323522 83.2651
9.20126381862328 83.6141
9.223652438908596 83.8084
9.246023961427412 83.7383
9.26841328802173 83.2334
9.290785518039224 83.2934
9.313175554425882 84.0777
9.335565947154315 84.2655
9.357939245086508 84.4062
9.380330352834827 84.0177
9.40270436697103 84.4572
9.425096193225055 84.1785
9.447488380180165 85.2453
9.469863475295412 85.5696
9.492256385987508 85.7782
9.514632206018318 86.5453
9.537025843935714 87.1004
9.559402392368193 87.6662
9.581796761000229 88.8549
9.604191496441521 89.345
9.626569144158516 92.5093
9.648964615551032 96.6263
9.671343000390081 98.01
9.693739211225699 96.3541
9.716135793237463 95.0847
9.738515290448102 94.785
9.760912617143402 95.5427
9.783292860202891 97.2386
9.805690935076182 98.1044
9.828089385495742 99.3572
9.850470754023561 101.973
9.872869957865444 109.046
9.89525208097539 121.89200000000001
9.917652041736662 133.472
9.940052382417589 136.918
9.962435644102392 154.366
9.984836746950979 203.99200000000002
10.007220771957746 280.942
10.029622640473708 393.022
10.052007432299963 576.1990000000001
10.074410069984072 856.87
10.096813093716005 1246.09
10.119199042482517 1703.37
10.141602840636468 1922.53
10.163989564971628 1632.51
10.186394141051062 966.543
10.208799107559706 430.965
10.231187001965623 203.60299999999998
10.253592751657669 132.007
10.275981430388155 115.613
10.298387966769793 114.46600000000001
10.320794897965431 116.085
10.343184759907361 114.87
10.36559248305461 110.27799999999999
10.387983138083852 106.84200000000001
10.410391656691655 112.38
10.432800574501677 127.14399999999999
10.455192425893369 146.615
10.47760214443012 174.868
10.499994797678786 218.452
10.522405320453982 292.19
10.54479877906917 390.37699999999995
10.567210109595656 499.12699999999995
10.5896218454736 569.849
10.612016518879773 502.356
10.634429067781074 360.99699999999996
10.656824555333241 207.287
10.679237920773568 126.78399999999999
10.701651695961992 98.2411
10.724048411481384 90.8096
10.746463008485165 88.0408
10.768860546937125 86.4703
10.791275969274796 84.9006
10.81369180576079 83.2636
10.836090585366925 82.1762
10.858507252467449 81.0347
10.88090686379991 80.1886
10.903324365036394 79.3782
10.925724811614439 79.1481
10.948143150509463 80.0408
10.970561909719066 79.2617
10.992963615930844 77.7979
11.015383218085756 75.60600000000001
11.037785768347074 74.3428
11.06020621697282 73.792
11.082627090322113 73.1781
11.105030913430326 72.7833
11.12745263854165 73.1635
11.149857314510728 75.7307
11.172279894912576 80.5763
11.194702904450653 81.2324
11.217108866490921 77.8448
11.239532736615194 74.09100000000001
11.26193956033512 72.2788
11.284364294577085 70.73100000000001
11.306789462371718 69.1303
11.329197585398376 68.1666
11.351623622610898 67.8743
11.37403261614354 67.2961
11.396459526308487 67.0103
11.418869393879497 66.5823
11.441297180532617 66.042
11.463725406927658 65.6727
11.486136592353875 65.5621
11.508565700543707 66.285
11.530977768845315 67.76899999999999
11.553407762368774 68.1458
11.575838200059769 67.7357
11.598251599479612 65.9183
11.620682927815501 64.798
11.64309721895548 64.5317
11.665529441478206 64.0759
11.687962112597958 63.9175
11.710377748130886 63.7861
11.732811318753434 63.8136
11.755227854859067 63.8469
11.777662328529495 63.7775
11.800079768750786 63.5503
11.822515149015453 63.4068
11.844950984084935 63.7464
11.867369787303163 63.2101
11.889806534289491 63.328
11.912226250487029 63.8267
11.934663912939751 63.8151
11.9571020346363 63.9862
11.979523127133968 63.9152
12.001962169624331 64.9344
12.024384183972964 66.6377
12.046824150809913 70.5536
12.069264581333726 76.6599
12.091687985297767 82.7931
12.11412934550045 92.7765
12.136553680195208 107.839
12.158995973632788 128.333
12.181438735204349 153.327
12.20386447284199 182.375
12.226308172985636 204.172
12.24873485024193 204.44799999999998
12.271179492516982 171.632
12.293607112949127 126.964
12.316052700916226 96.1426
12.338498763250042 78.528
12.360927805303868 70.5123
12.383374818673879 67.3413
12.405804812803074 65.5159
12.428252780773262 65.2082
12.45070122756722 65.1308
12.473132656675375 65.1181
12.49558206341869 65.3833
12.518014453510101 65.0853
12.540464823770117 65.1831
12.562915677315177 65.5163
12.58534951575545 66.2762
12.607801338171472 67.8465
12.630236146511358 72.5916
12.652688941369085 76.4775
12.675124723177234 77.1615
12.697578494048786 73.8314
12.720032754458185 70.1775
12.742470003354093 68.9658
12.764925245138771 68.8347
12.787363476431278 69.3168
12.809819703166806 69.3561
12.83227642391173 70.11
12.854716135692716 70.6505
12.877173846755147 71.8227
12.899614549869717 72.418
12.9220732548287 72.9424
12.94453245827299 73.6666
12.966974655289818 74.2808
12.989434858002571 75.0131
13.011878055298721 75.9776
13.034339260862497 77.3316
13.056800969391883 78.6154
13.079245674017244 80.8661
13.101708390774869 83.9943
13.12415410463411 93.2598
13.146617833206086 107.04899999999999
13.169064559883248 120.139
13.191529303857127 135.743
13.213994557076367 159.292
13.236442809902437 195.074
13.258909083908291 244.354
13.28135835851934 298.66700000000003
13.30382565690295 359.97900000000004
13.326293469022952 410.536
13.348744283242008 423.954
13.371213125129904 364.81199999999995
13.39366497011003 269.698
13.416134845360597 179.493
13.438605238843131 127.525
13.46105863690397 109.97
13.483530069144786 111.57700000000001
13.505984506951902 117.95
13.528456981549432 128.631
13.550929978879088 143.836
13.573385983253365 166.87400000000002
13.595860028340867 203.454
13.618317081455832 248.525
13.64079217790333 298.894
13.663250283359057 339.902
13.685726434770173 372.059
13.708203115221277 348.68800000000005
13.730662806148091 273.395
13.75314054697177 193.857
13.775601299246777 130.684
13.798080104050406 98.6338
13.820559442405358 86.6345
13.843021793671388 82.8323
13.865502201420897 81.4002
13.887965623051947 80.9457
13.910447103807167 79.7493
13.932929122629764 78.3153
13.955394156785959 77.7811
13.977877254034569 76.8035
14.000343367582113 75.9888
14.022827546871707 75.661
14.045294743423524 74.81
14.06778000837062 74.1629
14.090265817715476 73.8718
14.112734645763819 73.5247
14.13522154619454 73.2447
14.157691466286913 73.333
14.180179461423874 73.0154
14.202668005486178 72.4352
14.22513957064374 71.8787
14.247629214846473 71.5723
14.270101881097517 71.2368
14.29259262906496 71.4887
14.315083930490205 72.082
14.337558255389705 72.1669
14.360050666019726 71.8667
14.382526101071944 71.22800000000001
14.405019624534942 70.4065
14.427513705993134 70.0977
14.449990813291825 69.9417
14.47248601302899 69.8981
14.49496423954951 70.0025
14.517460561197822 69.7824
14.539939910570322 69.9473
14.562437357763558 70.1738
14.58493536931253 71.2247
14.607416409993311 71.9404
14.62991555254159 72.669
14.652397725157423 72.76100000000001
14.674898002342799 72.1939
14.697398848433282 71.7065
14.719882725991326 72.7703
14.74238471217934 74.3026
14.764869730765593 78.5546
14.787372860692983 82.3358
14.809876564079925 87.2466
14.83236330125751 93.7022
14.854868153850365 102.76899999999999
14.877356041159485 115.927
14.899862046604186 133.20600000000002
14.922351087688757 155.179
14.944858249632887 179.985
14.967365991421232 201.92
14.989856770231246 219.46099999999998
15.012365673994204 218.408
15.03485761569738 190.037
15.05736768508665 152.914
15.07987833888692 116.66
15.102372032001655 92.2064
15.124883856909658 78.3982
15.14737872204565 73.512
15.169891721717274 71.7924
15.192405310371893 71.6402
15.214901940621196 71.8578
15.237416709527137 71.9479
15.259914520936249 72.0362
15.282430473753607 71.0718
15.304947020131227 69.6507
15.327446610371178 68.8782
15.349964346154254 68.1542
15.372465126703139 68.1527
15.394984055556009 67.6313
15.417486030076159 67.5732
15.44000615566487 67.3012
15.462526881230803 67.0146
15.485030653812652 67.3958
15.507552581617434 67.2023
15.530057557334603 67.24600000000001
15.55258069104857 67.1002
15.575104429329837 67.3701
15.597611216864632 66.9381
15.620136166564563 67.3699
15.6426441664095 68.7026
15.665170331202765 71.8534
15.687697105158826 75.369
15.710206930593545 79.0671
15.732734925158933 83.7954
15.755245972089478 90.2475
15.77777519094324 99.6138
15.800287463046663 111.62100000000001
15.822817909869592 128.575
15.84534897229804 147.30200000000002
15.867863089299354 166.90599999999998
15.890395385222186 183.30700000000002
15.912910736597423 191.94400000000002
15.935444269699861 183.18400000000003
15.957978423016485 158.975
15.980495633101265 127.15899999999999
16.003031029129367 97.5458
16.02554948280019 78.965
16.048086125229432 68.9791
16.070623392487107 66.1338
16.09314371869582 65.2589
16.11568223789321 64.152
16.13820381691126 63.3895
16.160743591742527 62.4788
16.183283996022084 61.4586
16.205807461423195 60.4664
16.228349126881973 59.8417
16.25087385432698 59.8681
16.27341678466365 59.3117
16.29594277784926 59.1951
16.31848697676433 59.3983
16.341031811604868 59.55
16.36355971058487 59.7796
16.3861058195587 59.6045
16.40863499352978 58.4645
16.431182380342005 57.603
16.453730407713202 56.917
16.476261501364792 56.5331
16.498810812136167 56.376999999999995
16.52134319004079 56.3294
16.54389378792203 56.2507
16.566445031001553 56.2276
16.588979342490088 55.9876
16.61153187824822 55.7638
16.634067483263312 55.8754
16.656621315414416 55.73
16.679175797408888 55.5196
16.701713349928728 55.4865
16.72426913389191 55.6577
16.74680798922351 55.8005
16.76936507887444 55.7435
16.791905240734874 55.6579
16.814463639794468 55.675
16.837022695210294 55.7524
16.859564824093756 56.0791
16.882125194503903 56.7864
16.904668639217885 57.5226
16.927230328348003 57.4528
16.949792678493612 57.5472
16.972338104193863 57.0218
16.994901778652235 56.5546
17.017448529496576 56.5793
17.040013531998152 56.8389
17.06257920018044 57.4505
17.0851279459922 58.4015
17.107694947817667 59.2255
17.130245028099072 60.1409
17.15281336730298 61.6328
17.17536478578733 63.2029
17.19793446610687 65.4356
17.220504818648422 68.083
17.243058251703697 71.0395
17.265629950971032 74.8669
17.288184731571736 78.2961
17.310757781306908 82.2308
17.33333150794385 83.8285
17.355888317140174 82.5675
17.37846339986244 78.0824
17.401021565958885 72.3598
17.42359800851343 66.8069
17.44617513265564 62.905
17.468735341390783 61.0115
17.491261035594565 60.1812
17.51396340099364 59.7587
17.536490463869136 60.1194
17.559018209820174 60.0889
17.58154663977963 60.3067
17.604251766089718 60.5667
17.626781572227713 60.5393
17.64931206518155 60.6853
17.671843245885103 61.4178
17.69455114821572 61.6817
17.717083712612634 61.9533
17.739616967569667 62.0029
17.762150914021706 62.5756
17.78486160749854 62.3129
17.807396945166804 63.3875
17.829932977143503 64.4355
17.85246970436452 66.1643
17.875183204129467 68.65100000000001
17.897721330097664 70.789
17.920260154126645 73.4165
17.942799677153296 76.5471
17.9655159983646 80.2022
17.988056927677544 85.4257
18.010598558807683 92.9004
18.033140892692916 101.626
18.05586005052525 110.552
18.07840379824407 120.921
18.10094825154059 131.345
18.12366954819864 139.635
18.146215420998306 141.247
18.16876200220057 133.891
18.191309292745153 120.961
18.214033452627167 107.126
18.236582170236648 94.8566
18.259131600016456 88.6531
18.281681742907335 88.0695
18.304408781233683 91.3492
18.32696035875955 95.4524
18.349512652227624 100.182
18.372065662579683 105.069
18.394795594587553 106.98
18.41735004715306 104.20200000000001
18.43990521943684 97.7821
18.46246111238171 88.4971
18.485193953325208 78.652
18.507751296070428 71.0036
18.530309362314178 66.8793
18.552868153000343 64.851
18.57560391815056 63.2826
18.59816416623245 62.6739
18.620725141597372 62.1619
18.643286845190268 61.6226
18.666025549835414 61.4449
18.688588718427933 60.8822
18.711152618092243 60.5687
18.73389353884365 60.2916
18.75645890921984 59.8704
18.77902501351406 59.5219
18.801591852673102 59.3973
18.824335739722738 58.9276
18.846904057212626 58.9356
18.8694731124168 58.795
18.89204290628315 58.6452
18.914789774966803 58.3507
18.937361054791623 58.1627
18.959933076131318 57.8241
18.982505839934877 57.9255
19.00525570560582 58.0126
19.027829963004184 57.7941
19.05040496572238 57.9557
19.072980714710468 58.0122
19.095733592739563 58.2585
19.11831084296757 58.4686
19.140888842324735 58.9911
19.16346759176222 59.3148
19.18622349753803 59.7871
19.208803755869358 60.7527
19.231384767143577 61.9988
19.253966532312948 63.5023
19.276725481241822 65.5251
19.29930876296784 67.5142
19.3218928014549 70.0656
19.34465404436217 72.9675
19.36723960516257 75.667
19.389825925592426 77.0032
19.412413006605938 76.7185
19.43517731967805 73.92399999999999
19.457765930683355 69.1453
19.48035530514408 64.2576
19.50294544401556 60.3013
19.525712842708348 57.6141
19.54830451925909 56.1343
19.570896963095727 55.093
19.593490175174704 54.763999999999996
19.616260674962184 54.7489
19.638855432416964 54.4763
19.661450960992624 54.651
19.68404726164677 54.4437
19.706820878021247 54.2713
19.729418731756834 54.3839
19.752017360452857 54.2968
19.77461676506804 54.4304
19.797393513540218 54.4941
19.819994478951667 54.9423
19.84259622316767 55.489
19.8651987471481 55.8417
19.887978643247177 56.108999999999995
19.91058273574792 56.6665
19.933187610901943 57.4827
19.955969879466828 58.5719
19.97857632894404 59.9421
20.00118356396599 61.5062
20.023791585494575 63.4339
20.046577028914875 65.8509
20.069186632506966 67.8054
20.091797025500632 69.582
20.114408208858933 70.7767
20.137196842715273 70.7326
20.159809615886765 69.4384
20.18242318232135 67.0092
20.20503754298326 64.6748
20.227829382875154 63.2732
20.250445341109344 62.9855
20.27306209647285 63.3566
20.29567964993108 64.455
20.31847471147704 65.167
20.34109387027612 66.5459
20.363713830075454 66.2519
20.386334591841646 64.9519
20.409132890679302 62.61
20.431755265564437 59.5526
20.454378445325528 56.5122
20.477002430930366 54.5866
20.499803982716553 53.1967
20.522429589228004 52.4603
20.54505600449589 51.9474
20.567683229489194 51.701
20.590488049900088 51.3842
20.61311690359731 51.0745
20.63574656993626 50.7805
20.658553853717297 50.4759
20.681185154618298 50.4516
20.703817271080066 50.2603
20.72645020407368 49.9982
20.749260783967177 49.8678
20.771895359337133 49.9371
20.794530754161617 49.7644
20.817166969412938 49.5936
20.83998086114876 49.6594
20.86261872660049 49.5234
20.885257415405402 49.3893
20.90789692853701 49.2547
20.930714147864748 49.3636
20.953355319030678 49.5212
20.97599731745334 49.6039
20.99864014410749 49.3109
21.021460706796564 49.4753
21.044105199328826 49.8535
21.06675052302631 49.9655
21.089396678865015 50.1763
21.112220600704806 50.4225
21.134868430275347 50.7494
21.15751709492456 50.8287
21.180166595629693 51.3088
21.202993892429635 51.765
21.22564507473034 51.8942
21.24829709602816 52.2015
21.27112693608965 52.3533
21.293780644891275 52.2595
21.316435195634053 51.6712
21.339090589297417 50.9632
21.361923832041875 50.4428
21.384580921090404 49.9416
21.407238856007325 49.3632
21.429897637773326 49.3308
21.45273429906592 49.3344
21.475394784108598 49.2113
21.498056118951983 49.2136
21.520718304578022 49.2702
21.543558400304388 49.4573
21.566222297108816 49.5671
21.58888704765135 50.0568
21.61155265291521 50.4488
21.63439619898156 50.7819
21.657063523335786 51.0708
21.67973170537063 51.5719
21.7024007460706 52.0499
21.72524775840385 52.6551
21.747918526116475 53.9049
21.770590155457388 54.934
21.79326264741238 56.4293
21.816113141960237 58.093999999999994
21.838787368860547 59.8591
21.861462461341976 61.5193
21.884315579735777 63.3597
21.90699241312273 64.7362
21.92967011506078 65.4142
21.95234868653799 65.3093
21.9752053151131 64.4192
21.997885635446785 62.6548
22.020566828293532 60.6606
22.04324889464272 58.7376
22.066109049404666 57.2721
22.088792872571794 56.5892
22.111477572219204 56.5356
22.1341631493376 57.1316
22.157026846313123 56.8035
22.179714188221507 56.2652
22.202402410582668 55.4347
22.22509151438863 53.8147
22.24795876962584 52.4212
22.270649646204486 51.5824
22.293341407213727 50.809
22.316034053646906 50.3659
22.338904883215342 49.9846
22.36159931041458 49.9029
22.38429462602756 49.7653
22.40699083104897 49.6075
22.429865251039757 49.7183
22.452563244831367 49.674
22.47526213102522 49.6137
22.49813925616515 49.5921
22.520839937143307 49.4962
22.543541513520587 49.507
22.56624398629403 49.3083
22.589124730075895 49.2868
22.611829005656723 49.7709
22.63453418063466 49.6586
22.657240256008077 49.8479
22.680124634582935 50.0812
22.70283252079775 50.2628
22.725541310413075 50.5163
22.74825100442868 50.7243
22.771139033969575 51.269
22.79385054687155 51.3962
22.81656296718292 52.1257
22.83927629590484 52.9231
22.862167992606945 53.888000000000005
22.88488314827121 54.9794
22.907599215359284 55.678999999999995
22.93031619487366 56.676
22.953211574954405 57.3722
22.975930389478226 58.381
22.998650119445763 58.7415
23.02137076586092 58.3053
23.044269845560063 57.17100000000001
23.06699233506288 55.3213
23.089715744034912 53.5244
23.112617610931565 52.019
23.135342869061212 50.7612
23.158069049684816 50.138000000000005
23.1807961538087 49.5227
23.20370174880544 49.5282
23.226430710184808 49.6713
23.249160598093425 49.7818
23.271891413539002 49.7435
23.294800752937697 49.9229
23.31753343374794 50.1207
23.340267045128353 50.0182
23.36300158808808 50.3035
23.38591468821339 50.7234
23.408651104658304 51.3748
23.431388455719986 51.9477
23.454126742409 52.7719
23.4770436196085 53.5057
23.499783787914662 54.8045
23.522524894889884 55.4643
23.54526694154616 56.3596
23.56818761219047 57.5971
23.59093154860734 58.1362
23.613676427751283 58.6293
23.636422250635754 58.1321
23.659346731118656 56.7755
23.68209445191868 54.91
23.704843119509587 52.8225
23.72759273490623 50.6982
23.750521041644767 49.0035
23.77327256312355 47.9616
23.796025035462787 47.5069
23.818956224555475 46.8099
23.841710609113413 46.7946
23.86446594758979 46.496
23.887222241002014 46.397
23.910157285144578 45.9944
23.932915498962537 45.8763
23.955674670778713 45.7864
23.978434801611975 45.6771
24.001373717286125 45.5272
24.024135776723917 45.4122
24.046898798245582 45.4419
24.06966278287146 45.196999999999996
24.092605586582614 44.986000000000004
24.115371508023642 44.801
24.1381383956401 44.7391
24.16090625045381 44.6874
24.183852958731244 44.6541
24.206622758582608 44.5143
24.229393528706886 44.4042
24.252165270127392 44.3647
24.27511589952438 44.3693
24.297889594216997 44.0678
24.32066426328598 43.9549
24.34343990775613 43.9828
24.36639447485003 43.9443
24.38917208083877 43.8528
24.41195066531332 43.8095
24.43490819850244 43.9092
24.457688750692377 43.6665
24.48047028445616 43.5912
24.503252800821233 43.9379
24.526214300784112 43.8283
24.548998793132213 43.7766
24.57178427117417 43.6701
24.59457073593893 43.7218
24.617536219319863 43.4852
24.64032466834748 43.4375
24.663114107195035 43.5269
24.685904536893013 43.2623
24.708874020360852 43.2247
24.731666442613744 43.1933
24.754459858818787 43.1888
24.777254270007962 43.0259
24.80022777025625 43.0217
24.82302418230472 42.9476
24.845821592443674 42.9711
24.86862000170663 42.9172
24.891597535453727 42.7106
24.914397953892728 43.1204
24.93719937456671 42.9405
24.96000179851076 43.0923
24.98298338249997 43.3656
25.00578782394922 43.5536
25.028593271784167 43.6104
25.05157790644186 44.1223
25.07438537804115 44.1465
25.097193859145293 44.3109
25.120003350792075 44.44
25.142992065061257 44.7599
25.165803588823465 45.1155
25.18861612625217 45.4554
25.211429678386736 45.495
25.234422489079968 45.3903
25.257238081693636 45.5471
25.280054692141732 45.6193
25.3028723214652 45.4553
25.325869245420463 45.4703
25.348688923599397 45.5039
25.371509623787006 45.504
25.394331347025812 45.2637
25.41733240110666 44.8766
25.440156181590016 44.1526
25.46298098826268 43.7627
25.48580682216873 43.1264
25.50881202326435 42.4989
25.53163992281684 42.0741
25.55446885274561 41.7494
25.577298814096377 41.6836
25.600308179121807 41.5402
25.623140214533745 41.6046
25.64597328451537 41.4862
25.66898578564376 41.3132
25.691820936010206 41.3024
25.714657124097695 41.2558
25.737494350954734 41.3305
25.760511045684957 41.102
25.783350361364224 41.2752
25.806190718969255 41.2579
25.82903211955018 41.3769
25.852053024868923 41.3749
25.874896522722523 41.2596
25.897741066713106 41.3882
25.920586657892454 41.418
25.943611790812668 41.5214
25.966459487728237 41.5854
25.989308234998564 41.6773
26.01215803367705 42.0814
26.03518741123814 42.0832
26.05803932412957 42.2583
26.080892291600094 42.1835
26.10374631470478 42.2638
26.12677995397268 42.3394
26.14963609978026 42.4557
26.172493304397875 42.0205
26.19535156888223 41.9729
26.218389486949604 41.5776
26.241249882640123 41.3287
26.26411134137826 40.9839
26.28715248187403 40.9959
26.31001607820869 40.7771
26.3328807407756 40.529
26.35574647063438 40.7675
26.37879191991473 40.688
26.401659795896734 40.8634
26.424528742360263 40.8749
26.447398760366614 41.1524
26.470448535598294 41.3728
26.49332070826805 41.5916
26.516193955675355 41.8163
26.53906827888316 41.9291
26.562122397260108 42.1112
26.584998883685063 42.2825
26.607876449110325 42.5528
26.63075509460056 42.6758
26.65381357334404 42.8347
26.67669439061878 42.8313
26.699576291163382 42.7566
26.722459276044212 42.8383
26.745522132402975 42.4828
26.768407297649354 42.0484
26.791293550442003 41.7587
26.814180891848974 41.5966
26.837248143099337 41.1312
26.860137673466657 41.2475
26.88302829566349 40.9378
26.90592001075963 40.7932
26.92899167420566 40.5761
26.951885586870763 40.1559
26.974780595655517 39.9297
26.99785558178161 39.7704
27.020752794605112 39.6056
27.043651106772522 39.5887
27.06655051935668 39.4106
27.089629948036183 39.3538
27.112531573292053 39.3157
27.135434302194138 39.2351
27.158338135817015 39.2009
27.181422024430987 39.3307
27.204328079372566 39.1899
27.22723524226965 39.2287
27.250143514198573 39.1926
27.273231880156334 39.1981
27.296142382065014 39.0592
27.319053996245536 39.0988
27.341966723775965 38.9954
27.365059584515222 39.0183
27.38797455070062 39.2099
27.410890633481237 39.1196
27.433807833936918 38.9148
27.456905206923906 39.1253
27.47982465472398 39.0375
27.502745223449743 39.1327
27.525666914182825 39.3243
27.548768816912457 39.2907
27.571692763693633 39.1715
27.59461783573812 39.1178
27.617723149491244 38.8564
27.640650484125285 38.9782
27.66357894728264 38.9328
27.686508540048052 38.7399
27.709618414237887 38.6348
27.732550278321757 38.5206
27.755483275279115 38.5606
27.778417406196485 38.5464
27.801531858397514 38.5273
27.824468269376716 38.5168
27.847405817586786 38.4637
27.870344504116094 38.8536
27.893463551932008 38.7837
27.916404527281053 38.9302
27.93934664422563 38.9752
27.962289903855886 38.9622
27.98541356491974 39.2731
28.00835912214229 39.4472
28.03130582533231 39.594
28.054253675581805 39.7605
28.077381967556104 39.8394
28.100332124185126 39.6679
28.123283431160893 39.5557
28.146235889577238 39.5405
28.169368830154156 39.2848
28.192323603752033 39.1519
28.215279532083304 38.8242
28.238415973016764 38.5627
28.261374223145094 38.5023
28.284333631303806 38.3284
28.307294198589954 38.1583
28.330435319167677 37.8115
28.353398217078915 37.5957
28.376362277420153 37.3003
28.39932750129032 37.0069
28.422473319286713 36.9727
28.44544088262495 36.9874
28.468409612800283 36.8714
28.491379510913497 36.5578
28.51453004413313 36.5498
28.53750229057244 36.5756
28.56047570826344 36.4654
28.583450298308804 36.4283
28.606605564586562 36.243
28.629582511831156 36.448
28.65256063474956 36.2244
28.675539934446338 36.2205
28.698699951647605 36.2717
28.72168161743193 36.1338
28.74466446331978 36.0854
28.767648490417624 36.0551
28.790813276438353 36.0799
28.813799678527303 36.0653
28.836787265157085 35.9284
28.859955641890075 36.0689
28.882945610203045 35.9958
28.905936766392035 35.8954
28.928929111566863 35.9213
28.952102288520145 35.8016
28.975097024308607 35.7705
28.998092952423807 35.6173
29.021090073977508 35.6095
29.04426806913204 35.5033
29.067267590245258 35.3104
29.090268308143695 35.3112
29.11327022394099 35.2294
29.13645305530891 35.0931
29.159457379627167 35.0005
29.18246290519685 34.8538
29.20546963313352 34.9171
29.22865731875826 34.8893
29.25166646419296 34.908
29.27467681535305 34.8109
29.29768837335608 34.9209
29.320880931312562 34.9095
29.34389491580634 34.8211
29.366910110507334 34.7607
29.38992651653503 34.7422
29.41312396492981 34.7742
29.436142806456754 34.8688
29.45916286268059 34.5961
29.48236399319994 34.5563
29.50538649169417 34.4094
29.528410208259935 34.2558
29.55143514402014 34.0615
29.574641196749695 33.946
29.597668583816574 33.8379
29.6206971934585 33.7278
29.64372702680042 33.7634
29.666938019934474 33.6296
29.689970313635285 33.6526
29.713003834422636 33.5315
29.73603858342347 33.5001
29.759254535188578 33.4251
29.78229175361658 33.3334
29.80533020365064 33.4498
29.82836988641968 33.4035
29.85159081507472 33.2481
29.874632976355343 33.284
29.89767637376955 33.3426
29.920721008448314 33.1518
29.9439469322847 33.2672
29.96699405457564 33.1491
29.9900424175358 33.1684
30.013092022298157 32.9828
30.03632295963995 32.9973
30.059375061131373 33.1339
30.08242840783577 33.0788
30.105483000888153 32.9925
30.128718970092244 33.102
30.151776069006917 32.9225
30.17483441768648 32.9021
30.198074175317235 32.8212
30.221135036724256 32.8731
30.24419715131772 32.868
30.267260520236203 32.8271
30.290505341942243 32.8998
30.313571232750228 32.9188
30.336638381310948 32.8379
30.35970678876503 32.7789
30.38295669299435 32.7158
30.40602763151657 32.7748
30.429099832366074 32.7637
30.452173296685572 32.6983
30.47542830191959 32.7096
30.498504306502497 32.5057
30.521581577995562 32.6428
30.544660117543582 32.7201
30.56792024229725 32.7949
30.59100133132069 32.5879
30.614083691845494 32.6464
30.637167325018545 32.7901
30.660432587840603 32.7413
30.683518779717886 32.6088
30.70660624769615 32.6961
30.729694992924372 32.7491
30.75296541239743 32.7186
30.77605672557558 32.6459
30.799149319462742 32.5834
30.8224236211637 32.4635
30.845518789950724 32.4065
30.868615242910597 32.4219
30.891712981195973 32.2257
30.91499247215866 32.1826
30.938092794619365 32.1187
30.96119440587579 32.014
30.984297307082752 31.9148
31.00758200598383 31.8755
31.030687500658694 31.7429
31.053794288760695 31.6628
31.076902371446767 31.6
31.100192296997445 31.7071
31.12330298246119 31.6492
31.14641496599209 31.4929
31.169528248749216 31.4684
31.19282341969534 31.4511
31.215939314557186 31.5339
31.239056512134788 31.5418
31.262175013589378 31.491
31.28547544871168 31.4964
31.30859657161541 31.3573
31.331719001892175 31.3381
31.35484274070538 31.3999
31.378148458819545 31.3942
31.401274828443725 31.3487
31.424402510106933 31.4062
31.447712205419993 31.5384
31.470842524931633 31.4148
31.493974159989783 31.3921
31.51710711176168 31.3372
31.54042212308802 31.256
31.563557722100917 31.2864
31.586694641341655 31.0989
31.609832881979628 30.9315
31.63315322823208 31.0091
31.656294125521327 30.8237
31.679436347728515 30.7383
31.70257989602529 30.8217
31.725905596152327 30.6421
31.74905181052835 30.6425
31.772199354521323 30.7584
31.79534822930507 30.6321
31.818679302290967 30.5899
31.84183085259981 30.6521
31.864983737233473 30.6377
31.88813795736804 30.6848
31.911474422233013 30.5351
31.934631327356435 30.5943
31.9577895715215 30.5858
31.980949155906522 30.5847
32.004291031706956 30.65
32.027453310562606 30.3903
32.05061693318573 30.2665
32.07396288236386 30.349
32.09712920658542 30.3183
32.12029687812702 30.1908
32.14346589817093 30.1412
32.166817291729984 30.0074
32.18998902288583 29.9735
32.21316210610336 29.8131
32.23633654256711 29.7612
32.259693399663725 29.7096
32.282870556771144 29.6528
32.30604907069099 29.6761
32.329228942610065 29.6491
32.35259128243769 29.4004
32.375773884550505 29.4517
32.398957848235646 29.358
32.422143174682176 29.2607
32.445511016471215 29.1951
32.468699082679954 29.2318
32.49188851523011 29.2298
32.51507931531304 29.1345
32.538452678331 29.0228
32.56164622776311 28.9231
32.58484114831493 28.8784
32.60803744118015 28.9731
32.631416344731896 28.9467
32.654615396551876 28.9486
32.67781582427913 28.8774
32.701198898634416 28.8037
32.72440209253756 28.6815
32.747606665947124 28.6943
32.77081262006088 28.6238
32.79420126883317 28.6014
32.81740999876112 28.6427
32.840620112999424 28.5412
32.86383161274818 28.4517
32.88722585534586 28.4704
32.91044014056596 28.523000000000003
32.933655814909734 28.4662
32.95687287957963 28.5479
32.98027273544904 28.3819
33.00349259526636 28.3163
33.026713849030116 28.3131
33.04993649794511 28.2366
33.073341986570746 28.2522
33.09656744032826 28.3215
33.11979429286444 28.2592
33.14302254538647 28.2425
33.166433686291185 28.186999999999998
33.18966475336992 28.08
33.212897224069096 27.9267
33.23613109959831 28.0946
33.259547912343415 28.0292
33.2827846121627 28.0764
33.306022720453775 27.9354
33.32926223842861 27.7738
33.352684742614166 27.9116
33.37592709463173 27.8085
33.399170859982064 27.7266
33.422597648419426 27.6553
33.44584425514446 27.5588
33.46909227885668 27.4781
33.4923417207723 27.506999999999998
33.51577423505344 27.5332
33.539026528130385 27.4002
33.56228024307245 27.3126
33.585535381098246 27.2527
33.60897364093058 27.1252
33.63223163992385 27.1558
33.6554910656699 27.1644
33.678751919389796 27.1283
33.702195944520106 27.003
33.72545966903325 26.9934
33.74872482519663 26.9936
33.771991414233746 26.9843
33.79544122444841 26.9812
33.81871069412428 26.74
33.84198160035767 26.776
33.86525394437455 26.7497
33.88870955949969 26.7714
33.911984794020626 26.7068
33.93526147001624 26.6711
33.958539588715006 26.6414
33.98200102861669 26.5171
34.0052820477047 26.5125
34.02856451319451 26.4789
34.05203033759056 26.4177
34.07531571090147 26.3385
34.09860253431845 26.3744
34.121890809074316 26.2916
34.145362493118924 26.3244
34.16865368561615 26.163
34.191946333164054 26.1612
34.21524043699793 26.1807
34.23871800066799 26.1975
34.26201503218366 26.1099
34.28531352370466 26.1501
34.30861347646881 26.038
34.33209693978188 25.9912
34.3553998301885 25.9246
34.378704185565205 25.8289
34.402010007152356 25.7756
34.42549939016683 25.7642
34.44880815937748 25.7072
34.472118398533134 25.6742
34.49543010887669 25.5745
34.51892543169198 25.491999999999997
34.54224009966052 25.5038
34.56555624255917 25.5288
34.58887386163339 25.4622
34.61237514439016 25.3832
34.6356957311114 25.3418
34.65901779775809 25.3294
34.68252356662995 25.3439
34.705848608458616 25.3095
34.72917513396849 25.219
34.75250314440949 25.1575
34.77601490857862 25.0901
34.799345904259795 25.0564
34.82267838863559 25.0873
34.846012362958525 25.0449
34.869530142679984 25.0512
34.89286711232212 24.9646
34.91620557568269 25.0333
34.93954553401677 24.904
34.9630693495876 24.8883
34.986412313340814 24.9255
35.00975677584668 24.9238
35.033102738362956 24.8408
35.05663261012228 24.7063
35.0799815881786 24.7565
35.10333207003229 24.6767
35.12668405694369 24.6736
35.150220005273056 24.6512
35.17357501786656 24.587
35.19693153931268 24.6498
35.220289570874385 24.5225
35.24383161619786 24.5564
35.267192683604904 24.5313
35.290555264930376 24.4639
35.314101899412165 24.474
35.33746752422433 24.4441
35.36083466676374 24.4511
35.38420332829803 24.3721
35.407756095629054 24.3911
35.43112781085063 24.3859
35.45450104888391 24.3357
35.477875810999194 24.3699
35.50143473172161 24.2891
35.52481255774625 24.2595
35.54819191167777 24.2617
35.57157279478914 24.2154
35.595137889488406 24.0683
35.61852184675279 24.0418
35.641907337029984 24.0163
35.665294361595684 24.0448
35.68886565090076 23.9302
35.7122557598848 23.9137
35.73564740699838 23.8994
35.759040593519934 23.7968
35.78261809810353 23.8436
35.80601437933051 23.7151
35.829412203814705 23.7209
35.85281157283719 23.6897
35.876395313415884 23.625999999999998
35.8997977874528 23.5433
35.92320180988546 23.5655
35.946790244133936 23.4982
35.97019737933222 23.5508
35.993606066789866 23.4689
36.01701630779276 23.4024
36.04061101440684 23.3517
36.06402437852291 23.3415
36.08743930005611 23.4779
36.1108557802951 23.2792
36.13445678011326 23.1909
36.15787639383515 23.1751
36.18129757014299 23.2026
36.20472031032821 23.1609
36.22832762423364 23.0653
36.25175350829375 23.095
36.275180960119776 22.9807
36.298609981005924 23.1349
36.32222362992669 23.122
36.34565580510207 22.9986
36.36908955323448 22.9355
36.39252487562093 22.7962
36.416144880530226 22.7411
36.43958336764275 22.8335
36.463023432914625 22.795
36.486465077645676 22.7093
36.51009145956204 22.8186
36.53353627947859 22.791
36.55698268276811 22.695
36.58043067073321 22.6502
36.60406345072071 22.6317
36.62751462435344 22.5842
36.65096738658405 22.5182
36.67460498210655 22.5182
36.69806093788647 22.5048
36.72151848619297 22.3648
36.744977628333636 22.3781
36.76862165890998 22.3567
36.79208400512205 22.334
36.81554794910557 22.3471
36.83901349217101 22.1258
36.862663978991606 22.1365
36.88613273667352 22.1314
36.90960309738324 22.0666
36.933075062434064 22.06
36.95673202673572 22.1561
36.98020721697122 22.0436
37.003684015502365 21.9756
37.027162423645365 21.9488
37.050825886711465 21.971
37.07430753063053 21.8609
37.09779078812467 21.8277
37.121275660513014 21.7495
37.144945643673694 21.7686
37.16843376245278 21.785999999999998
37.19192350009803 21.8066
37.215414857931435 21.7134
37.239091382563885 21.6683
37.262585997426164 21.594
37.28608223645736 21.5955
37.309763684451696 21.5689
37.33326318851098 21.4986
37.356764320726555 21.4195
37.380267082425526 21.537
37.40395510942588 21.4653
37.42746114683234 21.3324
37.45096881771841 21.3554
37.474478123414166 21.3205
37.49817275092816 21.3266
37.52168534303452 21.2697
37.54519957395567 21.2127
37.568715445024665 21.1957
37.592416694607714 21.1381
37.61593586281424 21.2183
37.63945667518264 21.1881
37.66297913304891 21.11
37.68668702630454 21.1059
37.710212792059274 20.9427
37.733740207334854 20.9283
37.757269273470364 20.8738
37.780983832050374 20.8088
37.80451621684926 20.8881
37.82805025654007 20.8292
37.851585952464795 20.7764
37.8753071980695 20.6856
37.89884622345676 20.6968
37.92238690911902 20.6583
37.94611318753442 20.6282
37.969657210779765 20.6207
37.99320289834801 20.6344
38.016750251586465 20.5957
38.04048325513017 20.5291
38.06403395679343 20.4655
38.087586328183946 20.4384
38.11114037065203 20.4503
38.13488012115898 20.4739
38.1584375229181 20.3822
38.181996599821 20.2852
38.205557353221124 20.2922
38.229303872575656 20.2896
38.2528679961576 20.1917
38.27643380031219 20.1504
38.30000128639589 20.1564
38.32375459653193 20.0946
38.34732546371299 20.1229
38.37089801690786 20.0783
38.39447225747609 20.0502
38.418232380377425 20.0056
38.441810012983396 20.0259
38.46538933705673 19.9339
38.488970353960084 19.9737
38.51273731166058 19.827
38.536321731567014 19.8028
38.55990784840681 19.7483
38.58367995004091 19.7385
38.60726947812959 19.6918
38.63086070726198 19.6912
38.654453638806274 19.6726
38.678232613930824 19.6433
38.70182896773327 19.5857
38.72542702806741 19.5414
38.7490267963045 19.5605
38.77281266709232 19.471
38.79641586862214 19.41
38.8200207821842 19.445
38.843627409152944 19.5116
38.86742019782782 19.4763
38.891030269149255 19.3602
38.914642058016156 19.3718
38.938255565806124 19.366
38.96205529464307 19.2782
38.98567225787121 19.2273
39.00929094417078 19.2596
39.03291135492255 19.1896
39.05671804624804 19.1344
39.080341923549106 19.1467
39.103967529460334 19.0572
39.127594865365744 19.0489
39.15140854155791 18.9983
39.17503935514948 18.9663
39.19867190290282 19.0287
39.22249083587951 18.9971
39.24612686969409 18.9755
39.269764641845306 18.8496
39.293404153722804 18.8126
39.317230110864074 18.783
39.34087311998506 18.7896
39.36451787301696 18.8175
39.388164371352595 18.7223
39.41199737518003 18.6724
39.43564738196752 18.6351
39.45929913825317 18.5985
39.48295264543308 18.6192
39.506792718520884 18.5347
39.530449745387216 18.5833
39.55410852735203 18.5132
39.57776906581474 18.4494
39.60161623079 18.4271
39.625280300200025 18.4531
39.64894613032202 18.4044
39.67261372255866 18.3525
39.6964680021016 18.3623
39.72013913657293 18.3601
39.74381203738292 18.3469
39.76748670593756 18.3285
39.79134812278169 18.2659
39.81502634488497 18.2624
39.83870633896685 18.1912
39.862388106436654 18.1497
39.88625668336918 18.1225
39.90994201572829 18.1569
39.933629125719285 18.0907
39.957503091207826 18.0107
39.9811937746168 18.0697
40.00488623990914 17.985
40.02858048850006 17.9242
40.05246165409549 17.8729
40.076159487492085 17.8678
40.099859108448875 17.887
40.123560518384345 17.8502
40.1474489070226 17.8445
40.171153913178564 17.8042
40.194860712584955 17.7052
40.2185693066637 17.727999999999998
40.242464941335314 17.6429
40.26617714307655 17.6244
40.289891143772046 17.6583
40.3136069448471 17.6269
40.33750984859743 17.5774
40.3612292688043 17.5231
40.3849504936829 17.5466
40.40867352466194 17.4891
40.43258372059144 17.4913
40.45631038219906 17.4857
40.48003885420956 17.4512
40.503769138055105 17.4255
40.52768664931955 17.3656
40.55142057531802 17.3361
40.57515631746428 17.3154
40.599079334038514 17.2951
40.62281872700477 17.2243
40.64655994043941 17.2154
40.67030297578061 17.2106
40.69423334835778 17.168
40.71798004609188 17.1378
40.74172857006355 17.1085
40.76547892171441 17.1235
40.7894166736039 17.0504
40.813170699248566 17.0614
40.83692655691388 16.9753
40.86068424804498 16.9982
40.884629402612525 16.9762
40.908390779366385 16.9921
40.932153993938 16.9172
40.95591904777605 16.8828
40.979871628443995 16.9107
41.003640379561936 16.8569
41.02741097430883 16.8431
41.05118341413683 16.769000000000002
41.075143444384416 16.7006
41.098919593177826 16.6934
41.1226975914255 16.6765
41.14647744058318 16.6441
41.170444943946755 16.6296
41.19422851378379 16.6592
41.218013938914645 16.5571
41.24198706625173 16.4818
41.26577622087193 16.4976
41.289567235177785 16.4418
41.31336011063129 16.4264
41.337340752422875 16.4374
41.361137369129835 16.4336
41.38493585138705 16.3772
41.40873620066004 16.378
41.43272438060107 16.332
41.45652848292052 16.2379
41.48033445666918 16.2233
41.50414230331616 16.1734
41.528138045159764 16.2432
41.551949656675205 16.1712
41.575763145513235 16.1889
41.59957851314666 16.1047
41.62358184070442 16.0768
41.64740098505737 16.0976
41.6712220126409 16.0052
41.69504492493139 15.9909
41.71905586207357 15.946
41.74288256296395 15.972000000000001
41.766711153007456 15.9299
41.79054163368412 15.8893
41.814560204340054 15.9415
41.838394485526365 15.8462
41.86223066180303 15.7873
41.88625497706819 15.755999999999998
41.910094962812 15.7933
41.93393684811168 15.7423
41.95778063445365 15.7419
41.981812625263366 15.7359
42.00566023303407 15.6669
42.029509746323676 15.6747
42.05336116662236 15.7085
42.077400857069705 15.6553
42.10125611078846 15.552
42.12511327600405 15.5644
42.14897235421036 15.4706
42.173019768448455 15.443
42.19688269209613 15.4896
42.22074753323349 15.4745
42.24461429335818 15.4522
42.268669455600495 15.3594
42.292540073217886 15.4006
42.31641261433284 15.3806
42.34028708044675 15.3494
42.36435001496739 15.3015
42.38822835065557 15.3339
42.41210861586426 15.1925
42.4359908120986 15.199000000000002
42.46006154323262 15.2011
42.48394762115317 15.1175
42.507835634632315 15.1559
42.531912233047436 15.1514
42.55580413732265 15.0657
42.579697981698 15.0627
42.60359376768525 15.0083
42.62767820545945 15.0593
42.65157789440821 14.9927
42.67547952952185 14.9835
42.699383112316 14.9969
42.72347541395347 14.85
42.74738291190531 14.8584
42.771292362102166 14.8703
42.795203766063516 14.8078
42.819303956130405 14.7802
42.843219287476536 14.7823
42.86713657716324 14.7194
42.89105582671383 14.6895
42.91516392983864 14.7071
42.939087119032166 14.6909
42.963012272677304 14.638
42.98693939230129 14.6023
43.01105543317513 14.5421
43.034986504731386 14.561
43.05891954686589 14.5261
43.08285456110972 14.5389
43.10697856448665 14.5408
43.130917542983475 14.4925
43.15485849820081 14.4398
43.17880143167367 14.3903
43.20293342237094 14.4021
43.226880332449 14.3692
43.25082922540554 14.3758
43.27496722682525 14.3123
43.29892010567796 14.296
43.32287497204102 14.2847
43.34683182745632 14.2073
43.370977859791836 14.2446
43.39493871351105 14.222999999999999
43.41890156092628 14.2416
43.44286640358341 14.1056
43.46702049182749 14.1509
43.49098934522816 14.0573
43.51496019852649 14.0207
43.5389330532723 13.9975
43.56309522248204 14.0318
43.58707210044314 14.0716
43.61105098451946 14.0018
43.63503187626491 13.9639
43.659202151562134 13.8947
43.68318707902681 13.9172
43.70717401884041 13.9451
43.731162972560874 13.8586
43.75534137913236 13.8301
43.779334381108384 13.7997
43.803329401683186 13.8153
43.82732644241872 13.8155
43.8515130055166 13.7664
43.87551410707659 13.6835
43.89951723350145 13.7607
43.923709934595614 13.6787
43.94771713129917 13.6821
43.97172635758096 13.5958
43.99573761501002 13.6074
44.0199385169922 13.5419
44.04395385732619 13.5512
44.067971233533086 13.5373
44.09199064718605 13.4805
44.11619977548961 13.4944
44.14022328470671 13.4425
44.16424883610785 13.4416
44.18827643127035 13.4709
44.21249381139513 13.4199
44.236525514814076 13.4026
44.26055926674478 13.349
44.28459506876863 13.3949
44.3088207262813 13.3383
44.33286064928722 13.2592
44.35690262714919 13.2378
44.38094666145278 13.2344
44.4051806219871 13.2267
44.42922879003185 13.177
44.45327901929361 13.1249
44.477331311362136 13.1752
44.501573600619416 13.113
44.525630039221795 13.1085
44.54968854541895 13.0661
44.573937102200176 13.0676
44.5979997645541 13.0389
44.622064499300315 13.0142
44.64613130803592 12.9298
44.67038823869318 12.9343
44.69445921643748 12.933
44.718532272981385 12.9293
44.742607409926194 12.8739
44.76687274034801 12.8748
44.79095205918753 12.8431
44.81503346325094 12.8249
44.839116954143876 12.7721
44.86339071028742 12.7554
44.88747839599524 12.6914
44.91156817336837 12.7107
44.93566004401666 12.7045
44.959942251908146 12.6979
44.984038330325966 12.6959
45.00813650686762 12.5938
45.03223678314731 12.5913
45.05652746888232 12.5895
45.08063196592069 12.5438
45.104738567558705 12.5188
45.128847275414856 12.5161
45.15314646515866 12.4322
45.17725940679741 12.4723
45.20137445952892 12.4544
45.22568004865265 12.4406
45.24979934496396 12.4158
45.27392075725247 12.4193
45.29804428714431 12.3997
45.322358426247604 12.3673
45.346486212804315 12.3067
45.370616121861914 12.3463
45.39474815505086 12.2802
45.41907087049246 12.2005
45.4432071734666 12.2176
45.46734560548283 12.1905
45.49148616817604 12.2187
45.51581748638564 12.2007
45.5399623320197 12.1304
45.56410931325473 12.1011
45.58825843173002 12.1078
45.61259837920865 12.1031
45.636751793816 12.0518
45.66090735060093 12.0243
45.68506505120716 11.9978
45.7094136545275 12.0019
45.73357566449271 11.9752
45.75773982322992 11.9736
45.78190613238733 11.9213
45.806263418194064 11.8678
45.83043404997326 11.8756
45.85460683713677 11.9042
45.87897065658495 11.8794
45.90314777634752 11.7708
45.92732705646868 11.8305
45.9515084986045 11.8113
45.97588104735473 11.7491
46.00006683541565 11.722999999999999
46.02425479047904 11.7004
46.04844491420549 11.710999999999999
46.0728262191024 11.7143
46.09702070211635 11.6698
46.12121735879483 11.6507
46.14541619080294 11.6143
46.169806278764455 11.5943
46.194009483459034 11.5994
46.21821486849841 11.558
46.24242243555223 11.5286
46.266821333570014 11.5192
46.29103328674601 11.4821
46.31524742696538 11.5214
46.33946375590237 11.4848
46.36387149104216 11.4352
46.38809221957392 11.3929
46.41231514186606 11.4268
46.436540259597464 11.4039
46.460956858999374 11.3737
46.48518638983522 11.3191
46.509418121166966 11.3082
46.533652054678114 11.329
46.55807754555709 11.2925
46.58231590571962 11.2727
46.60655647313217 11.1897
46.630988654873654 11.1958
46.655233659129024 11.1787
46.67948087571551 11.155
46.70373030632484 11.1593
46.72817142736393 11.1283
46.752425308428684 11.0856
46.77668140861147 11.0665
46.80093972960865 11.0202
46.82538981736788 11.0361
46.849652602470904 10.9776
46.87391761349769 11.0009
46.8981848521493 10.9937
46.9226439341274 10.9418
46.946915650573224 10.9449
46.97118959976749 10.912
46.99546578341598 10.8949
47.019933887188216 10.8448
47.04421456235744 10.8629
47.06849747711879 10.8508
47.09278263318286 10.8135
47.11725978640143 10.8071
47.14154944775105 10.7577
47.165841355555656 10.7834
47.1901355115306 10.7313
47.214621741924994 10.7453
47.23892041698887 10.6675
47.26322134538975 10.6767
47.28771440635075 10.6541
47.31201986422527 10.657
47.33632758061436 10.6315
47.360637557241866 10.6037
47.38513974410611 10.5909
47.40945426407847 10.5672
47.43377104948137 10.5217
47.45809010204344 10.5202
47.48260144275502 10.5401
47.506925052572285 10.49
47.53125093475548 10.4407
47.55557909103813 10.4666
47.58009961361992 10.4028
47.60443234110732 10.3761
47.62876734791564 10.3804
47.65310463578333 10.3733
47.6776343683373 10.3554
47.7019762413987 10.3031
47.72632040075572 10.3116
47.75066684815169 10.2831
47.77520581885936 10.265
47.799556865477655 10.2469
47.823910205386 10.261
47.84826584033272 10.2369
47.87281407745551 10.1861
47.89717432569297 10.2096
47.92153687423484 10.1661
47.94609208429692 10.1374
47.97045925671401 10.1179
47.99482873471275 10.065
48.01920052005013 10.0755
48.04376504619224 10.0795
48.068141469543484 10.0723
48.09252020552573 10.038
48.11690125590099 10.0088
48.1414751266064 10.016
48.16586082917454 9.971589999999999
48.19024885144316 9.96298
48.2146391951793 9.95023
48.239222439012764 9.9243
48.26361744916137 9.89648
48.28801478610016 9.85913
48.31241445160131 9.86682
48.337007097209366 9.8423
48.36141144338331 9.81966
48.38581812345755 9.77748
48.41022713920929 9.81012
48.434829215320704 9.80942
48.45924292604658 9.79463
48.48365897780325 9.776660000000001
48.50807737237308 9.746039999999999
48.532688907799276 9.71915
48.55711201168574 9.683710000000001
48.581537463754074 9.70774
48.60615611725119 9.67534
48.63058628942721 9.65898
48.65501881516546 9.63958
48.6794536962573 9.57113
48.70408185970339 9.60833
48.72852147531801 9.53614
48.75296345168211 9.54142
48.77740779059232 9.53541
48.80204549302823 9.530330000000001
48.82649458091802 9.50769
48.85094603676547 9.48633
48.87539986237231 9.44557
48.90004713292306 9.4415
48.92450572200832 9.4225
48.94896668628025 9.41041
48.97343002754588 9.39995
48.99808689542115 9.3746
49.02255501470614 9.40663
49.04702551642794 9.3418
49.0714984023988 9.334
49.096164896893235 9.30355
49.120642575466796 9.282969999999999
49.145122643748394 9.29468
49.16960510355558 9.2665
49.19428125404938 9.19556
49.2187685210852 9.20772
49.243258185121555 9.19849
49.26794160167084 9.17613
49.2924360839405 9.16155
49.31693296869764 9.1221
49.34143225776915 9.14527
49.36612538195438 9.11303
49.39062950396021 9.085139999999999
49.41513603578346 9.07934
49.4396449792564 9.08248
49.46434784069503 9.05994
49.488861631846454 9.055060000000001
49.513377840166804 9.00592
49.537896467493745 8.97654
49.56260909589029 8.961889999999999
49.587132585683285 9.00109
49.611658500018365 8.94404
49.636186840738596 8.94144
49.66090926588511 8.910260000000001
49.685442483902584 8.90284
49.70997813385706 8.883289999999999
49.734516217597076 8.86773
49.75924846937352 8.84695
49.7837914452858 8.8131
49.80833686055187 8.786669999999999
49.83288471702571 8.76334
49.85762682540054 8.79248
49.882179588965734 8.74685
49.9067347993235 8.70907
49.93129245833333 8.67579
49.95604445336378 8.69234
49.98060703442832 8.708269999999999
50.005172069746266 8.69074
50.02993150438364 8.64888
50.05450147301533 8.631680000000001
50.07907390151433 8.635810000000001
50.10364879174981 8.61415
50.12841816587289 8.581430000000001
50.1529980044635 8.60334
50.17758031042124 8.547889999999999
50.20216508562089 8.55275
50.22694442953363 8.50779
50.25153416817468 8.521930000000001
50.27612638170508 8.48864
50.300721072005196 8.462069999999999
50.325510416102105 8.43755
50.350110084975064 8.40367
50.37471223628208 8.43201
50.39931687190919 8.4072
50.424116246675766 8.39002
50.44872587605249 8.382060000000001
50.47333799543065 8.33778
50.49795260670191 8.327069999999999
50.52276204271512 8.3033
50.54738166295838 8.32687
50.57200378079314 8.29005
50.596628398116835 8.27069
50.62144792604559 8.23051
50.646077567609396 8.253639999999999
50.670709714377715 8.231819999999999
50.69553683636198 8.22723
50.72017401885922 8.15784
50.7448137122895 8.16511
50.76945591856022 8.15982
50.79429318636823 8.12725
50.818940443716784 8.18341
50.84359021965163 8.09785
50.868242516085964 8.10994
50.893089960641895 8.09152
50.917747323549435 8.05105
50.94240721271973 8.04747
50.96706963007175 8.05626
50.99192728239342 8.0082
51.01659478166073 8.02172
51.04126481489051 7.98877
51.06593738400761 8.00256
51.090805275207074 7.9489
51.11548294172845 7.9677
51.14016314993547 7.955260000000001
51.164845901758845 7.932180000000001
51.18972406304274 7.8867899999999995
51.21441192780656 7.8438300000000005
51.23910234200271 7.85467
51.2637953075678 7.88328
51.288683770237945 7.8445800000000006
51.31338186432707 7.77871
51.33808251561888 7.773569999999999
51.362978729967345 7.80342
51.387684521509755 7.757339999999999
51.41239287610203 7.77376
51.437103795691165 7.781219999999999
51.46201036644977 7.71006
51.486726441956634 7.698289999999999
51.51144508832545 7.67253
51.536166307509156 7.6645199999999996
51.56108326624387 7.614730000000001
51.58580965706056 7.6123
51.61053862657523 7.644989999999999
51.635270176746864 7.57795
51.66019755512065 7.5538
51.68493429268881 7.56252
51.70967361681515 7.52225
51.73441552946465 7.521789999999999
51.759353359237934 7.53503
51.7841004750961 7.524430000000001
51.80885018539685 7.5061100000000005
51.833602492111254 7.46859
51.8585508051424 7.48009
51.883308330926425 7.44915
51.90806845906181 7.413139999999999
51.932831191525715 7.433269999999999
51.95779001977161 7.3954
51.98255798721516 7.3383899999999995
52.00732856494335 7.364330000000001
52.03229530577543 7.35377
52.057071130455945 7.34987
52.081849571391054 7.364489999999999
52.106630630568695 7.318689999999999
52.13160794279417 7.3026100000000005
52.15639426492067 7.2785
52.18118321127822 7.27826
52.205974783860896 7.26452
52.23096269971011 7.230739999999999
52.255759551287994 7.22198
52.280559035098186 7.22492
52.30536115314103 7.1934
52.33035970494467 7.188
52.35516711807904 7.19145
52.37997717147198 7.12268
52.40478986713005 7.11417
52.42979908731974 7.082669999999999
52.454617094216 7.108560000000001
52.47943774942214 7.09007
52.50426105495102 7.09386
52.529280976059844 7.067410000000001
52.554109609024096 7.0131
52.57894089837482 7.03362
52.60377484613117 7.0206100000000005
52.62880550079408 7.019080000000001
52.65364479223379 6.92565
52.67848674816189 6.97133
52.70352547971946 6.93399
52.72837279155837 6.96045
52.753222773982785 6.91707
52.778075429022984 6.88736
52.80312495150885 6.911980000000001
52.827982978797436 6.858339999999999
52.85284368481815 6.89617
52.87770707160767 6.85155
52.90276741793998 6.87402
52.92763619336701 6.817189999999999
52.952507655698504 6.787719999999999
52.977381806977576 6.8045800000000005
53.00245301017842 6.85088
53.02733256653592 6.767180000000001
53.052214817996074 6.7506
53.077099766608484 6.73615
53.102181859804446 6.73758
53.127072229988265 6.7165300000000006
53.15196530349892 6.7236199999999995
53.17686108239249 6.7334
53.20195409881522 6.658189999999999
53.22685531582556 6.6921800000000005
53.25175924441303 6.64505
53.27666588664027 6.63427
53.30176985962693 6.6156
53.3266819565689 6.59437
53.35159677336455 6.591760000000001
53.376514312083096 6.611910000000001
53.40162927507703 6.57061
53.42655228516116 6.545059999999999
53.45147802340193 6.55279
53.47660125628886 6.5250699999999995
53.50153247842639 6.48548
53.52646643496923 6.4707099999999995
53.55140312799818 6.4753300000000005
53.576537409691696 6.48759
53.60147960336152 6.43907
53.626424539786164 6.4219
53.65137222105307 6.41549
53.67651758529126 6.42526
53.70147078399681 6.3834599999999995
53.72642673383343 6.355119999999999
53.75138543689533 6.3829199999999995
53.776541917524526 6.37786
53.801506154876755 6.33782
53.826473151763246 6.33983
53.851442910284916 6.29829
53.87661054126026 6.29558
53.9015858509782 6.268330000000001
53.92656392866066 6.2787
53.95154477641532 6.2678199999999995
53.976723591801296 6.2243900000000005
54.00171000771266 6.24291
54.02669920004598 6.21713
54.051691170915745 6.18515
54.076881204886796 6.2001800000000005
54.101878760928514 6.20288
54.12687910187696 6.11658
54.152077577768296 6.104419999999999
54.1770835166946 6.10203
54.20209224691339 6.128019999999999
54.22710377055121 6.1037
54.25231352511594 6.05478
54.27733066384342 6.02332
54.30235060239643 6.0479
54.32737334290836 6.03514
54.35259441062629 6.00082
54.377622783395324 5.93575
54.40265396455061 5.93567
54.42768795623251 5.95068
54.45292037169559 5.90698
54.477960012857906 5.91298
54.50300247099511 5.9153400000000005
54.52804774825457 5.92215
54.55329154616743 5.931019999999999
54.57834249018678 5.8432699999999995
54.6033962597977 5.84128
54.6284528571545 5.82461
54.653708072335164 5.76478
54.67877035378786 5.750030000000001
54.70383546947698 5.75874
54.72890342156389 5.711119999999999
54.7541700889442 5.706840000000001
54.77924374251975 5.74755
54.8043202390049 5.64778
54.82959552413022 5.57954
54.8546777351945 5.58598
54.87976279569621 5.55141
54.90485070780914 5.6119900000000005
54.930137506558005 5.56533
54.95523115074295 5.58226
54.98032765308844 5.54404
55.005427015775496 5.5308
55.03072536339621 5.51759
55.05583047570572 5.45669
55.080938454927676 5.47122
55.10604930325027 5.459
55.131359235107396 5.40137
55.15647585066083 5.3926
55.181595341907496 5.38405
55.20671771104285 5.3384
55.232039262617704 5.33983
55.25716741665048 5.317819999999999
55.28229845518636 5.35694
55.30743238042802 5.23825
55.33276558731939 5.19501
55.357905315183636 5.215269999999999
55.383047936390035 5.17967
55.40819345314859 5.17887
55.433538351073295 5.14457
55.458689688238415 5.09502
55.483843927614096 5.0959900000000005
55.509197623043605 5.05922
55.53435769621134 5.04345
55.55952067826466 5.03354
55.5846865714265 5.0250900000000005
55.61005202069737 4.95536
55.63522376553902 5.00805
55.66039842818645 4.9530199999999995
55.68557601087004 4.9208300000000005
55.7109532500271 4.872330000000001
55.73613670233794 4.867780000000001
