TT I
1.2716486653135266 7.6059
1.2939594142134223 7.20065
1.3162702121660406 6.905360000000001
1.3385810600174564 6.76894
1.3608919586137629 6.608219999999999
1.383202908801069 6.6028
1.405513911425503 6.05295
1.4278249673332093 6.30685
1.4501343378461518 6.648
1.4724455028545926 6.724810000000001
1.4947567236847858 6.40417
1.517068001182951 5.964230000000001
1.5393793361953272 5.44385
1.5616907295681737 6.3498
1.5840021821477681 5.71927
1.60631369478041 5.60004
1.6286252683124185 5.14014
1.6509369035901333 5.19591
1.6732468618895553 5.4176
1.695558623192809 4.737019999999999
1.7178704487808514 4.92847
1.7401823395001077 4.79651
1.7625012545597203 4.87742
1.7848028405262486 4.96364
1.8071218901122095 4.37594
1.8294236121921872 5.023630000000001
1.8517427996910911 4.7912
1.8740620574440425 4.51005
1.8963639900671978 4.504569999999999
1.9186833908139995 4.70171
1.9409854680117449 4.48223
1.9633050151394713 5.25195
1.9856246367570705 4.5290300000000006
2.0079269371922672 4.76823
2.03024671027244 4.88552
2.0525491637446027 4.8865099999999995
2.074869091674931 4.58654
2.097171701569106 4.33702
2.1194917877373847 5.21052
2.141811954326636 4.79577
2.164114805233074 5.25128
2.186435135143035 6.37
2.208738150935709 13.6742
2.231058647554722 27.4766
2.2533792288321184 21.0781
2.275682498336085 10.0078
2.298003251406138 5.56743
2.3203066942619714 5.17472
2.3426276225136022 5.31825
2.3649486396617507 5.168880000000001
2.387252348930071 5.631480000000001
2.4095735463442893 5.414280000000001
2.4318774374315884 5.74035
2.4541988185014043 6.00765
2.476502894794693 6.28789
2.498824462909887 5.58979
2.521146125856138 6.420380000000001
2.5434504863470337 6.480230000000001
2.5657723414244717 6.51711
2.588076895590662 7.0976
2.610398946189713 7.6323
2.6327210958598384 7.0433
2.6550259469304716 6.93889
2.6773482972090137 7.653
2.6996533504259 7.334460000000001
2.7219759047039602 7.67824
2.744298562293959 7.9650300000000005
2.7666039251246595 7.814839999999999
2.7889267918020164 8.1419
2.8112323652516555 7.84793
2.833555444408179 7.939889999999999
2.8558786311183852 7.95375
2.8781845268938557 8.66077
2.9005079311721484 8.60791
2.9228140460410397 8.83468
2.9451376712799635 9.32789
2.967444008632326 9.729989999999999
2.9897678582247247 9.8676
3.0120918213106695 9.96183
3.0343984987899373 10.4447
3.0567226913198637 10.9922
3.079029599759726 11.9093
3.101354025127254 12.3108
3.123678568232338 12.1694
3.145985829517914 12.7812
3.16831061055229 13.3566
3.1906181112775593 14.0026
3.212943133635653 14.5049
3.2352682779763207 15.0896
3.2575761442691227 15.6045
3.2799015350264273 15.573
3.302209649240067 16.1442
3.3245352898092655 17.1057
3.3468436553365257 17.73
3.369169549113219 17.6382
3.3914955708171384 18.4622
3.413804319727358 19.1295
3.4361305997334863 19.4454
3.4584396084414553 19.7371
3.4807661501462652 20.6065
3.503092824025881 21.1721
3.5254022288463154 21.5587
3.5477291695206588 21.9198
3.5700388426251948 22.4455
3.5923660534916446 23.9749
3.6146934007816114 38.5051
3.637003482731501 87.5845
3.6593311053109985 96.1179
3.681641464033634 55.6346
3.7039693653009733 30.5791
3.726297407241705 26.1786
3.7486081875460804 26.072
3.7709365132734978 26.2606
3.793247578841633 26.685
3.8155761917550093 27.5681
3.8378875459837216 27.6401
3.8602164494827234 27.8342
3.882545499606844 28.6444
3.9048572932539183 29.7357
3.9271866390645718 29.6591
3.9494987298666713 30.281
3.971828374764527 30.8613
3.9941581705403255 30.9995
4.016470713506008 31.8801
4.038800813471445 32.6605
4.061113662089144 33.4051
4.0834440696459176 33.8124
4.105774632334751 34.2998
4.128087945865126 35.2654
4.150418821249301 35.8575
4.172732448931298 37.0137
4.195063640413578 39.1735
4.2173775856475215 43.1239
4.239709096631102 74.7825
4.262040768704612 231.882
4.284355196706267 308.283
4.306687193387355 198.095
4.329001947444346 79.7429
4.35133427213731 48.4447
4.373666762177566 45.1321
4.395982011761091 44.9664
4.418314834921175 46.5335
4.44063041906622 53.8231
4.4629635787515625 64.9213
4.4852969080429785 64.6458
4.5076130004776225 54.6432
4.529946671403969 51.3029
4.552263106909177 51.2814
4.574597122877047 52.1922
4.596931312711224 53.06100000000001
4.619248269273446 53.8222
4.6415828092605835 55.2479
4.663900117405352 56.317
4.686235010953232 57.6683
4.708552674085913 58.8575
4.730887924602802 60.1708
4.753223354952695 61.9714
4.775541557023902 63.3188
4.797877349456786 65.2193
4.820195915032126 66.9454
4.842532072957498 68.3703
4.864868414979744 70.7506
4.88718753227192 72.8408
4.909524244902505 74.5783
4.931843734218147 76.2624
4.954180820867835 79.15100000000001
4.976518095879839 82.3837
4.998838149695359 85.3422
5.021175803844231 89.4469
5.043496238205739 93.0135
5.065834274903528 97.9941
5.088172504230693 103.223
5.1104935158799565 111.49600000000001
5.132832132875765 135.07399999999998
5.155153533596801 180.71200000000002
5.1774925416746225 224.192
5.199814334878411 441.32599999999996
5.2221537374521505 1252.06
5.244493338631803 3220.66
5.266815727034316 7339.46
5.289155727832427 11660.1
5.311478517248165 8913.0
5.333818921080011 3145.08
5.356159527788849 654.649
5.3784829252032536 208.037
5.400823940070432 153.506
5.423147747031976 134.554
5.445489173474152 123.25299999999999
5.467830807066149 116.704
5.490155234831516 112.74600000000001
5.512497285125229 108.64299999999999
5.534822130975162 105.96700000000001
5.557164601388673 103.771
5.579489868738879 100.803
5.601832762690846 100.421
5.6241758697774475 99.7333
5.646501775867269 98.5587
5.668845311622074 96.7821
5.691171647754637 96.3182
5.713515615597765 95.0626
5.735859800852677 94.4354
5.758186788542988 93.3503
5.780531411018185 94.0991
5.802858837297399 93.5232
5.825203900414495 93.745
5.8475491852224 94.4614
5.869877275883075 95.0128
5.892223006467101 95.8737
5.914551544266608 97.9203
5.936897724049891 101.833
5.959244129804903 108.619
5.981573344815301 133.491
6.0039202049061 247.41
6.026249875609095 541.84
6.04859719346037 1107.77
6.070927323278297 2272.71
6.093275102315365 4225.53
6.115623113320588 5184.59
6.137953938319995 3460.73
6.160302415650845 1155.8
6.182633708324452 272.931
6.2049826554078376 122.311
6.227331838745022 97.3824
6.249663839443684 88.6686
6.27201349767565 84.928
6.294345974611799 90.3786
6.316696111167083 101.292
6.339046488263839 95.6479
6.361379686074702 80.8077
6.383730546639482 73.2755
6.406064229255215 70.0327
6.428415576718203 69.3774
6.450749747566656 68.5052
6.47310158535871 67.5124
6.495453669698332 66.5587
6.517788579421056 65.75399999999999
6.540141159237969 64.9317
6.562476565766648 64.4684
6.5848296444934045 64.3666
6.607182974060425 63.6243
6.6295191323281015 63.7235
6.651872965955752 67.2055
6.6742096296068985 92.1919
6.6965639707294615 137.213
6.71891856698715 137.70600000000002
6.741255995248479 94.4838
6.763611104154477 68.5724
6.785949046381137 61.4694
6.808304671371482 59.666000000000004
6.8306605557940046 58.8551
6.852999275508618 58.3913
6.875355681171544 57.9586
6.897694923437771 57.7918
6.92005185377892 57.5428
6.9423916220322655 57.0913
6.964749080490181 56.5199
6.987106804399774 56.6117
7.009447368180821 56.4679
7.031805625367033 56.3861
7.054146723727803 56.7588
7.076505517631004 56.4479
7.098864581288365 56.143
7.121206488070854 56.0089
7.143566093607822 55.7517
7.165908543567245 56.5486
7.188268694426048 55.9204
7.2106291193438095 56.0339
7.232972390625943 58.0582
7.255333366030969 69.4627
7.277677189091925 122.583
7.300038718428332 166.93400000000003
7.322400526130865 142.593
7.344745183422596 88.809
7.367107550224791 62.215
7.389452767901992 57.1178
7.411815697249891 56.3659
7.434161478756298 55.1953
7.456524974096713 55.1496
7.478888753837185 55.3457
7.501235387657368 55.6219
7.523599738562711 55.2635
7.545946944825532 55.6221
7.568311870344528 56.1661
7.5906770845765665 56.6577
7.613025156078678 57.7023
7.635390950099687 58.9184
7.657739602662809 57.8932
7.680105979923558 56.7247
7.702472650212829 56.9921
7.724822180948224 56.5662
7.747189439655568 57.0919
7.769539560075357 57.4574
7.791907410653562 57.433
7.81425812420825 57.3549
7.836626570110925 57.6394
7.858995315087906 58.8566
7.881346924933401 58.8966
7.903716270417482 59.3462
7.926068482028405 59.2187
7.948438431475253 60.0876
7.9708086843180235 60.7221
7.993161805171116 61.6078
8.015532667162402 61.9904
8.037886398416653 62.8991
8.060257873014221 63.1469
8.082629655331942 63.5811
8.104984308787587 64.7984
8.127356708900503 68.2454
8.149711981398308 73.9603
8.172085002766314 76.1133
8.194458336181368 73.0347
8.216814543847752 70.271
8.23918850371002 70.5388
8.26154533906492 71.3255
8.283919928836452 72.7999
8.306277395339652 74.3453
8.328652618483376 75.4299
8.351028159736202 77.7492
8.373386579575245 80.039
8.395762759396959 81.986
8.418121819038275 87.30799999999999
8.440498640894003 100.891
8.462875785192262 115.821
8.485235811156207 132.226
8.507613602688501 183.532
8.529974277114228 287.513
8.552352719347912 437.462
8.574731488360351 702.077
8.59709314210385 1202.86
8.619472567021075 1775.9
8.64183487789147 2156.31
8.664214962183097 1857.01
8.686577933647762 1020.35
8.708958680784317 407.84
8.731339760774953 177.345
8.753703729764451 115.868
8.77608547780821 102.368
8.798450116065078 97.6865
8.820832535634787 94.6135
8.843215292401656 92.8923
8.865580941199045 91.2668
8.887964374703538 90.0478
8.910330701447199 91.2849
8.932714815164482 93.566
8.955099270424924 92.4479
8.977466620733543 89.1299
8.999851761421976 86.4197
9.022219798361645 85.0494
9.04460562795561 84.2597
9.066991803441677 84.3593
9.089360876979615 83.9984
9.111747746589993 83.8716
9.13411751544971 83.4656
9.156505082664324 83.2908
9.178875550323522 83.601
9.20126381862328 83.6992
9.223652438908596 83.9264
9.246023961427412 83.8633
9.26841328802173 82.9249
9.290785518039224 83.1977
9.313175554425882 84.2974
9.335565947154315 83.9716
9.357939245086508 83.9592
9.380330352834827 84.5038
9.40270436697103 84.3552
9.425096193225055 84.3726
9.447488380180165 85.1274
9.469863475295412 85.38
9.492256385987508 85.7918
9.514632206018318 86.5876
9.537025843935714 86.8053
9.559402392368193 87.6105
9.581796761000229 88.6173
9.604191496441521 89.8543
9.626569144158516 92.9131
9.648964615551032 97.6918
9.671343000390081 99.4568
9.693739211225699 97.3211
9.716135793237463 94.9499
9.738515290448102 94.5751
9.760912617143402 95.8652
9.783292860202891 97.1215
9.805690935076182 98.1569
9.828089385495742 99.1656
9.850470754023561 101.456
9.872869957865444 109.85
9.89525208097539 124.839
9.917652041736662 137.642
9.940052382417589 139.132
9.962435644102392 150.83700000000002
9.984836746950979 195.945
10.007220771957746 270.911
10.029622640473708 382.332
10.052007432299963 561.476
10.074410069984072 838.575
10.096813093716005 1235.66
10.119199042482517 1702.3
10.141602840636468 1941.31
10.163989564971628 1650.31
10.186394141051062 980.934
10.208799107559706 430.869
10.231187001965623 206.037
10.253592751657669 132.726
10.275981430388155 116.36200000000001
10.298387966769793 115.475
10.320794897965431 117.39299999999999
10.343184759907361 116.40299999999999
10.36559248305461 110.83
10.387983138083852 107.285
10.410391656691655 110.882
10.432800574501677 124.042
10.455192425893369 143.726
10.47760214443012 171.831
10.499994797678786 214.739
10.522405320453982 287.902
10.54479877906917 388.67
10.567210109595656 505.18800000000005
10.5896218454736 572.2330000000001
10.612016518879773 502.96
10.634429067781074 358.97900000000004
10.656824555333241 209.9
10.679237920773568 128.159
10.701651695961992 98.4425
10.724048411481384 91.1385
10.746463008485165 88.4419
10.768860546937125 86.2924
10.791275969274796 84.3293
10.81369180576079 83.4787
10.836090585366925 82.448
10.858507252467449 80.9984
10.88090686379991 80.1243
10.903324365036394 79.9001
10.925724811614439 79.6613
10.948143150509463 80.7882
10.970561909719066 80.0502
10.992963615930844 78.1944
11.015383218085756 75.9045
11.037785768347074 74.4436
11.06020621697282 73.7514
11.082627090322113 73.3878
11.105030913430326 72.795
11.12745263854165 73.4691
11.149857314510728 76.4633
11.172279894912576 82.74
11.194702904450653 83.4999
11.217108866490921 79.2974
11.239532736615194 75.0176
11.26193956033512 72.9164
11.284364294577085 71.1161
11.306789462371718 69.3114
11.329197585398376 68.5131
11.351623622610898 67.8659
11.37403261614354 67.1918
11.396459526308487 67.1021
11.418869393879497 66.5027
11.441297180532617 66.1245
11.463725406927658 66.0031
11.486136592353875 65.9588
11.508565700543707 66.0718
11.530977768845315 68.0673
11.553407762368774 69.1606
11.575838200059769 68.4453
11.598251599479612 66.3005
11.620682927815501 64.8287
11.64309721895548 64.5428
11.665529441478206 64.171
11.687962112597958 63.8223
11.710377748130886 64.0182
11.732811318753434 63.906000000000006
11.755227854859067 63.7418
11.777662328529495 63.803999999999995
11.800079768750786 63.813
11.822515149015453 63.453
11.844950984084935 63.7423
11.867369787303163 63.3295
11.889806534289491 63.6281
11.912226250487029 63.9767
11.934663912939751 63.8623
11.9571020346363 63.911
11.979523127133968 64.2758
12.001962169624331 65.056
12.024384183972964 66.2265
12.046824150809913 69.9571
12.069264581333726 76.1976
12.091687985297767 82.5109
12.11412934550045 91.9204
12.136553680195208 106.86
12.158995973632788 126.96
12.181438735204349 152.65200000000002
12.20386447284199 180.774
12.226308172985636 203.951
12.24873485024193 205.361
12.271179492516982 169.007
12.293607112949127 129.16299999999998
12.316052700916226 97.6174
12.338498763250042 79.9642
12.360927805303868 71.3689
12.383374818673879 67.786
12.405804812803074 65.6306
12.428252780773262 65.4625
12.45070122756722 65.3737
12.473132656675375 65.1318
12.49558206341869 65.3092
12.518014453510101 65.5814
12.540464823770117 65.4975
12.562915677315177 65.6682
12.58534951575545 66.5462
12.607801338171472 68.4969
12.630236146511358 73.8314
12.652688941369085 78.2931
12.675124723177234 78.785
12.697578494048786 75.2939
12.720032754458185 71.1286
12.742470003354093 69.21300000000001
12.764925245138771 68.88600000000001
12.787363476431278 69.1437
12.809819703166806 69.4985
12.83227642391173 70.5176
12.854716135692716 70.8002
12.877173846755147 71.8852
12.899614549869717 72.1298
12.9220732548287 73.1415
12.94453245827299 73.6547
12.966974655289818 74.6481
12.989434858002571 75.3974
13.011878055298721 75.984
13.034339260862497 77.2744
13.056800969391883 78.5865
13.079245674017244 80.7125
13.101708390774869 83.6196
13.12415410463411 91.8427
13.146617833206086 105.177
13.169064559883248 118.523
13.191529303857127 134.334
13.213994557076367 157.246
13.236442809902437 192.19099999999997
13.258909083908291 241.835
13.28135835851934 298.724
13.30382565690295 363.121
13.326293469022952 413.895
13.348744283242008 423.65
13.371213125129904 370.708
13.39366497011003 272.339
13.416134845360597 181.05900000000003
13.438605238843131 128.537
13.46105863690397 109.292
13.483530069144786 110.38
13.505984506951902 116.977
13.528456981549432 127.52799999999999
13.550929978879088 142.20600000000002
13.573385983253365 165.046
13.595860028340867 200.125
13.618317081455832 246.78099999999998
13.64079217790333 297.89099999999996
13.663250283359057 342.338
13.685726434770173 372.467
13.708203115221277 347.741
13.730662806148091 275.471
13.75314054697177 196.692
13.775601299246777 131.806
13.798080104050406 99.43
13.820559442405358 87.2376
13.843021793671388 83.463
13.865502201420897 81.5957
13.887965623051947 80.8128
13.910447103807167 79.8717
13.932929122629764 78.4604
13.955394156785959 78.0712
13.977877254034569 77.1252
14.000343367582113 76.2258
14.022827546871707 75.7363
14.045294743423524 75.0193
14.06778000837062 74.3478
14.090265817715476 74.1843
14.112734645763819 73.8328
14.13522154619454 73.7191
14.157691466286913 73.8059
14.180179461423874 73.4637
14.202668005486178 72.6577
14.22513957064374 72.0493
14.247629214846473 71.71300000000001
14.270101881097517 71.3098
14.29259262906496 71.797
14.315083930490205 72.5225
14.337558255389705 72.7436
14.360050666019726 72.3772
14.382526101071944 71.3092
14.405019624534942 70.5117
14.427513705993134 69.6254
14.449990813291825 69.9395
14.47248601302899 69.7615
14.49496423954951 69.9603
14.517460561197822 69.9555
14.539939910570322 69.6073
14.562437357763558 70.2019
14.58493536931253 71.3777
14.607416409993311 72.2821
14.62991555254159 73.1133
14.652397725157423 73.0408
14.674898002342799 72.2772
14.697398848433282 71.7545
14.719882725991326 72.4292
14.74238471217934 73.7782
14.764869730765593 77.7711
14.787372860692983 81.9826
14.809876564079925 86.8014
14.83236330125751 93.1579
14.854868153850365 101.87799999999999
14.877356041159485 114.791
14.899862046604186 132.086
14.922351087688757 154.335
14.944858249632887 179.59099999999998
14.967365991421232 202.49200000000002
14.989856770231246 221.49599999999998
15.012365673994204 219.111
15.03485761569738 195.53900000000002
15.05736768508665 154.482
15.07987833888692 117.37700000000001
15.102372032001655 92.9543
15.124883856909658 78.5745
15.14737872204565 73.6453
15.169891721717274 71.7017
15.192405310371893 71.4646
15.214901940621196 72.0441
15.237416709527137 71.9598
15.259914520936249 72.1298
15.282430473753607 71.5141
15.304947020131227 70.3128
15.327446610371178 69.1137
15.349964346154254 68.4928
15.372465126703139 67.7614
15.394984055556009 67.6428
15.417486030076159 67.3393
15.44000615566487 67.0267
15.462526881230803 67.3019
15.485030653812652 67.6198
15.507552581617434 67.3489
15.530057557334603 67.5538
15.55258069104857 67.4071
15.575104429329837 67.4774
15.597611216864632 67.0487
15.620136166564563 67.3476
15.6426441664095 68.5849
15.665170331202765 71.3766
15.687697105158826 74.8373
15.710206930593545 78.7071
15.732734925158933 83.2158
15.755245972089478 89.4369
15.77777519094324 98.9363
15.800287463046663 110.766
15.822817909869592 127.34299999999999
15.84534897229804 145.881
15.867863089299354 166.475
15.890395385222186 182.11599999999999
15.912910736597423 192.355
15.935444269699861 182.81900000000002
15.957978423016485 159.30100000000002
15.980495633101265 127.68299999999999
16.003031029129367 97.30799999999999
16.02554948280019 78.8159
16.048086125229432 69.3626
16.070623392487107 66.3598
16.09314371869582 65.5627
16.11568223789321 64.6319
16.13820381691126 63.7753
16.160743591742527 62.3214
16.183283996022084 61.7398
16.205807461423195 60.8328
16.228349126881973 60.1818
16.25087385432698 60.0573
16.27341678466365 59.3824
16.29594277784926 59.2728
16.31848697676433 59.5485
16.341031811604868 60.0129
16.36355971058487 60.1173
16.3861058195587 59.8407
16.40863499352978 58.7544
16.431182380342005 57.7877
16.453730407713202 57.165
16.476261501364792 56.868
16.498810812136167 56.7101
16.52134319004079 56.5491
16.54389378792203 56.4257
16.566445031001553 56.3858
16.588979342490088 56.2031
16.61153187824822 55.9988
16.634067483263312 55.7894
16.656621315414416 55.8371
16.679175797408888 55.5567
16.701713349928728 55.5595
16.72426913389191 55.8892
16.74680798922351 55.893
16.76936507887444 55.9837
16.791905240734874 56.0933
16.814463639794468 55.8618
16.837022695210294 55.8791
16.859564824093756 56.1125
16.882125194503903 56.5788
16.904668639217885 57.4898
16.927230328348003 57.7812
16.949792678493612 57.9584
16.972338104193863 57.1438
16.994901778652235 56.6693
17.017448529496576 56.6335
17.040013531998152 56.7601
17.06257920018044 57.4988
17.0851279459922 58.4527
17.107694947817667 59.2207
17.130245028099072 59.9827
17.15281336730298 61.5959
17.17536478578733 63.2216
17.19793446610687 65.2966
17.220504818648422 68.1232
17.243058251703697 70.7764
17.265629950971032 74.6523
17.288184731571736 78.5416
17.310757781306908 82.0915
17.33333150794385 84.056
17.355888317140174 82.9407
17.37846339986244 78.4811
17.401021565958885 72.6605
17.42359800851343 67.1461
17.44617513265564 63.1507
17.468735341390783 61.126000000000005
17.491261035594565 60.1371
17.51396340099364 59.9937
17.536490463869136 60.1993
17.559018209820174 60.043
17.58154663977963 60.2644
17.604251766089718 60.5429
17.626781572227713 60.7062
17.64931206518155 60.8366
17.671843245885103 61.4467
17.69455114821572 61.6351
17.717083712612634 61.9945
17.739616967569667 62.2115
17.762150914021706 62.4365
17.78486160749854 62.4712
17.807396945166804 63.2551
17.829932977143503 64.0169
17.85246970436452 65.7657
17.875183204129467 68.2549
17.897721330097664 70.3761
17.920260154126645 72.8307
17.942799677153296 76.4502
17.9655159983646 80.0918
17.988056927677544 85.1398
18.010598558807683 92.4426
18.033140892692916 101.22
18.05586005052525 110.325
18.07840379824407 120.82600000000001
18.10094825154059 131.08
18.12366954819864 139.982
18.146215420998306 140.717
18.16876200220057 133.185
18.191309292745153 120.796
18.214033452627167 107.163
18.236582170236648 94.62
18.259131600016456 88.3421
18.281681742907335 87.9127
18.304408781233683 91.3356
18.32696035875955 95.5111
18.349512652227624 100.09200000000001
18.372065662579683 105.116
18.394795594587553 106.86200000000001
18.41735004715306 104.63799999999999
18.43990521943684 98.3044
18.46246111238171 88.6969
18.485193953325208 79.1888
18.507751296070428 71.4758
18.530309362314178 67.01
18.552868153000343 64.7761
18.57560391815056 63.4022
18.59816416623245 62.8979
18.620725141597372 62.3249
18.643286845190268 61.8768
18.666025549835414 61.4516
18.688588718427933 60.8181
18.711152618092243 60.7276
18.73389353884365 60.4037
18.75645890921984 60.1131
18.77902501351406 59.64
18.801591852673102 59.735
18.824335739722738 59.0449
18.846904057212626 59.1438
18.8694731124168 58.7219
18.89204290628315 58.7054
18.914789774966803 58.5815
18.937361054791623 58.2887
18.959933076131318 58.3473
18.982505839934877 58.0778
19.00525570560582 57.9523
19.027829963004184 57.8496
19.05040496572238 58.1178
19.072980714710468 58.0445
19.095733592739563 58.2521
19.11831084296757 58.5286
19.140888842324735 59.0155
19.16346759176222 59.425
19.18622349753803 60.1182
19.208803755869358 60.8967
19.231384767143577 61.7972
19.253966532312948 63.4542
19.276725481241822 65.1521
19.29930876296784 67.3456
19.3218928014549 70.0956
19.34465404436217 73.3601
19.36723960516257 76.0356
19.389825925592426 77.5147
19.412413006605938 76.8558
19.43517731967805 73.9631
19.457765930683355 69.2109
19.48035530514408 64.4549
19.50294544401556 60.4152
19.525712842708348 57.6567
19.54830451925909 56.2239
19.570896963095727 55.2768
19.593490175174704 54.7935
19.616260674962184 54.7694
19.638855432416964 54.2558
19.661450960992624 54.6109
19.68404726164677 54.5101
19.706820878021247 54.3544
19.729418731756834 54.5255
19.752017360452857 54.4427
19.77461676506804 54.5732
19.797393513540218 54.6484
19.819994478951667 55.0399
19.84259622316767 55.5761
19.8651987471481 56.0063
19.887978643247177 56.3646
19.91058273574792 56.9439
19.933187610901943 57.56100000000001
19.955969879466828 58.5997
19.97857632894404 59.943000000000005
20.00118356396599 61.4227
20.023791585494575 63.4673
20.046577028914875 65.8952
20.069186632506966 67.8696
20.091797025500632 69.8409
20.114408208858933 70.9776
20.137196842715273 71.0775
20.159809615886765 69.7528
20.18242318232135 66.9988
20.20503754298326 64.6902
20.227829382875154 63.1258
20.250445341109344 62.8536
20.27306209647285 63.3858
20.29567964993108 64.4855
20.31847471147704 65.6194
20.34109387027612 66.6771
20.363713830075454 66.7004
20.386334591841646 65.3559
20.409132890679302 62.886
20.431755265564437 59.4981
20.454378445325528 56.5344
20.477002430930366 54.5874
20.499803982716553 53.3523
20.522429589228004 52.6164
20.54505600449589 51.8875
20.567683229489194 51.7896
20.590488049900088 51.5334
20.61311690359731 51.1788
20.63574656993626 50.928000000000004
20.658553853717297 50.5543
20.681185154618298 50.6316
20.703817271080066 50.519
20.72645020407368 50.058
20.749260783967177 50.2014
20.771895359337133 49.9752
20.794530754161617 49.8402
20.817166969412938 49.8439
20.83998086114876 49.87
20.86261872660049 49.8185
20.885257415405402 49.5802
20.90789692853701 49.6033
20.930714147864748 49.5151
20.953355319030678 49.4796
20.97599731745334 49.6462
20.99864014410749 49.5129
21.021460706796564 49.5906
21.044105199328826 49.7801
21.06675052302631 49.9302
21.089396678865015 50.1167
21.112220600704806 50.4148
21.134868430275347 50.7934
21.15751709492456 51.0334
21.180166595629693 51.2067
21.202993892429635 51.6353
21.22564507473034 52.0301
21.24829709602816 52.1488
21.27112693608965 52.3926
21.293780644891275 52.3586
21.316435195634053 51.7727
21.339090589297417 51.0917
21.361923832041875 50.7006
21.384580921090404 49.8706
21.407238856007325 49.5498
21.429897637773326 49.2539
21.45273429906592 49.2447
21.475394784108598 49.3583
21.498056118951983 49.3013
21.520718304578022 49.4189
21.543558400304388 49.5634
21.566222297108816 49.8082
21.58888704765135 49.8477
21.61155265291521 50.1195
21.63439619898156 50.6773
21.657063523335786 50.8774
21.67973170537063 51.6055
21.7024007460706 52.0539
21.72524775840385 52.7242
21.747918526116475 53.7923
21.770590155457388 54.8662
21.79326264741238 56.5414
21.816113141960237 58.1545
21.838787368860547 59.6869
21.861462461341976 61.5509
21.884315579735777 63.3602
21.90699241312273 64.5453
21.92967011506078 65.4035
21.95234868653799 65.5433
21.9752053151131 64.5011
21.997885635446785 62.5874
22.020566828293532 60.7383
22.04324889464272 58.7272
22.066109049404666 57.4271
22.088792872571794 56.923
22.111477572219204 56.8896
22.1341631493376 57.1108
22.157026846313123 56.9095
22.179714188221507 56.5173
22.202402410582668 55.4326
22.22509151438863 53.876000000000005
22.24795876962584 52.4752
22.270649646204486 51.5843
22.293341407213727 50.8298
22.316034053646906 50.4641
22.338904883215342 50.0657
22.36159931041458 49.9252
22.38429462602756 49.9849
22.40699083104897 49.873000000000005
22.429865251039757 49.7709
22.452563244831367 49.6193
22.47526213102522 49.7538
22.49813925616515 49.5884
22.520839937143307 49.7034
22.543541513520587 49.6606
22.56624398629403 49.2552
22.589124730075895 49.2148
22.611829005656723 49.5948
22.63453418063466 49.6265
22.657240256008077 49.7836
22.680124634582935 50.0724
22.70283252079775 50.2359
22.725541310413075 50.4474
22.74825100442868 50.8809
22.771139033969575 51.3489
22.79385054687155 51.4419
22.81656296718292 52.09
22.83927629590484 52.8079
22.862167992606945 53.7106
22.88488314827121 54.6845
22.907599215359284 55.696999999999996
22.93031619487366 56.8607
22.953211574954405 57.7306
22.975930389478226 58.6656
22.998650119445763 59.0992
23.02137076586092 58.3255
23.044269845560063 57.327
23.06699233506288 55.6858
23.089715744034912 53.8712
23.112617610931565 52.1704
23.135342869061212 50.8534
23.158069049684816 50.1987
23.1807961538087 49.6287
23.20370174880544 49.7053
23.226430710184808 49.7726
23.249160598093425 49.8165
23.271891413539002 49.9787
23.294800752937697 49.8064
23.31753343374794 50.0333
23.340267045128353 50.1384
23.36300158808808 50.5282
23.38591468821339 50.6982
23.408651104658304 51.2178
23.431388455719986 51.8455
23.454126742409 52.6654
23.4770436196085 53.6158
23.499783787914662 54.5797
23.522524894889884 55.4388
23.54526694154616 56.2961
23.56818761219047 57.5848
23.59093154860734 58.266999999999996
23.613676427751283 58.8272
23.636422250635754 58.4199
23.659346731118656 56.8795
23.68209445191868 54.9808
23.704843119509587 52.7839
23.72759273490623 50.7428
23.750521041644767 49.3846
23.77327256312355 48.0616
23.796025035462787 47.4284
23.818956224555475 46.8343
23.841710609113413 46.8696
23.86446594758979 46.5929
23.887222241002014 46.4019
23.910157285144578 45.946000000000005
23.932915498962537 45.973
23.955674670778713 45.9382
23.978434801611975 45.7227
24.001373717286125 45.5479
24.024135776723917 45.3951
24.046898798245582 45.3974
24.06966278287146 45.2276
24.092605586582614 45.0586
24.115371508023642 45.0173
24.1381383956401 44.8813
24.16090625045381 44.7801
24.183852958731244 44.7832
24.206622758582608 44.6126
24.229393528706886 44.3071
24.252165270127392 44.4451
24.27511589952438 44.4503
24.297889594216997 44.3136
24.32066426328598 44.144
24.34343990775613 44.1185
24.36639447485003 44.0562
24.38917208083877 43.9477
24.41195066531332 44.0625
24.43490819850244 43.8994
24.457688750692377 43.8102
24.48047028445616 43.7373
24.503252800821233 43.7681
24.526214300784112 43.8594
24.548998793132213 43.8534
24.57178427117417 43.8305
24.59457073593893 43.7095
24.617536219319863 43.7146
24.64032466834748 43.65
24.663114107195035 43.6214
24.685904536893013 43.3696
24.708874020360852 43.2924
24.731666442613744 43.2692
24.754459858818787 43.0978
24.777254270007962 43.1073
24.80022777025625 42.9145
24.82302418230472 43.0307
24.845821592443674 42.9784
24.86862000170663 43.1301
24.891597535453727 42.7813
24.914397953892728 43.0086
24.93719937456671 42.878
24.96000179851076 43.1514
24.98298338249997 43.3569
25.00578782394922 43.4662
25.028593271784167 43.5466
25.05157790644186 43.8729
25.07438537804115 44.1297
25.097193859145293 44.4026
25.120003350792075 44.5483
25.142992065061257 44.9157
25.165803588823465 45.2669
25.18861612625217 45.5156
25.211429678386736 45.4889
25.234422489079968 45.5149
25.257238081693636 45.558
25.280054692141732 45.5853
25.3028723214652 45.5148
25.325869245420463 45.492
25.348688923599397 45.5186
25.371509623787006 45.6678
25.394331347025812 45.5043
25.41733240110666 44.981
25.440156181590016 44.3832
25.46298098826268 43.9378
25.48580682216873 43.4697
25.50881202326435 42.6752
25.53163992281684 42.2816
25.55446885274561 41.9883
25.577298814096377 41.8153
25.600308179121807 41.7437
25.623140214533745 41.6518
25.64597328451537 41.5594
25.66898578564376 41.2543
25.691820936010206 41.385
25.714657124097695 41.2874
25.737494350954734 41.3093
25.760511045684957 41.2694
25.783350361364224 41.3301
25.806190718969255 41.3147
25.82903211955018 41.2245
25.852053024868923 41.3672
25.874896522722523 41.4265
25.897741066713106 41.2852
25.920586657892454 41.5125
25.943611790812668 41.5608
25.966459487728237 41.7207
25.989308234998564 41.7941
26.01215803367705 41.9172
26.03518741123814 42.0918
26.05803932412957 42.4555
26.080892291600094 42.3243
26.10374631470478 42.4565
26.12677995397268 42.5362
26.14963609978026 42.547
26.172493304397875 42.2242
26.19535156888223 41.7638
26.218389486949604 41.4917
26.241249882640123 41.4276
26.26411134137826 41.0535
26.28715248187403 40.9581
26.31001607820869 41.0145
26.3328807407756 40.801
26.35574647063438 40.8613
26.37879191991473 40.7613
26.401659795896734 40.8665
26.424528742360263 41.049
26.447398760366614 41.2708
26.470448535598294 41.3765
26.49332070826805 41.5659
26.516193955675355 41.8671
26.53906827888316 41.9701
26.562122397260108 42.1548
26.584998883685063 42.305
26.607876449110325 42.4204
26.63075509460056 42.6875
26.65381357334404 42.9617
26.67669439061878 42.8465
26.699576291163382 42.7236
26.722459276044212 42.6955
26.745522132402975 42.4815
26.768407297649354 42.2799
26.791293550442003 41.847
26.814180891848974 41.5678
26.837248143099337 41.3251
26.860137673466657 41.2865
26.88302829566349 40.9705
26.90592001075963 40.8017
26.92899167420566 40.6376
26.951885586870763 40.2782
26.974780595655517 40.012
26.99785558178161 39.9092
27.020752794605112 39.7819
27.043651106772522 39.5463
27.06655051935668 39.5438
27.089629948036183 39.4167
27.112531573292053 39.4454
27.135434302194138 39.5847
27.158338135817015 39.2981
27.181422024430987 39.2468
27.204328079372566 39.1916
27.22723524226965 39.2606
27.250143514198573 39.202
27.273231880156334 39.3217
27.296142382065014 39.1306
27.319053996245536 39.0656
27.341966723775965 39.0957
27.365059584515222 39.1756
27.38797455070062 39.2569
27.410890633481237 39.2435
27.433807833936918 39.1919
27.456905206923906 39.2022
27.47982465472398 39.2059
27.502745223449743 39.3274
27.525666914182825 39.2882
27.548768816912457 39.2476
27.571692763693633 39.295
27.59461783573812 39.1974
27.617723149491244 38.8816
27.640650484125285 38.8082
27.66357894728264 38.8104
27.686508540048052 38.733000000000004
27.709618414237887 38.6253
27.732550278321757 38.5692
27.755483275279115 38.4798
27.778417406196485 38.4378
27.801531858397514 38.5701
27.824468269376716 38.5031
27.847405817586786 38.4975
27.870344504116094 38.7241
27.893463551932008 38.7729
27.916404527281053 39.008
27.93934664422563 39.0196
27.962289903855886 39.0275
27.98541356491974 39.3884
28.00835912214229 39.4168
28.03130582533231 39.5511
28.054253675581805 39.7636
28.077381967556104 39.8238
28.100332124185126 39.716
28.123283431160893 39.5681
28.146235889577238 39.3898
28.169368830154156 39.3021
28.192323603752033 39.1459
28.215279532083304 38.8377
28.238415973016764 38.5757
28.261374223145094 38.5182
28.284333631303806 38.3289
28.307294198589954 38.2082
28.330435319167677 37.91
28.353398217078915 37.6482
28.376362277420153 37.3666
28.39932750129032 37.2072
28.422473319286713 37.0195
28.44544088262495 37.0414
28.468409612800283 36.9353
28.491379510913497 36.6109
28.51453004413313 36.7208
28.53750229057244 36.5567
28.56047570826344 36.484
28.583450298308804 36.4917
28.606605564586562 36.4588
28.629582511831156 36.4539
28.65256063474956 36.2931
28.675539934446338 36.3497
28.698699951647605 36.1722
28.72168161743193 36.1026
28.74466446331978 36.1098
28.767648490417624 36.0359
28.790813276438353 35.9318
28.813799678527303 35.9866
28.836787265157085 36.0407
28.859955641890075 36.1021
28.882945610203045 36.0838
28.905936766392035 35.9987
28.928929111566863 35.9841
28.952102288520145 35.8423
28.975097024308607 35.8158
28.998092952423807 35.4902
29.021090073977508 35.4509
29.04426806913204 35.3534
29.067267590245258 35.1831
29.090268308143695 35.1803
29.11327022394099 35.1289
29.13645305530891 34.9783
29.159457379627167 35.0371
29.18246290519685 35.0058
29.20546963313352 34.8645
29.22865731875826 35.0307
29.25166646419296 34.916
29.27467681535305 34.8524
29.29768837335608 34.9589
29.320880931312562 34.9022
29.34389491580634 34.9805
29.366910110507334 34.8202
29.38992651653503 34.8155
29.41312396492981 34.8848
29.436142806456754 34.8238
29.45916286268059 34.7207
29.48236399319994 34.6459
29.50538649169417 34.3529
29.528410208259935 34.3948
29.55143514402014 34.1503
29.574641196749695 33.9907
29.597668583816574 33.9333
29.6206971934585 33.7065
29.64372702680042 33.7382
29.666938019934474 33.6191
29.689970313635285 33.5898
29.713003834422636 33.7031
29.73603858342347 33.5447
29.759254535188578 33.5255
29.78229175361658 33.4219
29.80533020365064 33.510999999999996
29.82836988641968 33.4532
29.85159081507472 33.4283
29.874632976355343 33.4193
29.89767637376955 33.4593
29.920721008448314 33.2185
29.9439469322847 33.1728
29.96699405457564 33.2194
29.9900424175358 33.1985
30.013092022298157 33.0816
30.03632295963995 33.0285
30.059375061131373 33.0684
30.08242840783577 33.079
30.105483000888153 33.0305
30.128718970092244 33.0263
30.151776069006917 33.0241
30.17483441768648 32.9234
30.198074175317235 32.9731
30.221135036724256 32.939
30.24419715131772 32.9351
30.267260520236203 32.9027
30.290505341942243 32.9704
30.313571232750228 32.8944
30.336638381310948 32.7775
30.35970678876503 32.8129
30.38295669299435 32.7666
30.40602763151657 32.7454
30.429099832366074 32.6915
30.452173296685572 32.5996
30.47542830191959 32.5839
30.498504306502497 32.6229
30.521581577995562 32.7798
30.544660117543582 32.7385
30.56792024229725 32.6518
30.59100133132069 32.7557
30.614083691845494 32.7153
30.637167325018545 32.8023
30.660432587840603 32.7918
30.683518779717886 32.6552
30.70660624769615 32.7671
30.729694992924372 32.7381
30.75296541239743 32.786
30.77605672557558 32.7321
30.799149319462742 32.6754
30.8224236211637 32.5809
30.845518789950724 32.4394
30.868615242910597 32.3829
30.891712981195973 32.2005
30.91499247215866 32.1638
30.938092794619365 32.2004
30.96119440587579 32.1755
30.984297307082752 32.0271
31.00758200598383 31.945999999999998
31.030687500658694 31.7763
31.053794288760695 31.6917
31.076902371446767 31.711
31.100192296997445 31.7111
31.12330298246119 31.538
31.14641496599209 31.4833
31.169528248749216 31.5644
31.19282341969534 31.493000000000002
31.215939314557186 31.4952
31.239056512134788 31.5615
31.262175013589378 31.4596
31.28547544871168 31.4177
31.30859657161541 31.3692
31.331719001892175 31.3779
31.35484274070538 31.4601
31.378148458819545 31.4942
31.401274828443725 31.4372
31.424402510106933 31.354
31.447712205419993 31.5631
31.470842524931633 31.3595
31.493974159989783 31.3156
31.51710711176168 31.3398
31.54042212308802 31.4473
31.563557722100917 31.3589
31.586694641341655 31.2519
31.609832881979628 31.061999999999998
31.63315322823208 31.0455
31.656294125521327 30.9873
31.679436347728515 30.828000000000003
31.70257989602529 30.8053
31.725905596152327 30.8217
31.74905181052835 30.663
31.772199354521323 30.7256
31.79534822930507 30.7489
31.818679302290967 30.8058
31.84183085259981 30.6643
31.864983737233473 30.7167
31.88813795736804 30.7031
31.911474422233013 30.5701
31.934631327356435 30.6261
31.9577895715215 30.5689
31.980949155906522 30.5655
32.004291031706956 30.5404
32.027453310562606 30.4865
32.05061693318573 30.355
32.07396288236386 30.3479
32.09712920658542 30.3154
32.12029687812702 30.1078
32.14346589817093 30.0855
32.166817291729984 30.1077
32.18998902288583 29.9937
32.21316210610336 29.9543
32.23633654256711 29.7509
32.259693399663725 29.8035
32.282870556771144 29.7135
32.30604907069099 29.7858
32.329228942610065 29.6401
32.35259128243769 29.496
32.375773884550505 29.4281
32.398957848235646 29.4583
32.422143174682176 29.2969
32.445511016471215 29.3144
32.468699082679954 29.3052
32.49188851523011 29.1506
32.51507931531304 29.1024
32.538452678331 29.0337
32.56164622776311 29.0435
32.58484114831493 29.057
32.60803744118015 28.9849
32.631416344731896 28.9847
32.654615396551876 28.9262
32.67781582427913 29.0326
32.701198898634416 28.8664
32.72440209253756 28.8229
32.747606665947124 28.7977
32.77081262006088 28.6567
32.79420126883317 28.6584
32.81740999876112 28.6452
32.840620112999424 28.6149
32.86383161274818 28.5586
32.88722585534586 28.5486
32.91044014056596 28.5567
32.933655814909734 28.5484
32.95687287957963 28.5122
32.98027273544904 28.4551
33.00349259526636 28.3744
33.026713849030116 28.4321
33.04993649794511 28.3524
33.073341986570746 28.3335
33.09656744032826 28.3476
33.11979429286444 28.2584
33.14302254538647 28.2277
33.166433686291185 28.2098
33.18966475336992 28.1907
33.212897224069096 28.1339
33.23613109959831 28.0519
33.259547912343415 28.0732
33.2827846121627 28.0439
33.306022720453775 27.9651
33.32926223842861 27.9348
33.352684742614166 27.9471
33.37592709463173 27.9412
33.399170859982064 27.7963
33.422597648419426 27.7097
33.44584425514446 27.5952
33.46909227885668 27.5698
33.4923417207723 27.4851
33.51577423505344 27.5942
33.539026528130385 27.4343
33.56228024307245 27.3555
33.585535381098246 27.2806
33.60897364093058 27.2725
33.63223163992385 27.2618
33.6554910656699 27.1916
33.678751919389796 27.1301
33.702195944520106 27.0839
33.72545966903325 27.0957
33.74872482519663 26.9354
33.771991414233746 27.0457
33.79544122444841 27.0161
33.81871069412428 26.8739
33.84198160035767 26.8128
33.86525394437455 26.9052
33.88870955949969 26.7854
33.911984794020626 26.8721
33.93526147001624 26.8326
33.958539588715006 26.6299
33.98200102861669 26.5982
34.0052820477047 26.5276
34.02856451319451 26.5034
34.05203033759056 26.392
34.07531571090147 26.4605
34.09860253431845 26.414
34.121890809074316 26.3823
34.145362493118924 26.3683
34.16865368561615 26.3285
34.191946333164054 26.2321
34.21524043699793 26.1406
34.23871800066799 26.2395
34.26201503218366 26.1821
34.28531352370466 26.1869
34.30861347646881 26.0344
34.33209693978188 26.0481
34.3553998301885 25.9803
34.378704185565205 25.7883
34.402010007152356 25.7639
34.42549939016683 25.8245
34.44880815937748 25.6846
34.472118398533134 25.7879
34.49543010887669 25.6832
34.51892543169198 25.5816
34.54224009966052 25.6441
34.56555624255917 25.5837
34.58887386163339 25.4775
34.61237514439016 25.4523
34.6356957311114 25.3811
34.65901779775809 25.4405
34.68252356662995 25.4141
34.705848608458616 25.3996
34.72917513396849 25.2983
34.75250314440949 25.2442
34.77601490857862 25.1338
34.799345904259795 25.1448
34.82267838863559 25.1357
34.846012362958525 25.1587
34.869530142679984 25.0766
34.89286711232212 25.0045
34.91620557568269 24.9706
34.93954553401677 24.9804
34.9630693495876 24.9025
34.986412313340814 25.0057
35.00975677584668 24.965
35.033102738362956 24.8891
35.05663261012228 24.7391
35.0799815881786 24.794
35.10333207003229 24.6673
35.12668405694369 24.7651
35.150220005273056 24.7292
35.17357501786656 24.6994
35.19693153931268 24.6096
35.220289570874385 24.5903
35.24383161619786 24.5861
35.267192683604904 24.5664
35.290555264930376 24.5501
35.314101899412165 24.4981
35.33746752422433 24.4873
35.36083466676374 24.4894
35.38420332829803 24.4514
35.407756095629054 24.433000000000003
35.43112781085063 24.3213
35.45450104888391 24.346
35.477875810999194 24.3805
35.50143473172161 24.2865
35.52481255774625 24.2446
35.54819191167777 24.1941
35.57157279478914 24.2162
35.595137889488406 24.1046
35.61852184675279 24.1165
35.641907337029984 24.0571
35.665294361595684 24.0165
35.68886565090076 23.9613
35.7122557598848 23.961
35.73564740699838 23.9185
35.759040593519934 23.951
35.78261809810353 23.8989
35.80601437933051 23.7598
35.829412203814705 23.7517
35.85281157283719 23.6388
35.876395313415884 23.7341
35.8997977874528 23.6474
35.92320180988546 23.7017
35.946790244133936 23.5426
35.97019737933222 23.5582
35.993606066789866 23.5312
36.01701630779276 23.5198
36.04061101440684 23.357
36.06402437852291 23.4548
36.08743930005611 23.3729
36.1108557802951 23.2947
36.13445678011326 23.2951
36.15787639383515 23.2975
36.18129757014299 23.3078
36.20472031032821 23.1834
36.22832762423364 23.1796
36.25175350829375 23.1055
36.275180960119776 22.99
36.298609981005924 23.0524
36.32222362992669 23.1087
36.34565580510207 22.9992
36.36908955323448 22.9504
36.39252487562093 22.8701
36.416144880530226 22.8735
36.43958336764275 22.8575
36.463023432914625 22.8604
36.486465077645676 22.7305
36.51009145956204 22.8302
36.53353627947859 22.7711
36.55698268276811 22.6954
36.58043067073321 22.6671
36.60406345072071 22.615
36.62751462435344 22.6146
36.65096738658405 22.5176
36.67460498210655 22.5472
36.69806093788647 22.548000000000002
36.72151848619297 22.4482
36.744977628333636 22.4531
36.76862165890998 22.2722
36.79208400512205 22.316
36.81554794910557 22.3023
36.83901349217101 22.2202
36.862663978991606 22.1932
36.88613273667352 22.24
36.90960309738324 22.1979
36.933075062434064 22.0789
36.95673202673572 22.034000000000002
36.98020721697122 22.063000000000002
37.003684015502365 21.9608
37.027162423645365 22.019000000000002
37.050825886711465 21.9434
37.07430753063053 21.9074
37.09779078812467 21.8751
37.121275660513014 21.8684
37.144945643673694 21.7611
37.16843376245278 21.7951
37.19192350009803 21.7513
37.215414857931435 21.6778
37.239091382563885 21.6353
37.262585997426164 21.6131
37.28608223645736 21.6247
37.309763684451696 21.5439
37.33326318851098 21.538
37.356764320726555 21.499000000000002
37.380267082425526 21.5953
37.40395510942588 21.4323
37.42746114683234 21.3803
37.45096881771841 21.3679
37.474478123414166 21.375999999999998
37.49817275092816 21.3287
37.52168534303452 21.326999999999998
37.54519957395567 21.1974
37.568715445024665 21.1847
37.592416694607714 21.1821
37.61593586281424 21.1846
37.63945667518264 21.2128
37.66297913304891 21.1343
37.68668702630454 21.034000000000002
37.710212792059274 20.9554
37.733740207334854 20.9403
37.757269273470364 20.9123
37.780983832050374 20.8839
37.80451621684926 20.9061
37.82805025654007 20.8515
37.851585952464795 20.8082
37.8753071980695 20.7241
37.89884622345676 20.6535
37.92238690911902 20.6692
37.94611318753442 20.6792
37.969657210779765 20.6487
37.99320289834801 20.6646
38.016750251586465 20.5133
38.04048325513017 20.5093
38.06403395679343 20.4866
38.087586328183946 20.485
38.11114037065203 20.4485
38.13488012115898 20.5177
38.1584375229181 20.3194
38.181996599821 20.3118
38.205557353221124 20.3276
38.229303872575656 20.3606
38.2528679961576 20.289
38.27643380031219 20.1908
38.30000128639589 20.2107
38.32375459653193 20.1996
38.34732546371299 20.1661
38.37089801690786 20.0264
38.39447225747609 20.0443
38.418232380377425 20.0536
38.441810012983396 20.0501
38.46538933705673 19.9097
38.488970353960084 19.9185
38.51273731166058 19.8915
38.536321731567014 19.877
38.55990784840681 19.8758
38.58367995004091 19.8338
38.60726947812959 19.7498
38.63086070726198 19.7305
38.654453638806274 19.7824
38.678232613930824 19.6338
38.70182896773327 19.6183
38.72542702806741 19.5602
38.7490267963045 19.6137
38.77281266709232 19.5945
38.79641586862214 19.5187
38.8200207821842 19.5056
38.843627409152944 19.5377
38.86742019782782 19.4593
38.891030269149255 19.3846
38.914642058016156 19.3812
38.938255565806124 19.3261
38.96205529464307 19.3066
38.98567225787121 19.2708
39.00929094417078 19.252
39.03291135492255 19.2845
39.05671804624804 19.1902
39.080341923549106 19.1126
39.103967529460334 19.1489
39.127594865365744 19.0417
39.15140854155791 19.0765
39.17503935514948 19.1052
39.19867190290282 19.0485
39.22249083587951 18.9378
39.24612686969409 18.9502
39.269764641845306 18.9628
39.293404153722804 18.9036
39.317230110864074 18.8665
39.34087311998506 18.773
39.36451787301696 18.7946
39.388164371352595 18.7077
39.41199737518003 18.7423
39.43564738196752 18.6714
39.45929913825317 18.6721
39.48295264543308 18.6522
39.506792718520884 18.6118
39.530449745387216 18.5753
39.55410852735203 18.5132
39.57776906581474 18.5115
39.60161623079 18.5216
39.625280300200025 18.4892
39.64894613032202 18.3971
39.67261372255866 18.4485
39.6964680021016 18.3965
39.72013913657293 18.3927
39.74381203738292 18.3672
39.76748670593756 18.2621
39.79134812278169 18.3329
39.81502634488497 18.2375
39.83870633896685 18.175
39.862388106436654 18.166
39.88625668336918 18.1401
39.90994201572829 18.1233
39.933629125719285 18.0238
39.957503091207826 18.0563
39.9811937746168 18.107
40.00488623990914 18.035
40.02858048850006 17.9885
40.05246165409549 17.9345
40.076159487492085 17.9247
40.099859108448875 17.9215
40.123560518384345 17.8805
40.1474489070226 17.7949
40.171153913178564 17.7602
40.194860712584955 17.7743
40.2185693066637 17.7962
40.242464941335314 17.6992
40.26617714307655 17.703
40.289891143772046 17.6263
40.3136069448471 17.6037
40.33750984859743 17.605999999999998
40.3612292688043 17.5866
40.3849504936829 17.5667
40.40867352466194 17.5122
40.43258372059144 17.5203
40.45631038219906 17.5159
40.48003885420956 17.4504
40.503769138055105 17.3623
40.52768664931955 17.3735
40.55142057531802 17.3891
40.57515631746428 17.3197
40.599079334038514 17.2912
40.62281872700477 17.2538
40.64655994043941 17.2229
40.67030297578061 17.2311
40.69423334835778 17.1921
40.71798004609188 17.2055
40.74172857006355 17.1561
40.76547892171441 17.1715
40.7894166736039 17.1456
40.813170699248566 17.0303
40.83692655691388 16.9943
40.86068424804498 17.0857
40.884629402612525 17.0028
40.908390779366385 17.0155
40.932153993938 16.9954
40.95591904777605 16.8903
40.979871628443995 16.8937
41.003640379561936 16.882
41.02741097430883 16.8349
41.05118341413683 16.8112
41.075143444384416 16.7863
41.098919593177826 16.7771
41.1226975914255 16.7112
41.14647744058318 16.708
41.170444943946755 16.6655
41.19422851378379 16.6479
41.218013938914645 16.6096
41.24198706625173 16.5384
41.26577622087193 16.5545
41.289567235177785 16.5041
41.31336011063129 16.474
41.337340752422875 16.4203
41.361137369129835 16.4145
41.38493585138705 16.4314
41.40873620066004 16.36
41.43272438060107 16.3436
41.45652848292052 16.2586
41.48033445666918 16.2094
41.50414230331616 16.2027
41.528138045159764 16.2726
41.551949656675205 16.2266
41.575763145513235 16.1456
41.59957851314666 16.0849
41.62358184070442 16.0537
41.64740098505737 16.1021
41.6712220126409 16.0751
41.69504492493139 16.0546
41.71905586207357 16.0224
41.74288256296395 15.9633
41.766711153007456 15.9387
41.79054163368412 15.9056
41.814560204340054 15.8953
41.838394485526365 15.9398
41.86223066180303 15.8222
41.88625497706819 15.8484
41.910094962812 15.8661
41.93393684811168 15.777000000000001
41.95778063445365 15.739
41.981812625263366 15.7572
42.00566023303407 15.7098
42.029509746323676 15.6769
42.05336116662236 15.6834
42.077400857069705 15.6722
42.10125611078846 15.594000000000001
42.12511327600405 15.5885
42.14897235421036 15.5619
42.173019768448455 15.4841
42.19688269209613 15.5019
42.22074753323349 15.4882
42.24461429335818 15.4199
42.268669455600495 15.3617
42.292540073217886 15.3864
42.31641261433284 15.3907
42.34028708044675 15.3208
42.36435001496739 15.2771
42.38822835065557 15.3196
42.41210861586426 15.2629
42.4359908120986 15.2447
42.46006154323262 15.2263
42.48394762115317 15.2282
42.507835634632315 15.2424
42.531912233047436 15.1377
42.55580413732265 15.0686
42.579697981698 15.0881
42.60359376768525 15.0428
42.62767820545945 15.0103
42.65157789440821 15.0273
42.67547952952185 14.9201
42.699383112316 14.9551
42.72347541395347 14.963
42.74738291190531 14.8772
42.771292362102166 14.8701
42.795203766063516 14.8547
42.819303956130405 14.8506
42.843219287476536 14.7672
42.86713657716324 14.7495
42.89105582671383 14.7674
42.91516392983864 14.7365
42.939087119032166 14.7215
42.963012272677304 14.6748
42.98693939230129 14.687999999999999
43.01105543317513 14.6167
43.034986504731386 14.6104
43.05891954686589 14.63
43.08285456110972 14.5495
43.10697856448665 14.4712
43.130917542983475 14.5142
43.15485849820081 14.4944
43.17880143167367 14.4787
43.20293342237094 14.4289
43.226880332449 14.3477
43.25082922540554 14.3477
43.27496722682525 14.3546
43.29892010567796 14.2952
43.32287497204102 14.347999999999999
43.34683182745632 14.2425
43.370977859791836 14.2038
43.39493871351105 14.2228
43.41890156092628 14.2404
43.44286640358341 14.1708
43.46702049182749 14.1552
43.49098934522816 14.12
43.51496019852649 14.0992
43.5389330532723 14.0952
43.56309522248204 14.0378
43.58707210044314 13.9878
43.61105098451946 13.9476
43.63503187626491 13.9625
43.659202151562134 13.9647
43.68318707902681 13.9632
43.70717401884041 13.8969
43.731162972560874 13.8897
43.75534137913236 13.8156
43.779334381108384 13.8483
43.803329401683186 13.8237
43.82732644241872 13.7903
43.8515130055166 13.793
43.87551410707659 13.7311
43.89951723350145 13.7716
43.923709934595614 13.7401
43.94771713129917 13.6518
43.97172635758096 13.6601
43.99573761501002 13.6005
44.0199385169922 13.561
44.04395385732619 13.5657
44.067971233533086 13.5702
44.09199064718605 13.4947
44.11619977548961 13.4666
44.14022328470671 13.4432
44.16424883610785 13.4626
44.18827643127035 13.4312
44.21249381139513 13.4096
44.236525514814076 13.3673
44.26055926674478 13.3569
44.28459506876863 13.3696
44.3088207262813 13.3028
44.33286064928722 13.2843
44.35690262714919 13.2905
44.38094666145278 13.2558
44.4051806219871 13.2529
44.42922879003185 13.2246
44.45327901929361 13.2105
44.477331311362136 13.1747
44.501573600619416 13.0963
44.525630039221795 13.0771
44.54968854541895 13.1213
44.573937102200176 13.0507
44.5979997645541 13.0095
44.622064499300315 12.982000000000001
44.64613130803592 12.9785
44.67038823869318 12.9692
44.69445921643748 12.9892
44.718532272981385 12.9452
44.742607409926194 12.9371
44.76687274034801 12.8825
44.79095205918753 12.8644
44.81503346325094 12.8524
44.839116954143876 12.8356
44.86339071028742 12.8303
44.88747839599524 12.8115
44.91156817336837 12.7459
44.93566004401666 12.7325
44.959942251908146 12.717
44.984038330325966 12.7175
45.00813650686762 12.6291
45.03223678314731 12.6059
45.05652746888232 12.6044
45.08063196592069 12.595999999999998
45.104738567558705 12.6049
45.128847275414856 12.5753
45.15314646515866 12.4953
45.17725940679741 12.4888
45.20137445952892 12.4834
45.22568004865265 12.4858
45.24979934496396 12.4287
45.27392075725247 12.4055
45.29804428714431 12.4046
45.322358426247604 12.3709
45.346486212804315 12.3435
45.370616121861914 12.3378
45.39474815505086 12.3045
45.41907087049246 12.2485
45.4432071734666 12.2507
45.46734560548283 12.2503
45.49148616817604 12.2243
45.51581748638564 12.2227
45.5399623320197 12.1771
45.56410931325473 12.1635
45.58825843173002 12.1937
45.61259837920865 12.0867
45.636751793816 12.1361
45.66090735060093 12.0394
45.68506505120716 11.9958
45.7094136545275 12.0287
45.73357566449271 11.9982
45.75773982322992 11.9969
45.78190613238733 11.9838
45.806263418194064 11.8951
45.83043404997326 11.8586
45.85460683713677 11.9083
45.87897065658495 11.8594
45.90314777634752 11.8148
45.92732705646868 11.8282
45.9515084986045 11.812000000000001
45.97588104735473 11.8162
46.00006683541565 11.8142
46.02425479047904 11.761
46.04844491420549 11.7307
46.0728262191024 11.7435
46.09702070211635 11.7055
46.12121735879483 11.6776
46.14541619080294 11.636
46.169806278764455 11.6415
46.194009483459034 11.6005
46.21821486849841 11.5706
46.24242243555223 11.5668
46.266821333570014 11.5109
46.29103328674601 11.5013
46.31524742696538 11.5118
46.33946375590237 11.4707
46.36387149104216 11.4251
46.38809221957392 11.3893
46.41231514186606 11.4239
46.436540259597464 11.3739
46.460956858999374 11.3633
46.48518638983522 11.339
46.509418121166966 11.3098
46.533652054678114 11.3038
46.55807754555709 11.2959
46.58231590571962 11.2959
46.60655647313217 11.2444
46.630988654873654 11.2387
46.655233659129024 11.2206
46.67948087571551 11.1884
46.70373030632484 11.1775
46.72817142736393 11.1614
46.752425308428684 11.1091
46.77668140861147 11.0247
46.80093972960865 11.0477
46.82538981736788 11.0021
46.849652602470904 11.0554
46.87391761349769 11.0279
46.8981848521493 11.0137
46.9226439341274 11.0014
46.946915650573224 10.967
46.97118959976749 10.9674
46.99546578341598 10.9473
47.019933887188216 10.9011
47.04421456235744 10.902999999999999
47.06849747711879 10.8366
47.09278263318286 10.8484
47.11725978640143 10.8215
47.14154944775105 10.7942
47.165841355555656 10.7679
47.1901355115306 10.7377
47.214621741924994 10.7427
47.23892041698887 10.7158
47.26322134538975 10.6914
47.28771440635075 10.6515
47.31201986422527 10.6661
47.33632758061436 10.6098
47.360637557241866 10.6249
47.38513974410611 10.5957
47.40945426407847 10.58
47.43377104948137 10.5626
47.45809010204344 10.5381
47.48260144275502 10.5104
47.506925052572285 10.4999
47.53125093475548 10.4413
47.55557909103813 10.4687
47.58009961361992 10.4537
47.60443234110732 10.448
47.62876734791564 10.4133
47.65310463578333 10.376
47.6776343683373 10.3527
47.7019762413987 10.3476
47.72632040075572 10.3079
47.75066684815169 10.277000000000001
47.77520581885936 10.2642
47.799556865477655 10.2899
47.823910205386 10.2704
47.84826584033272 10.2322
47.87281407745551 10.2184
47.89717432569297 10.1703
47.92153687423484 10.2028
47.94609208429692 10.1456
47.97045925671401 10.1138
47.99482873471275 10.1151
48.01920052005013 10.0831
48.04376504619224 10.0722
48.068141469543484 10.0617
48.09252020552573 10.0466
48.11690125590099 10.0209
48.1414751266064 10.0025
48.16586082917454 9.999260000000001
48.19024885144316 9.95198
48.2146391951793 9.97644
48.239222439012764 9.961739999999999
48.26361744916137 9.91182
48.28801478610016 9.92179
48.31241445160131 9.90023
48.337007097209366 9.84532
48.36141144338331 9.848360000000001
48.38581812345755 9.81832
48.41022713920929 9.80332
48.434829215320704 9.79685
48.45924292604658 9.77719
48.48365897780325 9.763639999999999
48.50807737237308 9.7498
48.532688907799276 9.768989999999999
48.55711201168574 9.74061
48.581537463754074 9.7175
48.60615611725119 9.69338
48.63058628942721 9.68125
48.65501881516546 9.6631
48.6794536962573 9.63831
48.70408185970339 9.56756
48.72852147531801 9.585360000000001
48.75296345168211 9.55909
48.77740779059232 9.563310000000001
48.80204549302823 9.55725
48.82649458091802 9.53988
48.85094603676547 9.52431
48.87539986237231 9.47489
48.90004713292306 9.46186
48.92450572200832 9.50255
48.94896668628025 9.46754
48.97343002754588 9.40085
48.99808689542115 9.40162
49.02255501470614 9.39705
49.04702551642794 9.3808
49.0714984023988 9.34229
49.096164896893235 9.30223
49.120642575466796 9.26229
49.145122643748394 9.264669999999999
49.16960510355558 9.29087
49.19428125404938 9.266760000000001
49.2187685210852 9.23738
49.243258185121555 9.22562
49.26794160167084 9.18554
49.2924360839405 9.1783
49.31693296869764 9.155380000000001
49.34143225776915 9.16703
49.36612538195438 9.11792
49.39062950396021 9.13524
49.41513603578346 9.13463
49.4396449792564 9.096810000000001
49.46434784069503 9.07323
49.488861631846454 9.04712
49.513377840166804 9.038039999999999
49.537896467493745 9.00013
49.56260909589029 8.96439
49.587132585683285 8.99499
49.611658500018365 8.952919999999999
49.636186840738596 8.955060000000001
49.66090926588511 8.96537
49.685442483902584 8.922839999999999
49.70997813385706 8.87076
49.734516217597076 8.835930000000001
49.75924846937352 8.85242
49.7837914452858 8.82504
49.80833686055187 8.792119999999999
49.83288471702571 8.80027
49.85762682540054 8.82634
49.882179588965734 8.730889999999999
49.9067347993235 8.72063
49.93129245833333 8.73784
49.95604445336378 8.70688
49.98060703442832 8.66756
50.005172069746266 8.655339999999999
50.02993150438364 8.674660000000001
50.05450147301533 8.65431
50.07907390151433 8.65199
50.10364879174981 8.6164
50.12841816587289 8.60095
50.1529980044635 8.58968
50.17758031042124 8.58934
50.20216508562089 8.604289999999999
50.22694442953363 8.55004
50.25153416817468 8.55002
50.27612638170508 8.513739999999999
50.300721072005196 8.50881
50.325510416102105 8.45831
50.350110084975064 8.45539
50.37471223628208 8.44977
50.39931687190919 8.41991
50.424116246675766 8.40202
50.44872587605249 8.39495
50.47333799543065 8.39583
50.49795260670191 8.36887
50.52276204271512 8.34708
50.54738166295838 8.32599
50.57200378079314 8.30455
50.596628398116835 8.27502
50.62144792604559 8.30208
50.646077567609396 8.2953
50.670709714377715 8.26341
50.69553683636198 8.234060000000001
50.72017401885922 8.23857
50.7448137122895 8.2166
50.76945591856022 8.19775
50.79429318636823 8.17452
50.818940443716784 8.14883
50.84359021965163 8.12818
50.868242516085964 8.1216
50.893089960641895 8.11271
50.917747323549435 8.08663
50.94240721271973 8.08357
50.96706963007175 8.03876
50.99192728239342 8.03381
51.01659478166073 7.997319999999999
51.04126481489051 7.9852
51.06593738400761 7.99357
51.090805275207074 7.98212
51.11548294172845 7.9483
51.14016314993547 7.9219100000000005
51.164845901758845 7.95925
51.18972406304274 7.90688
51.21441192780656 7.892710000000001
51.23910234200271 7.880889999999999
51.2637953075678 7.83893
51.288683770237945 7.8075
51.31338186432707 7.8361600000000005
51.33808251561888 7.84063
51.362978729967345 7.7764
51.387684521509755 7.78262
51.41239287610203 7.77043
51.437103795691165 7.74645
51.46201036644977 7.7165300000000006
51.486726441956634 7.70516
51.51144508832545 7.7359800000000005
51.536166307509156 7.70662
51.56108326624387 7.67472
51.58580965706056 7.66591
51.61053862657523 7.64088
51.635270176746864 7.61522
51.66019755512065 7.601960000000001
51.68493429268881 7.5936
51.70967361681515 7.60153
51.73441552946465 7.6082600000000005
51.759353359237934 7.54525
51.7841004750961 7.53477
51.80885018539685 7.5208
51.833602492111254 7.51698
51.8585508051424 7.49119
51.883308330926425 7.50128
51.90806845906181 7.44309
51.932831191525715 7.41498
51.95779001977161 7.42042
51.98255798721516 7.37907
52.00732856494335 7.37949
52.03229530577543 7.3752
52.057071130455945 7.3387
52.081849571391054 7.34235
52.106630630568695 7.33753
52.13160794279417 7.29897
52.15639426492067 7.27738
52.18118321127822 7.288710000000001
52.205974783860896 7.2575899999999995
52.23096269971011 7.28078
52.255759551287994 7.24485
52.280559035098186 7.2279
52.30536115314103 7.235
52.33035970494467 7.20343
52.35516711807904 7.17528
52.37997717147198 7.14221
52.40478986713005 7.13935
52.42979908731974 7.1202
52.454617094216 7.100289999999999
52.47943774942214 7.07295
52.50426105495102 7.06687
52.529280976059844 7.05892
52.554109609024096 7.02681
52.57894089837482 7.04404
52.60377484613117 7.0580300000000005
52.62880550079408 7.00732
52.65364479223379 6.96683
52.67848674816189 6.96639
52.70352547971946 6.98528
52.72837279155837 6.9503699999999995
52.753222773982785 6.9538899999999995
52.778075429022984 6.9680800000000005
52.80312495150885 6.917489999999999
52.827982978797436 6.89458
52.85284368481815 6.86678
52.87770707160767 6.8874
52.90276741793998 6.867430000000001
52.92763619336701 6.819780000000001
52.952507655698504 6.81135
52.977381806977576 6.78026
53.00245301017842 6.77181
53.02733256653592 6.78424
53.052214817996074 6.7632
53.077099766608484 6.729939999999999
53.102181859804446 6.71882
53.127072229988265 6.758089999999999
53.15196530349892 6.70153
53.17686108239249 6.72275
53.20195409881522 6.711469999999999
53.22685531582556 6.7064699999999995
53.25175924441303 6.64383
53.27666588664027 6.630510000000001
53.30176985962693 6.6177
53.3266819565689 6.611330000000001
53.35159677336455 6.62355
53.376514312083096 6.61188
53.40162927507703 6.58515
53.42655228516116 6.58025
53.45147802340193 6.55496
53.47660125628886 6.53774
53.50153247842639 6.510759999999999
53.52646643496923 6.50789
53.55140312799818 6.4842
53.576537409691696 6.42848
53.60147960336152 6.44763
53.626424539786164 6.43561
53.65137222105307 6.43381
53.67651758529126 6.38912
53.70147078399681 6.35323
53.72642673383343 6.3737699999999995
53.75138543689533 6.40874
53.776541917524526 6.3771
53.801506154876755 6.32066
53.826473151763246 6.31338
53.851442910284916 6.30225
53.87661054126026 6.33323
53.9015858509782 6.27865
53.92656392866066 6.28745
53.95154477641532 6.2958
53.976723591801296 6.2674900000000004
54.00171000771266 6.234719999999999
54.02669920004598 6.20645
54.051691170915745 6.18883
54.076881204886796 6.17089
54.101878760928514 6.183
54.12687910187696 6.136880000000001
54.152077577768296 6.15379
54.1770835166946 6.1374699999999995
54.20209224691339 6.09117
54.22710377055121 6.1128
54.25231352511594 6.09845
54.27733066384342 6.06429
54.30235060239643 6.065119999999999
54.32737334290836 6.05041
54.35259441062629 5.995480000000001
54.377622783395324 6.01537
54.40265396455061 6.010759999999999
54.42768795623251 5.976319999999999
54.45292037169559 5.9778
54.477960012857906 5.96042
54.50300247099511 5.94797
54.52804774825457 5.91606
54.55329154616743 5.893330000000001
54.57834249018678 5.86088
54.6033962597977 5.85958
54.6284528571545 5.82284
54.653708072335164 5.78616
54.67877035378786 5.7994699999999995
54.70383546947698 5.77038
54.72890342156389 5.7005
54.7541700889442 5.71887
54.77924374251975 5.69905
54.8043202390049 5.65055
54.82959552413022 5.66175
54.8546777351945 5.65169
54.87976279569621 5.6108400000000005
54.90485070780914 5.64135
54.930137506558005 5.57837
54.95523115074295 5.6158
54.98032765308844 5.59716
55.005427015775496 5.53196
55.03072536339621 5.52724
55.05583047570572 5.45435
55.080938454927676 5.48236
55.10604930325027 5.43938
55.131359235107396 5.482880000000001
55.15647585066083 5.3510599999999995
55.181595341907496 5.34715
55.20671771104285 5.32867
55.232039262617704 5.29467
55.25716741665048 5.29892
55.28229845518636 5.34267
55.30743238042802 5.27905
55.33276558731939 5.2361
55.357905315183636 5.23294
55.383047936390035 5.15555
55.40819345314859 5.18458
55.433538351073295 5.131880000000001
55.458689688238415 5.1738599999999995
55.483843927614096 5.13965
55.509197623043605 5.05406
55.53435769621134 5.02564
55.55952067826466 5.0246699999999995
55.5846865714265 5.00552
55.61005202069737 5.04323
55.63522376553902 5.0127
55.66039842818645 4.9233400000000005
55.68557601087004 4.91513
55.7109532500271 4.8604199999999995
55.73613670233794 4.9356800000000005
