TT I
1.2716486653135266 7.2605699999999995
1.2939594142134223 7.035660000000001
1.3162702121660406 6.7210600000000005
1.3385810600174564 6.4279
1.3608919586137629 6.21842
1.383202908801069 6.15569
1.405513911425503 6.24067
1.4278249673332093 7.0242
1.4501343378461518 6.610130000000001
1.4724455028545926 6.25804
1.4947567236847858 5.7282
1.517068001182951 6.02137
1.5393793361953272 5.83988
1.5616907295681737 5.93732
1.5840021821477681 6.24423
1.60631369478041 5.51691
1.6286252683124185 5.30385
1.6509369035901333 5.01234
1.6732468618895553 4.88053
1.695558623192809 4.43457
1.7178704487808514 4.8333900000000005
1.7401823395001077 4.74582
1.7625012545597203 4.91255
1.7848028405262486 4.81049
1.8071218901122095 4.53886
1.8294236121921872 4.19456
1.8517427996910911 4.30664
1.8740620574440425 4.52295
1.8963639900671978 4.31717
1.9186833908139995 4.78207
1.9409854680117449 4.98652
1.9633050151394713 5.13169
1.9856246367570705 5.08091
2.0079269371922672 5.2003699999999995
2.03024671027244 4.37818
2.0525491637446027 4.52665
2.074869091674931 4.7862599999999995
2.097171701569106 4.84058
2.1194917877373847 4.85966
2.141811954326636 5.17437
2.164114805233074 4.794580000000001
2.186435135143035 6.023630000000001
2.208738150935709 14.2271
2.231058647554722 28.1311
2.2533792288321184 22.2047
2.275682498336085 10.0484
2.298003251406138 6.571280000000001
2.3203066942619714 5.44848
2.3426276225136022 5.29146
2.3649486396617507 5.898969999999999
2.387252348930071 6.58454
2.4095735463442893 6.92811
2.4318774374315884 6.75485
2.4541988185014043 6.869330000000001
2.476502894794693 7.4786399999999995
2.498824462909887 7.74032
2.521146125856138 7.5582199999999995
2.5434504863470337 8.28302
2.5657723414244717 8.21676
2.588076895590662 8.72692
2.610398946189713 8.9539
2.6327210958598384 8.25726
2.6550259469304716 8.12711
2.6773482972090137 8.58483
2.6996533504259 8.68653
2.7219759047039602 8.267489999999999
2.744298562293959 8.11774
2.7666039251246595 8.364460000000001
2.7889267918020164 8.35171
2.8112323652516555 8.558019999999999
2.833555444408179 8.72451
2.8558786311183852 8.13805
2.8781845268938557 9.31899
2.9005079311721484 9.359739999999999
2.9228140460410397 8.98254
2.9451376712799635 9.03208
2.967444008632326 9.53994
2.9897678582247247 10.0549
3.0120918213106695 10.3974
3.0343984987899373 11.1008
3.0567226913198637 11.1647
3.079029599759726 11.7214
3.101354025127254 12.3371
3.123678568232338 13.7427
3.145985829517914 13.0025
3.16831061055229 13.8552
3.1906181112775593 15.0701
3.212943133635653 15.0843
3.2352682779763207 15.2806
3.2575761442691227 15.5454
3.2799015350264273 15.8749
3.302209649240067 16.0201
3.3245352898092655 17.0439
3.3468436553365257 17.6413
3.369169549113219 17.9246
3.3914955708171384 18.6541
3.413804319727358 18.7939
3.4361305997334863 19.0802
3.4584396084414553 20.0221
3.4807661501462652 20.5636
3.503092824025881 20.5154
3.5254022288463154 21.249000000000002
3.5477291695206588 21.4796
3.5700388426251948 22.3899
3.5923660534916446 23.991
3.6146934007816114 38.5131
3.637003482731501 86.7716
3.6593311053109985 96.9616
3.681641464033634 56.2432
3.7039693653009733 30.7728
3.726297407241705 25.9177
3.7486081875460804 26.2453
3.7709365132734978 26.0754
3.793247578841633 26.0882
3.8155761917550093 26.7746
3.8378875459837216 27.2489
3.8602164494827234 27.3552
3.882545499606844 28.0026
3.9048572932539183 28.5406
3.9271866390645718 28.7827
3.9494987298666713 29.7116
3.971828374764527 30.116999999999997
3.9941581705403255 30.42
4.016470713506008 31.0362
4.038800813471445 31.8174
4.061113662089144 32.1145
4.0834440696459176 33.2547
4.105774632334751 33.9373
4.128087945865126 34.7232
4.150418821249301 35.3871
4.172732448931298 36.5714
4.195063640413578 38.0991
4.2173775856475215 42.4077
4.239709096631102 73.8394
4.262040768704612 233.892
4.284355196706267 312.747
4.306687193387355 205.706
4.329001947444346 80.92699999999999
4.35133427213731 47.997
4.373666762177566 44.4043
4.395982011761091 44.0727
4.418314834921175 45.6883
4.44063041906622 53.2201
4.4629635787515625 63.9328
4.4852969080429785 63.7652
4.5076130004776225 53.6247
4.529946671403969 49.463
4.552263106909177 49.427
4.574597122877047 50.5499
4.596931312711224 51.3054
4.619248269273446 52.5854
4.6415828092605835 53.3945
4.663900117405352 54.4039
4.686235010953232 56.2087
4.708552674085913 57.3361
4.730887924602802 58.3264
4.753223354952695 60.0272
4.775541557023902 61.9313
4.797877349456786 62.9762
4.820195915032126 65.0457
4.842532072957498 66.1
4.864868414979744 67.908
4.88718753227192 69.9365
4.909524244902505 72.0853
4.931843734218147 73.735
4.954180820867835 76.3278
4.976518095879839 78.8661
4.998838149695359 81.153
5.021175803844231 84.3562
5.043496238205739 87.6549
5.065834274903528 91.5066
5.088172504230693 95.5494
5.1104935158799565 101.212
5.132832132875765 121.37799999999999
5.155153533596801 161.091
5.1774925416746225 188.90400000000002
5.199814334878411 277.932
5.2221537374521505 743.633
5.244493338631803 2389.01
5.266815727034316 7542.71
5.289155727832427 13678.4
5.311478517248165 9184.09
5.333818921080011 2902.06
5.356159527788849 535.742
5.3784829252032536 173.733
5.400823940070432 137.89600000000002
5.423147747031976 124.193
5.445489173474152 115.421
5.467830807066149 110.73700000000001
5.490155234831516 107.156
5.512497285125229 103.294
5.534822130975162 102.27600000000001
5.557164601388673 100.184
5.579489868738879 97.35700000000001
5.601832762690846 96.5162
5.6241758697774475 95.7582
5.646501775867269 94.5664
5.668845311622074 93.3694
5.691171647754637 92.6761
5.713515615597765 91.3083
5.735859800852677 90.2205
5.758186788542988 88.9699
5.780531411018185 89.5331
5.802858837297399 88.8906
5.825203900414495 89.1468
5.8475491852224 89.1171
5.869877275883075 89.4268
5.892223006467101 89.7854
5.914551544266608 90.7691
5.936897724049891 93.1676
5.959244129804903 96.6073
5.981573344815301 108.35600000000001
6.0039202049061 171.71
6.026249875609095 361.269
6.04859719346037 802.3639999999999
6.070927323278297 2142.54
6.093275102315365 4607.93
6.115623113320588 5467.04
6.137953938319995 3192.48
6.160302415650845 924.9860000000001
6.182633708324452 216.45
6.2049826554078376 107.459
6.227331838745022 88.8431
6.249663839443684 82.4807
6.27201349767565 80.6665
6.294345974611799 87.001
6.316696111167083 98.0313
6.339046488263839 92.9994
6.361379686074702 78.6443
6.383730546639482 70.7461
6.406064229255215 67.831
6.428415576718203 67.3048
6.450749747566656 66.3722
6.47310158535871 65.2588
6.495453669698332 64.3682
6.517788579421056 63.7636
6.540141159237969 62.7147
6.562476565766648 62.2686
6.5848296444934045 61.878
6.607182974060425 61.5647
6.6295191323281015 61.7452
6.651872965955752 65.3306
6.6742096296068985 90.9134
6.6965639707294615 136.74200000000002
6.71891856698715 136.382
6.741255995248479 93.6523
6.763611104154477 67.6359
6.785949046381137 59.901
6.808304671371482 57.7651
6.8306605557940046 57.4566
6.852999275508618 56.9171
6.875355681171544 56.6081
6.897694923437771 56.2918
6.92005185377892 56.4506
6.9423916220322655 56.0878
6.964749080490181 54.9317
6.987106804399774 54.6079
7.009447368180821 54.9426
7.031805625367033 54.5447
7.054146723727803 54.776
7.076505517631004 54.7475
7.098864581288365 54.898999999999994
7.121206488070854 54.472
7.143566093607822 54.1586
7.165908543567245 54.6103
7.188268694426048 54.6729
7.2106291193438095 54.7797
7.232972390625943 56.2653
7.255333366030969 69.2157
7.277677189091925 123.896
7.300038718428332 169.03799999999998
7.322400526130865 141.808
7.344745183422596 87.85700000000001
7.367107550224791 61.0669
7.389452767901992 55.8917
7.411815697249891 54.7558
7.434161478756298 53.59
7.456524974096713 53.2603
7.478888753837185 53.7007
7.501235387657368 53.9206
7.523599738562711 54.2187
7.545946944825532 54.2392
7.568311870344528 54.4562
7.5906770845765665 54.5507
7.613025156078678 56.0271
7.635390950099687 57.2317
7.657739602662809 56.3781
7.680105979923558 55.1416
7.702472650212829 55.3911
7.724822180948224 55.1842
7.747189439655568 55.2883
7.769539560075357 55.1165
7.791907410653562 55.7259
7.81425812420825 56.0672
7.836626570110925 55.9873
7.858995315087906 56.7068
7.881346924933401 56.8989
7.903716270417482 57.233000000000004
7.926068482028405 57.5267
7.948438431475253 58.2836
7.9708086843180235 58.8952
7.993161805171116 59.5047
8.015532667162402 59.5513
8.037886398416653 60.6735
8.060257873014221 60.857
8.082629655331942 61.816
8.104984308787587 62.7817
8.127356708900503 66.059
8.149711981398308 71.9155
8.172085002766314 73.7982
8.194458336181368 70.7229
8.216814543847752 68.3206
8.23918850371002 68.3941
8.26154533906492 68.9137
8.283919928836452 70.3749
8.306277395339652 71.1301
8.328652618483376 72.4375
8.351028159736202 74.2635
8.373386579575245 76.3831
8.395762759396959 78.2443
8.418121819038275 82.8245
8.440498640894003 95.6557
8.462875785192262 108.78200000000001
8.485235811156207 116.14
8.507613602688501 142.808
8.529974277114228 213.903
8.552352719347912 331.67400000000004
8.574731488360351 581.4590000000001
8.59709314210385 1146.19
8.619472567021075 1899.64
8.64183487789147 2289.86
8.664214962183097 1813.05
8.686577933647762 929.199
8.708958680784317 354.529
8.731339760774953 159.662
8.753703729764451 107.781
8.77608547780821 96.1274
8.798450116065078 93.0906
8.820832535634787 90.4283
8.843215292401656 88.9636
8.865580941199045 87.8307
8.887964374703538 87.2024
8.910330701447199 88.0617
8.932714815164482 90.4296
8.955099270424924 89.488
8.977466620733543 86.3409
8.999851761421976 83.8934
9.022219798361645 82.37899999999999
9.04460562795561 81.8729
9.066991803441677 81.3965
9.089360876979615 81.0704
9.111747746589993 81.1283
9.13411751544971 80.173
9.156505082664324 80.5268
9.178875550323522 80.5541
9.20126381862328 80.8479
9.223652438908596 81.375
9.246023961427412 81.1359
9.26841328802173 80.5311
9.290785518039224 80.4398
9.313175554425882 81.023
9.335565947154315 80.672
9.357939245086508 81.2741
9.380330352834827 81.4324
9.40270436697103 81.762
9.425096193225055 81.5741
9.447488380180165 82.2786
9.469863475295412 82.8273
9.492256385987508 82.9974
9.514632206018318 83.2352
9.537025843935714 83.7887
9.559402392368193 84.9475
9.581796761000229 85.5363
9.604191496441521 86.5159
9.626569144158516 90.0894
9.648964615551032 94.4366
9.671343000390081 95.8971
9.693739211225699 94.1522
9.716135793237463 91.4535
9.738515290448102 91.0565
9.760912617143402 91.7085
9.783292860202891 92.8869
9.805690935076182 94.5482
9.828089385495742 95.5568
9.850470754023561 97.9175
9.872869957865444 105.31700000000001
9.89525208097539 120.238
9.917652041736662 131.461
9.940052382417589 130.481
9.962435644102392 131.106
9.984836746950979 155.686
10.007220771957746 209.27700000000002
10.029622640473708 299.547
10.052007432299963 471.42
10.074410069984072 771.429
10.096813093716005 1275.25
10.119199042482517 1800.32
10.141602840636468 1991.85
10.163989564971628 1532.37
10.186394141051062 842.596
10.208799107559706 361.07199999999995
10.231187001965623 175.05700000000002
10.253592751657669 121.821
10.275981430388155 110.385
10.298387966769793 110.28
10.320794897965431 112.51299999999999
10.343184759907361 111.383
10.36559248305461 106.345
10.387983138083852 101.665
10.410391656691655 102.34700000000001
10.432800574501677 110.26299999999999
10.455192425893369 123.522
10.47760214443012 147.881
10.499994797678786 191.014
10.522405320453982 272.474
10.54479877906917 406.485
10.567210109595656 524.678
10.5896218454736 587.096
10.612016518879773 497.98400000000004
10.634429067781074 345.184
10.656824555333241 195.43
10.679237920773568 121.70200000000001
10.701651695961992 94.6228
10.724048411481384 87.4049
10.746463008485165 84.6739
10.768860546937125 83.0549
10.791275969274796 81.5462
10.81369180576079 80.5707
10.836090585366925 79.5651
10.858507252467449 78.227
10.88090686379991 77.4884
10.903324365036394 76.6984
10.925724811614439 76.9883
10.948143150509463 78.2173
10.970561909719066 77.4306
10.992963615930844 75.3702
11.015383218085756 73.7345
11.037785768347074 72.3815
11.06020621697282 71.4038
11.082627090322113 70.7196
11.105030913430326 70.3979
11.12745263854165 71.3022
11.149857314510728 74.9057
11.172279894912576 80.5249
11.194702904450653 81.2547
11.217108866490921 76.851
11.239532736615194 72.7761
11.26193956033512 70.4933
11.284364294577085 68.8118
11.306789462371718 67.3504
11.329197585398376 66.237
11.351623622610898 65.5386
11.37403261614354 64.7963
11.396459526308487 64.8565
11.418869393879497 64.2447
11.441297180532617 63.9354
11.463725406927658 63.5447
11.486136592353875 63.748000000000005
11.508565700543707 64.4042
11.530977768845315 65.9119
11.553407762368774 66.9854
11.575838200059769 66.4648
11.598251599479612 64.2142
11.620682927815501 63.1319
11.64309721895548 62.591
11.665529441478206 62.2268
11.687962112597958 61.8747
11.710377748130886 61.8608
11.732811318753434 61.7589
11.755227854859067 61.9628
11.777662328529495 61.52
11.800079768750786 61.3542
11.822515149015453 61.1781
11.844950984084935 61.3584
11.867369787303163 61.1222
11.889806534289491 61.1779
11.912226250487029 61.5476
11.934663912939751 61.8012
11.9571020346363 61.5994
11.979523127133968 61.6245
12.001962169624331 62.2689
12.024384183972964 62.6659
12.046824150809913 65.3406
12.069264581333726 69.47
12.091687985297767 74.9596
12.11412934550045 83.3351
12.136553680195208 97.9078
12.158995973632788 122.97200000000001
12.181438735204349 154.719
12.20386447284199 188.68200000000002
12.226308172985636 207.304
12.24873485024193 197.597
12.271179492516982 161.185
12.293607112949127 122.586
12.316052700916226 94.9065
12.338498763250042 76.9076
12.360927805303868 69.3367
12.383374818673879 65.1834
12.405804812803074 63.3726
12.428252780773262 63.1915
12.45070122756722 62.9509
12.473132656675375 63.0422
12.49558206341869 63.266999999999996
12.518014453510101 63.0895
12.540464823770117 63.3883
12.562915677315177 63.5222
12.58534951575545 64.3356
12.607801338171472 66.4227
12.630236146511358 71.8891
12.652688941369085 76.0741
12.675124723177234 76.3241
12.697578494048786 72.6623
12.720032754458185 68.2949
12.742470003354093 66.6995
12.764925245138771 66.4028
12.787363476431278 66.8538
12.809819703166806 66.7089
12.83227642391173 67.4869
12.854716135692716 68.1852
12.877173846755147 69.3509
12.899614549869717 69.2672
12.9220732548287 70.565
12.94453245827299 70.7544
12.966974655289818 71.6491
12.989434858002571 72.3355
13.011878055298721 73.0912
13.034339260862497 73.9819
13.056800969391883 75.1512
13.079245674017244 77.1886
13.101708390774869 78.5573
13.12415410463411 83.4806
13.146617833206086 93.1795
13.169064559883248 103.948
13.191529303857127 117.645
13.213994557076367 138.786
13.236442809902437 175.097
13.258909083908291 233.205
13.28135835851934 306.002
13.30382565690295 380.162
13.326293469022952 432.61199999999997
13.348744283242008 424.06
13.371213125129904 344.135
13.39366497011003 245.59400000000002
13.416134845360597 166.47400000000002
13.438605238843131 118.53200000000001
13.46105863690397 101.141
13.483530069144786 99.51
13.505984506951902 104.06
13.528456981549432 112.523
13.550929978879088 126.736
13.573385983253365 150.078
13.595860028340867 190.245
13.618317081455832 248.541
13.64079217790333 311.909
13.663250283359057 359.60699999999997
13.685726434770173 374.56300000000005
13.708203115221277 327.68699999999995
13.730662806148091 249.899
13.75314054697177 177.049
13.775601299246777 123.649
13.798080104050406 94.7921
13.820559442405358 83.5882
13.843021793671388 80.0109
13.865502201420897 78.3653
13.887965623051947 77.7847
13.910447103807167 76.8611
13.932929122629764 75.6505
13.955394156785959 75.1287
13.977877254034569 74.3943
14.000343367582113 73.3624
14.022827546871707 72.6029
14.045294743423524 71.7995
14.06778000837062 71.289
14.090265817715476 71.3802
14.112734645763819 70.9605
14.13522154619454 70.8975
14.157691466286913 70.8621
14.180179461423874 70.6674
14.202668005486178 69.91
14.22513957064374 69.4224
14.247629214846473 69.1366
14.270101881097517 68.8916
14.29259262906496 69.3426
14.315083930490205 69.8893
14.337558255389705 70.2694
14.360050666019726 69.9415
14.382526101071944 68.7197
14.405019624534942 67.7848
14.427513705993134 67.5096
14.449990813291825 67.347
14.47248601302899 67.1989
14.49496423954951 67.2891
14.517460561197822 67.5253
14.539939910570322 67.1629
14.562437357763558 67.5504
14.58493536931253 68.5024
14.607416409993311 69.4896
14.62991555254159 70.3365
14.652397725157423 70.0648
14.674898002342799 69.3961
14.697398848433282 68.7152
14.719882725991326 69.3777
14.74238471217934 69.8846
14.764869730765593 72.374
14.787372860692983 75.1242
14.809876564079925 78.9054
14.83236330125751 84.3745
14.854868153850365 92.4113
14.877356041159485 106.31299999999999
14.899862046604186 125.15100000000001
14.922351087688757 152.144
14.944858249632887 184.90900000000002
14.967365991421232 212.956
14.989856770231246 228.636
15.012365673994204 217.074
15.03485761569738 184.69
15.05736768508665 145.639
15.07987833888692 110.70100000000001
15.102372032001655 87.8908
15.124883856909658 75.2363
15.14737872204565 70.8294
15.169891721717274 69.2695
15.192405310371893 68.936
15.214901940621196 69.6366
15.237416709527137 69.4604
15.259914520936249 69.5585
15.282430473753607 68.7342
15.304947020131227 67.4383
15.327446610371178 66.5837
15.349964346154254 65.8238
15.372465126703139 65.5107
15.394984055556009 65.2558
15.417486030076159 65.0197
15.44000615566487 64.7681
15.462526881230803 64.579
15.485030653812652 65.0179
15.507552581617434 65.0322
15.530057557334603 64.7286
15.55258069104857 64.7402
15.575104429329837 64.7294
15.597611216864632 64.4617
15.620136166564563 64.4852
15.6426441664095 64.7361
15.665170331202765 66.4099
15.687697105158826 69.0703
15.710206930593545 71.9939
15.732734925158933 76.1026
15.755245972089478 81.8589
15.77777519094324 90.8597
15.800287463046663 103.9
15.822817909869592 124.48899999999999
15.84534897229804 149.013
15.867863089299354 175.167
15.890395385222186 192.08599999999998
15.912910736597423 196.878
15.935444269699861 181.81
15.957978423016485 150.808
15.980495633101265 119.51299999999999
16.003031029129367 94.0429
16.02554948280019 75.77
16.048086125229432 66.8631
16.070623392487107 64.0738
16.09314371869582 63.1499
16.11568223789321 62.5647
16.13820381691126 61.605
16.160743591742527 60.1926
16.183283996022084 59.3464
16.205807461423195 58.2733
16.228349126881973 57.8825
16.25087385432698 57.7165
16.27341678466365 57.2945
16.29594277784926 57.2321
16.31848697676433 57.5283
16.341031811604868 57.6704
16.36355971058487 58.071999999999996
16.3861058195587 57.7172
16.40863499352978 56.6335
16.431182380342005 55.6008
16.453730407713202 54.9951
16.476261501364792 54.6957
16.498810812136167 54.3471
16.52134319004079 54.568999999999996
16.54389378792203 54.3802
16.566445031001553 54.2045
16.588979342490088 53.9384
16.61153187824822 53.8755
16.634067483263312 53.8792
16.656621315414416 53.843
16.679175797408888 53.5442
16.701713349928728 53.6389
16.72426913389191 53.754
16.74680798922351 53.7265
16.76936507887444 53.8642
16.791905240734874 53.8605
16.814463639794468 53.7245
16.837022695210294 53.6567
16.859564824093756 54.1153
16.882125194503903 54.9708
16.904668639217885 55.4567
16.927230328348003 55.5664
16.949792678493612 55.8629
16.972338104193863 55.3044
16.994901778652235 54.5591
17.017448529496576 54.4171
17.040013531998152 54.5932
17.06257920018044 54.9761
17.0851279459922 55.4154
17.107694947817667 56.1089
17.130245028099072 57.0643
17.15281336730298 58.3169
17.17536478578733 59.9205
17.19793446610687 62.2757
17.220504818648422 65.2526
17.243058251703697 68.8334
17.265629950971032 73.7588
17.288184731571736 78.676
17.310757781306908 82.6279
17.33333150794385 82.7215
17.355888317140174 80.2871
17.37846339986244 75.2387
17.401021565958885 69.0776
17.42359800851343 63.9828
17.44617513265564 60.6773
17.468735341390783 58.768
17.491261035594565 57.8647
17.51396340099364 57.8306
17.536490463869136 57.7632
17.559018209820174 57.9724
17.58154663977963 58.0747
17.604251766089718 57.9961
17.626781572227713 58.3979
17.64931206518155 58.6079
17.671843245885103 59.0779
17.69455114821572 59.3183
17.717083712612634 59.5137
17.739616967569667 59.59
17.762150914021706 59.8056
17.78486160749854 59.8811
17.807396945166804 60.3272
17.829932977143503 60.961000000000006
17.85246970436452 62.0956
17.875183204129467 63.722
17.897721330097664 65.597
17.920260154126645 68.0234
17.942799677153296 70.6709
17.9655159983646 74.3797
17.988056927677544 79.8084
18.010598558807683 87.5586
18.033140892692916 98.3054
18.05586005052525 110.56299999999999
18.07840379824407 123.37299999999999
18.10094825154059 132.487
18.12366954819864 137.796
18.146215420998306 135.52
18.16876200220057 124.931
18.191309292745153 111.552
18.214033452627167 99.1976
18.236582170236648 88.2374
18.259131600016456 83.8948
18.281681742907335 84.5654
18.304408781233683 89.4649
18.32696035875955 95.3583
18.349512652227624 101.119
18.372065662579683 105.052
18.394795594587553 105.931
18.41735004715306 100.854
18.43990521943684 93.8275
18.46246111238171 84.3228
18.485193953325208 75.26899999999999
18.507751296070428 68.3947
18.530309362314178 64.6037
18.552868153000343 62.3816
18.57560391815056 61.0594
18.59816416623245 60.5817
18.620725141597372 60.0046
18.643286845190268 59.7765
18.666025549835414 59.3453
18.688588718427933 58.6906
18.711152618092243 58.5128
18.73389353884365 58.2524
18.75645890921984 57.8533
18.77902501351406 57.5178
18.801591852673102 57.3547
18.824335739722738 56.8685
18.846904057212626 56.748000000000005
18.8694731124168 56.5786
18.89204290628315 56.7888
18.914789774966803 56.4164
18.937361054791623 56.2379
18.959933076131318 55.931000000000004
18.982505839934877 55.867
19.00525570560582 55.9891
19.027829963004184 55.8427
19.05040496572238 55.7361
19.072980714710468 55.8152
19.095733592739563 55.7524
19.11831084296757 55.9065
19.140888842324735 56.4537
19.16346759176222 56.7189
19.18622349753803 57.0498
19.208803755869358 57.9745
19.231384767143577 59.2971
19.253966532312948 60.8785
19.276725481241822 62.8761
19.29930876296784 65.672
19.3218928014549 68.9925
19.34465404436217 72.0234
19.36723960516257 74.91
19.389825925592426 75.1658
19.412413006605938 73.9756
19.43517731967805 70.0909
19.457765930683355 66.0369
19.48035530514408 61.4357
19.50294544401556 57.8543
19.525712842708348 55.4018
19.54830451925909 53.9673
19.570896963095727 53.0088
19.593490175174704 52.9817
19.616260674962184 52.8261
19.638855432416964 52.7134
19.661450960992624 52.5768
19.68404726164677 52.4425
19.706820878021247 52.0529
19.729418731756834 52.4016
19.752017360452857 52.128
19.77461676506804 52.2027
19.797393513540218 52.2858
19.819994478951667 52.525
19.84259622316767 52.9389
19.8651987471481 53.4105
19.887978643247177 53.8195
19.91058273574792 54.1172
19.933187610901943 54.6734
19.955969879466828 56.026
19.97857632894404 57.4149
20.00118356396599 59.3059
20.023791585494575 61.4034
20.046577028914875 64.2915
20.069186632506966 66.843
20.091797025500632 68.3783
20.114408208858933 68.7223
20.137196842715273 67.8849
20.159809615886765 66.2078
20.18242318232135 63.6895
20.20503754298326 62.058
20.227829382875154 61.1801
20.250445341109344 61.2464
20.27306209647285 62.2416
20.29567964993108 63.7131
20.31847471147704 64.2952
20.34109387027612 65.1392
20.363713830075454 64.6051
20.386334591841646 62.6168
20.409132890679302 59.8147
20.431755265564437 57.03
20.454378445325528 54.0873
20.477002430930366 52.328
20.499803982716553 51.3763
20.522429589228004 50.5647
20.54505600449589 50.3023
20.567683229489194 49.9785
20.590488049900088 49.461000000000006
20.61311690359731 49.3902
20.63574656993626 49.0726
20.658553853717297 48.6717
20.681185154618298 48.5918
20.703817271080066 48.6328
20.72645020407368 48.3139
20.749260783967177 48.1829
20.771895359337133 48.0431
20.794530754161617 47.9835
20.817166969412938 48.0011
20.83998086114876 47.8466
20.86261872660049 47.7903
20.885257415405402 47.7173
20.90789692853701 47.6396
20.930714147864748 47.6808
20.953355319030678 47.5234
20.97599731745334 47.6626
20.99864014410749 47.548
21.021460706796564 47.5363
21.044105199328826 47.8187
21.06675052302631 47.9975
21.089396678865015 48.248999999999995
21.112220600704806 48.5446
21.134868430275347 48.9426
21.15751709492456 49.2414
21.180166595629693 49.4815
21.202993892429635 49.982
21.22564507473034 50.4613
21.24829709602816 50.5228
21.27112693608965 50.3088
21.293780644891275 50.3034
21.316435195634053 49.7103
21.339090589297417 48.9025
21.361923832041875 48.5209
21.384580921090404 47.7842
21.407238856007325 47.2438
21.429897637773326 47.4664
21.45273429906592 47.3984
21.475394784108598 47.3926
21.498056118951983 47.2888
21.520718304578022 47.2987
21.543558400304388 47.5429
21.566222297108816 47.7251
21.58888704765135 47.958999999999996
21.61155265291521 47.9161
21.63439619898156 48.5862
21.657063523335786 48.6177
21.67973170537063 48.9956
21.7024007460706 49.537
21.72524775840385 50.265
21.747918526116475 51.2762
21.770590155457388 52.5797
21.79326264741238 54.2864
21.816113141960237 56.169
21.838787368860547 58.1857
21.861462461341976 60.325
21.884315579735777 62.2654
21.90699241312273 63.494
21.92967011506078 63.3884
21.95234868653799 62.8732
21.9752053151131 61.762
21.997885635446785 59.4411
22.020566828293532 58.1357
22.04324889464272 56.7195
22.066109049404666 55.4909
22.088792872571794 55.1967
22.111477572219204 55.3167
22.1341631493376 55.0992
22.157026846313123 54.8995
22.179714188221507 54.1299
22.202402410582668 53.0364
22.22509151438863 51.7267
22.24795876962584 50.4865
22.270649646204486 49.498000000000005
22.293341407213727 48.9532
22.316034053646906 48.4498
22.338904883215342 48.3192
22.36159931041458 48.1466
22.38429462602756 47.9886
22.40699083104897 47.8727
22.429865251039757 48.0752
22.452563244831367 48.1956
22.47526213102522 48.0142
22.49813925616515 47.8724
22.520839937143307 47.6265
22.543541513520587 47.66
22.56624398629403 47.6007
22.589124730075895 47.603
22.611829005656723 47.7332
22.63453418063466 47.7124
22.657240256008077 47.8577
22.680124634582935 47.7337
22.70283252079775 48.1238
22.725541310413075 48.4914
22.74825100442868 48.5457
22.771139033969575 49.0342
22.79385054687155 49.2958
22.81656296718292 49.9779
22.83927629590484 51.034
22.862167992606945 51.8971
22.88488314827121 53.1508
22.907599215359284 54.2155
22.93031619487366 55.6469
22.953211574954405 56.3455
22.975930389478226 56.8936
22.998650119445763 57.0366
23.02137076586092 56.0635
23.044269845560063 54.8298
23.06699233506288 53.3564
23.089715744034912 51.4698
23.112617610931565 49.976000000000006
23.135342869061212 48.9585
23.158069049684816 48.2967
23.1807961538087 47.9264
23.20370174880544 47.848
23.226430710184808 47.8759
23.249160598093425 47.842
23.271891413539002 47.9314
23.294800752937697 47.813
23.31753343374794 47.9283
23.340267045128353 47.9989
23.36300158808808 48.2528
23.38591468821339 48.5624
23.408651104658304 48.8969
23.431388455719986 49.6198
23.454126742409 50.5102
23.4770436196085 51.7
23.499783787914662 53.2992
23.522524894889884 54.6055
23.54526694154616 55.547
23.56818761219047 56.4335
23.59093154860734 56.8435
23.613676427751283 56.9973
23.636422250635754 56.0546
23.659346731118656 54.4518
23.68209445191868 52.4961
23.704843119509587 50.4026
23.72759273490623 48.6712
23.750521041644767 47.346000000000004
23.77327256312355 46.2978
23.796025035462787 45.7786
23.818956224555475 45.3187
23.841710609113413 45.0915
23.86446594758979 44.9112
23.887222241002014 44.7294
23.910157285144578 44.4095
23.932915498962537 44.3755
23.955674670778713 44.367
23.978434801611975 44.0623
24.001373717286125 43.8743
24.024135776723917 43.6641
24.046898798245582 43.7654
24.06966278287146 43.5941
24.092605586582614 43.2624
24.115371508023642 43.2988
24.1381383956401 43.2779
24.16090625045381 43.2009
24.183852958731244 43.0216
24.206622758582608 42.9239
24.229393528706886 42.7151
24.252165270127392 42.8891
24.27511589952438 42.7886
24.297889594216997 42.6208
24.32066426328598 42.4712
24.34343990775613 42.3989
24.36639447485003 42.2269
24.38917208083877 42.2632
24.41195066531332 42.2286
24.43490819850244 42.3653
24.457688750692377 42.1215
24.48047028445616 42.1809
24.503252800821233 42.3541
24.526214300784112 42.3523
24.548998793132213 42.3405
24.57178427117417 42.2454
24.59457073593893 42.2595
24.617536219319863 42.083
24.64032466834748 42.0167
24.663114107195035 41.8701
24.685904536893013 41.7884
24.708874020360852 41.6951
24.731666442613744 41.7255
24.754459858818787 41.7025
24.777254270007962 41.742
24.80022777025625 41.5176
24.82302418230472 41.4576
24.845821592443674 41.4673
24.86862000170663 41.3311
24.891597535453727 41.1483
24.914397953892728 41.5208
24.93719937456671 41.4756
24.96000179851076 41.4642
24.98298338249997 41.5985
25.00578782394922 41.7765
25.028593271784167 42.0335
25.05157790644186 42.3647
25.07438537804115 42.5396
25.097193859145293 42.8554
25.120003350792075 43.1679
25.142992065061257 43.3847
25.165803588823465 43.5768
25.18861612625217 43.6692
25.211429678386736 43.7376
25.234422489079968 44.0235
25.257238081693636 44.0202
25.280054692141732 44.2241
25.3028723214652 44.2007
25.325869245420463 44.3185
25.348688923599397 44.2915
25.371509623787006 44.1772
25.394331347025812 43.7146
25.41733240110666 43.2158
25.440156181590016 42.4774
25.46298098826268 42.067
25.48580682216873 41.5761
25.50881202326435 41.1162
25.53163992281684 40.6074
25.55446885274561 40.3206
25.577298814096377 40.2604
25.600308179121807 40.0125
25.623140214533745 40.2859
25.64597328451537 40.0688
25.66898578564376 39.9315
25.691820936010206 40.0041
25.714657124097695 39.7276
25.737494350954734 39.7267
25.760511045684957 39.7228
25.783350361364224 39.6812
25.806190718969255 39.7436
25.82903211955018 39.9061
25.852053024868923 39.8765
25.874896522722523 39.7697
25.897741066713106 39.5504
25.920586657892454 39.855
25.943611790812668 39.9975
25.966459487728237 40.2192
25.989308234998564 40.3204
26.01215803367705 40.5548
26.03518741123814 40.7989
26.05803932412957 40.7441
26.080892291600094 40.8802
26.10374631470478 40.9516
26.12677995397268 40.9828
26.14963609978026 40.9653
26.172493304397875 40.5038
26.19535156888223 40.4497
26.218389486949604 39.98
26.241249882640123 39.7765
26.26411134137826 39.4773
26.28715248187403 39.4453
26.31001607820869 39.3113
26.3328807407756 39.1013
26.35574647063438 39.314
26.37879191991473 39.2387
26.401659795896734 39.324
26.424528742360263 39.4619
26.447398760366614 39.6329
26.470448535598294 39.6301
26.49332070826805 39.7831
26.516193955675355 40.3134
26.53906827888316 40.5312
26.562122397260108 40.8498
26.584998883685063 41.1406
26.607876449110325 41.3514
26.63075509460056 41.3224
26.65381357334404 41.5783
26.67669439061878 41.4383
26.699576291163382 41.3081
26.722459276044212 41.2299
26.745522132402975 40.9192
26.768407297649354 40.6266
26.791293550442003 40.3644
26.814180891848974 40.1556
26.837248143099337 39.8043
26.860137673466657 39.6669
26.88302829566349 39.4605
26.90592001075963 39.4317
26.92899167420566 39.1597
26.951885586870763 38.6723
26.974780595655517 38.7036
26.99785558178161 38.4548
27.020752794605112 38.3984
27.043651106772522 38.1796
27.06655051935668 38.1075
27.089629948036183 37.9954
27.112531573292053 38.0915
27.135434302194138 38.0867
27.158338135817015 37.7869
27.181422024430987 37.878
27.204328079372566 37.7976
27.22723524226965 37.7818
27.250143514198573 37.8849
27.273231880156334 37.9566
27.296142382065014 37.7164
27.319053996245536 37.7313
27.341966723775965 37.7152
27.365059584515222 37.7515
27.38797455070062 37.7674
27.410890633481237 37.6691
27.433807833936918 37.5831
27.456905206923906 37.8323
27.47982465472398 37.7881
27.502745223449743 37.9096
27.525666914182825 37.9811
27.548768816912457 37.9815
27.571692763693633 37.8248
27.59461783573812 37.7001
27.617723149491244 37.4702
27.640650484125285 37.330999999999996
27.66357894728264 37.4663
27.686508540048052 37.3044
27.709618414237887 37.3216
27.732550278321757 37.2209
27.755483275279115 37.1411
27.778417406196485 37.1323
27.801531858397514 37.1308
27.824468269376716 37.0128
27.847405817586786 37.1029
27.870344504116094 37.2793
27.893463551932008 37.2955
27.916404527281053 37.5884
27.93934664422563 37.7038
27.962289903855886 37.6703
27.98541356491974 38.0051
28.00835912214229 38.0696
28.03130582533231 38.2628
28.054253675581805 38.3763
28.077381967556104 38.3026
28.100332124185126 38.1958
28.123283431160893 38.1204
28.146235889577238 38.0345
28.169368830154156 37.8701
28.192323603752033 37.7589
28.215279532083304 37.4815
28.238415973016764 37.3565
28.261374223145094 37.1463
28.284333631303806 36.878
28.307294198589954 36.797
28.330435319167677 36.3894
28.353398217078915 36.2321
28.376362277420153 36.0376
28.39932750129032 35.9428
28.422473319286713 35.861
28.44544088262495 35.7803
28.468409612800283 35.5453
28.491379510913497 35.3314
28.51453004413313 35.2859
28.53750229057244 35.2723
28.56047570826344 35.1177
28.583450298308804 35.2171
28.606605564586562 34.8979
28.629582511831156 35.0488
28.65256063474956 34.9949
28.675539934446338 34.9619
28.698699951647605 34.9519
28.72168161743193 34.8551
28.74466446331978 34.8444
28.767648490417624 34.7904
28.790813276438353 34.7458
28.813799678527303 34.8834
28.836787265157085 34.7482
28.859955641890075 34.7837
28.882945610203045 34.7521
28.905936766392035 34.6761
28.928929111566863 34.6435
28.952102288520145 34.56
28.975097024308607 34.4556
28.998092952423807 34.2418
29.021090073977508 34.2679
29.04426806913204 34.1811
29.067267590245258 33.9674
29.090268308143695 34.0195
29.11327022394099 33.9171
29.13645305530891 33.7776
29.159457379627167 33.7384
29.18246290519685 33.6684
29.20546963313352 33.6433
29.22865731875826 33.830999999999996
29.25166646419296 33.7734
29.27467681535305 33.606
29.29768837335608 33.7317
29.320880931312562 33.7999
29.34389491580634 33.6829
29.366910110507334 33.6095
29.38992651653503 33.7227
29.41312396492981 33.668
29.436142806456754 33.5273
29.45916286268059 33.400999999999996
29.48236399319994 33.3054
29.50538649169417 33.2868
29.528410208259935 33.1825
29.55143514402014 32.9024
29.574641196749695 32.7221
29.597668583816574 32.7806
29.6206971934585 32.6619
29.64372702680042 32.6629
29.666938019934474 32.563
29.689970313635285 32.3972
29.713003834422636 32.4511
29.73603858342347 32.37
29.759254535188578 32.2727
29.78229175361658 32.1136
29.80533020365064 32.2328
29.82836988641968 32.2449
29.85159081507472 32.1854
29.874632976355343 32.1358
29.89767637376955 32.1611
29.920721008448314 32.158
29.9439469322847 32.0649
29.96699405457564 31.9191
29.9900424175358 31.9236
30.013092022298157 31.9585
30.03632295963995 31.8983
30.059375061131373 31.9906
30.08242840783577 31.925
30.105483000888153 31.9923
30.128718970092244 31.8325
30.151776069006917 31.9383
30.17483441768648 31.8663
30.198074175317235 31.8505
30.221135036724256 31.7957
30.24419715131772 31.7668
30.267260520236203 31.6261
30.290505341942243 31.7385
30.313571232750228 31.7702
30.336638381310948 31.6476
30.35970678876503 31.662
30.38295669299435 31.6463
30.40602763151657 31.6565
30.429099832366074 31.5275
30.452173296685572 31.4938
30.47542830191959 31.474
30.498504306502497 31.4603
30.521581577995562 31.5413
30.544660117543582 31.5901
30.56792024229725 31.6028
30.59100133132069 31.589000000000002
30.614083691845494 31.6146
30.637167325018545 31.6734
30.660432587840603 31.698
30.683518779717886 31.566999999999997
30.70660624769615 31.7018
30.729694992924372 31.6519
30.75296541239743 31.59
30.77605672557558 31.641
30.799149319462742 31.5371
30.8224236211637 31.3384
30.845518789950724 31.2285
30.868615242910597 31.1696
30.891712981195973 31.0462
30.91499247215866 30.9835
30.938092794619365 31.0901
30.96119440587579 30.9635
30.984297307082752 30.8312
31.00758200598383 30.7181
31.030687500658694 30.7145
31.053794288760695 30.69
31.076902371446767 30.5069
31.100192296997445 30.4831
31.12330298246119 30.5052
31.14641496599209 30.322
31.169528248749216 30.4596
31.19282341969534 30.4092
31.215939314557186 30.4672
31.239056512134788 30.4558
31.262175013589378 30.3226
31.28547544871168 30.3622
31.30859657161541 30.315
31.331719001892175 30.3234
31.35484274070538 30.428
31.378148458819545 30.4043
31.401274828443725 30.3056
31.424402510106933 30.3594
31.447712205419993 30.4573
31.470842524931633 30.2885
31.493974159989783 30.3124
31.51710711176168 30.2829
31.54042212308802 30.2623
31.563557722100917 30.2893
31.586694641341655 30.05
31.609832881979628 29.9904
31.63315322823208 29.9371
31.656294125521327 29.7781
31.679436347728515 29.7805
31.70257989602529 29.6606
31.725905596152327 29.6926
31.74905181052835 29.6057
31.772199354521323 29.6137
31.79534822930507 29.6778
31.818679302290967 29.5983
31.84183085259981 29.5694
31.864983737233473 29.6544
31.88813795736804 29.6565
31.911474422233013 29.4964
31.934631327356435 29.6108
31.9577895715215 29.5796
31.980949155906522 29.4482
32.004291031706956 29.3691
32.027453310562606 29.3425
32.05061693318573 29.2464
32.07396288236386 29.2362
32.09712920658542 29.2301
32.12029687812702 29.0278
32.14346589817093 29.0666
32.166817291729984 29.0093
32.18998902288583 28.9666
32.21316210610336 28.9354
32.23633654256711 28.7561
32.259693399663725 28.723000000000003
32.282870556771144 28.6877
32.30604907069099 28.7042
32.329228942610065 28.6637
32.35259128243769 28.5496
32.375773884550505 28.4271
32.398957848235646 28.4134
32.422143174682176 28.3597
32.445511016471215 28.2961
32.468699082679954 28.2745
32.49188851523011 28.2334
32.51507931531304 28.0823
32.538452678331 28.1018
32.56164622776311 28.0852
32.58484114831493 27.9892
32.60803744118015 27.9754
32.631416344731896 28.0163
32.654615396551876 27.9719
32.67781582427913 27.9546
32.701198898634416 27.8423
32.72440209253756 27.8375
32.747606665947124 27.7937
32.77081262006088 27.5898
32.79420126883317 27.7032
32.81740999876112 27.741
32.840620112999424 27.6212
32.86383161274818 27.5797
32.88722585534586 27.4841
32.91044014056596 27.5676
32.933655814909734 27.4692
32.95687287957963 27.5261
32.98027273544904 27.3931
33.00349259526636 27.3509
33.026713849030116 27.3634
33.04993649794511 27.3508
33.073341986570746 27.3045
33.09656744032826 27.2591
33.11979429286444 27.3134
33.14302254538647 27.2752
33.166433686291185 27.2935
33.18966475336992 27.2342
33.212897224069096 27.0747
33.23613109959831 27.1564
33.259547912343415 27.0861
33.2827846121627 27.1408
33.306022720453775 27.0622
33.32926223842861 26.8814
33.352684742614166 26.9118
33.37592709463173 26.9062
33.399170859982064 26.7866
33.422597648419426 26.7852
33.44584425514446 26.629
33.46909227885668 26.6909
33.4923417207723 26.5863
33.51577423505344 26.5508
33.539026528130385 26.3756
33.56228024307245 26.4369
33.585535381098246 26.2281
33.60897364093058 26.2851
33.63223163992385 26.2427
33.6554910656699 26.2337
33.678751919389796 26.1334
33.702195944520106 26.069000000000003
33.72545966903325 26.0862
33.74872482519663 26.0485
33.771991414233746 26.1113
33.79544122444841 26.0072
33.81871069412428 26.0337
33.84198160035767 25.9741
33.86525394437455 26.0532
33.88870955949969 25.8871
33.911984794020626 25.8163
33.93526147001624 25.7528
33.958539588715006 25.7553
33.98200102861669 25.6416
34.0052820477047 25.5825
34.02856451319451 25.5827
34.05203033759056 25.4911
34.07531571090147 25.4857
34.09860253431845 25.5639
34.121890809074316 25.5759
34.145362493118924 25.3997
34.16865368561615 25.337
34.191946333164054 25.3206
34.21524043699793 25.3419
34.23871800066799 25.3023
34.26201503218366 25.160999999999998
34.28531352370466 25.1977
34.30861347646881 25.176
34.33209693978188 25.1396
34.3553998301885 25.0797
34.378704185565205 25.0017
34.402010007152356 24.9363
34.42549939016683 24.9501
34.44880815937748 24.9123
34.472118398533134 24.801
34.49543010887669 24.7856
34.51892543169198 24.6579
34.54224009966052 24.706999999999997
34.56555624255917 24.7019
34.58887386163339 24.6571
34.61237514439016 24.5633
34.6356957311114 24.5725
34.65901779775809 24.5339
34.68252356662995 24.4624
34.705848608458616 24.445
34.72917513396849 24.3576
34.75250314440949 24.3898
34.77601490857862 24.3089
34.799345904259795 24.2219
34.82267838863559 24.2149
34.846012362958525 24.169
34.869530142679984 24.1762
34.89286711232212 24.3138
34.91620557568269 24.2443
34.93954553401677 24.177
34.9630693495876 24.0938
34.986412313340814 24.0303
35.00975677584668 23.9368
35.033102738362956 23.9895
35.05663261012228 23.8752
35.0799815881786 23.938000000000002
35.10333207003229 23.8186
35.12668405694369 23.9335
35.150220005273056 23.7939
35.17357501786656 23.8539
35.19693153931268 23.8019
35.220289570874385 23.6685
35.24383161619786 23.6867
35.267192683604904 23.7388
35.290555264930376 23.7257
35.314101899412165 23.6805
35.33746752422433 23.694000000000003
35.36083466676374 23.5946
35.38420332829803 23.5875
35.407756095629054 23.5606
35.43112781085063 23.6079
35.45450104888391 23.58
35.477875810999194 23.5235
35.50143473172161 23.4328
35.52481255774625 23.4704
35.54819191167777 23.4454
35.57157279478914 23.3462
35.595137889488406 23.3124
35.61852184675279 23.2143
35.641907337029984 23.2383
35.665294361595684 23.1951
35.68886565090076 23.1585
35.7122557598848 23.1516
35.73564740699838 23.1119
35.759040593519934 23.0137
35.78261809810353 22.9666
35.80601437933051 22.9299
35.829412203814705 22.9565
35.85281157283719 22.8464
35.876395313415884 22.7934
35.8997977874528 22.8038
35.92320180988546 22.7181
35.946790244133936 22.7398
35.97019737933222 22.7028
35.993606066789866 22.6846
36.01701630779276 22.7126
36.04061101440684 22.6924
36.06402437852291 22.6206
36.08743930005611 22.5871
36.1108557802951 22.5054
36.13445678011326 22.4719
36.15787639383515 22.4718
36.18129757014299 22.3794
36.20472031032821 22.3969
36.22832762423364 22.3304
36.25175350829375 22.2848
36.275180960119776 22.2851
36.298609981005924 22.2716
36.32222362992669 22.3243
36.34565580510207 22.2677
36.36908955323448 22.1587
36.39252487562093 22.0038
36.416144880530226 22.1032
36.43958336764275 22.0593
36.463023432914625 22.0551
36.486465077645676 21.9799
36.51009145956204 22.0903
36.53353627947859 22.0077
36.55698268276811 21.9734
36.58043067073321 21.8785
36.60406345072071 21.7655
36.62751462435344 21.7995
36.65096738658405 21.8352
36.67460498210655 21.7315
36.69806093788647 21.7953
36.72151848619297 21.6518
36.744977628333636 21.6438
36.76862165890998 21.5782
36.79208400512205 21.6036
36.81554794910557 21.6078
36.83901349217101 21.4273
36.862663978991606 21.4765
36.88613273667352 21.4033
36.90960309738324 21.3833
36.933075062434064 21.2984
36.95673202673572 21.365
36.98020721697122 21.2963
37.003684015502365 21.1787
37.027162423645365 21.1639
37.050825886711465 21.1726
37.07430753063053 21.1413
37.09779078812467 21.1257
37.121275660513014 21.0808
37.144945643673694 21.0338
37.16843376245278 21.0173
37.19192350009803 21.0268
37.215414857931435 20.9362
37.239091382563885 20.9453
37.262585997426164 20.8422
37.28608223645736 20.8775
37.309763684451696 20.8164
37.33326318851098 20.791999999999998
37.356764320726555 20.8226
37.380267082425526 20.8065
37.40395510942588 20.6943
37.42746114683234 20.6416
37.45096881771841 20.6165
37.474478123414166 20.5958
37.49817275092816 20.5806
37.52168534303452 20.5863
37.54519957395567 20.4946
37.568715445024665 20.4933
37.592416694607714 20.4089
37.61593586281424 20.4425
37.63945667518264 20.4522
37.66297913304891 20.3966
37.68668702630454 20.3369
37.710212792059274 20.2753
37.733740207334854 20.2615
37.757269273470364 20.180999999999997
37.780983832050374 20.2187
37.80451621684926 20.2343
37.82805025654007 20.163
37.851585952464795 20.0769
37.8753071980695 19.9694
37.89884622345676 19.980999999999998
37.92238690911902 19.9891
37.94611318753442 19.8732
37.969657210779765 19.8623
37.99320289834801 19.9088
38.016750251586465 19.8191
38.04048325513017 19.8124
38.06403395679343 19.7939
38.087586328183946 19.7872
38.11114037065203 19.7878
38.13488012115898 19.7737
38.1584375229181 19.7083
38.181996599821 19.6454
38.205557353221124 19.6469
38.229303872575656 19.5754
38.2528679961576 19.5633
38.27643380031219 19.5079
38.30000128639589 19.5059
38.32375459653193 19.4754
38.34732546371299 19.497
38.37089801690786 19.3401
38.39447225747609 19.3046
38.418232380377425 19.2887
38.441810012983396 19.3251
38.46538933705673 19.3214
38.488970353960084 19.332
38.51273731166058 19.2477
38.536321731567014 19.1869
38.55990784840681 19.1489
38.58367995004091 19.1195
38.60726947812959 19.0063
38.63086070726198 19.0602
38.654453638806274 19.0925
38.678232613930824 18.9788
38.70182896773327 18.9454
38.72542702806741 18.9631
38.7490267963045 18.9206
38.77281266709232 18.8273
38.79641586862214 18.8516
38.8200207821842 18.8632
38.843627409152944 18.8389
38.86742019782782 18.7104
38.891030269149255 18.6918
38.914642058016156 18.6981
38.938255565806124 18.6251
38.96205529464307 18.6334
38.98567225787121 18.6749
39.00929094417078 18.6134
39.03291135492255 18.5593
39.05671804624804 18.5299
39.080341923549106 18.5126
39.103967529460334 18.4838
39.127594865365744 18.4513
39.15140854155791 18.3307
39.17503935514948 18.3893
39.19867190290282 18.3378
39.22249083587951 18.2741
39.24612686969409 18.3161
39.269764641845306 18.2494
39.293404153722804 18.279
39.317230110864074 18.2142
39.34087311998506 18.1473
39.36451787301696 18.1786
39.388164371352595 18.0795
39.41199737518003 18.064
39.43564738196752 18.0511
39.45929913825317 18.0276
39.48295264543308 17.9656
39.506792718520884 17.9415
39.530449745387216 17.9581
39.55410852735203 17.9413
39.57776906581474 17.951
39.60161623079 17.8961
39.625280300200025 17.7952
39.64894613032202 17.7725
39.67261372255866 17.8351
39.6964680021016 17.7774
39.72013913657293 17.7428
39.74381203738292 17.6713
39.76748670593756 17.6707
39.79134812278169 17.6876
39.81502634488497 17.6131
39.83870633896685 17.5625
39.862388106436654 17.5819
39.88625668336918 17.5865
39.90994201572829 17.5085
39.933629125719285 17.4357
39.957503091207826 17.3789
39.9811937746168 17.3677
40.00488623990914 17.3797
40.02858048850006 17.3696
40.05246165409549 17.3041
40.076159487492085 17.2524
40.099859108448875 17.2429
40.123560518384345 17.2455
40.1474489070226 17.2653
40.171153913178564 17.1596
40.194860712584955 17.1749
40.2185693066637 17.1573
40.242464941335314 17.1071
40.26617714307655 17.0801
40.289891143772046 16.9843
40.3136069448471 17.0309
40.33750984859743 17.0168
40.3612292688043 16.9559
40.3849504936829 16.98
40.40867352466194 16.9649
40.43258372059144 16.933
40.45631038219906 16.8821
40.48003885420956 16.8809
40.503769138055105 16.8865
40.52768664931955 16.7636
40.55142057531802 16.8044
40.57515631746428 16.7435
40.599079334038514 16.7612
40.62281872700477 16.6821
40.64655994043941 16.6157
40.67030297578061 16.619
40.69423334835778 16.643
40.71798004609188 16.6103
40.74172857006355 16.55
40.76547892171441 16.5473
40.7894166736039 16.4692
40.813170699248566 16.4457
40.83692655691388 16.4476
40.86068424804498 16.4981
40.884629402612525 16.4536
40.908390779366385 16.4084
40.932153993938 16.3449
40.95591904777605 16.3663
40.979871628443995 16.3575
41.003640379561936 16.2706
41.02741097430883 16.1951
41.05118341413683 16.1738
41.075143444384416 16.1743
41.098919593177826 16.2123
41.1226975914255 16.1397
41.14647744058318 16.0919
41.170444943946755 16.0429
41.19422851378379 16.0725
41.218013938914645 16.0561
41.24198706625173 16.0033
41.26577622087193 16.0043
41.289567235177785 15.9631
41.31336011063129 15.9327
41.337340752422875 15.8657
41.361137369129835 15.8416
41.38493585138705 15.8586
41.40873620066004 15.7801
41.43272438060107 15.7514
41.45652848292052 15.7478
41.48033445666918 15.7322
41.50414230331616 15.6518
41.528138045159764 15.6393
41.551949656675205 15.6315
41.575763145513235 15.6458
41.59957851314666 15.6254
41.62358184070442 15.5439
41.64740098505737 15.5892
41.6712220126409 15.4611
41.69504492493139 15.4557
41.71905586207357 15.4175
41.74288256296395 15.477
41.766711153007456 15.4233
41.79054163368412 15.4273
41.814560204340054 15.4539
41.838394485526365 15.4049
41.86223066180303 15.3453
41.88625497706819 15.2918
41.910094962812 15.2472
41.93393684811168 15.2363
41.95778063445365 15.1795
41.981812625263366 15.1862
42.00566023303407 15.1615
42.029509746323676 15.1658
42.05336116662236 15.1287
42.077400857069705 15.1404
42.10125611078846 15.0999
42.12511327600405 15.0924
42.14897235421036 15.0785
42.173019768448455 15.0101
42.19688269209613 14.9032
42.22074753323349 14.950999999999999
42.24461429335818 14.9163
42.268669455600495 14.9146
42.292540073217886 14.8701
42.31641261433284 14.8447
42.34028708044675 14.812999999999999
42.36435001496739 14.8111
42.38822835065557 14.7946
42.41210861586426 14.7446
42.4359908120986 14.7501
42.46006154323262 14.7131
42.48394762115317 14.6941
42.507835634632315 14.7044
42.531912233047436 14.6319
42.55580413732265 14.61
42.579697981698 14.4905
42.60359376768525 14.5736
42.62767820545945 14.5353
42.65157789440821 14.5233
42.67547952952185 14.5322
42.699383112316 14.4568
42.72347541395347 14.4522
42.74738291190531 14.4119
42.771292362102166 14.3609
42.795203766063516 14.3875
42.819303956130405 14.3835
42.843219287476536 14.3081
42.86713657716324 14.2741
42.89105582671383 14.2406
42.91516392983864 14.217
42.939087119032166 14.1834
42.963012272677304 14.1782
42.98693939230129 14.2025
43.01105543317513 14.1059
43.034986504731386 14.1409
43.05891954686589 14.1205
43.08285456110972 14.0821
43.10697856448665 14.0999
43.130917542983475 13.9673
43.15485849820081 13.9695
43.17880143167367 13.9658
43.20293342237094 13.9192
43.226880332449 13.9413
43.25082922540554 13.9528
43.27496722682525 13.8461
43.29892010567796 13.8691
43.32287497204102 13.8008
43.34683182745632 13.7907
43.370977859791836 13.7657
43.39493871351105 13.7846
43.41890156092628 13.7452
43.44286640358341 13.6973
43.46702049182749 13.6733
43.49098934522816 13.6669
43.51496019852649 13.634
43.5389330532723 13.6344
43.56309522248204 13.5992
43.58707210044314 13.5609
43.61105098451946 13.5476
43.63503187626491 13.5442
43.659202151562134 13.4764
43.68318707902681 13.530999999999999
43.70717401884041 13.4331
43.731162972560874 13.4341
43.75534137913236 13.3658
43.779334381108384 13.3683
43.803329401683186 13.3809
43.82732644241872 13.3964
43.8515130055166 13.3843
43.87551410707659 13.2446
43.89951723350145 13.248
43.923709934595614 13.2727
43.94771713129917 13.2079
43.97172635758096 13.1839
43.99573761501002 13.2073
44.0199385169922 13.1569
44.04395385732619 13.089
44.067971233533086 13.0604
44.09199064718605 13.0744
44.11619977548961 13.0622
44.14022328470671 13.0112
44.16424883610785 13.0068
44.18827643127035 13.0324
44.21249381139513 12.9897
44.236525514814076 12.9287
44.26055926674478 12.89
44.28459506876863 12.8794
44.3088207262813 12.8371
44.33286064928722 12.8282
44.35690262714919 12.8295
44.38094666145278 12.7803
44.4051806219871 12.8258
44.42922879003185 12.731
44.45327901929361 12.7708
44.477331311362136 12.7138
44.501573600619416 12.6921
44.525630039221795 12.6437
44.54968854541895 12.6382
44.573937102200176 12.6371
44.5979997645541 12.5967
44.622064499300315 12.5661
44.64613130803592 12.5352
44.67038823869318 12.5505
44.69445921643748 12.5031
44.718532272981385 12.4795
44.742607409926194 12.4764
44.76687274034801 12.4782
44.79095205918753 12.3942
44.81503346325094 12.4237
44.839116954143876 12.4212
44.86339071028742 12.345
44.88747839599524 12.3148
44.91156817336837 12.3121
44.93566004401666 12.2893
44.959942251908146 12.3082
44.984038330325966 12.244000000000002
45.00813650686762 12.1973
45.03223678314731 12.2303
45.05652746888232 12.1983
45.08063196592069 12.173
45.104738567558705 12.1824
45.128847275414856 12.1542
45.15314646515866 12.1365
45.17725940679741 12.0531
45.20137445952892 11.9979
45.22568004865265 12.0366
45.24979934496396 11.9793
45.27392075725247 12.0019
45.29804428714431 11.9564
45.322358426247604 11.9352
45.346486212804315 11.8938
45.370616121861914 11.9255
45.39474815505086 11.8708
45.41907087049246 11.8419
45.4432071734666 11.8127
45.46734560548283 11.8307
45.49148616817604 11.8547
45.51581748638564 11.774000000000001
45.5399623320197 11.7869
45.56410931325473 11.7249
45.58825843173002 11.7154
45.61259837920865 11.7066
45.636751793816 11.7034
45.66090735060093 11.6321
45.68506505120716 11.6465
45.7094136545275 11.582
45.73357566449271 11.5487
45.75773982322992 11.5866
45.78190613238733 11.5599
45.806263418194064 11.4806
45.83043404997326 11.4835
45.85460683713677 11.4984
45.87897065658495 11.4762
45.90314777634752 11.4451
45.92732705646868 11.4356
45.9515084986045 11.3987
45.97588104735473 11.4311
46.00006683541565 11.3979
46.02425479047904 11.4265
46.04844491420549 11.3312
46.0728262191024 11.3014
46.09702070211635 11.2943
46.12121735879483 11.312999999999999
46.14541619080294 11.2547
46.169806278764455 11.2347
46.194009483459034 11.2188
46.21821486849841 11.1824
46.24242243555223 11.1475
46.266821333570014 11.1071
46.29103328674601 11.1528
46.31524742696538 11.1699
46.33946375590237 11.1041
46.36387149104216 11.0303
46.38809221957392 11.0485
46.41231514186606 11.0224
46.436540259597464 11.0472
46.460956858999374 10.9901
46.48518638983522 10.9799
46.509418121166966 10.9202
46.533652054678114 10.9263
46.55807754555709 10.8944
46.58231590571962 10.9165
46.60655647313217 10.8941
46.630988654873654 10.8382
46.655233659129024 10.7952
46.67948087571551 10.8445
46.70373030632484 10.8338
46.72817142736393 10.8034
46.752425308428684 10.7611
46.77668140861147 10.7225
46.80093972960865 10.6804
46.82538981736788 10.6301
46.849652602470904 10.6751
46.87391761349769 10.6623
46.8981848521493 10.649000000000001
46.9226439341274 10.6153
46.946915650573224 10.5914
46.97118959976749 10.6012
46.99546578341598 10.5615
47.019933887188216 10.5091
47.04421456235744 10.5368
47.06849747711879 10.5103
47.09278263318286 10.4953
47.11725978640143 10.4773
47.14154944775105 10.4225
47.165841355555656 10.4112
47.1901355115306 10.3528
47.214621741924994 10.3544
47.23892041698887 10.3684
47.26322134538975 10.285
47.28771440635075 10.2911
47.31201986422527 10.2863
47.33632758061436 10.2611
47.360637557241866 10.2694
47.38513974410611 10.2551
47.40945426407847 10.2082
47.43377104948137 10.1869
47.45809010204344 10.1792
47.48260144275502 10.1652
47.506925052572285 10.1486
47.53125093475548 10.0946
47.55557909103813 10.0682
47.58009961361992 10.0447
47.60443234110732 10.0893
47.62876734791564 10.0511
47.65310463578333 10.0523
47.6776343683373 10.0479
47.7019762413987 10.0243
47.72632040075572 9.99276
47.75066684815169 9.956
47.77520581885936 9.90449
47.799556865477655 9.919
47.823910205386 9.93995
47.84826584033272 9.8657
47.87281407745551 9.85622
47.89717432569297 9.871939999999999
47.92153687423484 9.865739999999999
47.94609208429692 9.86931
47.97045925671401 9.80424
47.99482873471275 9.78161
48.01920052005013 9.76113
48.04376504619224 9.75655
48.068141469543484 9.77513
48.09252020552573 9.717239999999999
48.11690125590099 9.706660000000001
48.1414751266064 9.678460000000001
48.16586082917454 9.64525
48.19024885144316 9.62861
48.2146391951793 9.643189999999999
48.239222439012764 9.62495
48.26361744916137 9.60086
48.28801478610016 9.58259
48.31241445160131 9.54237
48.337007097209366 9.53288
48.36141144338331 9.52524
48.38581812345755 9.48662
48.41022713920929 9.51393
48.434829215320704 9.48611
48.45924292604658 9.42925
48.48365897780325 9.47045
48.50807737237308 9.435939999999999
48.532688907799276 9.42114
48.55711201168574 9.38597
48.581537463754074 9.3429
48.60615611725119 9.359060000000001
48.63058628942721 9.33582
48.65501881516546 9.32133
48.6794536962573 9.307039999999999
48.70408185970339 9.28151
48.72852147531801 9.25203
48.75296345168211 9.23343
48.77740779059232 9.26266
48.80204549302823 9.22494
48.82649458091802 9.2451
48.85094603676547 9.185189999999999
48.87539986237231 9.15785
48.90004713292306 9.113719999999999
48.92450572200832 9.1239
48.94896668628025 9.1302
48.97343002754588 9.04227
48.99808689542115 9.03683
49.02255501470614 9.074580000000001
49.04702551642794 9.02794
49.0714984023988 9.02444
49.096164896893235 9.01719
49.120642575466796 8.98663
49.145122643748394 8.99495
49.16960510355558 8.956669999999999
49.19428125404938 8.93438
49.2187685210852 8.940439999999999
49.243258185121555 8.93994
49.26794160167084 8.89049
49.2924360839405 8.87876
49.31693296869764 8.82505
49.34143225776915 8.817639999999999
49.36612538195438 8.78595
49.39062950396021 8.80607
49.41513603578346 8.76867
49.4396449792564 8.77153
49.46434784069503 8.74285
49.488861631846454 8.7092
49.513377840166804 8.68623
49.537896467493745 8.70478
49.56260909589029 8.66751
49.587132585683285 8.68602
49.611658500018365 8.64978
49.636186840738596 8.62856
49.66090926588511 8.60863
49.685442483902584 8.57894
49.70997813385706 8.56438
49.734516217597076 8.5914
49.75924846937352 8.57708
49.7837914452858 8.49526
49.80833686055187 8.44334
49.83288471702571 8.48272
49.85762682540054 8.4872
49.882179588965734 8.454310000000001
49.9067347993235 8.44594
49.93129245833333 8.40007
49.95604445336378 8.41638
49.98060703442832 8.36667
50.005172069746266 8.37158
50.02993150438364 8.38298
50.05450147301533 8.36025
50.07907390151433 8.35647
50.10364879174981 8.347010000000001
50.12841816587289 8.301639999999999
50.1529980044635 8.28382
50.17758031042124 8.26718
50.20216508562089 8.259030000000001
50.22694442953363 8.25734
50.25153416817468 8.24271
50.27612638170508 8.227839999999999
50.300721072005196 8.16152
50.325510416102105 8.192219999999999
50.350110084975064 8.17506
50.37471223628208 8.160160000000001
50.39931687190919 8.11893
50.424116246675766 8.13574
50.44872587605249 8.1185
50.47333799543065 8.08988
50.49795260670191 8.09423
50.52276204271512 8.05785
50.54738166295838 8.052480000000001
50.57200378079314 8.00278
50.596628398116835 7.99095
50.62144792604559 7.996560000000001
50.646077567609396 7.95493
50.670709714377715 7.95897
50.69553683636198 7.93503
50.72017401885922 7.95852
50.7448137122895 7.91033
50.76945591856022 7.8792800000000005
50.79429318636823 7.90457
50.818940443716784 7.87865
50.84359021965163 7.8314699999999995
50.868242516085964 7.839010000000001
50.893089960641895 7.83725
50.917747323549435 7.80082
50.94240721271973 7.7937199999999995
50.96706963007175 7.75426
50.99192728239342 7.7572399999999995
51.01659478166073 7.7596
51.04126481489051 7.743860000000001
51.06593738400761 7.75236
51.090805275207074 7.67926
51.11548294172845 7.70384
51.14016314993547 7.70804
51.164845901758845 7.66293
51.18972406304274 7.640210000000001
51.21441192780656 7.62736
51.23910234200271 7.615189999999999
51.2637953075678 7.617960000000001
51.288683770237945 7.61601
51.31338186432707 7.56981
51.33808251561888 7.54961
51.362978729967345 7.55527
51.387684521509755 7.51306
51.41239287610203 7.51133
51.437103795691165 7.464060000000001
51.46201036644977 7.454
51.486726441956634 7.45668
51.51144508832545 7.422810000000001
51.536166307509156 7.40625
51.56108326624387 7.42555
51.58580965706056 7.399839999999999
51.61053862657523 7.3474699999999995
51.635270176746864 7.36941
51.66019755512065 7.38455
51.68493429268881 7.34196
51.70967361681515 7.3131
51.73441552946465 7.277810000000001
51.759353359237934 7.32905
51.7841004750961 7.28587
51.80885018539685 7.28454
51.833602492111254 7.24478
51.8585508051424 7.2134100000000005
51.883308330926425 7.204389999999999
51.90806845906181 7.166710000000001
51.932831191525715 7.15402
51.95779001977161 7.15941
51.98255798721516 7.16953
52.00732856494335 7.12714
52.03229530577543 7.100789999999999
52.057071130455945 7.13045
52.081849571391054 7.09227
52.106630630568695 7.082389999999999
52.13160794279417 7.05185
52.15639426492067 7.0516
52.18118321127822 7.01803
52.205974783860896 7.02683
52.23096269971011 7.04922
52.255759551287994 7.006
52.280559035098186 6.99557
52.30536115314103 6.985760000000001
52.33035970494467 6.97986
52.35516711807904 6.92541
52.37997717147198 6.962210000000001
52.40478986713005 6.950830000000001
52.42979908731974 6.88702
52.454617094216 6.851939999999999
52.47943774942214 6.8487800000000005
52.50426105495102 6.84253
52.529280976059844 6.80319
52.554109609024096 6.80098
52.57894089837482 6.83778
52.60377484613117 6.8316
52.62880550079408 6.77225
52.65364479223379 6.7792699999999995
52.67848674816189 6.765739999999999
52.70352547971946 6.74856
52.72837279155837 6.75815
52.753222773982785 6.69003
52.778075429022984 6.6764399999999995
52.80312495150885 6.705310000000001
52.827982978797436 6.6689
52.85284368481815 6.675160000000001
52.87770707160767 6.6987
52.90276741793998 6.6276399999999995
52.92763619336701 6.606660000000001
52.952507655698504 6.6178
52.977381806977576 6.61207
53.00245301017842 6.57149
53.02733256653592 6.628430000000001
53.052214817996074 6.53367
53.077099766608484 6.53414
53.102181859804446 6.51016
53.127072229988265 6.54334
53.15196530349892 6.5138
53.17686108239249 6.4781
53.20195409881522 6.4446
53.22685531582556 6.44203
53.25175924441303 6.423430000000001
53.27666588664027 6.4419900000000005
53.30176985962693 6.3983099999999995
53.3266819565689 6.39599
53.35159677336455 6.37344
53.376514312083096 6.391030000000001
53.40162927507703 6.38924
53.42655228516116 6.34261
53.45147802340193 6.3351
53.47660125628886 6.30115
53.50153247842639 6.28142
53.52646643496923 6.24803
53.55140312799818 6.257569999999999
53.576537409691696 6.25739
53.60147960336152 6.22372
53.626424539786164 6.20593
53.65137222105307 6.17973
53.67651758529126 6.16401
53.70147078399681 6.1902800000000004
53.72642673383343 6.1367400000000005
53.75138543689533 6.16489
53.776541917524526 6.14975
53.801506154876755 6.13695
53.826473151763246 6.11498
53.851442910284916 6.0483199999999995
53.87661054126026 6.07903
53.9015858509782 6.06356
53.92656392866066 6.07961
53.95154477641532 6.07976
53.976723591801296 6.01553
54.00171000771266 6.003430000000001
54.02669920004598 5.99833
54.051691170915745 6.013319999999999
54.076881204886796 5.97852
54.101878760928514 5.98401
54.12687910187696 5.94228
54.152077577768296 5.96905
54.1770835166946 5.92662
54.20209224691339 5.90372
54.22710377055121 5.8941300000000005
54.25231352511594 5.90597
54.27733066384342 5.8759
54.30235060239643 5.86482
54.32737334290836 5.82385
54.35259441062629 5.79766
54.377622783395324 5.77918
54.40265396455061 5.77616
54.42768795623251 5.74528
54.45292037169559 5.76207
54.477960012857906 5.75665
54.50300247099511 5.707999999999999
54.52804774825457 5.73905
54.55329154616743 5.70319
54.57834249018678 5.70544
54.6033962597977 5.68162
54.6284528571545 5.63356
54.653708072335164 5.5746199999999995
54.67877035378786 5.614719999999999
54.70383546947698 5.57073
54.72890342156389 5.56706
54.7541700889442 5.5330699999999995
54.77924374251975 5.50813
54.8043202390049 5.5201400000000005
54.82959552413022 5.4781
54.8546777351945 5.42814
54.87976279569621 5.41788
54.90485070780914 5.46446
54.930137506558005 5.34943
54.95523115074295 5.37731
54.98032765308844 5.35947
55.005427015775496 5.398
55.03072536339621 5.33568
55.05583047570572 5.31361
55.080938454927676 5.24702
55.10604930325027 5.28525
55.131359235107396 5.2838400000000005
55.15647585066083 5.21544
55.181595341907496 5.14014
55.20671771104285 5.159680000000001
55.232039262617704 5.18751
55.25716741665048 5.1323300000000005
55.28229845518636 5.165830000000001
55.30743238042802 5.07838
55.33276558731939 5.03758
55.357905315183636 5.03634
55.383047936390035 4.986000000000001
55.40819345314859 4.97496
55.433538351073295 4.9862
55.458689688238415 4.94602
55.483843927614096 4.91795
55.509197623043605 4.90353
55.53435769621134 4.89666
55.55952067826466 4.8907
55.5846865714265 4.85669
55.61005202069737 4.82757
55.63522376553902 4.7759
55.66039842818645 4.7581
55.68557601087004 4.7771
55.7109532500271 4.6713
55.73613670233794 4.75875
