TT I
1.2716486653135266 7.68128
1.2939594142134223 7.544460000000001
1.3162702121660406 7.3045
1.3385810600174564 7.18134
1.3608919586137629 6.78879
1.383202908801069 6.9493
1.405513911425503 6.41138
1.4278249673332093 6.8890899999999995
1.4501343378461518 6.560989999999999
1.4724455028545926 6.5801
1.4947567236847858 6.43607
1.517068001182951 6.53316
1.5393793361953272 6.059880000000001
1.5616907295681737 6.11585
1.5840021821477681 5.26419
1.60631369478041 6.19878
1.6286252683124185 6.12139
1.6509369035901333 5.8662
1.6732468618895553 5.44287
1.695558623192809 5.26079
1.7178704487808514 5.09505
1.7401823395001077 5.32532
1.7625012545597203 4.5695
1.7848028405262486 4.54871
1.8071218901122095 5.05438
1.8294236121921872 5.1490800000000005
1.8517427996910911 4.948840000000001
1.8740620574440425 5.46105
1.8963639900671978 4.64551
1.9186833908139995 4.44256
1.9409854680117449 4.89446
1.9633050151394713 5.42753
1.9856246367570705 4.32636
2.0079269371922672 4.255
2.03024671027244 4.143
2.0525491637446027 4.42431
2.074869091674931 4.717169999999999
2.097171701569106 5.2630099999999995
2.1194917877373847 4.88299
2.141811954326636 4.8430800000000005
2.164114805233074 5.21317
2.186435135143035 5.78205
2.208738150935709 14.6602
2.231058647554722 32.72
2.2533792288321184 25.7856
2.275682498336085 10.8846
2.298003251406138 5.59339
2.3203066942619714 4.89778
2.3426276225136022 4.484
2.3649486396617507 4.55259
2.387252348930071 4.98839
2.4095735463442893 4.956519999999999
2.4318774374315884 5.192819999999999
2.4541988185014043 5.3806
2.476502894794693 5.6771400000000005
2.498824462909887 4.96782
2.521146125856138 5.3353
2.5434504863470337 5.4266
2.5657723414244717 5.631880000000001
2.588076895590662 7.2476899999999995
2.610398946189713 6.74194
2.6327210958598384 6.388330000000001
2.6550259469304716 6.329619999999999
2.6773482972090137 5.98459
2.6996533504259 7.1052
2.7219759047039602 7.39465
2.744298562293959 6.95856
2.7666039251246595 6.81998
2.7889267918020164 7.00436
2.8112323652516555 7.331119999999999
2.833555444408179 7.362589999999999
2.8558786311183852 8.1891
2.8781845268938557 8.29503
2.9005079311721484 8.03524
2.9228140460410397 8.88268
2.9451376712799635 8.61508
2.967444008632326 9.66859
2.9897678582247247 9.96303
3.0120918213106695 10.6668
3.0343984987899373 10.8365
3.0567226913198637 11.3542
3.079029599759726 11.9734
3.101354025127254 11.812999999999999
3.123678568232338 12.2732
3.145985829517914 13.1788
3.16831061055229 13.5096
3.1906181112775593 13.7844
3.212943133635653 14.5344
3.2352682779763207 14.6467
3.2575761442691227 15.5719
3.2799015350264273 15.9228
3.302209649240067 16.3424
3.3245352898092655 17.2163
3.3468436553365257 17.6759
3.369169549113219 18.2204
3.3914955708171384 19.1249
3.413804319727358 18.6427
3.4361305997334863 19.3236
3.4584396084414553 19.8857
3.4807661501462652 20.4548
3.503092824025881 21.1842
3.5254022288463154 21.691
3.5477291695206588 22.4762
3.5700388426251948 22.9698
3.5923660534916446 24.8395
3.6146934007816114 41.0438
3.637003482731501 101.273
3.6593311053109985 113.65299999999999
3.681641464033634 64.4284
3.7039693653009733 32.8425
3.726297407241705 27.3109
3.7486081875460804 26.6889
3.7709365132734978 26.8324
3.793247578841633 26.9062
3.8155761917550093 26.9637
3.8378875459837216 27.5243
3.8602164494827234 27.9395
3.882545499606844 29.0144
3.9048572932539183 29.694000000000003
3.9271866390645718 30.1494
3.9494987298666713 30.7901
3.971828374764527 31.3469
3.9941581705403255 31.6213
4.016470713506008 32.4459
4.038800813471445 33.0663
4.061113662089144 33.493
4.0834440696459176 34.868
4.105774632334751 35.4698
4.128087945865126 36.2164
4.150418821249301 36.7324
4.172732448931298 38.2952
4.195063640413578 40.5322
4.2173775856475215 44.99100000000001
4.239709096631102 80.7172
4.262040768704612 273.474
4.284355196706267 375.591
4.306687193387355 247.166
4.329001947444346 92.8613
4.35133427213731 51.6029
4.373666762177566 46.4919
4.395982011761091 46.1487
4.418314834921175 47.3803
4.44063041906622 56.1411
4.4629635787515625 69.2719
4.4852969080429785 69.6449
4.5076130004776225 57.3914
4.529946671403969 53.6631
4.552263106909177 53.0902
4.574597122877047 53.2503
4.596931312711224 54.0196
4.619248269273446 54.5406
4.6415828092605835 55.7659
4.663900117405352 57.1995
4.686235010953232 58.68
4.708552674085913 60.2166
4.730887924602802 61.5356
4.753223354952695 63.5261
4.775541557023902 64.5345
4.797877349456786 66.2037
4.820195915032126 68.0902
4.842532072957498 69.507
4.864868414979744 71.6148
4.88718753227192 74.6234
4.909524244902505 76.2214
4.931843734218147 78.0417
4.954180820867835 81.5858
4.976518095879839 84.6286
4.998838149695359 88.1125
5.021175803844231 91.8442
5.043496238205739 95.5823
5.065834274903528 100.78299999999999
5.088172504230693 106.53
5.1104935158799565 115.73
5.132832132875765 144.891
5.155153533596801 201.287
5.1774925416746225 255.06400000000002
5.199814334878411 509.537
5.2221537374521505 1421.32
5.244493338631803 3231.69
5.266815727034316 6651.66
5.289155727832427 10941.4
5.311478517248165 9594.22
5.333818921080011 4200.05
5.356159527788849 974.023
5.3784829252032536 263.879
5.400823940070432 175.972
5.423147747031976 147.61700000000002
5.445489173474152 132.352
5.467830807066149 125.069
5.490155234831516 119.96799999999999
5.512497285125229 114.303
5.534822130975162 111.06299999999999
5.557164601388673 108.531
5.579489868738879 104.994
5.601832762690846 103.98100000000001
5.6241758697774475 103.367
5.646501775867269 102.044
5.668845311622074 100.25
5.691171647754637 99.3685
5.713515615597765 98.2302
5.735859800852677 97.4252
5.758186788542988 96.9973
5.780531411018185 97.7792
5.802858837297399 96.65799999999999
5.825203900414495 97.4265
5.8475491852224 98.90299999999999
5.869877275883075 98.5463
5.892223006467101 99.6998
5.914551544266608 101.573
5.936897724049891 105.61200000000001
5.959244129804903 113.775
5.981573344815301 141.134
6.0039202049061 264.723
6.026249875609095 581.748
6.04859719346037 1114.45
6.070927323278297 2040.76
6.093275102315365 3666.81
6.115623113320588 4888.03
6.137953938319995 3695.29
6.160302415650845 1430.63
6.182633708324452 378.36300000000006
6.2049826554078376 147.92700000000002
6.227331838745022 107.435
6.249663839443684 95.066
6.27201349767565 89.7259
6.294345974611799 96.1164
6.316696111167083 110.538
6.339046488263839 104.23299999999999
6.361379686074702 85.805
6.383730546639482 76.1893
6.406064229255215 72.7923
6.428415576718203 72.0319
6.450749747566656 70.3862
6.47310158535871 69.1445
6.495453669698332 68.2409
6.517788579421056 67.4378
6.540141159237969 66.5158
6.562476565766648 65.9718
6.5848296444934045 65.2022
6.607182974060425 65.3604
6.6295191323281015 65.4163
6.651872965955752 68.9104
6.6742096296068985 98.6302
6.6965639707294615 155.19899999999998
6.71891856698715 159.016
6.741255995248479 105.714
6.763611104154477 72.5867
6.785949046381137 63.5001
6.808304671371482 61.3657
6.8306605557940046 61.0511
6.852999275508618 59.7182
6.875355681171544 59.4129
6.897694923437771 59.0328
6.92005185377892 58.8198
6.9423916220322655 58.7666
6.964749080490181 57.8041
6.987106804399774 57.7152
7.009447368180821 58.0369
7.031805625367033 57.7066
7.054146723727803 57.8693
7.076505517631004 57.6033
7.098864581288365 57.7506
7.121206488070854 57.5158
7.143566093607822 57.5592
7.165908543567245 58.0131
7.188268694426048 58.1638
7.2106291193438095 58.1056
7.232972390625943 59.2198
7.255333366030969 73.3494
7.277677189091925 135.497
7.300038718428332 198.132
7.322400526130865 167.833
7.344745183422596 100.40100000000001
7.367107550224791 66.084
7.389452767901992 58.7835
7.411815697249891 57.6204
7.434161478756298 56.7672
7.456524974096713 56.3933
7.478888753837185 56.1886
7.501235387657368 56.6757
7.523599738562711 56.5757
7.545946944825532 57.0173
7.568311870344528 57.3347
7.5906770845765665 57.4621
7.613025156078678 59.0744
7.635390950099687 60.7167
7.657739602662809 59.9522
7.680105979923558 58.4033
7.702472650212829 58.6585
7.724822180948224 57.9606
7.747189439655568 58.2251
7.769539560075357 58.2901
7.791907410653562 58.7452
7.81425812420825 59.1044
7.836626570110925 58.9012
7.858995315087906 59.8374
7.881346924933401 60.0099
7.903716270417482 60.4379
7.926068482028405 60.7628
7.948438431475253 61.4792
7.9708086843180235 61.7772
7.993161805171116 62.6623
8.015532667162402 62.92
8.037886398416653 64.2303
8.060257873014221 64.7075
8.082629655331942 65.3573
8.104984308787587 66.1817
8.127356708900503 70.0207
8.149711981398308 77.1389
8.172085002766314 80.3162
8.194458336181368 76.1198
8.216814543847752 72.4307
8.23918850371002 72.4695
8.26154533906492 73.0738
8.283919928836452 74.6712
8.306277395339652 75.6794
8.328652618483376 77.3023
8.351028159736202 79.339
8.373386579575245 81.7309
8.395762759396959 83.8655
8.418121819038275 89.3539
8.440498640894003 105.26799999999999
8.462875785192262 123.913
8.485235811156207 141.00799999999998
8.507613602688501 193.248
8.529974277114228 306.121
8.552352719347912 458.837
8.574731488360351 666.9010000000001
8.59709314210385 1041.87
8.619472567021075 1554.23
8.64183487789147 2065.88
8.664214962183097 2036.23
8.686577933647762 1318.63
8.708958680784317 578.472
8.731339760774953 242.206
8.753703729764451 133.933
8.77608547780821 109.18299999999999
8.798450116065078 102.74600000000001
8.820832535634787 98.5754
8.843215292401656 96.2547
8.865580941199045 94.6894
8.887964374703538 94.1013
8.910330701447199 94.3935
8.932714815164482 97.34899999999999
8.955099270424924 96.4782
8.977466620733543 92.4786
8.999851761421976 88.9855
9.022219798361645 87.2531
9.04460562795561 86.897
9.066991803441677 86.7753
9.089360876979615 86.2992
9.111747746589993 85.5933
9.13411751544971 85.0734
9.156505082664324 84.7187
9.178875550323522 84.7993
9.20126381862328 85.7774
9.223652438908596 85.945
9.246023961427412 85.7341
9.26841328802173 85.23899999999999
9.290785518039224 85.2014
9.313175554425882 86.2524
9.335565947154315 85.9679
9.357939245086508 86.2037
9.380330352834827 86.7826
9.40270436697103 86.3851
9.425096193225055 86.2081
9.447488380180165 87.1172
9.469863475295412 87.5555
9.492256385987508 87.6488
9.514632206018318 88.1852
9.537025843935714 88.5942
9.559402392368193 89.7516
9.581796761000229 91.1209
9.604191496441521 92.0333
9.626569144158516 95.8712
9.648964615551032 101.88
9.671343000390081 103.70700000000001
9.693739211225699 101.273
9.716135793237463 97.7366
9.738515290448102 96.9025
9.760912617143402 98.1178
9.783292860202891 99.2578
9.805690935076182 100.598
9.828089385495742 101.583
9.850470754023561 104.37899999999999
9.872869957865444 112.729
9.89525208097539 131.032
9.917652041736662 146.72299999999998
9.940052382417589 148.202
9.962435644102392 157.11700000000002
9.984836746950979 201.149
10.007220771957746 285.745
10.029622640473708 403.606
10.052007432299963 548.621
10.074410069984072 742.41
10.096813093716005 1061.36
10.119199042482517 1485.04
10.141602840636468 1833.91
10.163989564971628 1769.26
10.186394141051062 1227.45
10.208799107559706 597.346
10.231187001965623 265.803
10.253592751657669 152.381
10.275981430388155 124.976
10.298387966769793 121.961
10.320794897965431 124.02799999999999
10.343184759907361 122.189
10.36559248305461 115.51799999999999
10.387983138083852 110.76
10.410391656691655 114.62299999999999
10.432800574501677 127.948
10.455192425893369 149.996
10.47760214443012 177.426
10.499994797678786 212.118
10.522405320453982 262.366
10.54479877906917 351.801
10.567210109595656 452.87699999999995
10.5896218454736 537.19
10.612016518879773 546.262
10.634429067781074 423.495
10.656824555333241 264.795
10.679237920773568 157.43200000000002
10.701651695961992 108.376
10.724048411481384 95.4004
10.746463008485165 91.0478
10.768860546937125 88.8584
10.791275969274796 87.15299999999999
10.81369180576079 85.6884
10.836090585366925 84.5338
10.858507252467449 83.4805
10.88090686379991 82.5493
10.903324365036394 81.9014
10.925724811614439 81.7008
10.948143150509463 83.5017
10.970561909719066 82.8285
10.992963615930844 80.5943
11.015383218085756 78.1597
11.037785768347074 76.4883
11.06020621697282 75.6599
11.082627090322113 75.3469
11.105030913430326 74.5683
11.12745263854165 75.3275
11.149857314510728 79.3351
11.172279894912576 86.7745
11.194702904450653 88.1781
11.217108866490921 83.6438
11.239532736615194 78.1202
11.26193956033512 75.7427
11.284364294577085 73.5597
11.306789462371718 71.4473
11.329197585398376 70.119
11.351623622610898 69.6982
11.37403261614354 68.7293
11.396459526308487 68.7404
11.418869393879497 68.0527
11.441297180532617 67.6391
11.463725406927658 67.4053
11.486136592353875 67.328
11.508565700543707 68.0088
11.530977768845315 70.4023
11.553407762368774 71.7325
11.575838200059769 71.3161
11.598251599479612 68.4273
11.620682927815501 66.3902
11.64309721895548 65.8534
11.665529441478206 65.5259
11.687962112597958 65.3678
11.710377748130886 65.6918
11.732811318753434 65.4627
11.755227854859067 65.5576
11.777662328529495 65.5611
11.800079768750786 65.0978
11.822515149015453 65.2134
11.844950984084935 65.1858
11.867369787303163 64.8434
11.889806534289491 64.6876
11.912226250487029 64.9549
11.934663912939751 65.1587
11.9571020346363 65.521
11.979523127133968 65.4857
12.001962169624331 66.301
12.024384183972964 67.6358
12.046824150809913 71.4324
12.069264581333726 77.9715
12.091687985297767 85.8782
12.11412934550045 93.9791
12.136553680195208 104.135
12.158995973632788 119.08200000000001
12.181438735204349 139.975
12.20386447284199 167.87
12.226308172985636 198.275
12.24873485024193 213.80200000000002
12.271179492516982 191.505
12.293607112949127 152.498
12.316052700916226 113.51299999999999
12.338498763250042 88.8373
12.360927805303868 76.0892
12.383374818673879 70.5365
12.405804812803074 67.8793
12.428252780773262 67.1616
12.45070122756722 67.113
12.473132656675375 66.9242
12.49558206341869 66.9008
12.518014453510101 67.2223
12.540464823770117 67.2977
12.562915677315177 67.3494
12.58534951575545 68.1667
12.607801338171472 69.9498
12.630236146511358 76.3028
12.652688941369085 82.6525
12.675124723177234 83.4752
12.697578494048786 79.0035
12.720032754458185 73.5359
12.742470003354093 71.0209
12.764925245138771 70.4525
12.787363476431278 70.6248
12.809819703166806 70.7964
12.83227642391173 71.8359
12.854716135692716 72.3131
12.877173846755147 73.4796
12.899614549869717 73.7603
12.9220732548287 74.4497
12.94453245827299 74.8974
12.966974655289818 76.0606
12.989434858002571 76.7381
13.011878055298721 77.7434
13.034339260862497 78.4441
13.056800969391883 79.9189
13.079245674017244 82.0933
13.101708390774869 84.906
13.12415410463411 93.0244
13.146617833206086 107.62100000000001
13.169064559883248 123.525
13.191529303857127 139.99200000000002
13.213994557076367 158.263
13.236442809902437 182.313
13.258909083908291 218.71599999999998
13.28135835851934 266.38599999999997
13.30382565690295 327.186
13.326293469022952 393.08099999999996
13.348744283242008 433.611
13.371213125129904 403.032
13.39366497011003 321.697
13.416134845360597 222.798
13.438605238843131 151.403
13.46105863690397 119.853
13.483530069144786 115.12899999999999
13.505984506951902 121.66
13.528456981549432 133.291
13.550929978879088 145.346
13.573385983253365 161.086
13.595860028340867 184.99400000000003
13.618317081455832 221.82
13.64079217790333 267.665
13.663250283359057 317.118
13.685726434770173 362.93199999999996
13.708203115221277 365.61400000000003
13.730662806148091 315.997
13.75314054697177 238.315
13.775601299246777 162.107
13.798080104050406 112.906
13.820559442405358 92.9771
13.843021793671388 86.6493
13.865502201420897 84.0411
13.887965623051947 83.3331
13.910447103807167 82.1347
13.932929122629764 80.447
13.955394156785959 79.8391
13.977877254034569 78.8585
14.000343367582113 77.9993
14.022827546871707 77.1992
14.045294743423524 76.7314
14.06778000837062 76.1314
14.090265817715476 75.7909
14.112734645763819 75.681
14.13522154619454 75.5309
14.157691466286913 75.3447
14.180179461423874 75.2841
14.202668005486178 74.4376
14.22513957064374 73.6985
14.247629214846473 73.0094
14.270101881097517 72.8263
14.29259262906496 73.3631
14.315083930490205 74.1148
14.337558255389705 74.5749
14.360050666019726 74.38600000000001
14.382526101071944 73.3493
14.405019624534942 71.946
14.427513705993134 71.4037
14.449990813291825 71.5393
14.47248601302899 71.4607
14.49496423954951 71.443
14.517460561197822 71.248
14.539939910570322 71.1272
14.562437357763558 71.7369
14.58493536931253 73.0154
14.607416409993311 73.9976
14.62991555254159 74.9959
14.652397725157423 74.9195
14.674898002342799 74.0493
14.697398848433282 73.5942
14.719882725991326 74.0879
14.74238471217934 75.1964
14.764869730765593 78.6157
14.787372860692983 83.3888
14.809876564079925 89.8445
14.83236330125751 96.2753
14.854868153850365 103.20299999999999
14.877356041159485 111.855
14.899862046604186 123.72200000000001
14.922351087688757 141.33700000000002
14.944858249632887 163.685
14.967365991421232 189.546
14.989856770231246 211.96
15.012365673994204 222.283
15.03485761569738 210.00900000000001
15.05736768508665 175.11599999999999
15.07987833888692 137.951
15.102372032001655 106.49
15.124883856909658 85.3053
15.14737872204565 77.2108
15.169891721717274 74.289
15.192405310371893 73.6888
15.214901940621196 74.1896
15.237416709527137 74.2236
15.259914520936249 74.4724
15.282430473753607 73.6006
15.304947020131227 72.1368
15.327446610371178 70.88600000000001
15.349964346154254 70.0735
15.372465126703139 69.4151
15.394984055556009 69.0844
15.417486030076159 69.1845
15.44000615566487 68.6742
15.462526881230803 68.9304
15.485030653812652 69.108
15.507552581617434 69.0544
15.530057557334603 68.9169
15.55258069104857 68.8678
15.575104429329837 69.0645
15.597611216864632 68.4362
15.620136166564563 68.8596
15.6426441664095 69.9232
15.665170331202765 72.542
15.687697105158826 76.3235
15.710206930593545 81.0428
15.732734925158933 85.9957
15.755245972089478 91.2485
15.77777519094324 97.7343
15.800287463046663 105.9
15.822817909869592 118.40799999999999
15.84534897229804 134.27200000000002
15.867863089299354 154.434
15.890395385222186 175.00900000000001
15.912910736597423 190.74
15.935444269699861 194.231
15.957978423016485 176.16
15.980495633101265 147.888
16.003031029129367 117.165
16.02554948280019 89.8378
16.048086125229432 74.5256
16.070623392487107 69.9219
16.09314371869582 68.3129
16.11568223789321 67.1653
16.13820381691126 65.6761
16.160743591742527 64.2764
16.183283996022084 63.1874
16.205807461423195 62.04600000000001
16.228349126881973 61.5284
16.25087385432698 61.3945
16.27341678466365 60.9426
16.29594277784926 60.7962
16.31848697676433 61.1843
16.341031811604868 61.6501
16.36355971058487 62.1043
16.3861058195587 61.6731
16.40863499352978 60.498999999999995
16.431182380342005 59.196000000000005
16.453730407713202 58.5925
16.476261501364792 58.0899
16.498810812136167 57.733999999999995
16.52134319004079 58.0399
16.54389378792203 57.7432
16.566445031001553 57.5155
16.588979342490088 57.4875
16.61153187824822 57.2767
16.634067483263312 57.3616
16.656621315414416 57.0591
16.679175797408888 56.6252
16.701713349928728 56.9611
16.72426913389191 57.0254
16.74680798922351 57.0123
16.76936507887444 57.1636
16.791905240734874 57.2388
16.814463639794468 57.1669
16.837022695210294 57.0549
16.859564824093756 57.3613
16.882125194503903 58.2552
16.904668639217885 59.266000000000005
16.927230328348003 59.4453
16.949792678493612 59.3551
16.972338104193863 58.8743
16.994901778652235 58.1422
17.017448529496576 57.8893
17.040013531998152 58.2229
17.06257920018044 58.6108
17.0851279459922 59.5091
17.107694947817667 60.7205
17.130245028099072 61.6244
17.15281336730298 62.9983
17.17536478578733 64.4203
17.19793446610687 65.8271
17.220504818648422 67.6627
17.243058251703697 69.6786
17.265629950971032 73.3938
17.288184731571736 77.5616
17.310757781306908 82.249
17.33333150794385 85.006
17.355888317140174 85.8002
17.37846339986244 83.4611
17.401021565958885 77.9404
17.42359800851343 72.0242
17.44617513265564 66.6792
17.468735341390783 63.8289
17.491261035594565 61.9711
17.51396340099364 61.4303
17.536490463869136 61.622
17.559018209820174 61.3929
17.58154663977963 61.5252
17.604251766089718 61.4851
17.626781572227713 61.7447
17.64931206518155 62.1987
17.671843245885103 62.756
17.69455114821572 62.7933
17.717083712612634 63.4107
17.739616967569667 63.6117
17.762150914021706 63.6247
17.78486160749854 63.537
17.807396945166804 64.2396
17.829932977143503 65.307
17.85246970436452 66.9835
17.875183204129467 69.3098
17.897721330097664 72.0685
17.920260154126645 74.851
17.942799677153296 78.1566
17.9655159983646 81.0543
17.988056927677544 84.5868
18.010598558807683 89.501
18.033140892692916 96.1267
18.05586005052525 104.52
18.07840379824407 114.645
18.10094825154059 125.95700000000001
18.12366954819864 136.947
18.146215420998306 143.77100000000002
18.16876200220057 142.619
18.191309292745153 132.838
18.214033452627167 118.17299999999999
18.236582170236648 103.287
18.259131600016456 93.0618
18.281681742907335 88.8675
18.304408781233683 89.6708
18.32696035875955 93.1047
18.349512652227624 97.7655
18.372065662579683 103.898
18.394795594587553 108.054
18.41735004715306 108.34899999999999
18.43990521943684 104.82700000000001
18.46246111238171 96.4264
18.485193953325208 86.2495
18.507751296070428 77.0209
18.530309362314178 70.8731
18.552868153000343 67.1135
18.57560391815056 65.2083
18.59816416623245 64.4327
18.620725141597372 63.8535
18.643286845190268 63.5889
18.666025549835414 62.99100000000001
18.688588718427933 62.473
18.711152618092243 62.4087
18.73389353884365 61.8613
18.75645890921984 61.4051
18.77902501351406 61.1736
18.801591852673102 61.049
18.824335739722738 60.4449
18.846904057212626 60.5058
18.8694731124168 59.9569
18.89204290628315 59.9018
18.914789774966803 59.8896
18.937361054791623 59.4991
18.959933076131318 59.5088
18.982505839934877 59.1991
19.00525570560582 59.4294
19.027829963004184 59.2545
19.05040496572238 59.2731
19.072980714710468 59.4568
19.095733592739563 59.5107
19.11831084296757 59.9048
19.140888842324735 60.7384
19.16346759176222 61.133
19.18622349753803 61.5668
19.208803755869358 62.1721
19.231384767143577 62.7403
19.253966532312948 63.757
19.276725481241822 64.9355
19.29930876296784 66.6555
19.3218928014549 69.0515
19.34465404436217 72.4096
19.36723960516257 75.46600000000001
19.389825925592426 77.6603
19.412413006605938 78.6727
19.43517731967805 76.9016
19.457765930683355 73.3808
19.48035530514408 68.8735
19.50294544401556 64.4268
19.525712842708348 60.7821
19.54830451925909 58.4723
19.570896963095727 56.7757
19.593490175174704 56.2858
19.616260674962184 56.1125
19.638855432416964 55.8111
19.661450960992624 56.0851
19.68404726164677 55.8548
19.706820878021247 55.4071
19.729418731756834 55.7962
19.752017360452857 55.3824
19.77461676506804 55.626000000000005
19.797393513540218 55.7373
19.819994478951667 56.2757
19.84259622316767 56.8405
19.8651987471481 57.3705
19.887978643247177 57.7417
19.91058273574792 58.1152
19.933187610901943 58.6963
19.955969879466828 59.4077
19.97857632894404 60.3309
20.00118356396599 61.1803
20.023791585494575 62.8064
20.046577028914875 65.0525
20.069186632506966 67.1548
20.091797025500632 69.6574
20.114408208858933 71.5334
20.137196842715273 72.7372
20.159809615886765 72.2849
20.18242318232135 70.152
20.20503754298326 67.4922
20.227829382875154 65.2962
20.250445341109344 64.1069
20.27306209647285 63.7348
20.29567964993108 64.3298
20.31847471147704 65.4987
20.34109387027612 67.0232
20.363713830075454 67.5956
20.386334591841646 67.7294
20.409132890679302 65.8455
20.431755265564437 62.6152
20.454378445325528 59.4476
20.477002430930366 57.0485
20.499803982716553 55.5465
20.522429589228004 54.208
20.54505600449589 53.6851
20.567683229489194 53.2335
20.590488049900088 52.626999999999995
20.61311690359731 52.3043
20.63574656993626 51.9922
20.658553853717297 51.8065
20.681185154618298 51.8428
20.703817271080066 51.7465
20.72645020407368 51.2715
20.749260783967177 51.1255
20.771895359337133 51.1058
20.794530754161617 50.9705
20.817166969412938 50.8787
20.83998086114876 50.8068
20.86261872660049 50.7227
20.885257415405402 50.6652
20.90789692853701 50.5469
20.930714147864748 50.5383
20.953355319030678 50.6482
20.97599731745334 50.6582
20.99864014410749 50.3886
21.021460706796564 50.7205
21.044105199328826 50.8763
21.06675052302631 51.0453
21.089396678865015 50.9882
21.112220600704806 51.2028
21.134868430275347 51.6474
21.15751709492456 51.7659
21.180166595629693 51.8911
21.202993892429635 52.4753
21.22564507473034 52.7151
21.24829709602816 53.1964
21.27112693608965 53.3647
21.293780644891275 53.5833
21.316435195634053 53.2225
21.339090589297417 52.5192
21.361923832041875 52.0141
21.384580921090404 51.2375
21.407238856007325 50.7066
21.429897637773326 50.5791
21.45273429906592 50.6083
21.475394784108598 50.4946
21.498056118951983 50.3681
21.520718304578022 50.5634
21.543558400304388 50.5091
21.566222297108816 50.6562
21.58888704765135 50.8296
21.61155265291521 51.1942
21.63439619898156 51.9758
21.657063523335786 52.1507
21.67973170537063 52.6078
21.7024007460706 53.3156
21.72524775840385 53.7222
21.747918526116475 54.4354
21.770590155457388 55.3355
21.79326264741238 56.4333
21.816113141960237 57.7535
21.838787368860547 59.3077
21.861462461341976 61.0162
21.884315579735777 63.239
21.90699241312273 64.9151
21.92967011506078 66.5087
21.95234868653799 67.1975
21.9752053151131 67.018
21.997885635446785 65.5653
22.020566828293532 63.4545
22.04324889464272 60.9462
22.066109049404666 59.0835
22.088792872571794 57.8668
22.111477572219204 57.8145
22.1341631493376 57.8926
22.157026846313123 57.9655
22.179714188221507 58.13
22.202402410582668 57.4647
22.22509151438863 55.882
22.24795876962584 54.4614
22.270649646204486 53.523999999999994
22.293341407213727 52.6362
22.316034053646906 51.7468
22.338904883215342 51.2824
22.36159931041458 51.1931
22.38429462602756 51.1657
22.40699083104897 50.9275
22.429865251039757 50.9508
22.452563244831367 50.9871
22.47526213102522 50.9692
22.49813925616515 50.7842
22.520839937143307 50.8506
22.543541513520587 50.6401
22.56624398629403 50.5044
22.589124730075895 50.4248
22.611829005656723 50.7439
22.63453418063466 50.6194
22.657240256008077 50.8773
22.680124634582935 51.2563
22.70283252079775 51.3446
22.725541310413075 51.7468
22.74825100442868 52.021
22.771139033969575 52.4347
22.79385054687155 52.5547
22.81656296718292 52.9019
22.83927629590484 53.6792
22.862167992606945 54.1632
22.88488314827121 54.9977
22.907599215359284 55.7418
22.93031619487366 56.8472
22.953211574954405 58.0621
22.975930389478226 59.0678
22.998650119445763 60.016000000000005
23.02137076586092 59.8636
23.044269845560063 59.3978
23.06699233506288 58.27
23.089715744034912 56.1835
23.112617610931565 54.3033
23.135342869061212 52.8823
23.158069049684816 51.7369
23.1807961538087 51.2048
23.20370174880544 51.0992
23.226430710184808 51.1646
23.249160598093425 50.9273
23.271891413539002 50.9485
23.294800752937697 50.9945
23.31753343374794 51.1901
23.340267045128353 51.3696
23.36300158808808 51.5715
23.38591468821339 51.9064
23.408651104658304 52.2847
23.431388455719986 52.4868
23.454126742409 52.8745
23.4770436196085 53.6333
23.499783787914662 54.7032
23.522524894889884 55.4988
23.54526694154616 56.431999999999995
23.56818761219047 57.6496
23.59093154860734 58.7055
23.613676427751283 59.6194
23.636422250635754 59.665
23.659346731118656 59.1744
23.68209445191868 57.6597
23.704843119509587 55.172
23.72759273490623 52.9942
23.750521041644767 51.3577
23.77327256312355 49.8626
23.796025035462787 48.8012
23.818956224555475 48.2655
23.841710609113413 48.0534
23.86446594758979 47.739
23.887222241002014 47.3648
23.910157285144578 47.0631
23.932915498962537 47.2814
23.955674670778713 46.9902
23.978434801611975 46.8047
24.001373717286125 46.6711
24.024135776723917 46.601000000000006
24.046898798245582 46.375
24.06966278287146 46.272
24.092605586582614 45.9872
24.115371508023642 46.0625
24.1381383956401 45.9243
24.16090625045381 45.7762
24.183852958731244 45.7688
24.206622758582608 45.6904
24.229393528706886 45.4777
24.252165270127392 45.5045
24.27511589952438 45.4401
24.297889594216997 45.1575
24.32066426328598 45.2543
24.34343990775613 45.1906
24.36639447485003 45.1098
24.38917208083877 44.9167
24.41195066531332 44.8799
24.43490819850244 44.7549
24.457688750692377 44.6457
24.48047028445616 44.7254
24.503252800821233 44.7402
24.526214300784112 44.7841
24.548998793132213 44.7403
24.57178427117417 44.6216
24.59457073593893 44.7371
24.617536219319863 44.8003
24.64032466834748 44.8741
24.663114107195035 44.6566
24.685904536893013 44.3552
24.708874020360852 44.3008
24.731666442613744 44.373000000000005
24.754459858818787 44.354
24.777254270007962 44.1268
24.80022777025625 43.9769
24.82302418230472 43.9787
24.845821592443674 43.9078
24.86862000170663 43.8861
24.891597535453727 43.8212
24.914397953892728 44.1558
24.93719937456671 43.8341
24.96000179851076 44.0026
24.98298338249997 44.153
25.00578782394922 44.4269
25.028593271784167 44.4247
25.05157790644186 44.7149
25.07438537804115 44.7792
25.097193859145293 44.9975
25.120003350792075 45.1558
25.142992065061257 45.6451
25.165803588823465 45.965
25.18861612625217 46.0423
25.211429678386736 46.2968
25.234422489079968 46.4196
25.257238081693636 46.3441
25.280054692141732 46.5465
25.3028723214652 46.5664
25.325869245420463 46.4286
25.348688923599397 46.5488
25.371509623787006 46.5024
25.394331347025812 46.5983
25.41733240110666 46.2792
25.440156181590016 45.7625
25.46298098826268 45.3805
25.48580682216873 44.7718
25.50881202326435 44.0505
25.53163992281684 43.4012
25.55446885274561 43.0534
25.577298814096377 42.619
25.600308179121807 42.5614
25.623140214533745 42.7427
25.64597328451537 42.4541
25.66898578564376 42.2545
25.691820936010206 42.3362
25.714657124097695 42.1641
25.737494350954734 42.2456
25.760511045684957 42.0358
25.783350361364224 42.0916
25.806190718969255 42.1901
25.82903211955018 42.5425
25.852053024868923 42.3813
25.874896522722523 42.2783
25.897741066713106 42.2954
25.920586657892454 42.3115
25.943611790812668 42.4385
25.966459487728237 42.4216
25.989308234998564 42.3224
26.01215803367705 42.7031
26.03518741123814 42.9536
26.05803932412957 42.9543
26.080892291600094 42.9245
26.10374631470478 43.001999999999995
26.12677995397268 43.3071
26.14963609978026 43.4322
26.172493304397875 43.2307
26.19535156888223 43.1032
26.218389486949604 42.6326
26.241249882640123 42.3242
26.26411134137826 42.1195
26.28715248187403 42.0068
26.31001607820869 41.8206
26.3328807407756 41.7377
26.35574647063438 41.8539
26.37879191991473 41.8393
26.401659795896734 41.8115
26.424528742360263 41.9315
26.447398760366614 41.9991
26.470448535598294 42.0882
26.49332070826805 42.3597
26.516193955675355 42.4759
26.53906827888316 42.6807
26.562122397260108 42.7009
26.584998883685063 43.0341
26.607876449110325 43.3048
26.63075509460056 43.4219
26.65381357334404 43.5381
26.67669439061878 43.6827
26.699576291163382 43.7275
26.722459276044212 43.8341
26.745522132402975 43.4158
26.768407297649354 43.2109
26.791293550442003 42.9725
26.814180891848974 42.6759
26.837248143099337 42.2884
26.860137673466657 42.1881
26.88302829566349 41.8871
26.90592001075963 41.7504
26.92899167420566 41.6985
26.951885586870763 41.2642
26.974780595655517 41.0822
26.99785558178161 40.8425
27.020752794605112 40.5399
27.043651106772522 40.5592
27.06655051935668 40.4211
27.089629948036183 40.3074
27.112531573292053 40.1372
27.135434302194138 40.1943
27.158338135817015 40.1125
27.181422024430987 40.1834
27.204328079372566 40.0443
27.22723524226965 40.0121
27.250143514198573 40.1314
27.273231880156334 40.1349
27.296142382065014 39.9855
27.319053996245536 39.8181
27.341966723775965 39.9219
27.365059584515222 40.059
27.38797455070062 40.0273
27.410890633481237 39.8488
27.433807833936918 39.7769
27.456905206923906 40.0004
27.47982465472398 40.0258
27.502745223449743 40.1029
27.525666914182825 40.2245
27.548768816912457 40.1267
27.571692763693633 39.9745
27.59461783573812 39.9679
27.617723149491244 39.8345
27.640650484125285 39.7109
27.66357894728264 39.7648
27.686508540048052 39.7358
27.709618414237887 39.5412
27.732550278321757 39.4257
27.755483275279115 39.3879
27.778417406196485 39.4298
27.801531858397514 39.376
27.824468269376716 39.3003
27.847405817586786 39.3624
27.870344504116094 39.4528
27.893463551932008 39.5046
27.916404527281053 39.6988
27.93934664422563 39.8149
27.962289903855886 39.7412
27.98541356491974 39.9164
28.00835912214229 40.0323
28.03130582533231 40.2856
28.054253675581805 40.4275
28.077381967556104 40.4309
28.100332124185126 40.5009
28.123283431160893 40.5526
28.146235889577238 40.3652
28.169368830154156 40.2163
28.192323603752033 40.0605
28.215279532083304 39.7096
28.238415973016764 39.4935
28.261374223145094 39.3701
28.284333631303806 39.1114
28.307294198589954 39.13
28.330435319167677 38.8646
28.353398217078915 38.7041
28.376362277420153 38.3159
28.39932750129032 38.0995
28.422473319286713 37.9908
28.44544088262495 37.9279
28.468409612800283 37.7737
28.491379510913497 37.4769
28.51453004413313 37.41
28.53750229057244 37.316
28.56047570826344 37.3179
28.583450298308804 37.3436
28.606605564586562 37.116
28.629582511831156 37.169000000000004
28.65256063474956 36.9843
28.675539934446338 37.0744
28.698699951647605 37.0866
28.72168161743193 36.9254
28.74466446331978 36.9073
28.767648490417624 36.7209
28.790813276438353 36.8019
28.813799678527303 36.8036
28.836787265157085 36.8686
28.859955641890075 36.8076
28.882945610203045 36.7099
28.905936766392035 36.6048
28.928929111566863 36.7229
28.952102288520145 36.7395
28.975097024308607 36.6196
28.998092952423807 36.4577
29.021090073977508 36.3798
29.04426806913204 36.3004
29.067267590245258 36.0532
29.090268308143695 36.1557
29.11327022394099 35.9511
29.13645305530891 35.8304
29.159457379627167 35.8022
29.18246290519685 35.6592
29.20546963313352 35.6756
29.22865731875826 35.6702
29.25166646419296 35.692
29.27467681535305 35.5817
29.29768837335608 35.6781
29.320880931312562 35.6582
29.34389491580634 35.6428
29.366910110507334 35.6377
29.38992651653503 35.6384
29.41312396492981 35.5497
29.436142806456754 35.4833
29.45916286268059 35.4778
29.48236399319994 35.3814
29.50538649169417 35.1573
29.528410208259935 35.0978
29.55143514402014 34.9931
29.574641196749695 34.8727
29.597668583816574 34.7861
29.6206971934585 34.5791
29.64372702680042 34.5619
29.666938019934474 34.38
29.689970313635285 34.3374
29.713003834422636 34.330999999999996
29.73603858342347 34.2873
29.759254535188578 34.184
29.78229175361658 34.0666
29.80533020365064 34.2784
29.82836988641968 34.1685
29.85159081507472 34.1382
29.874632976355343 33.9724
29.89767637376955 34.1099
29.920721008448314 34.0591
29.9439469322847 33.9027
29.96699405457564 33.731
29.9900424175358 33.9306
30.013092022298157 33.8085
30.03632295963995 33.7688
30.059375061131373 33.7414
30.08242840783577 33.7523
30.105483000888153 33.8259
30.128718970092244 33.7273
30.151776069006917 33.7076
30.17483441768648 33.6827
30.198074175317235 33.6317
30.221135036724256 33.6951
30.24419715131772 33.7146
30.267260520236203 33.5128
30.290505341942243 33.6307
30.313571232750228 33.6736
30.336638381310948 33.6502
30.35970678876503 33.6574
30.38295669299435 33.5614
30.40602763151657 33.5511
30.429099832366074 33.5259
30.452173296685572 33.3382
30.47542830191959 33.2951
30.498504306502497 33.3068
30.521581577995562 33.4362
30.544660117543582 33.4594
30.56792024229725 33.4865
30.59100133132069 33.3547
30.614083691845494 33.2364
30.637167325018545 33.4341
30.660432587840603 33.4612
30.683518779717886 33.4049
30.70660624769615 33.4003
30.729694992924372 33.3752
30.75296541239743 33.4204
30.77605672557558 33.3938
30.799149319462742 33.3709
30.8224236211637 33.3527
30.845518789950724 33.2894
30.868615242910597 33.2034
30.891712981195973 33.0089
30.91499247215866 32.8936
30.938092794619365 32.7787
30.96119440587579 32.7398
30.984297307082752 32.7557
31.00758200598383 32.6773
31.030687500658694 32.5164
31.053794288760695 32.574
31.076902371446767 32.4099
31.100192296997445 32.332
31.12330298246119 32.3179
31.14641496599209 32.2012
31.169528248749216 32.2882
31.19282341969534 32.164
31.215939314557186 32.1796
31.239056512134788 32.1688
31.262175013589378 32.1513
31.28547544871168 32.1093
31.30859657161541 31.9488
31.331719001892175 32.0394
31.35484274070538 32.1255
31.378148458819545 32.1567
31.401274828443725 32.0912
31.424402510106933 32.2164
31.447712205419993 32.2615
31.470842524931633 31.9984
31.493974159989783 32.0415
31.51710711176168 32.0181
31.54042212308802 32.028
31.563557722100917 31.9263
31.586694641341655 31.8787
31.609832881979628 31.7666
31.63315322823208 31.7275
31.656294125521327 31.6017
31.679436347728515 31.5955
31.70257989602529 31.5035
31.725905596152327 31.5158
31.74905181052835 31.3249
31.772199354521323 31.4207
31.79534822930507 31.3849
31.818679302290967 31.416
31.84183085259981 31.308000000000003
31.864983737233473 31.2182
31.88813795736804 31.2835
31.911474422233013 31.1845
31.934631327356435 31.2016
31.9577895715215 31.2026
31.980949155906522 31.2616
32.004291031706956 31.3032
32.027453310562606 31.2018
32.05061693318573 30.9627
32.07396288236386 31.0337
32.09712920658542 30.899
32.12029687812702 30.7815
32.14346589817093 30.7417
32.166817291729984 30.8266
32.18998902288583 30.6915
32.21316210610336 30.5925
32.23633654256711 30.5558
32.259693399663725 30.5088
32.282870556771144 30.3857
32.30604907069099 30.4402
32.329228942610065 30.3675
32.35259128243769 30.180999999999997
32.375773884550505 30.1237
32.398957848235646 30.1314
32.422143174682176 30.0817
32.445511016471215 29.9738
32.468699082679954 29.9681
32.49188851523011 29.8699
32.51507931531304 29.791999999999998
32.538452678331 29.7649
32.56164622776311 29.7251
32.58484114831493 29.5152
32.60803744118015 29.6525
32.631416344731896 29.6516
32.654615396551876 29.5878
32.67781582427913 29.6119
32.701198898634416 29.4233
32.72440209253756 29.4712
32.747606665947124 29.4153
32.77081262006088 29.3348
32.79420126883317 29.2949
32.81740999876112 29.2996
32.840620112999424 29.2172
32.86383161274818 29.2555
32.88722585534586 29.1868
32.91044014056596 29.2266
32.933655814909734 29.149
32.95687287957963 29.1379
32.98027273544904 29.0027
33.00349259526636 29.0198
33.026713849030116 29.0128
33.04993649794511 28.9804
33.073341986570746 28.9061
33.09656744032826 28.8401
33.11979429286444 28.92
33.14302254538647 28.8478
33.166433686291185 28.8742
33.18966475336992 28.6914
33.212897224069096 28.7363
33.23613109959831 28.7391
33.259547912343415 28.6324
33.2827846121627 28.6425
33.306022720453775 28.5564
33.32926223842861 28.4845
33.352684742614166 28.5764
33.37592709463173 28.55
33.399170859982064 28.4964
33.422597648419426 28.2966
33.44584425514446 28.1188
33.46909227885668 28.159000000000002
33.4923417207723 28.1212
33.51577423505344 28.1454
33.539026528130385 27.9734
33.56228024307245 28.003
33.585535381098246 27.8579
33.60897364093058 27.8033
33.63223163992385 27.787
33.6554910656699 27.7484
33.678751919389796 27.7553
33.702195944520106 27.683000000000003
33.72545966903325 27.7083
33.74872482519663 27.5585
33.771991414233746 27.5625
33.79544122444841 27.6229
33.81871069412428 27.3755
33.84198160035767 27.4154
33.86525394437455 27.4902
33.88870955949969 27.363000000000003
33.911984794020626 27.362
33.93526147001624 27.2564
33.958539588715006 27.2362
33.98200102861669 27.2433
34.0052820477047 27.1315
34.02856451319451 27.154
34.05203033759056 27.0251
34.07531571090147 26.9712
34.09860253431845 26.9951
34.121890809074316 26.913
34.145362493118924 26.9637
34.16865368561615 26.9331
34.191946333164054 26.7427
34.21524043699793 26.829
34.23871800066799 26.7903
34.26201503218366 26.663
34.28531352370466 26.6791
34.30861347646881 26.6665
34.33209693978188 26.4837
34.3553998301885 26.5633
34.378704185565205 26.4184
34.402010007152356 26.4057
34.42549939016683 26.4046
34.44880815937748 26.3724
34.472118398533134 26.264
34.49543010887669 26.1999
34.51892543169198 26.1877
34.54224009966052 26.1678
34.56555624255917 26.1988
34.58887386163339 26.1643
34.61237514439016 26.1244
34.6356957311114 26.0001
34.65901779775809 25.9248
34.68252356662995 25.9325
34.705848608458616 25.918000000000003
34.72917513396849 25.8977
34.75250314440949 25.7982
34.77601490857862 25.7248
34.799345904259795 25.7278
34.82267838863559 25.7477
34.846012362958525 25.7083
34.869530142679984 25.6702
34.89286711232212 25.5678
34.91620557568269 25.5566
34.93954553401677 25.584
34.9630693495876 25.4984
34.986412313340814 25.5004
35.00975677584668 25.4476
35.033102738362956 25.4034
35.05663261012228 25.3734
35.0799815881786 25.3278
35.10333207003229 25.2815
35.12668405694369 25.2536
35.150220005273056 25.2882
35.17357501786656 25.2572
35.19693153931268 25.1483
35.220289570874385 25.1351
35.24383161619786 25.1403
35.267192683604904 25.1571
35.290555264930376 25.1052
35.314101899412165 25.0259
35.33746752422433 25.0233
35.36083466676374 25.0429
35.38420332829803 24.9054
35.407756095629054 24.9536
35.43112781085063 24.926
35.45450104888391 24.8072
35.477875810999194 24.915
35.50143473172161 24.7957
35.52481255774625 24.8377
35.54819191167777 24.7994
35.57157279478914 24.703000000000003
35.595137889488406 24.7434
35.61852184675279 24.6231
35.641907337029984 24.6082
35.665294361595684 24.631999999999998
35.68886565090076 24.4899
35.7122557598848 24.4657
35.73564740699838 24.4143
35.759040593519934 24.3154
35.78261809810353 24.3439
35.80601437933051 24.2827
35.829412203814705 24.2211
35.85281157283719 24.2235
35.876395313415884 24.142
35.8997977874528 24.0859
35.92320180988546 24.1501
35.946790244133936 24.0337
35.97019737933222 24.0585
35.993606066789866 24.0251
36.01701630779276 23.9928
36.04061101440684 23.9566
36.06402437852291 23.9306
36.08743930005611 23.8824
36.1108557802951 23.7364
36.13445678011326 23.7643
36.15787639383515 23.8262
36.18129757014299 23.7466
36.20472031032821 23.6441
36.22832762423364 23.6428
36.25175350829375 23.6507
36.275180960119776 23.5509
36.298609981005924 23.5838
36.32222362992669 23.7073
36.34565580510207 23.5586
36.36908955323448 23.5042
36.39252487562093 23.369
36.416144880530226 23.4281
36.43958336764275 23.3973
36.463023432914625 23.3508
36.486465077645676 23.218000000000004
36.51009145956204 23.3014
36.53353627947859 23.2275
36.55698268276811 23.2339
36.58043067073321 23.1423
36.60406345072071 23.1062
36.62751462435344 23.108
36.65096738658405 23.0757
36.67460498210655 23.054000000000002
36.69806093788647 23.046999999999997
36.72151848619297 22.9241
36.744977628333636 22.9199
36.76862165890998 22.7912
36.79208400512205 22.8523
36.81554794910557 22.8369
36.83901349217101 22.7405
36.862663978991606 22.7754
36.88613273667352 22.7107
36.90960309738324 22.6397
36.933075062434064 22.6736
36.95673202673572 22.5874
36.98020721697122 22.5682
37.003684015502365 22.5212
37.027162423645365 22.4498
37.050825886711465 22.4158
37.07430753063053 22.3898
37.09779078812467 22.3679
37.121275660513014 22.3511
37.144945643673694 22.2723
37.16843376245278 22.2795
37.19192350009803 22.2371
37.215414857931435 22.1572
37.239091382563885 22.1127
37.262585997426164 22.0456
37.28608223645736 22.1181
37.309763684451696 22.078000000000003
37.33326318851098 21.9895
37.356764320726555 21.9898
37.380267082425526 21.9697
37.40395510942588 21.9627
37.42746114683234 21.857
37.45096881771841 21.8288
37.474478123414166 21.8448
37.49817275092816 21.7587
37.52168534303452 21.7943
37.54519957395567 21.7358
37.568715445024665 21.6872
37.592416694607714 21.6835
37.61593586281424 21.6693
37.63945667518264 21.6588
37.66297913304891 21.5441
37.68668702630454 21.5564
37.710212792059274 21.5008
37.733740207334854 21.4961
37.757269273470364 21.3852
37.780983832050374 21.4099
37.80451621684926 21.3581
37.82805025654007 21.3035
37.851585952464795 21.2302
37.8753071980695 21.2106
37.89884622345676 21.2487
37.92238690911902 21.2113
37.94611318753442 21.112
37.969657210779765 21.0889
37.99320289834801 21.03
38.016750251586465 20.9871
38.04048325513017 20.9338
38.06403395679343 20.9579
38.087586328183946 20.8729
38.11114037065203 20.8933
38.13488012115898 20.8414
38.1584375229181 20.8112
38.181996599821 20.7305
38.205557353221124 20.8068
38.229303872575656 20.8067
38.2528679961576 20.7562
38.27643380031219 20.7595
38.30000128639589 20.608
38.32375459653193 20.6373
38.34732546371299 20.686999999999998
38.37089801690786 20.5719
38.39447225747609 20.531999999999996
38.418232380377425 20.4441
38.441810012983396 20.4815
38.46538933705673 20.4075
38.488970353960084 20.3887
38.51273731166058 20.3172
38.536321731567014 20.2758
38.55990784840681 20.2046
38.58367995004091 20.2269
38.60726947812959 20.1675
38.63086070726198 20.2247
38.654453638806274 20.1743
38.678232613930824 20.078
38.70182896773327 20.1068
38.72542702806741 20.0539
38.7490267963045 20.0452
38.77281266709232 20.0058
38.79641586862214 19.9533
38.8200207821842 19.969
38.843627409152944 19.9173
38.86742019782782 19.8497
38.891030269149255 19.8002
38.914642058016156 19.7623
38.938255565806124 19.7401
38.96205529464307 19.6793
38.98567225787121 19.6658
39.00929094417078 19.7014
39.03291135492255 19.6598
39.05671804624804 19.6216
39.080341923549106 19.5767
39.103967529460334 19.5791
39.127594865365744 19.457
39.15140854155791 19.4098
39.17503935514948 19.4545
39.19867190290282 19.454
39.22249083587951 19.3944
39.24612686969409 19.3403
39.269764641845306 19.3324
39.293404153722804 19.3063
39.317230110864074 19.1951
39.34087311998506 19.1755
39.36451787301696 19.2176
39.388164371352595 19.1475
39.41199737518003 19.076
39.43564738196752 19.0967
39.45929913825317 19.0346
39.48295264543308 19.0686
39.506792718520884 19.045
39.530449745387216 18.9543
39.55410852735203 18.9854
39.57776906581474 18.9818
39.60161623079 18.9358
39.625280300200025 18.8148
39.64894613032202 18.8269
39.67261372255866 18.8253
39.6964680021016 18.7804
39.72013913657293 18.8033
39.74381203738292 18.7624
39.76748670593756 18.7151
39.79134812278169 18.7076
39.81502634488497 18.6997
39.83870633896685 18.622
39.862388106436654 18.572
39.88625668336918 18.5411
39.90994201572829 18.5374
39.933629125719285 18.4608
39.957503091207826 18.4172
39.9811937746168 18.4713
40.00488623990914 18.3908
40.02858048850006 18.378
40.05246165409549 18.3076
40.076159487492085 18.3451
40.099859108448875 18.3279
40.123560518384345 18.3126
40.1474489070226 18.2449
40.171153913178564 18.1619
40.194860712584955 18.1305
40.2185693066637 18.1153
40.242464941335314 18.0514
40.26617714307655 18.0535
40.289891143772046 18.004
40.3136069448471 18.0596
40.33750984859743 18.085
40.3612292688043 17.976
40.3849504936829 17.9252
40.40867352466194 17.9622
40.43258372059144 17.9252
40.45631038219906 17.9065
40.48003885420956 17.8259
40.503769138055105 17.8152
40.52768664931955 17.8148
40.55142057531802 17.7451
40.57515631746428 17.7505
40.599079334038514 17.7037
40.62281872700477 17.6613
40.64655994043941 17.6085
40.67030297578061 17.5768
40.69423334835778 17.5941
40.71798004609188 17.5834
40.74172857006355 17.4993
40.76547892171441 17.506
40.7894166736039 17.5053
40.813170699248566 17.4655
40.83692655691388 17.3927
40.86068424804498 17.4335
40.884629402612525 17.3466
40.908390779366385 17.3983
40.932153993938 17.2973
40.95591904777605 17.2688
40.979871628443995 17.3102
41.003640379561936 17.2189
41.02741097430883 17.2117
41.05118341413683 17.1719
41.075143444384416 17.1612
41.098919593177826 17.1771
41.1226975914255 17.0926
41.14647744058318 17.0418
41.170444943946755 16.9614
41.19422851378379 17.0063
41.218013938914645 16.9747
41.24198706625173 16.8994
41.26577622087193 16.8821
41.289567235177785 16.8597
41.31336011063129 16.8065
41.337340752422875 16.7822
41.361137369129835 16.7352
41.38493585138705 16.7552
41.40873620066004 16.7411
41.43272438060107 16.7335
41.45652848292052 16.6654
41.48033445666918 16.5825
41.50414230331616 16.6313
41.528138045159764 16.6406
41.551949656675205 16.5281
41.575763145513235 16.5309
41.59957851314666 16.4934
41.62358184070442 16.4403
41.64740098505737 16.4447
41.6712220126409 16.4261
41.69504492493139 16.3951
41.71905586207357 16.3955
41.74288256296395 16.3552
41.766711153007456 16.3595
41.79054163368412 16.287
41.814560204340054 16.3001
41.838394485526365 16.250999999999998
41.86223066180303 16.2062
41.88625497706819 16.1636
41.910094962812 16.1584
41.93393684811168 16.1271
41.95778063445365 16.0587
41.981812625263366 16.0067
42.00566023303407 16.0352
42.029509746323676 16.0511
42.05336116662236 16.0209
42.077400857069705 15.9688
42.10125611078846 15.9481
42.12511327600405 15.8831
42.14897235421036 15.8708
42.173019768448455 15.9396
42.19688269209613 15.8536
42.22074753323349 15.8784
42.24461429335818 15.7388
42.268669455600495 15.7258
42.292540073217886 15.7214
42.31641261433284 15.7197
42.34028708044675 15.6764
42.36435001496739 15.6756
42.38822835065557 15.6609
42.41210861586426 15.620999999999999
42.4359908120986 15.6543
42.46006154323262 15.5821
42.48394762115317 15.5348
42.507835634632315 15.4915
42.531912233047436 15.4749
42.55580413732265 15.4328
42.579697981698 15.3651
42.60359376768525 15.3758
42.62767820545945 15.3146
42.65157789440821 15.3181
42.67547952952185 15.2787
42.699383112316 15.2977
42.72347541395347 15.263
42.74738291190531 15.2444
42.771292362102166 15.2039
42.795203766063516 15.1423
42.819303956130405 15.1487
42.843219287476536 15.1134
42.86713657716324 15.1207
42.89105582671383 15.0559
42.91516392983864 15.0563
42.939087119032166 15.0372
42.963012272677304 15.069
42.98693939230129 15.0158
43.01105543317513 14.9702
43.034986504731386 14.8883
43.05891954686589 14.9571
43.08285456110972 14.9396
43.10697856448665 14.8448
43.130917542983475 14.7678
43.15485849820081 14.8241
43.17880143167367 14.7887
43.20293342237094 14.6868
43.226880332449 14.6832
43.25082922540554 14.7604
43.27496722682525 14.6715
43.29892010567796 14.6278
43.32287497204102 14.5837
43.34683182745632 14.5609
43.370977859791836 14.5434
43.39493871351105 14.5716
43.41890156092628 14.5609
43.44286640358341 14.4895
43.46702049182749 14.4872
43.49098934522816 14.3952
43.51496019852649 14.3635
43.5389330532723 14.3644
43.56309522248204 14.3667
43.58707210044314 14.3946
43.61105098451946 14.308
43.63503187626491 14.2957
43.659202151562134 14.2668
43.68318707902681 14.1999
43.70717401884041 14.2021
43.731162972560874 14.1271
43.75534137913236 14.1294
43.779334381108384 14.1439
43.803329401683186 14.1459
43.82732644241872 14.1349
43.8515130055166 14.0941
43.87551410707659 14.017999999999999
43.89951723350145 14.0072
43.923709934595614 13.9536
43.94771713129917 13.9524
43.97172635758096 13.9666
43.99573761501002 13.965
44.0199385169922 13.9113
44.04395385732619 13.887
44.067971233533086 13.8861
44.09199064718605 13.8022
44.11619977548961 13.8383
44.14022328470671 13.7838
44.16424883610785 13.7612
44.18827643127035 13.75
44.21249381139513 13.7735
44.236525514814076 13.6743
44.26055926674478 13.6821
44.28459506876863 13.6978
44.3088207262813 13.5685
44.33286064928722 13.605
44.35690262714919 13.5365
44.38094666145278 13.5095
44.4051806219871 13.5435
44.42922879003185 13.4938
44.45327901929361 13.4424
44.477331311362136 13.4588
44.501573600619416 13.4126
44.525630039221795 13.3661
44.54968854541895 13.4201
44.573937102200176 13.3543
44.5979997645541 13.335
44.622064499300315 13.3064
44.64613130803592 13.284
44.67038823869318 13.2943
44.69445921643748 13.2156
44.718532272981385 13.1575
44.742607409926194 13.1832
44.76687274034801 13.1764
44.79095205918753 13.145999999999999
44.81503346325094 13.0938
44.839116954143876 13.0836
44.86339071028742 13.065999999999999
44.88747839599524 13.024000000000001
44.91156817336837 13.0247
44.93566004401666 13.0233
44.959942251908146 12.9907
44.984038330325966 12.9437
45.00813650686762 12.898
45.03223678314731 12.8934
45.05652746888232 12.8556
45.08063196592069 12.8718
45.104738567558705 12.8693
45.128847275414856 12.8252
45.15314646515866 12.7728
45.17725940679741 12.7708
45.20137445952892 12.7321
45.22568004865265 12.7287
45.24979934496396 12.7305
45.27392075725247 12.6966
45.29804428714431 12.66
45.322358426247604 12.6862
45.346486212804315 12.6253
45.370616121861914 12.5817
45.39474815505086 12.585
45.41907087049246 12.5521
45.4432071734666 12.5159
45.46734560548283 12.5315
45.49148616817604 12.5239
45.51581748638564 12.5003
45.5399623320197 12.4237
45.56410931325473 12.3898
45.58825843173002 12.3918
45.61259837920865 12.3824
45.636751793816 12.3568
45.66090735060093 12.2913
45.68506505120716 12.2411
45.7094136545275 12.2449
45.73357566449271 12.2186
45.75773982322992 12.2141
45.78190613238733 12.1899
45.806263418194064 12.1918
45.83043404997326 12.234000000000002
45.85460683713677 12.1837
45.87897065658495 12.1792
45.90314777634752 12.0759
45.92732705646868 12.0715
45.9515084986045 12.0254
45.97588104735473 12.0201
46.00006683541565 12.0208
46.02425479047904 11.9998
46.04844491420549 12.0393
46.0728262191024 11.9581
46.09702070211635 11.9533
46.12121735879483 11.9391
46.14541619080294 11.9304
46.169806278764455 11.9104
46.194009483459034 11.9108
46.21821486849841 11.8957
46.24242243555223 11.8171
46.266821333570014 11.7829
46.29103328674601 11.7611
46.31524742696538 11.7513
46.33946375590237 11.720999999999998
46.36387149104216 11.7245
46.38809221957392 11.6814
46.41231514186606 11.6903
46.436540259597464 11.6676
46.460956858999374 11.6195
46.48518638983522 11.5901
46.509418121166966 11.5628
46.533652054678114 11.5723
46.55807754555709 11.5549
46.58231590571962 11.5383
46.60655647313217 11.4944
46.630988654873654 11.4356
46.655233659129024 11.4601
46.67948087571551 11.4224
46.70373030632484 11.4217
46.72817142736393 11.3961
46.752425308428684 11.3824
46.77668140861147 11.3624
46.80093972960865 11.2872
46.82538981736788 11.2934
46.849652602470904 11.2358
46.87391761349769 11.2371
46.8981848521493 11.2288
46.9226439341274 11.2024
46.946915650573224 11.2045
46.97118959976749 11.1644
46.99546578341598 11.107000000000001
47.019933887188216 11.0953
47.04421456235744 11.120999999999999
47.06849747711879 11.0986
47.09278263318286 11.0623
47.11725978640143 11.0294
47.14154944775105 10.9896
47.165841355555656 10.9865
47.1901355115306 11.0002
47.214621741924994 10.9664
47.23892041698887 10.9432
47.26322134538975 10.9086
47.28771440635075 10.9337
47.31201986422527 10.9163
47.33632758061436 10.8856
47.360637557241866 10.823
47.38513974410611 10.8347
47.40945426407847 10.8253
47.43377104948137 10.802999999999999
47.45809010204344 10.7648
47.48260144275502 10.7021
47.506925052572285 10.722999999999999
47.53125093475548 10.6668
47.55557909103813 10.686
47.58009961361992 10.6486
47.60443234110732 10.6099
47.62876734791564 10.6478
47.65310463578333 10.6279
47.6776343683373 10.6073
47.7019762413987 10.5884
47.72632040075572 10.5784
47.75066684815169 10.5328
47.77520581885936 10.5138
47.799556865477655 10.4734
47.823910205386 10.4508
47.84826584033272 10.4597
47.87281407745551 10.4595
47.89717432569297 10.4296
47.92153687423484 10.3891
47.94609208429692 10.3807
47.97045925671401 10.3461
47.99482873471275 10.3474
48.01920052005013 10.3132
48.04376504619224 10.2951
48.068141469543484 10.3166
48.09252020552573 10.27
48.11690125590099 10.2423
48.1414751266064 10.2423
48.16586082917454 10.2204
48.19024885144316 10.1768
48.2146391951793 10.1801
48.239222439012764 10.1848
48.26361744916137 10.1143
48.28801478610016 10.1179
48.31241445160131 10.0949
48.337007097209366 10.1149
48.36141144338331 10.0771
48.38581812345755 10.0271
48.41022713920929 10.021
48.434829215320704 10.0599
48.45924292604658 10.0246
48.48365897780325 10.0454
48.50807737237308 9.952539999999999
48.532688907799276 9.948889999999999
48.55711201168574 9.961269999999999
48.581537463754074 9.87143
48.60615611725119 9.90112
48.63058628942721 9.89096
48.65501881516546 9.84928
48.6794536962573 9.823319999999999
48.70408185970339 9.818010000000001
48.72852147531801 9.79373
48.75296345168211 9.75194
48.77740779059232 9.75105
48.80204549302823 9.725610000000001
48.82649458091802 9.72166
48.85094603676547 9.69412
48.87539986237231 9.665289999999999
48.90004713292306 9.7125
48.92450572200832 9.64602
48.94896668628025 9.64368
48.97343002754588 9.65329
48.99808689542115 9.5982
49.02255501470614 9.58116
49.04702551642794 9.5659
49.0714984023988 9.57354
49.096164896893235 9.55075
49.120642575466796 9.482289999999999
49.145122643748394 9.48953
49.16960510355558 9.47574
49.19428125404938 9.4428
49.2187685210852 9.46798
49.243258185121555 9.42585
49.26794160167084 9.3903
49.2924360839405 9.380189999999999
49.31693296869764 9.36065
49.34143225776915 9.323210000000001
49.36612538195438 9.32806
49.39062950396021 9.29487
49.41513603578346 9.304889999999999
49.4396449792564 9.26521
49.46434784069503 9.28112
49.488861631846454 9.25571
49.513377840166804 9.18655
49.537896467493745 9.19156
49.56260909589029 9.15674
49.587132585683285 9.15236
49.611658500018365 9.10338
49.636186840738596 9.093589999999999
49.66090926588511 9.12834
49.685442483902584 9.13156
49.70997813385706 9.03769
49.734516217597076 9.06749
49.75924846937352 9.05695
49.7837914452858 9.02283
49.80833686055187 8.96135
49.83288471702571 8.977889999999999
49.85762682540054 8.99204
49.882179588965734 8.93028
49.9067347993235 8.92935
49.93129245833333 8.92813
49.95604445336378 8.909289999999999
49.98060703442832 8.877139999999999
50.005172069746266 8.84857
50.02993150438364 8.87226
50.05450147301533 8.88013
50.07907390151433 8.8143
50.10364879174981 8.77228
50.12841816587289 8.79657
50.1529980044635 8.76989
50.17758031042124 8.73147
50.20216508562089 8.71813
50.22694442953363 8.67941
50.25153416817468 8.65975
50.27612638170508 8.67576
50.300721072005196 8.64033
50.325510416102105 8.58579
50.350110084975064 8.61135
50.37471223628208 8.61608
50.39931687190919 8.60322
50.424116246675766 8.57648
50.44872587605249 8.582189999999999
50.47333799543065 8.539810000000001
50.49795260670191 8.520769999999999
50.52276204271512 8.48318
50.54738166295838 8.51928
50.57200378079314 8.47713
50.596628398116835 8.45573
50.62144792604559 8.47062
50.646077567609396 8.40498
50.670709714377715 8.42585
50.69553683636198 8.397219999999999
50.72017401885922 8.39942
50.7448137122895 8.38682
50.76945591856022 8.3163
50.79429318636823 8.34602
50.818940443716784 8.354619999999999
50.84359021965163 8.272269999999999
50.868242516085964 8.2887
50.893089960641895 8.26834
50.917747323549435 8.24012
50.94240721271973 8.25707
50.96706963007175 8.24382
50.99192728239342 8.21268
51.01659478166073 8.1823
51.04126481489051 8.21102
51.06593738400761 8.144260000000001
51.090805275207074 8.1321
51.11548294172845 8.13937
51.14016314993547 8.114130000000001
51.164845901758845 8.1097
51.18972406304274 8.05955
51.21441192780656 8.09375
51.23910234200271 8.06396
51.2637953075678 8.04105
51.288683770237945 8.02871
51.31338186432707 7.987830000000001
51.33808251561888 7.977010000000001
51.362978729967345 7.985010000000001
51.387684521509755 7.9688300000000005
51.41239287610203 7.916980000000001
51.437103795691165 7.88904
51.46201036644977 7.89885
51.486726441956634 7.87425
51.51144508832545 7.8859
51.536166307509156 7.83591
51.56108326624387 7.83
51.58580965706056 7.86332
51.61053862657523 7.80214
51.635270176746864 7.74493
51.66019755512065 7.76023
51.68493429268881 7.756489999999999
51.70967361681515 7.749339999999999
51.73441552946465 7.72633
51.759353359237934 7.73195
51.7841004750961 7.71771
51.80885018539685 7.67213
51.833602492111254 7.6413
51.8585508051424 7.64721
51.883308330926425 7.636830000000001
51.90806845906181 7.594869999999999
51.932831191525715 7.586410000000001
51.95779001977161 7.55726
51.98255798721516 7.56381
52.00732856494335 7.54634
52.03229530577543 7.5146
52.057071130455945 7.49667
52.081849571391054 7.521560000000001
52.106630630568695 7.508189999999999
52.13160794279417 7.449330000000001
52.15639426492067 7.490419999999999
52.18118321127822 7.48415
52.205974783860896 7.40839
52.23096269971011 7.376110000000001
52.255759551287994 7.38474
52.280559035098186 7.38435
52.30536115314103 7.356339999999999
52.33035970494467 7.35392
52.35516711807904 7.3566
52.37997717147198 7.290439999999999
52.40478986713005 7.2941199999999995
52.42979908731974 7.279380000000001
52.454617094216 7.26602
52.47943774942214 7.2325800000000005
52.50426105495102 7.21552
52.529280976059844 7.21174
52.554109609024096 7.233739999999999
52.57894089837482 7.17478
52.60377484613117 7.18336
52.62880550079408 7.1566600000000005
52.65364479223379 7.1513100000000005
52.67848674816189 7.14255
52.70352547971946 7.11763
52.72837279155837 7.1006100000000005
52.753222773982785 7.06739
52.778075429022984 7.07486
52.80312495150885 7.06951
52.827982978797436 7.040780000000001
52.85284368481815 7.036060000000001
52.87770707160767 7.004160000000001
52.90276741793998 7.00405
52.92763619336701 6.97845
52.952507655698504 6.95075
52.977381806977576 6.9633
53.00245301017842 6.956460000000001
53.02733256653592 6.95465
53.052214817996074 6.9576899999999995
53.077099766608484 6.8943
53.102181859804446 6.8970899999999995
53.127072229988265 6.86344
53.15196530349892 6.84766
53.17686108239249 6.86448
53.20195409881522 6.84047
53.22685531582556 6.82004
53.25175924441303 6.84013
53.27666588664027 6.809539999999999
53.30176985962693 6.7859300000000005
53.3266819565689 6.74978
53.35159677336455 6.76042
53.376514312083096 6.74833
53.40162927507703 6.730989999999999
53.42655228516116 6.7363800000000005
53.45147802340193 6.70127
53.47660125628886 6.67708
53.50153247842639 6.648569999999999
53.52646643496923 6.624960000000001
53.55140312799818 6.64383
53.576537409691696 6.589180000000001
53.60147960336152 6.60913
53.626424539786164 6.6141
53.65137222105307 6.59766
53.67651758529126 6.53158
53.70147078399681 6.53865
53.72642673383343 6.534269999999999
53.75138543689533 6.53263
53.776541917524526 6.51524
53.801506154876755 6.47641
53.826473151763246 6.44364
53.851442910284916 6.40219
53.87661054126026 6.404730000000001
53.9015858509782 6.39786
53.92656392866066 6.40056
53.95154477641532 6.41862
53.976723591801296 6.33137
54.00171000771266 6.36946
54.02669920004598 6.38143
54.051691170915745 6.36184
54.076881204886796 6.32477
54.101878760928514 6.25565
54.12687910187696 6.26211
54.152077577768296 6.26282
54.1770835166946 6.23719
54.20209224691339 6.22222
54.22710377055121 6.21327
54.25231352511594 6.1574
54.27733066384342 6.200740000000001
54.30235060239643 6.180280000000001
54.32737334290836 6.13242
54.35259441062629 6.12901
54.377622783395324 6.13625
54.40265396455061 6.12996
54.42768795623251 6.10032
54.45292037169559 6.07164
54.477960012857906 6.051480000000001
54.50300247099511 6.07046
54.52804774825457 5.98259
54.55329154616743 5.90719
54.57834249018678 5.97532
54.6033962597977 5.943230000000001
54.6284528571545 5.961530000000001
54.653708072335164 5.91118
54.67877035378786 5.9084
54.70383546947698 5.84845
54.72890342156389 5.80724
54.7541700889442 5.76421
54.77924374251975 5.79105
54.8043202390049 5.74791
54.82959552413022 5.754919999999999
54.8546777351945 5.76971
54.87976279569621 5.72614
54.90485070780914 5.782
54.930137506558005 5.66423
54.95523115074295 5.69981
54.98032765308844 5.6700800000000005
55.005427015775496 5.61463
55.03072536339621 5.67186
55.05583047570572 5.58057
55.080938454927676 5.6159099999999995
55.10604930325027 5.56501
55.131359235107396 5.57604
55.15647585066083 5.52961
55.181595341907496 5.47136
55.20671771104285 5.442419999999999
55.232039262617704 5.43541
55.25716741665048 5.40838
55.28229845518636 5.34192
55.30743238042802 5.365530000000001
55.33276558731939 5.3462
55.357905315183636 5.336880000000001
55.383047936390035 5.31158
55.40819345314859 5.2548699999999995
55.433538351073295 5.23364
55.458689688238415 5.24483
55.483843927614096 5.1879800000000005
55.509197623043605 5.18393
55.53435769621134 5.1098
55.55952067826466 5.06682
55.5846865714265 5.10611
55.61005202069737 5.062130000000001
55.63522376553902 5.05337
55.66039842818645 5.02301
55.68557601087004 5.06439
55.7109532500271 4.94373
55.73613670233794 5.0357199999999995
