TT I
1.2716486653135266 7.375769999999999
1.2939594142134223 7.0738199999999996
1.3162702121660406 7.05426
1.3385810600174564 7.20828
1.3608919586137629 6.81199
1.383202908801069 6.41249
1.405513911425503 6.4009599999999995
1.4278249673332093 6.14771
1.4501343378461518 5.96935
1.4724455028545926 5.9829099999999995
1.4947567236847858 5.63467
1.517068001182951 6.3637
1.5393793361953272 6.23996
1.5616907295681737 5.80424
1.5840021821477681 5.13096
1.60631369478041 5.86762
1.6286252683124185 4.70249
1.6509369035901333 5.22774
1.6732468618895553 5.0084599999999995
1.695558623192809 4.9452300000000005
1.7178704487808514 5.0711900000000005
1.7401823395001077 4.75809
1.7625012545597203 4.612430000000001
1.7848028405262486 4.6496900000000005
1.8071218901122095 4.72241
1.8294236121921872 4.31325
1.8517427996910911 4.27613
1.8740620574440425 4.38703
1.8963639900671978 4.67729
1.9186833908139995 4.931690000000001
1.9409854680117449 4.88816
1.9633050151394713 5.25082
1.9856246367570705 4.76932
2.0079269371922672 4.82564
2.03024671027244 4.04633
2.0525491637446027 4.40206
2.074869091674931 4.66359
2.097171701569106 4.957409999999999
2.1194917877373847 4.91517
2.141811954326636 4.82407
2.164114805233074 5.087280000000001
2.186435135143035 6.827789999999999
2.208738150935709 15.647
2.231058647554722 33.3685
2.2533792288321184 25.4717
2.275682498336085 10.9852
2.298003251406138 6.37766
2.3203066942619714 6.21611
2.3426276225136022 5.84323
2.3649486396617507 5.67833
2.387252348930071 6.08849
2.4095735463442893 5.73915
2.4318774374315884 5.7001
2.4541988185014043 6.0772
2.476502894794693 6.952489999999999
2.498824462909887 7.0338
2.521146125856138 7.608569999999999
2.5434504863470337 7.947
2.5657723414244717 8.19448
2.588076895590662 8.5418
2.610398946189713 8.97642
2.6327210958598384 8.486419999999999
2.6550259469304716 8.27089
2.6773482972090137 8.83104
2.6996533504259 8.68633
2.7219759047039602 8.47988
2.744298562293959 8.62532
2.7666039251246595 8.09253
2.7889267918020164 8.1929
2.8112323652516555 8.640419999999999
2.833555444408179 9.11844
2.8558786311183852 8.8062
2.8781845268938557 8.92505
2.9005079311721484 9.275139999999999
2.9228140460410397 9.18727
2.9451376712799635 9.727360000000001
2.967444008632326 9.64199
2.9897678582247247 10.79
3.0120918213106695 11.2023
3.0343984987899373 10.8402
3.0567226913198637 11.3952
3.079029599759726 12.0258
3.101354025127254 12.1708
3.123678568232338 12.8147
3.145985829517914 13.2854
3.16831061055229 14.2041
3.1906181112775593 14.9411
3.212943133635653 14.9012
3.2352682779763207 15.190999999999999
3.2575761442691227 15.5946
3.2799015350264273 15.5159
3.302209649240067 16.4915
3.3245352898092655 16.7603
3.3468436553365257 17.3893
3.369169549113219 17.8235
3.3914955708171384 18.9581
3.413804319727358 19.1265
3.4361305997334863 19.0357
3.4584396084414553 19.8551
3.4807661501462652 20.5979
3.503092824025881 20.5291
3.5254022288463154 21.1226
3.5477291695206588 21.9885
3.5700388426251948 22.5081
3.5923660534916446 24.2054
3.6146934007816114 41.3739
3.637003482731501 101.522
3.6593311053109985 115.301
3.681641464033634 64.6001
3.7039693653009733 32.1893
3.726297407241705 26.3361
3.7486081875460804 26.2521
3.7709365132734978 26.296999999999997
3.793247578841633 26.6418
3.8155761917550093 26.7799
3.8378875459837216 26.9883
3.8602164494827234 27.4396
3.882545499606844 28.249000000000002
3.9048572932539183 28.9335
3.9271866390645718 29.2639
3.9494987298666713 29.6514
3.971828374764527 30.2357
3.9941581705403255 29.849
4.016470713506008 31.0292
4.038800813471445 32.0421
4.061113662089144 32.6933
4.0834440696459176 33.7656
4.105774632334751 33.6847
4.128087945865126 34.8819
4.150418821249301 35.6079
4.172732448931298 36.6839
4.195063640413578 38.8258
4.2173775856475215 42.5563
4.239709096631102 79.2086
4.262040768704612 274.406
4.284355196706267 381.1
4.306687193387355 244.204
4.329001947444346 90.0054
4.35133427213731 49.1996
4.373666762177566 44.7189
4.395982011761091 44.7344
4.418314834921175 45.4603
4.44063041906622 54.3617
4.4629635787515625 67.939
4.4852969080429785 67.6106
4.5076130004776225 54.5944
4.529946671403969 49.6543
4.552263106909177 49.7501
4.574597122877047 50.4834
4.596931312711224 51.5019
4.619248269273446 52.7648
4.6415828092605835 53.5398
4.663900117405352 54.8024
4.686235010953232 55.6876
4.708552674085913 57.3167
4.730887924602802 58.6443
4.753223354952695 59.6669
4.775541557023902 61.0681
4.797877349456786 62.8791
4.820195915032126 65.017
4.842532072957498 66.1354
4.864868414979744 67.4996
4.88718753227192 69.6825
4.909524244902505 71.5355
4.931843734218147 73.3304
4.954180820867835 75.8735
4.976518095879839 78.2648
4.998838149695359 81.5539
5.021175803844231 84.7497
5.043496238205739 87.9319
5.065834274903528 91.3966
5.088172504230693 96.0871
5.1104935158799565 101.92299999999999
5.132832132875765 123.72
5.155153533596801 170.815
5.1774925416746225 202.74099999999999
5.199814334878411 290.0
5.2221537374521505 767.336
5.244493338631803 2406.91
5.266815727034316 7360.73
5.289155727832427 12822.6
5.311478517248165 9394.11
5.333818921080011 2934.82
5.356159527788849 535.4540000000001
5.3784829252032536 179.23
5.400823940070432 140.278
5.423147747031976 125.324
5.445489173474152 116.116
5.467830807066149 110.93700000000001
5.490155234831516 106.792
5.512497285125229 103.62299999999999
5.534822130975162 102.47399999999999
5.557164601388673 100.3
5.579489868738879 97.4585
5.601832762690846 96.6251
5.6241758697774475 96.1428
5.646501775867269 95.0444
5.668845311622074 93.5801
5.691171647754637 92.6883
5.713515615597765 91.4766
5.735859800852677 89.9875
5.758186788542988 89.4595
5.780531411018185 89.5012
5.802858837297399 88.8109
5.825203900414495 88.7187
5.8475491852224 89.0955
5.869877275883075 89.3481
5.892223006467101 89.8194
5.914551544266608 90.7442
5.936897724049891 92.9906
5.959244129804903 96.2427
5.981573344815301 108.368
6.0039202049061 170.831
6.026249875609095 361.783
6.04859719346037 800.755
6.070927323278297 2028.08
6.093275102315365 4354.43
6.115623113320588 5182.24
6.137953938319995 3208.78
6.160302415650845 932.947
6.182633708324452 228.285
6.2049826554078376 112.304
6.227331838745022 90.45200000000001
6.249663839443684 83.8045
6.27201349767565 81.6588
6.294345974611799 89.6714
6.316696111167083 104.117
6.339046488263839 98.6666
6.361379686074702 80.9125
6.383730546639482 71.7482
6.406064229255215 68.115
6.428415576718203 67.3789
6.450749747566656 66.312
6.47310158535871 65.4073
6.495453669698332 64.7637
6.517788579421056 64.2075
6.540141159237969 63.1303
6.562476565766648 62.8222
6.5848296444934045 62.673
6.607182974060425 62.0023
6.6295191323281015 62.0821
6.651872965955752 66.3016
6.6742096296068985 96.7279
6.6965639707294615 152.655
6.71891856698715 154.952
6.741255995248479 102.186
6.763611104154477 69.8494
6.785949046381137 60.5641
6.808304671371482 58.3808
6.8306605557940046 57.6215
6.852999275508618 56.6782
6.875355681171544 56.4319
6.897694923437771 56.6398
6.92005185377892 56.3352
6.9423916220322655 56.3453
6.964749080490181 55.4477
6.987106804399774 55.5982
7.009447368180821 55.7873
7.031805625367033 55.3078
7.054146723727803 54.9522
7.076505517631004 54.72
7.098864581288365 54.7229
7.121206488070854 54.2522
7.143566093607822 54.4161
7.165908543567245 54.9266
7.188268694426048 55.0024
7.2106291193438095 55.291000000000004
7.232972390625943 57.0301
7.255333366030969 72.2779
7.277677189091925 135.439
7.300038718428332 194.857
7.322400526130865 163.502
7.344745183422596 97.0397
7.367107550224791 63.2429
7.389452767901992 56.4371
7.411815697249891 55.2871
7.434161478756298 54.456
7.456524974096713 53.8763
7.478888753837185 54.0663
7.501235387657368 54.1849
7.523599738562711 54.3342
7.545946944825532 54.5115
7.568311870344528 54.8281
7.5906770845765665 55.0906
7.613025156078678 56.5664
7.635390950099687 57.9246
7.657739602662809 57.2259
7.680105979923558 55.9513
7.702472650212829 55.4905
7.724822180948224 54.9699
7.747189439655568 55.3108
7.769539560075357 55.4581
7.791907410653562 56.1818
7.81425812420825 56.1391
7.836626570110925 56.293
7.858995315087906 56.8373
7.881346924933401 57.2768
7.903716270417482 57.8602
7.926068482028405 58.0549
7.948438431475253 58.4432
7.9708086843180235 59.1791
7.993161805171116 59.5614
8.015532667162402 59.7183
8.037886398416653 61.1005
8.060257873014221 61.2466
8.082629655331942 62.0235
8.104984308787587 63.3331
8.127356708900503 66.8434
8.149711981398308 73.3125
8.172085002766314 76.0192
8.194458336181368 72.206
8.216814543847752 69.0428
8.23918850371002 68.5903
8.26154533906492 69.0484
8.283919928836452 70.542
8.306277395339652 71.748
8.328652618483376 73.1185
8.351028159736202 74.5246
8.373386579575245 76.3892
8.395762759396959 78.1908
8.418121819038275 83.6071
8.440498640894003 98.0361
8.462875785192262 113.23
8.485235811156207 120.68799999999999
8.507613602688501 144.595
8.529974277114228 215.82299999999998
8.552352719347912 328.57199999999995
8.574731488360351 576.075
8.59709314210385 1113.98
8.619472567021075 1827.83
8.64183487789147 2269.17
8.664214962183097 1860.13
8.686577933647762 974.8889999999999
8.708958680784317 373.814
8.731339760774953 173.97299999999998
8.753703729764451 111.598
8.77608547780821 97.741
8.798450116065078 93.9971
8.820832535634787 90.915
8.843215292401656 89.4651
8.865580941199045 88.09
8.887964374703538 87.0577
8.910330701447199 88.5996
8.932714815164482 91.7554
8.955099270424924 91.1958
8.977466620733543 87.5382
8.999851761421976 84.3003
9.022219798361645 82.6224
9.04460562795561 82.0251
9.066991803441677 81.9016
9.089360876979615 81.4271
9.111747746589993 80.8469
9.13411751544971 80.4752
9.156505082664324 80.2461
9.178875550323522 80.9616
9.20126381862328 81.2753
9.223652438908596 81.8717
9.246023961427412 81.443
9.26841328802173 80.3596
9.290785518039224 80.2654
9.313175554425882 81.1479
9.335565947154315 80.7528
9.357939245086508 81.3044
9.380330352834827 81.8378
9.40270436697103 82.1754
9.425096193225055 81.8864
9.447488380180165 82.4641
9.469863475295412 82.7017
9.492256385987508 83.3865
9.514632206018318 83.8398
9.537025843935714 84.2735
9.559402392368193 84.40100000000001
9.581796761000229 85.8155
9.604191496441521 86.8294
9.626569144158516 90.6792
9.648964615551032 96.2731
9.671343000390081 98.3136
9.693739211225699 95.4295
9.716135793237463 92.0386
9.738515290448102 91.4908
9.760912617143402 92.1273
9.783292860202891 93.4888
9.805690935076182 94.365
9.828089385495742 95.4394
9.850470754023561 97.8787
9.872869957865444 106.861
9.89525208097539 124.27
9.917652041736662 138.803
9.940052382417589 136.265
9.962435644102392 133.861
9.984836746950979 155.64
10.007220771957746 208.715
10.029622640473708 296.14
10.052007432299963 464.03
10.074410069984072 744.316
10.096813093716005 1223.81
10.119199042482517 1760.58
10.141602840636468 1970.47
10.163989564971628 1604.07
10.186394141051062 930.2339999999999
10.208799107559706 405.485
10.231187001965623 186.28400000000002
10.253592751657669 124.678
10.275981430388155 111.56299999999999
10.298387966769793 111.93700000000001
10.320794897965431 115.48299999999999
10.343184759907361 114.488
10.36559248305461 108.119
10.387983138083852 102.96799999999999
10.410391656691655 103.495
10.432800574501677 111.26700000000001
10.455192425893369 124.867
10.47760214443012 146.589
10.499994797678786 186.965
10.522405320453982 266.26599999999996
10.54479877906917 399.276
10.567210109595656 528.456
10.5896218454736 577.3580000000001
10.612016518879773 501.319
10.634429067781074 344.906
10.656824555333241 200.34099999999998
10.679237920773568 123.806
10.701651695961992 95.8488
10.724048411481384 88.1541
10.746463008485165 85.4427
10.768860546937125 83.6846
10.791275969274796 81.8337
10.81369180576079 80.8695
10.836090585366925 79.8187
10.858507252467449 78.7357
10.88090686379991 77.5913
10.903324365036394 77.2007
10.925724811614439 77.7698
10.948143150509463 79.2762
10.970561909719066 78.3987
10.992963615930844 76.319
11.015383218085756 74.0414
11.037785768347074 72.525
11.06020621697282 71.7241
11.082627090322113 71.4886
11.105030913430326 70.7865
11.12745263854165 71.6038
11.149857314510728 75.9968
11.172279894912576 83.4961
11.194702904450653 84.6862
11.217108866490921 79.9364
11.239532736615194 74.464
11.26193956033512 71.7185
11.284364294577085 70.0433
11.306789462371718 67.6323
11.329197585398376 66.4331
11.351623622610898 66.285
11.37403261614354 65.3424
11.396459526308487 65.3608
11.418869393879497 64.425
11.441297180532617 64.3778
11.463725406927658 63.9842
11.486136592353875 63.7988
11.508565700543707 64.8333
11.530977768845315 67.0476
11.553407762368774 68.1811
11.575838200059769 67.3775
11.598251599479612 65.1974
11.620682927815501 63.2171
11.64309721895548 62.7311
11.665529441478206 62.2889
11.687962112597958 62.0134
11.710377748130886 62.1248
11.732811318753434 61.951
11.755227854859067 61.9808
11.777662328529495 61.9622
11.800079768750786 61.7866
11.822515149015453 61.6722
11.844950984084935 61.8682
11.867369787303163 61.6599
11.889806534289491 61.4046
11.912226250487029 61.6124
11.934663912939751 61.7256
11.9571020346363 61.7859
11.979523127133968 61.5914
12.001962169624331 62.1671
12.024384183972964 62.73
12.046824150809913 65.2886
12.069264581333726 69.6211
12.091687985297767 75.1951
12.11412934550045 83.6146
12.136553680195208 97.3985
12.158995973632788 120.964
12.181438735204349 149.864
12.20386447284199 187.106
12.226308172985636 208.854
12.24873485024193 202.685
12.271179492516982 168.799
12.293607112949127 128.02700000000002
12.316052700916226 98.1146
12.338498763250042 79.5601
12.360927805303868 70.447
12.383374818673879 66.0584
12.405804812803074 63.9387
12.428252780773262 63.5163
12.45070122756722 63.2377
12.473132656675375 63.2469
12.49558206341869 63.3706
12.518014453510101 63.4135
12.540464823770117 63.7368
12.562915677315177 63.8392
12.58534951575545 64.4278
12.607801338171472 66.9945
12.630236146511358 73.1501
12.652688941369085 79.0498
12.675124723177234 79.4522
12.697578494048786 74.9382
12.720032754458185 69.574
12.742470003354093 67.0646
12.764925245138771 66.6949
12.787363476431278 67.0708
12.809819703166806 67.0614
12.83227642391173 67.9883
12.854716135692716 68.7119
12.877173846755147 69.4869
12.899614549869717 69.8185
12.9220732548287 70.214
12.94453245827299 70.7396
12.966974655289818 71.6839
12.989434858002571 72.4509
13.011878055298721 73.0241
13.034339260862497 74.043
13.056800969391883 75.4551
13.079245674017244 77.0429
13.101708390774869 78.6248
13.12415410463411 83.8372
13.146617833206086 93.8692
13.169064559883248 103.911
13.191529303857127 117.025
13.213994557076367 137.233
13.236442809902437 171.912
13.258909083908291 226.225
13.28135835851934 292.139
13.30382565690295 367.915
13.326293469022952 426.065
13.348744283242008 428.50800000000004
13.371213125129904 361.909
13.39366497011003 262.138
13.416134845360597 172.293
13.438605238843131 123.699
13.46105863690397 102.505
13.483530069144786 100.39399999999999
13.505984506951902 104.244
13.528456981549432 112.677
13.550929978879088 125.637
13.573385983253365 148.08700000000002
13.595860028340867 186.21200000000002
13.618317081455832 241.011
13.64079217790333 304.235
13.663250283359057 352.212
13.685726434770173 380.36300000000006
13.708203115221277 342.85
13.730662806148091 259.973
13.75314054697177 184.90099999999998
13.775601299246777 127.522
13.798080104050406 96.1185
13.820559442405358 84.1354
13.843021793671388 80.3335
13.865502201420897 78.6492
13.887965623051947 78.0755
13.910447103807167 76.7312
13.932929122629764 75.8225
13.955394156785959 75.2266
13.977877254034569 74.6745
14.000343367582113 74.0378
14.022827546871707 73.2023
14.045294743423524 72.4945
14.06778000837062 71.631
14.090265817715476 71.531
14.112734645763819 71.3788
14.13522154619454 71.334
14.157691466286913 71.3946
14.180179461423874 71.2937
14.202668005486178 70.5814
14.22513957064374 69.7589
14.247629214846473 69.3815
14.270101881097517 69.047
14.29259262906496 69.4977
14.315083930490205 70.4701
14.337558255389705 70.6485
14.360050666019726 70.3749
14.382526101071944 69.3453
14.405019624534942 68.2167
14.427513705993134 67.4702
14.449990813291825 67.6799
14.47248601302899 67.3674
14.49496423954951 67.4757
14.517460561197822 67.7381
14.539939910570322 67.2697
14.562437357763558 67.7155
14.58493536931253 69.3093
14.607416409993311 70.2355
14.62991555254159 71.2246
14.652397725157423 70.7892
14.674898002342799 69.8686
14.697398848433282 68.9873
14.719882725991326 69.4889
14.74238471217934 69.868
14.764869730765593 72.317
14.787372860692983 75.2525
14.809876564079925 78.8541
14.83236330125751 84.0343
14.854868153850365 92.0327
14.877356041159485 104.65899999999999
14.899862046604186 122.557
14.922351087688757 148.28799999999998
14.944858249632887 179.334
14.967365991421232 207.646
14.989856770231246 223.03599999999997
15.012365673994204 216.21400000000003
15.03485761569738 186.544
15.05736768508665 146.056
15.07987833888692 112.605
15.102372032001655 89.4149
15.124883856909658 76.03699999999999
15.14737872204565 71.1992
15.169891721717274 69.8005
15.192405310371893 69.4757
15.214901940621196 69.9374
15.237416709527137 70.3502
15.259914520936249 70.6564
15.282430473753607 69.5758
15.304947020131227 68.5619
15.327446610371178 67.3116
15.349964346154254 66.4956
15.372465126703139 65.8741
15.394984055556009 65.5038
15.417486030076159 65.1402
15.44000615566487 64.8027
15.462526881230803 65.0678
15.485030653812652 65.2406
15.507552581617434 65.2666
15.530057557334603 65.4944
15.55258069104857 65.0528
15.575104429329837 64.9532
15.597611216864632 64.7008
15.620136166564563 64.7766
15.6426441664095 65.0408
15.665170331202765 66.6097
15.687697105158826 69.0521
15.710206930593545 72.4033
15.732734925158933 75.9795
15.755245972089478 81.533
15.77777519094324 89.84299999999999
15.800287463046663 102.383
15.822817909869592 122.277
15.84534897229804 144.174
15.867863089299354 169.554
15.890395385222186 189.497
15.912910736597423 197.248
15.935444269699861 183.86700000000002
15.957978423016485 157.273
15.980495633101265 121.59700000000001
16.003031029129367 94.2529
16.02554948280019 75.7615
16.048086125229432 67.1303
16.070623392487107 64.7328
16.09314371869582 64.0266
16.11568223789321 63.2187
16.13820381691126 62.2569
16.160743591742527 60.958999999999996
16.183283996022084 59.7954
16.205807461423195 58.7318
16.228349126881973 58.1052
16.25087385432698 58.1509
16.27341678466365 57.7211
16.29594277784926 57.6658
16.31848697676433 58.0856
16.341031811604868 58.481
16.36355971058487 58.7654
16.3861058195587 58.4235
16.40863499352978 57.2594
16.431182380342005 56.2178
16.453730407713202 55.4291
16.476261501364792 54.9023
16.498810812136167 54.6046
16.52134319004079 54.6819
16.54389378792203 54.7732
16.566445031001553 54.4166
16.588979342490088 54.2462
16.61153187824822 54.202
16.634067483263312 54.0993
16.656621315414416 53.9148
16.679175797408888 53.6817
16.701713349928728 53.836999999999996
16.72426913389191 54.2979
16.74680798922351 54.1139
16.76936507887444 54.2399
16.791905240734874 54.1486
16.814463639794468 54.1643
16.837022695210294 54.0778
16.859564824093756 54.4789
16.882125194503903 55.1921
16.904668639217885 55.9312
16.927230328348003 56.3549
16.949792678493612 56.433
16.972338104193863 55.6246
16.994901778652235 54.8667
17.017448529496576 54.873000000000005
17.040013531998152 54.6973
17.06257920018044 55.1254
17.0851279459922 55.7055
17.107694947817667 56.6628
17.130245028099072 57.5256
17.15281336730298 58.6217
17.17536478578733 60.0954
17.19793446610687 62.1889
17.220504818648422 64.9079
17.243058251703697 68.3821
17.265629950971032 73.07600000000001
17.288184731571736 78.5401
17.310757781306908 82.9632
17.33333150794385 82.7776
17.355888317140174 81.5152
17.37846339986244 76.3438
17.401021565958885 69.6564
17.42359800851343 64.0513
17.44617513265564 60.8779
17.468735341390783 59.1442
17.491261035594565 58.0574
17.51396340099364 57.8461
17.536490463869136 58.1971
17.559018209820174 57.9909
17.58154663977963 58.2935
17.604251766089718 58.1331
17.626781572227713 58.4572
17.64931206518155 58.8803
17.671843245885103 59.438
17.69455114821572 59.6044
17.717083712612634 59.6722
17.739616967569667 60.0005
17.762150914021706 60.1977
17.78486160749854 60.0498
17.807396945166804 60.6071
17.829932977143503 61.2671
17.85246970436452 62.3252
17.875183204129467 63.9507
17.897721330097664 65.9462
17.920260154126645 67.9157
17.942799677153296 70.6133
17.9655159983646 74.1682
17.988056927677544 79.15
18.010598558807683 86.6969
18.033140892692916 96.7559
18.05586005052525 108.47200000000001
18.07840379824407 120.95299999999999
18.10094825154059 130.875
18.12366954819864 138.967
18.146215420998306 137.561
18.16876200220057 128.868
18.191309292745153 114.316
18.214033452627167 101.296
18.236582170236648 89.9437
18.259131600016456 84.2799
18.281681742907335 84.3506
18.304408781233683 88.8062
18.32696035875955 94.4988
18.349512652227624 99.52600000000001
18.372065662579683 104.009
18.394795594587553 104.93
18.41735004715306 101.667
18.43990521943684 94.829
18.46246111238171 85.5844
18.485193953325208 76.5322
18.507751296070428 69.2888
18.530309362314178 65.0968
18.552868153000343 62.7809
18.57560391815056 61.3968
18.59816416623245 60.8036
18.620725141597372 60.3894
18.643286845190268 59.9732
18.666025549835414 59.54
18.688588718427933 58.7886
18.711152618092243 58.6681
18.73389353884365 58.3289
18.75645890921984 57.7949
18.77902501351406 57.6539
18.801591852673102 57.551
18.824335739722738 57.1441
18.846904057212626 57.0548
18.8694731124168 56.7917
18.89204290628315 56.7468
18.914789774966803 56.71
18.937361054791623 56.3206
18.959933076131318 56.2153
18.982505839934877 56.1072
19.00525570560582 56.1373
19.027829963004184 55.9668
19.05040496572238 56.1907
19.072980714710468 56.089
19.095733592739563 56.0305
19.11831084296757 56.4537
19.140888842324735 56.8134
19.16346759176222 57.0426
19.18622349753803 57.4617
19.208803755869358 58.3098
19.231384767143577 59.2154
19.253966532312948 60.4848
19.276725481241822 62.6157
19.29930876296784 65.2875
19.3218928014549 68.6058
19.34465404436217 72.0226
19.36723960516257 75.199
19.389825925592426 76.4478
19.412413006605938 75.3923
19.43517731967805 71.8688
19.457765930683355 66.8569
19.48035530514408 62.3217
19.50294544401556 58.6156
19.525712842708348 55.9074
19.54830451925909 54.4718
19.570896963095727 53.4919
19.593490175174704 53.0073
19.616260674962184 53.1618
19.638855432416964 52.7653
19.661450960992624 52.9189
19.68404726164677 52.6445
19.706820878021247 52.4559
19.729418731756834 52.615
19.752017360452857 52.4966
19.77461676506804 52.6959
19.797393513540218 52.613
19.819994478951667 52.8048
19.84259622316767 53.2586
19.8651987471481 53.8153
19.887978643247177 54.0337
19.91058273574792 54.1995
19.933187610901943 55.0477
19.955969879466828 55.8567
19.97857632894404 57.3489
20.00118356396599 58.9282
20.023791585494575 61.233000000000004
20.046577028914875 63.8229
20.069186632506966 66.1998
20.091797025500632 68.0
20.114408208858933 69.1615
20.137196842715273 68.8698
20.159809615886765 67.3796
20.18242318232135 64.553
20.20503754298326 62.4186
20.227829382875154 61.256
20.250445341109344 61.3552
20.27306209647285 61.9885
20.29567964993108 63.2155
20.31847471147704 64.5695
20.34109387027612 65.223
20.363713830075454 64.9671
20.386334591841646 63.7143
20.409132890679302 60.8417
20.431755265564437 57.5627
20.454378445325528 54.8202
20.477002430930366 53.213
20.499803982716553 51.8741
20.522429589228004 50.9998
20.54505600449589 50.4198
20.567683229489194 50.4823
20.590488049900088 50.0392
20.61311690359731 49.5226
20.63574656993626 49.3744
20.658553853717297 48.9472
20.681185154618298 48.8811
20.703817271080066 48.9334
20.72645020407368 48.6598
20.749260783967177 48.5144
20.771895359337133 48.5132
20.794530754161617 48.295
20.817166969412938 48.1071
20.83998086114876 47.9751
20.86261872660049 47.951
20.885257415405402 47.9267
20.90789692853701 47.8831
20.930714147864748 47.7537
20.953355319030678 47.9083
20.97599731745334 47.8907
20.99864014410749 47.7367
21.021460706796564 47.825
21.044105199328826 48.0086
21.06675052302631 48.193999999999996
21.089396678865015 48.4863
21.112220600704806 48.7462
21.134868430275347 49.1723
21.15751709492456 49.2602
21.180166595629693 49.573
21.202993892429635 50.1123
21.22564507473034 50.5854
21.24829709602816 50.7094
21.27112693608965 50.9121
21.293780644891275 50.5936
21.316435195634053 49.958
21.339090589297417 49.3722
21.361923832041875 48.8879
21.384580921090404 48.2021
21.407238856007325 47.8198
21.429897637773326 47.7666
21.45273429906592 47.7403
21.475394784108598 47.6036
21.498056118951983 47.5011
21.520718304578022 47.6583
21.543558400304388 47.6801
21.566222297108816 47.9314
21.58888704765135 47.9834
21.61155265291521 48.3904
21.63439619898156 48.7884
21.657063523335786 48.7788
21.67973170537063 49.3644
21.7024007460706 49.7648
21.72524775840385 50.3896
21.747918526116475 51.5418
21.770590155457388 52.7115
21.79326264741238 54.2798
21.816113141960237 55.9826
21.838787368860547 58.1572
21.861462461341976 59.9618
21.884315579735777 62.0371
21.90699241312273 63.4553
21.92967011506078 63.9027
21.95234868653799 63.4156
21.9752053151131 62.2248
21.997885635446785 60.4393
22.020566828293532 58.5841
22.04324889464272 57.132
22.066109049404666 55.8868
22.088792872571794 55.4365
22.111477572219204 55.2738
22.1341631493376 55.619
22.157026846313123 55.3149
22.179714188221507 54.525
22.202402410582668 53.4833
22.22509151438863 51.8315
22.24795876962584 50.7499
22.270649646204486 49.7996
22.293341407213727 49.2261
22.316034053646906 48.7636
22.338904883215342 48.4888
22.36159931041458 48.3414
22.38429462602756 48.3389
22.40699083104897 48.1981
22.429865251039757 48.1963
22.452563244831367 48.3256
22.47526213102522 48.2416
22.49813925616515 48.0239
22.520839937143307 47.8321
22.543541513520587 47.9766
22.56624398629403 47.9059
22.589124730075895 47.8705
22.611829005656723 47.8903
22.63453418063466 47.7038
22.657240256008077 47.9592
22.680124634582935 48.0924
22.70283252079775 48.2255
22.725541310413075 48.5984
22.74825100442868 48.8439
22.771139033969575 49.2772
22.79385054687155 49.5463
22.81656296718292 50.1936
22.83927629590484 50.9241
22.862167992606945 52.0079
22.88488314827121 52.9294
22.907599215359284 54.2485
22.93031619487366 55.4049
22.953211574954405 56.3811
22.975930389478226 57.2254
22.998650119445763 57.3675
23.02137076586092 56.631
23.044269845560063 55.555
23.06699233506288 53.7456
23.089715744034912 52.098
23.112617610931565 50.4177
23.135342869061212 49.4185
23.158069049684816 48.5896
23.1807961538087 48.1075
23.20370174880544 48.0559
23.226430710184808 47.9702
23.249160598093425 48.0459
23.271891413539002 47.9562
23.294800752937697 47.8594
23.31753343374794 48.1038
23.340267045128353 48.3215
23.36300158808808 48.6071
23.38591468821339 48.8064
23.408651104658304 49.1814
23.431388455719986 49.7255
23.454126742409 50.6594
23.4770436196085 51.9087
23.499783787914662 53.0731
23.522524894889884 54.0793
23.54526694154616 55.2086
23.56818761219047 56.3781
23.59093154860734 57.059
23.613676427751283 57.2498
23.636422250635754 56.468
23.659346731118656 55.0026
23.68209445191868 53.2095
23.704843119509587 50.8877
23.72759273490623 49.023999999999994
23.750521041644767 47.6412
23.77327256312355 46.6652
23.796025035462787 46.0021
23.818956224555475 45.6106
23.841710609113413 45.6073
23.86446594758979 45.2049
23.887222241002014 44.9325
23.910157285144578 44.6837
23.932915498962537 44.5873
23.955674670778713 44.5264
23.978434801611975 44.206
24.001373717286125 44.0529
24.024135776723917 44.2052
24.046898798245582 43.9598
24.06966278287146 43.895
24.092605586582614 43.7024
24.115371508023642 43.5573
24.1381383956401 43.4549
24.16090625045381 43.4646
24.183852958731244 43.3984
24.206622758582608 43.1858
24.229393528706886 43.0573
24.252165270127392 43.1486
24.27511589952438 43.04600000000001
24.297889594216997 42.9003
24.32066426328598 42.6691
24.34343990775613 42.687
24.36639447485003 42.4691
24.38917208083877 42.6312
24.41195066531332 42.3733
24.43490819850244 42.3806
24.457688750692377 42.3595
24.48047028445616 42.2424
24.503252800821233 42.4261
24.526214300784112 42.5243
24.548998793132213 42.6797
24.57178427117417 42.3403
24.59457073593893 42.3538
24.617536219319863 42.3198
24.64032466834748 42.2726
24.663114107195035 42.1798
24.685904536893013 41.9849
24.708874020360852 42.0235
24.731666442613744 42.0031
24.754459858818787 41.9606
24.777254270007962 41.7998
24.80022777025625 41.6234
24.82302418230472 41.593
24.845821592443674 41.5501
24.86862000170663 41.6816
24.891597535453727 41.5106
24.914397953892728 41.7035
24.93719937456671 41.4793
24.96000179851076 41.6183
24.98298338249997 41.9282
25.00578782394922 42.1328
25.028593271784167 42.385
25.05157790644186 42.5883
25.07438537804115 42.6873
25.097193859145293 42.8293
25.120003350792075 43.2758
25.142992065061257 43.6037
25.165803588823465 43.916000000000004
25.18861612625217 43.9149
25.211429678386736 44.0632
25.234422489079968 43.9326
25.257238081693636 44.0488
25.280054692141732 44.306999999999995
25.3028723214652 44.2743
25.325869245420463 44.3918
25.348688923599397 44.3779
25.371509623787006 44.3274
25.394331347025812 43.9422
25.41733240110666 43.6184
25.440156181590016 43.0633
25.46298098826268 42.3847
25.48580682216873 41.9257
25.50881202326435 41.281000000000006
25.53163992281684 40.9795
25.55446885274561 40.6721
25.577298814096377 40.4147
25.600308179121807 40.3002
25.623140214533745 40.4099
25.64597328451537 40.2396
25.66898578564376 39.9917
25.691820936010206 40.0712
25.714657124097695 39.8894
25.737494350954734 39.9962
25.760511045684957 39.838
25.783350361364224 39.921
25.806190718969255 40.0027
25.82903211955018 40.1096
25.852053024868923 40.1823
25.874896522722523 40.0698
25.897741066713106 40.0589
25.920586657892454 40.2152
25.943611790812668 40.2963
25.966459487728237 40.4057
25.989308234998564 40.4209
26.01215803367705 40.8052
26.03518741123814 40.9561
26.05803932412957 41.0
26.080892291600094 40.993
26.10374631470478 41.0042
26.12677995397268 41.2381
26.14963609978026 41.0363
26.172493304397875 40.7433
26.19535156888223 40.5914
26.218389486949604 40.1977
26.241249882640123 40.0332
26.26411134137826 39.6851
26.28715248187403 39.7182
26.31001607820869 39.3361
26.3328807407756 39.278
26.35574647063438 39.5045
26.37879191991473 39.4311
26.401659795896734 39.5581
26.424528742360263 39.5629
26.447398760366614 39.8691
26.470448535598294 39.9496
26.49332070826805 40.1916
26.516193955675355 40.3934
26.53906827888316 40.5675
26.562122397260108 40.6699
26.584998883685063 41.0674
26.607876449110325 41.3372
26.63075509460056 41.4771
26.65381357334404 41.7114
26.67669439061878 41.4723
26.699576291163382 41.4004
26.722459276044212 41.3445
26.745522132402975 40.9747
26.768407297649354 40.8748
26.791293550442003 40.5565
26.814180891848974 40.3797
26.837248143099337 40.0447
26.860137673466657 39.8825
26.88302829566349 39.6214
26.90592001075963 39.4519
26.92899167420566 39.2054
26.951885586870763 38.9342
26.974780595655517 38.7096
26.99785558178161 38.6415
27.020752794605112 38.4979
27.043651106772522 38.3491
27.06655051935668 38.2759
27.089629948036183 38.1421
27.112531573292053 38.0616
27.135434302194138 38.1972
27.158338135817015 38.0195
27.181422024430987 38.0301
27.204328079372566 37.9356
27.22723524226965 37.8986
27.250143514198573 38.1045
27.273231880156334 38.069
27.296142382065014 37.8308
27.319053996245536 37.7897
27.341966723775965 37.7976
27.365059584515222 37.8499
27.38797455070062 37.9584
27.410890633481237 37.8458
27.433807833936918 37.8443
27.456905206923906 37.906
27.47982465472398 37.9297
27.502745223449743 37.9452
27.525666914182825 38.0439
27.548768816912457 37.9847
27.571692763693633 38.0318
27.59461783573812 37.8175
27.617723149491244 37.6238
27.640650484125285 37.6065
27.66357894728264 37.5376
27.686508540048052 37.5274
27.709618414237887 37.4048
27.732550278321757 37.3364
27.755483275279115 37.3965
27.778417406196485 37.4031
27.801531858397514 37.3232
27.824468269376716 37.3075
27.847405817586786 37.2229
27.870344504116094 37.3285
27.893463551932008 37.5379
27.916404527281053 37.7009
27.93934664422563 37.8261
27.962289903855886 37.8744
27.98541356491974 38.0551
28.00835912214229 38.2942
28.03130582533231 38.4435
28.054253675581805 38.5419
28.077381967556104 38.5455
28.100332124185126 38.3833
28.123283431160893 38.4434
28.146235889577238 38.3054
28.169368830154156 38.1209
28.192323603752033 38.0548
28.215279532083304 37.6145
28.238415973016764 37.4549
28.261374223145094 37.4269
28.284333631303806 37.1752
28.307294198589954 36.894
28.330435319167677 36.5495
28.353398217078915 36.4013
28.376362277420153 36.1865
28.39932750129032 36.069
28.422473319286713 35.8967
28.44544088262495 35.8331
28.468409612800283 35.8828
28.491379510913497 35.5357
28.51453004413313 35.463
28.53750229057244 35.4453
28.56047570826344 35.3581
28.583450298308804 35.3928
28.606605564586562 35.258
28.629582511831156 35.3313
28.65256063474956 35.1932
28.675539934446338 35.1411
28.698699951647605 35.1193
28.72168161743193 35.0378
28.74466446331978 34.9897
28.767648490417624 34.8751
28.790813276438353 34.9755
28.813799678527303 34.8815
28.836787265157085 34.813
28.859955641890075 34.9805
28.882945610203045 35.0147
28.905936766392035 34.872
28.928929111566863 34.9528
28.952102288520145 34.7072
28.975097024308607 34.6079
28.998092952423807 34.4946
29.021090073977508 34.5726
29.04426806913204 34.4325
29.067267590245258 34.3489
29.090268308143695 34.12
29.11327022394099 34.1261
29.13645305530891 33.9896
29.159457379627167 33.896
29.18246290519685 33.9615
29.20546963313352 33.8198
29.22865731875826 33.8195
29.25166646419296 33.8375
29.27467681535305 33.7282
29.29768837335608 33.8336
29.320880931312562 33.8426
29.34389491580634 33.7695
29.366910110507334 33.7802
29.38992651653503 33.7904
29.41312396492981 33.8707
29.436142806456754 33.7092
29.45916286268059 33.6283
29.48236399319994 33.5926
29.50538649169417 33.4549
29.528410208259935 33.3771
29.55143514402014 33.0173
29.574641196749695 33.0179
29.597668583816574 33.0276
29.6206971934585 32.7953
29.64372702680042 32.7977
29.666938019934474 32.6703
29.689970313635285 32.5833
29.713003834422636 32.5543
29.73603858342347 32.4761
29.759254535188578 32.4097
29.78229175361658 32.4416
29.80533020365064 32.5457
29.82836988641968 32.4162
29.85159081507472 32.3795
29.874632976355343 32.2358
29.89767637376955 32.2384
29.920721008448314 32.1821
29.9439469322847 32.098
29.96699405457564 32.0363
29.9900424175358 32.1505
30.013092022298157 32.118
30.03632295963995 32.0033
30.059375061131373 32.0205
30.08242840783577 32.0374
30.105483000888153 32.0505
30.128718970092244 31.8784
30.151776069006917 31.8837
30.17483441768648 32.0724
30.198074175317235 32.0275
30.221135036724256 32.055
30.24419715131772 31.9347
30.267260520236203 31.8643
30.290505341942243 31.8416
30.313571232750228 31.9198
30.336638381310948 31.8981
30.35970678876503 31.8498
30.38295669299435 31.7474
30.40602763151657 31.6586
30.429099832366074 31.6779
30.452173296685572 31.6552
30.47542830191959 31.5599
30.498504306502497 31.6148
30.521581577995562 31.7096
30.544660117543582 31.809
30.56792024229725 31.7449
30.59100133132069 31.7327
30.614083691845494 31.7438
30.637167325018545 31.8538
30.660432587840603 31.8316
30.683518779717886 31.794
30.70660624769615 31.6718
30.729694992924372 31.7054
30.75296541239743 31.7787
30.77605672557558 31.6844
30.799149319462742 31.6608
30.8224236211637 31.5833
30.845518789950724 31.5542
30.868615242910597 31.4193
30.891712981195973 31.2307
30.91499247215866 31.1473
30.938092794619365 31.1941
30.96119440587579 31.0608
30.984297307082752 30.9741
31.00758200598383 30.8882
31.030687500658694 30.7987
31.053794288760695 30.6751
31.076902371446767 30.6392
31.100192296997445 30.5949
31.12330298246119 30.5301
31.14641496599209 30.4806
31.169528248749216 30.523000000000003
31.19282341969534 30.6335
31.215939314557186 30.5974
31.239056512134788 30.5299
31.262175013589378 30.4263
31.28547544871168 30.473000000000003
31.30859657161541 30.3727
31.331719001892175 30.3842
31.35484274070538 30.5459
31.378148458819545 30.5118
31.401274828443725 30.4574
31.424402510106933 30.4195
31.447712205419993 30.5286
31.470842524931633 30.4438
31.493974159989783 30.4409
31.51710711176168 30.4043
31.54042212308802 30.3605
31.563557722100917 30.3013
31.586694641341655 30.1618
31.609832881979628 30.0721
31.63315322823208 30.0198
31.656294125521327 29.8962
31.679436347728515 29.8674
31.70257989602529 29.7636
31.725905596152327 29.6737
31.74905181052835 29.6636
31.772199354521323 29.7162
31.79534822930507 29.6686
31.818679302290967 29.7466
31.84183085259981 29.6903
31.864983737233473 29.7715
31.88813795736804 29.7742
31.911474422233013 29.603
31.934631327356435 29.8067
31.9577895715215 29.6357
31.980949155906522 29.6676
32.004291031706956 29.5504
32.027453310562606 29.5111
32.05061693318573 29.3695
32.07396288236386 29.4141
32.09712920658542 29.3274
32.12029687812702 29.2863
32.14346589817093 29.179000000000002
32.166817291729984 29.076999999999998
32.18998902288583 29.0713
32.21316210610336 28.9222
32.23633654256711 28.9224
32.259693399663725 28.9002
32.282870556771144 28.7394
32.30604907069099 28.6912
32.329228942610065 28.7496
32.35259128243769 28.5946
32.375773884550505 28.5211
32.398957848235646 28.531
32.422143174682176 28.5007
32.445511016471215 28.3688
32.468699082679954 28.381
32.49188851523011 28.3459
32.51507931531304 28.1812
32.538452678331 28.2858
32.56164622776311 28.1838
32.58484114831493 28.1372
32.60803744118015 28.0767
32.631416344731896 28.1327
32.654615396551876 28.1325
32.67781582427913 28.156
32.701198898634416 27.9081
32.72440209253756 27.8275
32.747606665947124 27.8947
32.77081262006088 27.7986
32.79420126883317 27.7379
32.81740999876112 27.7032
32.840620112999424 27.6523
32.86383161274818 27.6439
32.88722585534586 27.683000000000003
32.91044014056596 27.7985
32.933655814909734 27.6407
32.95687287957963 27.5864
32.98027273544904 27.4775
33.00349259526636 27.3826
33.026713849030116 27.6224
33.04993649794511 27.5048
33.073341986570746 27.4135
33.09656744032826 27.4311
33.11979429286444 27.4116
33.14302254538647 27.3784
33.166433686291185 27.4039
33.18966475336992 27.3247
33.212897224069096 27.2163
33.23613109959831 27.2178
33.259547912343415 27.2171
33.2827846121627 27.2274
33.306022720453775 27.2063
33.32926223842861 27.0355
33.352684742614166 27.0442
33.37592709463173 26.9847
33.399170859982064 26.8916
33.422597648419426 26.9178
33.44584425514446 26.7506
33.46909227885668 26.7036
33.4923417207723 26.6224
33.51577423505344 26.7087
33.539026528130385 26.5281
33.56228024307245 26.535999999999998
33.585535381098246 26.3355
33.60897364093058 26.4177
33.63223163992385 26.4398
33.6554910656699 26.355999999999998
33.678751919389796 26.381
33.702195944520106 26.2664
33.72545966903325 26.2159
33.74872482519663 26.1301
33.771991414233746 26.1362
33.79544122444841 26.1669
33.81871069412428 26.0751
33.84198160035767 26.0804
33.86525394437455 26.0422
33.88870955949969 25.9417
33.911984794020626 25.9642
33.93526147001624 25.9602
33.958539588715006 25.8732
33.98200102861669 25.7734
34.0052820477047 25.7421
34.02856451319451 25.732
34.05203033759056 25.6552
34.07531571090147 25.6653
34.09860253431845 25.7347
34.121890809074316 25.6621
34.145362493118924 25.5368
34.16865368561615 25.526
34.191946333164054 25.4741
34.21524043699793 25.4079
34.23871800066799 25.328000000000003
34.26201503218366 25.316
34.28531352370466 25.3279
34.30861347646881 25.2274
34.33209693978188 25.1683
34.3553998301885 25.1555
34.378704185565205 25.0874
34.402010007152356 24.9996
34.42549939016683 25.0438
34.44880815937748 24.9192
34.472118398533134 24.9134
34.49543010887669 24.9244
34.51892543169198 24.8025
34.54224009966052 24.8762
34.56555624255917 24.8654
34.58887386163339 24.6992
34.61237514439016 24.6648
34.6356957311114 24.6487
34.65901779775809 24.5769
34.68252356662995 24.5396
34.705848608458616 24.541
34.72917513396849 24.4799
34.75250314440949 24.4436
34.77601490857862 24.3735
34.799345904259795 24.3258
34.82267838863559 24.3331
34.846012362958525 24.3465
34.869530142679984 24.3347
34.89286711232212 24.2597
34.91620557568269 24.2367
34.93954553401677 24.2169
34.9630693495876 24.1999
34.986412313340814 24.1574
35.00975677584668 24.0879
35.033102738362956 24.0662
35.05663261012228 23.9988
35.0799815881786 24.0678
35.10333207003229 24.0203
35.12668405694369 23.9303
35.150220005273056 23.9625
35.17357501786656 23.9256
35.19693153931268 23.8958
35.220289570874385 23.8357
35.24383161619786 23.8159
35.267192683604904 23.8266
35.290555264930376 23.7623
35.314101899412165 23.7934
35.33746752422433 23.713
35.36083466676374 23.7529
35.38420332829803 23.7366
35.407756095629054 23.835
35.43112781085063 23.6273
35.45450104888391 23.6081
35.477875810999194 23.5922
35.50143473172161 23.5586
35.52481255774625 23.6402
35.54819191167777 23.5211
35.57157279478914 23.4455
35.595137889488406 23.4325
35.61852184675279 23.4758
35.641907337029984 23.3592
35.665294361595684 23.4006
35.68886565090076 23.3023
35.7122557598848 23.1747
35.73564740699838 23.179000000000002
35.759040593519934 23.1918
35.78261809810353 23.1351
35.80601437933051 23.0129
35.829412203814705 22.9354
35.85281157283719 22.951
35.876395313415884 22.9774
35.8997977874528 22.8574
35.92320180988546 22.8495
35.946790244133936 22.8608
35.97019737933222 22.8189
35.993606066789866 22.7534
36.01701630779276 22.7872
36.04061101440684 22.6568
36.06402437852291 22.6906
36.08743930005611 22.6418
36.1108557802951 22.5837
36.13445678011326 22.6793
36.15787639383515 22.5429
36.18129757014299 22.5529
36.20472031032821 22.4999
36.22832762423364 22.4259
36.25175350829375 22.4695
36.275180960119776 22.2631
36.298609981005924 22.2814
36.32222362992669 22.3083
36.34565580510207 22.3441
36.36908955323448 22.2452
36.39252487562093 22.1771
36.416144880530226 22.2307
36.43958336764275 22.1457
36.463023432914625 22.1939
36.486465077645676 22.086
36.51009145956204 22.2071
36.53353627947859 22.1036
36.55698268276811 22.0796
36.58043067073321 21.961
36.60406345072071 21.9232
36.62751462435344 22.0327
36.65096738658405 21.9083
36.67460498210655 21.8825
36.69806093788647 21.7363
36.72151848619297 21.6894
36.744977628333636 21.7721
36.76862165890998 21.7644
36.79208400512205 21.7102
36.81554794910557 21.686999999999998
36.83901349217101 21.581999999999997
36.862663978991606 21.5743
36.88613273667352 21.5669
36.90960309738324 21.5135
36.933075062434064 21.3682
36.95673202673572 21.4489
36.98020721697122 21.3894
37.003684015502365 21.3273
37.027162423645365 21.2782
37.050825886711465 21.3533
37.07430753063053 21.2582
37.09779078812467 21.197
37.121275660513014 21.2479
37.144945643673694 21.1278
37.16843376245278 21.1349
37.19192350009803 21.1094
37.215414857931435 21.0448
37.239091382563885 20.967
37.262585997426164 20.934
37.28608223645736 20.9442
37.309763684451696 20.9355
37.33326318851098 20.8897
37.356764320726555 20.8654
37.380267082425526 20.8142
37.40395510942588 20.7996
37.42746114683234 20.7688
37.45096881771841 20.778000000000002
37.474478123414166 20.7329
37.49817275092816 20.5993
37.52168534303452 20.6755
37.54519957395567 20.6084
37.568715445024665 20.5683
37.592416694607714 20.5643
37.61593586281424 20.566
37.63945667518264 20.5576
37.66297913304891 20.4402
37.68668702630454 20.3941
37.710212792059274 20.3175
37.733740207334854 20.3212
37.757269273470364 20.2738
37.780983832050374 20.2596
37.80451621684926 20.149
37.82805025654007 20.188
37.851585952464795 20.104
37.8753071980695 20.0666
37.89884622345676 20.0856
37.92238690911902 20.0315
37.94611318753442 19.9502
37.969657210779765 20.0447
37.99320289834801 20.0176
38.016750251586465 19.8801
38.04048325513017 19.8851
38.06403395679343 19.8731
38.087586328183946 19.8836
38.11114037065203 19.8743
38.13488012115898 19.7596
38.1584375229181 19.7339
38.181996599821 19.6949
38.205557353221124 19.6933
38.229303872575656 19.6574
38.2528679961576 19.6134
38.27643380031219 19.629
38.30000128639589 19.5622
38.32375459653193 19.5938
38.34732546371299 19.5634
38.37089801690786 19.4499
38.39447225747609 19.4079
38.418232380377425 19.3222
38.441810012983396 19.3321
38.46538933705673 19.4
38.488970353960084 19.3353
38.51273731166058 19.3157
38.536321731567014 19.2559
38.55990784840681 19.189
38.58367995004091 19.2009
38.60726947812959 19.1278
38.63086070726198 19.0671
38.654453638806274 19.1415
38.678232613930824 19.1205
38.70182896773327 19.0888
38.72542702806741 19.0439
38.7490267963045 19.0346
38.77281266709232 18.9996
38.79641586862214 18.9269
38.8200207821842 18.8664
38.843627409152944 18.8277
38.86742019782782 18.8328
38.891030269149255 18.7929
38.914642058016156 18.8098
38.938255565806124 18.6935
38.96205529464307 18.725
38.98567225787121 18.6861
39.00929094417078 18.5815
39.03291135492255 18.6753
39.05671804624804 18.633
39.080341923549106 18.5757
39.103967529460334 18.5186
39.127594865365744 18.477
39.15140854155791 18.5109
39.17503935514948 18.4751
39.19867190290282 18.4742
39.22249083587951 18.4824
39.24612686969409 18.4523
39.269764641845306 18.3944
39.293404153722804 18.3767
39.317230110864074 18.2237
39.34087311998506 18.2207
39.36451787301696 18.2724
39.388164371352595 18.1765
39.41199737518003 18.0845
39.43564738196752 18.0841
39.45929913825317 18.0664
39.48295264543308 18.0935
39.506792718520884 18.0963
39.530449745387216 18.0331
39.55410852735203 17.9655
39.57776906581474 17.9507
39.60161623079 17.9256
39.625280300200025 18.0028
39.64894613032202 17.8876
39.67261372255866 17.8127
39.6964680021016 17.7701
39.72013913657293 17.8212
39.74381203738292 17.8032
39.76748670593756 17.7727
39.79134812278169 17.6586
39.81502634488497 17.7459
39.83870633896685 17.6631
39.862388106436654 17.5693
39.88625668336918 17.6259
39.90994201572829 17.6209
39.933629125719285 17.5684
39.957503091207826 17.5298
39.9811937746168 17.5146
40.00488623990914 17.4357
40.02858048850006 17.4167
40.05246165409549 17.4029
40.076159487492085 17.3712
40.099859108448875 17.3954
40.123560518384345 17.3393
40.1474489070226 17.3486
40.171153913178564 17.2519
40.194860712584955 17.2332
40.2185693066637 17.2129
40.242464941335314 17.2271
40.26617714307655 17.1737
40.289891143772046 17.1093
40.3136069448471 17.0957
40.33750984859743 17.090999999999998
40.3612292688043 17.0677
40.3849504936829 17.0488
40.40867352466194 17.0617
40.43258372059144 16.9882
40.45631038219906 16.9808
40.48003885420956 16.8967
40.503769138055105 16.9452
40.52768664931955 16.8732
40.55142057531802 16.8585
40.57515631746428 16.8111
40.599079334038514 16.7945
40.62281872700477 16.7008
40.64655994043941 16.7012
40.67030297578061 16.6844
40.69423334835778 16.6429
40.71798004609188 16.6129
40.74172857006355 16.5951
40.76547892171441 16.6115
40.7894166736039 16.5655
40.813170699248566 16.4946
40.83692655691388 16.4995
40.86068424804498 16.531
40.884629402612525 16.4514
40.908390779366385 16.4851
40.932153993938 16.4418
40.95591904777605 16.4111
40.979871628443995 16.3198
41.003640379561936 16.3208
41.02741097430883 16.2947
41.05118341413683 16.3215
41.075143444384416 16.2586
41.098919593177826 16.2359
41.1226975914255 16.2048
41.14647744058318 16.1704
41.170444943946755 16.1759
41.19422851378379 16.1403
41.218013938914645 16.1152
41.24198706625173 16.0783
41.26577622087193 16.0671
41.289567235177785 16.0268
41.31336011063129 16.0207
41.337340752422875 15.9715
41.361137369129835 15.9643
41.38493585138705 15.9354
41.40873620066004 15.8403
41.43272438060107 15.8499
41.45652848292052 15.8289
41.48033445666918 15.7628
41.50414230331616 15.7477
41.528138045159764 15.77
41.551949656675205 15.6988
41.575763145513235 15.6794
41.59957851314666 15.6489
41.62358184070442 15.5953
41.64740098505737 15.5893
41.6712220126409 15.6014
41.69504492493139 15.5494
41.71905586207357 15.5252
41.74288256296395 15.4745
41.766711153007456 15.499
41.79054163368412 15.4725
41.814560204340054 15.433
41.838394485526365 15.4577
41.86223066180303 15.3684
41.88625497706819 15.3115
41.910094962812 15.3313
41.93393684811168 15.28
41.95778063445365 15.244000000000002
41.981812625263366 15.2545
42.00566023303407 15.2642
42.029509746323676 15.2472
42.05336116662236 15.1884
42.077400857069705 15.1399
42.10125611078846 15.1212
42.12511327600405 15.1169
42.14897235421036 15.0788
42.173019768448455 15.0516
42.19688269209613 15.0308
42.22074753323349 14.9885
42.24461429335818 14.9701
42.268669455600495 14.9692
42.292540073217886 14.9085
42.31641261433284 14.9269
42.34028708044675 14.8727
42.36435001496739 14.8423
42.38822835065557 14.8167
42.41210861586426 14.7605
42.4359908120986 14.7586
42.46006154323262 14.8007
42.48394762115317 14.6917
42.507835634632315 14.7334
42.531912233047436 14.6991
42.55580413732265 14.6915
42.579697981698 14.6144
42.60359376768525 14.5915
42.62767820545945 14.571
42.65157789440821 14.5474
42.67547952952185 14.5274
42.699383112316 14.5004
42.72347541395347 14.4536
42.74738291190531 14.3866
42.771292362102166 14.4271
42.795203766063516 14.374
42.819303956130405 14.3285
42.843219287476536 14.3471
42.86713657716324 14.3317
42.89105582671383 14.3706
42.91516392983864 14.3174
42.939087119032166 14.2306
42.963012272677304 14.2347
42.98693939230129 14.1975
43.01105543317513 14.2227
43.034986504731386 14.1468
43.05891954686589 14.172
43.08285456110972 14.0916
43.10697856448665 14.0573
43.130917542983475 14.0844
43.15485849820081 14.0579
43.17880143167367 13.9944
43.20293342237094 13.9674
43.226880332449 14.0218
43.25082922540554 13.9856
43.27496722682525 13.923
43.29892010567796 13.8822
43.32287497204102 13.8829
43.34683182745632 13.8442
43.370977859791836 13.8474
43.39493871351105 13.7874
43.41890156092628 13.7601
43.44286640358341 13.7609
43.46702049182749 13.755
43.49098934522816 13.7132
43.51496019852649 13.6463
43.5389330532723 13.6441
43.56309522248204 13.6356
43.58707210044314 13.6523
43.61105098451946 13.5737
43.63503187626491 13.569
43.659202151562134 13.5302
43.68318707902681 13.5261
43.70717401884041 13.5057
43.731162972560874 13.4773
43.75534137913236 13.4141
43.779334381108384 13.4149
43.803329401683186 13.380999999999998
43.82732644241872 13.3181
43.8515130055166 13.3506
43.87551410707659 13.2866
43.89951723350145 13.353
43.923709934595614 13.275
43.94771713129917 13.2224
43.97172635758096 13.2769
43.99573761501002 13.2509
44.0199385169922 13.2182
44.04395385732619 13.1695
44.067971233533086 13.1721
44.09199064718605 13.1427
44.11619977548961 13.1288
44.14022328470671 13.0764
44.16424883610785 13.0808
44.18827643127035 13.0638
44.21249381139513 13.0341
44.236525514814076 12.9558
44.26055926674478 12.977
44.28459506876863 13.0177
44.3088207262813 12.8845
44.33286064928722 12.8868
44.35690262714919 12.8716
44.38094666145278 12.8262
44.4051806219871 12.9145
44.42922879003185 12.8481
44.45327901929361 12.7933
44.477331311362136 12.7856
44.501573600619416 12.7733
44.525630039221795 12.7087
44.54968854541895 12.7083
44.573937102200176 12.7001
44.5979997645541 12.6983
44.622064499300315 12.6302
44.64613130803592 12.6061
44.67038823869318 12.6287
44.69445921643748 12.5576
44.718532272981385 12.5296
44.742607409926194 12.5266
44.76687274034801 12.5244
44.79095205918753 12.4586
44.81503346325094 12.4396
44.839116954143876 12.4702
44.86339071028742 12.4244
44.88747839599524 12.3755
44.91156817336837 12.354000000000001
44.93566004401666 12.3621
44.959942251908146 12.3127
44.984038330325966 12.2818
45.00813650686762 12.2665
45.03223678314731 12.2838
45.05652746888232 12.2308
45.08063196592069 12.1892
45.104738567558705 12.1827
45.128847275414856 12.1779
45.15314646515866 12.1149
45.17725940679741 12.0942
45.20137445952892 12.1022
45.22568004865265 12.1366
45.24979934496396 12.0615
45.27392075725247 12.0732
45.29804428714431 12.0286
45.322358426247604 12.0135
45.346486212804315 12.0343
45.370616121861914 11.9806
45.39474815505086 11.9526
45.41907087049246 11.934000000000001
45.4432071734666 11.9336
45.46734560548283 11.919
45.49148616817604 11.8928
45.51581748638564 11.8599
45.5399623320197 11.802999999999999
45.56410931325473 11.7921
45.58825843173002 11.8099
45.61259837920865 11.7597
45.636751793816 11.741
45.66090735060093 11.7107
45.68506505120716 11.6962
45.7094136545275 11.7059
45.73357566449271 11.6398
45.75773982322992 11.6508
45.78190613238733 11.6147
45.806263418194064 11.548
45.83043404997326 11.5636
45.85460683713677 11.5813
45.87897065658495 11.5293
45.90314777634752 11.4879
45.92732705646868 11.4733
45.9515084986045 11.453
45.97588104735473 11.4465
46.00006683541565 11.4292
46.02425479047904 11.392999999999999
46.04844491420549 11.389000000000001
46.0728262191024 11.3935
46.09702070211635 11.3076
46.12121735879483 11.3137
46.14541619080294 11.2844
46.169806278764455 11.2741
46.194009483459034 11.3019
46.21821486849841 11.2524
46.24242243555223 11.2272
46.266821333570014 11.1762
46.29103328674601 11.1772
46.31524742696538 11.1581
46.33946375590237 11.1121
46.36387149104216 11.093
46.38809221957392 11.0277
46.41231514186606 11.081
46.436540259597464 11.0552
46.460956858999374 11.0306
46.48518638983522 11.0179
46.509418121166966 10.9769
46.533652054678114 10.9666
46.55807754555709 10.9171
46.58231590571962 10.963
46.60655647313217 10.8939
46.630988654873654 10.8895
46.655233659129024 10.8721
46.67948087571551 10.8479
46.70373030632484 10.8358
46.72817142736393 10.8398
46.752425308428684 10.7984
46.77668140861147 10.7759
46.80093972960865 10.7413
46.82538981736788 10.7368
46.849652602470904 10.7244
46.87391761349769 10.7119
46.8981848521493 10.72
46.9226439341274 10.6631
46.946915650573224 10.6208
46.97118959976749 10.6235
46.99546578341598 10.5542
47.019933887188216 10.5656
47.04421456235744 10.5288
47.06849747711879 10.5293
47.09278263318286 10.4813
47.11725978640143 10.4712
47.14154944775105 10.4575
47.165841355555656 10.4575
47.1901355115306 10.4631
47.214621741924994 10.4762
47.23892041698887 10.4245
47.26322134538975 10.3702
47.28771440635075 10.3525
47.31201986422527 10.3696
47.33632758061436 10.3354
47.360637557241866 10.3216
47.38513974410611 10.3005
47.40945426407847 10.23
47.43377104948137 10.2487
47.45809010204344 10.2191
47.48260144275502 10.2273
47.506925052572285 10.2112
47.53125093475548 10.1697
47.55557909103813 10.2036
47.58009961361992 10.1286
47.60443234110732 10.084
47.62876734791564 10.1033
47.65310463578333 10.0754
47.6776343683373 10.0728
47.7019762413987 10.0742
47.72632040075572 10.0301
47.75066684815169 10.0425
47.77520581885936 9.95633
47.799556865477655 9.948889999999999
47.823910205386 9.97066
47.84826584033272 9.93393
47.87281407745551 9.90438
47.89717432569297 9.88996
47.92153687423484 9.91692
47.94609208429692 9.8463
47.97045925671401 9.79829
47.99482873471275 9.79948
48.01920052005013 9.79803
48.04376504619224 9.7619
48.068141469543484 9.77675
48.09252020552573 9.7593
48.11690125590099 9.75153
48.1414751266064 9.71523
48.16586082917454 9.6984
48.19024885144316 9.66221
48.2146391951793 9.66488
48.239222439012764 9.6558
48.26361744916137 9.62252
48.28801478610016 9.61592
48.31241445160131 9.580739999999999
48.337007097209366 9.60492
48.36141144338331 9.58177
48.38581812345755 9.505460000000001
48.41022713920929 9.57553
48.434829215320704 9.5571
48.45924292604658 9.55819
48.48365897780325 9.51955
48.50807737237308 9.47229
48.532688907799276 9.45181
48.55711201168574 9.44289
48.581537463754074 9.4387
48.60615611725119 9.44777
48.63058628942721 9.38084
48.65501881516546 9.35158
48.6794536962573 9.35339
48.70408185970339 9.33713
48.72852147531801 9.317110000000001
48.75296345168211 9.301160000000001
48.77740779059232 9.26486
48.80204549302823 9.28819
48.82649458091802 9.24261
48.85094603676547 9.198260000000001
48.87539986237231 9.21032
48.90004713292306 9.165410000000001
48.92450572200832 9.14451
48.94896668628025 9.15179
48.97343002754588 9.145660000000001
48.99808689542115 9.13085
49.02255501470614 9.108319999999999
49.04702551642794 9.0759
49.0714984023988 9.045689999999999
49.096164896893235 9.05436
49.120642575466796 9.02368
49.145122643748394 9.053230000000001
49.16960510355558 8.96665
49.19428125404938 8.97128
49.2187685210852 8.99961
49.243258185121555 8.97208
49.26794160167084 8.95251
49.2924360839405 8.93249
49.31693296869764 8.86991
49.34143225776915 8.91308
49.36612538195438 8.85067
49.39062950396021 8.84115
49.41513603578346 8.83457
49.4396449792564 8.83254
49.46434784069503 8.83805
49.488861631846454 8.759160000000001
49.513377840166804 8.743839999999999
49.537896467493745 8.70699
49.56260909589029 8.71223
49.587132585683285 8.73471
49.611658500018365 8.6951
49.636186840738596 8.64348
49.66090926588511 8.641580000000001
49.685442483902584 8.631780000000001
49.70997813385706 8.61935
49.734516217597076 8.612689999999999
49.75924846937352 8.58427
49.7837914452858 8.56637
49.80833686055187 8.54518
49.83288471702571 8.52791
49.85762682540054 8.54009
49.882179588965734 8.50583
49.9067347993235 8.48212
49.93129245833333 8.46596
49.95604445336378 8.4734
49.98060703442832 8.45041
50.005172069746266 8.4308
50.02993150438364 8.41502
50.05450147301533 8.412189999999999
50.07907390151433 8.39257
50.10364879174981 8.36633
50.12841816587289 8.31283
50.1529980044635 8.32041
50.17758031042124 8.315660000000001
50.20216508562089 8.297360000000001
50.22694442953363 8.27135
50.25153416817468 8.21877
50.27612638170508 8.2581
50.300721072005196 8.1987
50.325510416102105 8.21759
50.350110084975064 8.1812
50.37471223628208 8.20632
50.39931687190919 8.16962
50.424116246675766 8.18096
50.44872587605249 8.14668
50.47333799543065 8.082289999999999
50.49795260670191 8.10881
50.52276204271512 8.122910000000001
50.54738166295838 8.08767
50.57200378079314 8.05315
50.596628398116835 8.03053
50.62144792604559 8.06232
50.646077567609396 8.02904
50.670709714377715 8.018360000000001
50.69553683636198 7.965610000000001
50.72017401885922 7.93854
50.7448137122895 7.95109
50.76945591856022 7.961460000000001
50.79429318636823 7.915789999999999
50.818940443716784 7.8983300000000005
50.84359021965163 7.899260000000001
50.868242516085964 7.87847
50.893089960641895 7.870360000000001
50.917747323549435 7.85055
50.94240721271973 7.84795
50.96706963007175 7.79102
50.99192728239342 7.78062
51.01659478166073 7.76735
51.04126481489051 7.763210000000001
51.06593738400761 7.750960000000001
51.090805275207074 7.74442
51.11548294172845 7.71822
51.14016314993547 7.6865
51.164845901758845 7.67583
51.18972406304274 7.66626
51.21441192780656 7.666760000000001
51.23910234200271 7.6558600000000006
51.2637953075678 7.64336
51.288683770237945 7.6201
51.31338186432707 7.60973
51.33808251561888 7.57004
51.362978729967345 7.5614
51.387684521509755 7.57523
51.41239287610203 7.57605
51.437103795691165 7.5162
51.46201036644977 7.48402
51.486726441956634 7.4565
51.51144508832545 7.4905
51.536166307509156 7.503539999999999
51.56108326624387 7.45898
51.58580965706056 7.450060000000001
51.61053862657523 7.410080000000001
51.635270176746864 7.396389999999999
51.66019755512065 7.37391
51.68493429268881 7.3677399999999995
51.70967361681515 7.35653
51.73441552946465 7.32941
51.759353359237934 7.32159
51.7841004750961 7.3007100000000005
51.80885018539685 7.315110000000001
51.833602492111254 7.33748
51.8585508051424 7.24407
51.883308330926425 7.277810000000001
51.90806845906181 7.21732
51.932831191525715 7.194539999999999
51.95779001977161 7.21887
51.98255798721516 7.19172
52.00732856494335 7.15959
52.03229530577543 7.16817
52.057071130455945 7.124560000000001
52.081849571391054 7.14165
52.106630630568695 7.13775
52.13160794279417 7.10195
52.15639426492067 7.101189999999999
52.18118321127822 7.092960000000001
52.205974783860896 7.053789999999999
52.23096269971011 7.03337
52.255759551287994 7.017010000000001
52.280559035098186 6.97645
52.30536115314103 6.9972199999999996
52.33035970494467 6.9908
52.35516711807904 6.967389999999999
52.37997717147198 6.96598
52.40478986713005 6.96663
52.42979908731974 6.92815
52.454617094216 6.87167
52.47943774942214 6.873639999999999
52.50426105495102 6.885660000000001
52.529280976059844 6.88245
52.554109609024096 6.868310000000001
52.57894089837482 6.8465
52.60377484613117 6.84615
52.62880550079408 6.800660000000001
52.65364479223379 6.77427
52.67848674816189 6.78337
52.70352547971946 6.764710000000001
52.72837279155837 6.76832
52.753222773982785 6.7354199999999995
52.778075429022984 6.723139999999999
52.80312495150885 6.709110000000001
52.827982978797436 6.66833
52.85284368481815 6.646839999999999
52.87770707160767 6.64308
52.90276741793998 6.61452
52.92763619336701 6.604
52.952507655698504 6.59731
52.977381806977576 6.62405
53.00245301017842 6.57982
53.02733256653592 6.57095
53.052214817996074 6.59927
53.077099766608484 6.558669999999999
53.102181859804446 6.5617600000000005
53.127072229988265 6.577160000000001
53.15196530349892 6.5062
53.17686108239249 6.48345
53.20195409881522 6.49832
53.22685531582556 6.46125
53.25175924441303 6.4471099999999995
53.27666588664027 6.44186
53.30176985962693 6.4393400000000005
53.3266819565689 6.42903
53.35159677336455 6.3823099999999995
53.376514312083096 6.38284
53.40162927507703 6.3729
53.42655228516116 6.364319999999999
53.45147802340193 6.36306
53.47660125628886 6.338480000000001
53.50153247842639 6.33261
53.52646643496923 6.28609
53.55140312799818 6.27694
53.576537409691696 6.25703
53.60147960336152 6.28437
53.626424539786164 6.23151
53.65137222105307 6.21365
53.67651758529126 6.2152400000000005
53.70147078399681 6.183590000000001
53.72642673383343 6.16219
53.75138543689533 6.21965
53.776541917524526 6.21022
53.801506154876755 6.141830000000001
53.826473151763246 6.1409
53.851442910284916 6.08568
53.87661054126026 6.07262
53.9015858509782 6.131869999999999
53.92656392866066 6.065180000000001
53.95154477641532 6.08185
53.976723591801296 6.09002
54.00171000771266 6.0760000000000005
54.02669920004598 6.0902400000000005
54.051691170915745 6.01305
54.076881204886796 6.00232
54.101878760928514 6.00646
54.12687910187696 5.99198
54.152077577768296 5.995430000000001
54.1770835166946 5.9760800000000005
54.20209224691339 5.98302
54.22710377055121 5.93053
54.25231352511594 5.92066
54.27733066384342 5.9002
54.30235060239643 5.87755
54.32737334290836 5.88115
54.35259441062629 5.82418
54.377622783395324 5.84984
54.40265396455061 5.84435
54.42768795623251 5.81422
54.45292037169559 5.74716
54.477960012857906 5.76169
54.50300247099511 5.7477
54.52804774825457 5.74638
54.55329154616743 5.7289900000000005
54.57834249018678 5.713419999999999
54.6033962597977 5.68693
54.6284528571545 5.66769
54.653708072335164 5.62129
54.67877035378786 5.623480000000001
54.70383546947698 5.62655
54.72890342156389 5.60647
54.7541700889442 5.55636
54.77924374251975 5.53235
54.8043202390049 5.52389
54.82959552413022 5.50695
54.8546777351945 5.5131
54.87976279569621 5.44261
54.90485070780914 5.46044
54.930137506558005 5.39657
54.95523115074295 5.3830800000000005
54.98032765308844 5.38593
55.005427015775496 5.33514
55.03072536339621 5.3662
55.05583047570572 5.29672
55.080938454927676 5.24593
55.10604930325027 5.28627
55.131359235107396 5.27723
55.15647585066083 5.25403
55.181595341907496 5.20735
55.20671771104285 5.1847900000000005
55.232039262617704 5.14414
55.25716741665048 5.0949
55.28229845518636 5.16484
55.30743238042802 5.05976
55.33276558731939 5.10882
55.357905315183636 5.10459
55.383047936390035 5.04518
55.40819345314859 5.041869999999999
55.433538351073295 4.98806
55.458689688238415 4.923019999999999
55.483843927614096 4.94004
55.509197623043605 4.9171
55.53435769621134 4.9469199999999995
55.55952067826466 4.898
55.5846865714265 4.86134
55.61005202069737 4.77037
55.63522376553902 4.78929
55.66039842818645 4.78766
55.68557601087004 4.78661
55.7109532500271 4.7397800000000005
55.73613670233794 4.75734
