TT I
1.2716486653135266 7.930210000000001
1.2939594142134223 7.45405
1.3162702121660406 7.19722
1.3385810600174564 7.006239999999999
1.3608919586137629 6.75407
1.383202908801069 6.54232
1.405513911425503 5.49592
1.4278249673332093 6.669410000000001
1.4501343378461518 6.2754199999999996
1.4724455028545926 6.15918
1.4947567236847858 6.1729400000000005
1.517068001182951 6.33355
1.5393793361953272 5.85705
1.5616907295681737 5.73425
1.5840021821477681 5.7584
1.60631369478041 5.00357
1.6286252683124185 5.900180000000001
1.6509369035901333 5.78311
1.6732468618895553 5.72379
1.695558623192809 4.9786
1.7178704487808514 4.70132
1.7401823395001077 5.5022199999999994
1.7625012545597203 5.43705
1.7848028405262486 5.04255
1.8071218901122095 4.860609999999999
1.8294236121921872 4.64982
1.8517427996910911 4.61267
1.8740620574440425 4.55167
1.8963639900671978 4.731380000000001
1.9186833908139995 4.88486
1.9409854680117449 4.91637
1.9633050151394713 5.231240000000001
1.9856246367570705 4.88283
2.0079269371922672 4.99447
2.03024671027244 4.9616
2.0525491637446027 4.51541
2.074869091674931 4.35035
2.097171701569106 4.03214
2.1194917877373847 4.84626
2.141811954326636 4.62429
2.164114805233074 5.09967
2.186435135143035 6.618119999999999
2.208738150935709 18.5431
2.231058647554722 43.39
2.2533792288321184 33.6619
2.275682498336085 13.0955
2.298003251406138 6.39975
2.3203066942619714 4.65895
2.3426276225136022 5.08881
2.3649486396617507 5.35772
2.387252348930071 5.18008
2.4095735463442893 5.29881
2.4318774374315884 5.26676
2.4541988185014043 5.10809
2.476502894794693 5.61733
2.498824462909887 5.79116
2.521146125856138 5.75306
2.5434504863470337 5.74704
2.5657723414244717 5.60466
2.588076895590662 6.8956800000000005
2.610398946189713 6.46025
2.6327210958598384 6.69424
2.6550259469304716 6.80167
2.6773482972090137 6.700310000000001
2.6996533504259 7.0094199999999995
2.7219759047039602 7.4202
2.744298562293959 8.06219
2.7666039251246595 7.24717
2.7889267918020164 7.619730000000001
2.8112323652516555 7.7024
2.833555444408179 7.98315
2.8558786311183852 8.22137
2.8781845268938557 8.21395
2.9005079311721484 8.778830000000001
2.9228140460410397 9.15545
2.9451376712799635 9.1597
2.967444008632326 9.18928
2.9897678582247247 9.72006
3.0120918213106695 10.2384
3.0343984987899373 10.9634
3.0567226913198637 11.0919
3.079029599759726 11.530999999999999
3.101354025127254 12.2172
3.123678568232338 13.1426
3.145985829517914 12.9655
3.16831061055229 13.4659
3.1906181112775593 14.1353
3.212943133635653 14.6959
3.2352682779763207 15.4191
3.2575761442691227 16.054000000000002
3.2799015350264273 15.8057
3.302209649240067 16.4322
3.3245352898092655 17.3269
3.3468436553365257 17.4285
3.369169549113219 17.8798
3.3914955708171384 18.6675
3.413804319727358 19.4363
3.4361305997334863 19.4798
3.4584396084414553 20.4798
3.4807661501462652 21.2083
3.503092824025881 21.8981
3.5254022288463154 21.877
3.5477291695206588 22.3525
3.5700388426251948 23.3697
3.5923660534916446 25.4186
3.6146934007816114 47.6136
3.637003482731501 134.105
3.6593311053109985 152.42700000000002
3.681641464033634 81.8518
3.7039693653009733 35.7924
3.726297407241705 27.5986
3.7486081875460804 27.0018
3.7709365132734978 27.1302
3.793247578841633 27.0389
3.8155761917550093 27.3905
3.8378875459837216 27.5271
3.8602164494827234 28.3911
3.882545499606844 29.3698
3.9048572932539183 29.8927
3.9271866390645718 30.2805
3.9494987298666713 30.5261
3.971828374764527 31.0837
3.9941581705403255 31.3209
4.016470713506008 32.4781
4.038800813471445 32.8631
4.061113662089144 33.5387
4.0834440696459176 34.4956
4.105774632334751 34.9642
4.128087945865126 36.0533
4.150418821249301 36.9102
4.172732448931298 39.2139
4.195063640413578 40.937
4.2173775856475215 46.2539
4.239709096631102 94.3001
4.262040768704612 366.74
4.284355196706267 519.058
4.306687193387355 330.175
4.329001947444346 111.995
4.35133427213731 54.2124
4.373666762177566 47.3169
4.395982011761091 46.7656
4.418314834921175 47.7351
4.44063041906622 59.4744
4.4629635787515625 78.1847
4.4852969080429785 78.757
4.5076130004776225 60.6095
4.529946671403969 53.4213
4.552263106909177 52.9401
4.574597122877047 53.3309
4.596931312711224 54.3949
4.619248269273446 54.7906
4.6415828092605835 55.6743
4.663900117405352 56.9267
4.686235010953232 57.7093
4.708552674085913 59.8871
4.730887924602802 61.1025
4.753223354952695 62.5899
4.775541557023902 63.5801
4.797877349456786 65.4287
4.820195915032126 67.2076
4.842532072957498 68.4343
4.864868414979744 71.2059
4.88718753227192 73.565
4.909524244902505 75.5169
4.931843734218147 76.8913
4.954180820867835 79.3033
4.976518095879839 82.92299999999999
4.998838149695359 86.1466
5.021175803844231 90.4149
5.043496238205739 93.8826
5.065834274903528 98.8111
5.088172504230693 104.493
5.1104935158799565 113.152
5.132832132875765 147.64600000000002
5.155153533596801 219.537
5.1774925416746225 273.12
5.199814334878411 479.74699999999996
5.2221537374521505 1255.28
5.244493338631803 2868.49
5.266815727034316 6124.15
5.289155727832427 11043.1
5.311478517248165 9821.34
5.333818921080011 4193.07
5.356159527788849 938.357
5.3784829252032536 254.609
5.400823940070432 171.42
5.423147747031976 144.577
5.445489173474152 129.94799999999998
5.467830807066149 122.009
5.490155234831516 117.186
5.512497285125229 111.822
5.534822130975162 108.896
5.557164601388673 106.334
5.579489868738879 103.15700000000001
5.601832762690846 102.572
5.6241758697774475 102.296
5.646501775867269 101.15299999999999
5.668845311622074 98.8679
5.691171647754637 97.6859
5.713515615597765 96.24700000000001
5.735859800852677 95.508
5.758186788542988 95.39
5.780531411018185 95.6675
5.802858837297399 94.9434
5.825203900414495 95.2896
5.8475491852224 96.4531
5.869877275883075 96.5195
5.892223006467101 97.9625
5.914551544266608 99.1078
5.936897724049891 102.74799999999999
5.959244129804903 109.87700000000001
5.981573344815301 134.94
6.0039202049061 248.28099999999998
6.026249875609095 529.8919999999999
6.04859719346037 1004.9
6.070927323278297 1884.0
6.093275102315365 3606.04
6.115623113320588 4803.67
6.137953938319995 3893.77
6.160302415650845 1435.76
6.182633708324452 357.67900000000003
6.2049826554078376 144.283
6.227331838745022 105.929
6.249663839443684 94.0388
6.27201349767565 89.9326
6.294345974611799 99.8623
6.316696111167083 122.512
6.339046488263839 114.693
6.361379686074702 89.6511
6.383730546639482 76.4278
6.406064229255215 72.38
6.428415576718203 71.9947
6.450749747566656 70.1134
6.47310158535871 69.0704
6.495453669698332 68.3552
6.517788579421056 67.4421
6.540141159237969 66.5647
6.562476565766648 65.9746
6.5848296444934045 65.3594
6.607182974060425 65.2679
6.6295191323281015 65.7223
6.651872965955752 71.3463
6.6742096296068985 112.006
6.6965639707294615 193.52599999999998
6.71891856698715 198.952
6.741255995248479 124.264
6.763611104154477 77.2422
6.785949046381137 64.2442
6.808304671371482 61.6402
6.8306605557940046 60.6838
6.852999275508618 60.0416
6.875355681171544 59.5511
6.897694923437771 59.2783
6.92005185377892 59.1031
6.9423916220322655 58.8334
6.964749080490181 58.284
6.987106804399774 57.8539
7.009447368180821 58.1439
7.031805625367033 57.911
7.054146723727803 58.0549
7.076505517631004 57.7973
7.098864581288365 57.4413
7.121206488070854 57.2749
7.143566093607822 57.6558
7.165908543567245 57.85
7.188268694426048 57.9294
7.2106291193438095 58.7574
7.232972390625943 60.2831
7.255333366030969 78.7297
7.277677189091925 167.385
7.300038718428332 256.716
7.322400526130865 214.011
7.344745183422596 118.554
7.367107550224791 69.8837
7.389452767901992 60.1422
7.411815697249891 57.9979
7.434161478756298 57.06100000000001
7.456524974096713 56.8289
7.478888753837185 56.6045
7.501235387657368 56.927
7.523599738562711 56.9145
7.545946944825532 56.9459
7.568311870344528 57.6558
7.5906770845765665 58.0265
7.613025156078678 60.0389
7.635390950099687 62.4662
7.657739602662809 60.9303
7.680105979923558 58.5154
7.702472650212829 58.0238
7.724822180948224 58.1266
7.747189439655568 58.0354
7.769539560075357 58.3799
7.791907410653562 58.9322
7.81425812420825 58.5907
7.836626570110925 58.8912
7.858995315087906 59.8925
7.881346924933401 60.0716
7.903716270417482 60.331
7.926068482028405 60.8267
7.948438431475253 61.3005
7.9708086843180235 61.8544
7.993161805171116 62.3426
8.015532667162402 62.8879
8.037886398416653 63.6932
8.060257873014221 64.1862
8.082629655331942 65.0677
8.104984308787587 65.9907
8.127356708900503 70.9635
8.149711981398308 80.0416
8.172085002766314 84.4352
8.194458336181368 78.1743
8.216814543847752 72.8135
8.23918850371002 71.7905
8.26154533906492 72.5104
8.283919928836452 74.0192
8.306277395339652 74.5157
8.328652618483376 76.0504
8.351028159736202 78.6492
8.373386579575245 80.6515
8.395762759396959 82.7924
8.418121819038275 89.3215
8.440498640894003 110.00299999999999
8.462875785192262 132.707
8.485235811156207 147.0
8.507613602688501 188.043
8.529974277114228 285.2
8.552352719347912 416.486
8.574731488360351 611.32
8.59709314210385 953.4810000000001
8.619472567021075 1499.09
8.64183487789147 2018.43
8.664214962183097 2017.58
8.686577933647762 1271.38
8.708958680784317 551.411
8.731339760774953 226.987
8.753703729764451 129.713
8.77608547780821 107.70100000000001
8.798450116065078 101.758
8.820832535634787 97.55
8.843215292401656 95.2005
8.865580941199045 93.6909
8.887964374703538 92.3375
8.910330701447199 94.3951
8.932714815164482 98.9235
8.955099270424924 98.4892
8.977466620733543 93.772
8.999851761421976 88.9008
9.022219798361645 86.4904
9.04460562795561 86.0858
9.066991803441677 85.6694
9.089360876979615 85.6359
9.111747746589993 85.11
9.13411751544971 84.375
9.156505082664324 83.95
9.178875550323522 84.2019
9.20126381862328 85.3841
9.223652438908596 85.9734
9.246023961427412 85.4544
9.26841328802173 84.4996
9.290785518039224 84.2455
9.313175554425882 85.3466
9.335565947154315 85.0943
9.357939245086508 85.2637
9.380330352834827 85.6514
9.40270436697103 85.6198
9.425096193225055 85.0331
9.447488380180165 86.0015
9.469863475295412 86.3025
9.492256385987508 86.7058
9.514632206018318 87.4372
9.537025843935714 87.4967
9.559402392368193 88.7737
9.581796761000229 90.1056
9.604191496441521 91.4849
9.626569144158516 96.3391
9.648964615551032 104.353
9.671343000390081 106.959
9.693739211225699 102.775
9.716135793237463 97.475
9.738515290448102 95.8651
9.760912617143402 96.9624
9.783292860202891 98.3693
9.805690935076182 99.5722
9.828089385495742 100.274
9.850470754023561 103.211
9.872869957865444 114.296
9.89525208097539 138.675
9.917652041736662 159.91
9.940052382417589 158.105
9.962435644102392 159.778
9.984836746950979 194.28
10.007220771957746 264.903
10.029622640473708 365.545
10.052007432299963 496.51
10.074410069984072 683.706
10.096813093716005 1000.0
10.119199042482517 1457.9
10.141602840636468 1886.66
10.163989564971628 1838.28
10.186394141051062 1249.37
10.208799107559706 593.117
10.231187001965623 269.22
10.253592751657669 153.262
10.275981430388155 124.361
10.298387966769793 122.79700000000001
10.320794897965431 127.31299999999999
10.343184759907361 126.3
10.36559248305461 117.75
10.387983138083852 110.417
10.410391656691655 112.788
10.432800574501677 125.17200000000001
10.455192425893369 143.57299999999998
10.47760214443012 167.68200000000002
10.499994797678786 198.62099999999998
10.522405320453982 249.59099999999998
10.54479877906917 333.04400000000004
10.567210109595656 442.695
10.5896218454736 541.4
10.612016518879773 546.618
10.634429067781074 425.214
10.656824555333241 259.73900000000003
10.679237920773568 150.244
10.701651695961992 105.639
10.724048411481384 94.589
10.746463008485165 90.4734
10.768860546937125 88.4559
10.791275969274796 86.5676
10.81369180576079 85.12899999999999
10.836090585366925 84.1604
10.858507252467449 83.0327
10.88090686379991 81.7626
10.903324365036394 81.1776
10.925724811614439 82.0935
10.948143150509463 84.2583
10.970561909719066 84.0922
10.992963615930844 81.3136
11.015383218085756 78.1377
11.037785768347074 76.1143
11.06020621697282 75.327
11.082627090322113 74.9848
11.105030913430326 74.5485
11.12745263854165 75.4464
11.149857314510728 81.4947
11.172279894912576 92.4186
11.194702904450653 95.2416
11.217108866490921 88.5632
11.239532736615194 80.759
11.26193956033512 77.1686
11.284364294577085 74.535
11.306789462371718 71.7383
11.329197585398376 70.0588
11.351623622610898 69.361
11.37403261614354 68.4322
11.396459526308487 68.3836
11.418869393879497 68.0152
11.441297180532617 67.7505
11.463725406927658 67.3874
11.486136592353875 67.2935
11.508565700543707 68.4267
11.530977768845315 71.4672
11.553407762368774 73.2061
11.575838200059769 72.3021
11.598251599479612 69.2291
11.620682927815501 66.758
11.64309721895548 65.7267
11.665529441478206 65.3085
11.687962112597958 65.342
11.710377748130886 65.1648
11.732811318753434 65.1411
11.755227854859067 65.2664
11.777662328529495 65.1367
11.800079768750786 64.9492
11.822515149015453 64.7364
11.844950984084935 65.0827
11.867369787303163 64.7506
11.889806534289491 64.3061
11.912226250487029 64.9807
11.934663912939751 64.9482
11.9571020346363 65.0755
11.979523127133968 65.0094
12.001962169624331 65.7629
12.024384183972964 67.0535
12.046824150809913 70.5533
12.069264581333726 76.5632
12.091687985297767 83.3035
12.11412934550045 91.0097
12.136553680195208 100.64200000000001
12.158995973632788 115.165
12.181438735204349 134.72799999999998
12.20386447284199 163.751
12.226308172985636 195.727
12.24873485024193 212.65
12.271179492516982 190.767
12.293607112949127 154.415
12.316052700916226 117.65299999999999
12.338498763250042 92.2144
12.360927805303868 78.2729
12.383374818673879 71.1756
12.405804812803074 67.74
12.428252780773262 66.9691
12.45070122756722 66.8121
12.473132656675375 66.8829
12.49558206341869 66.6779
12.518014453510101 66.7121
12.540464823770117 67.0247
12.562915677315177 67.2619
12.58534951575545 68.1729
12.607801338171472 70.9459
12.630236146511358 79.7046
12.652688941369085 88.3709
12.675124723177234 89.2639
12.697578494048786 82.6512
12.720032754458185 74.7067
12.742470003354093 71.0706
12.764925245138771 70.4707
12.787363476431278 70.4891
12.809819703166806 70.6897
12.83227642391173 71.6217
12.854716135692716 71.9535
12.877173846755147 73.0414
12.899614549869717 73.0421
12.9220732548287 73.9962
12.94453245827299 74.571
12.966974655289818 75.5854
12.989434858002571 76.264
13.011878055298721 76.8504
13.034339260862497 78.0407
13.056800969391883 79.1876
13.079245674017244 81.2574
13.101708390774869 83.8551
13.12415410463411 91.8843
13.146617833206086 105.50200000000001
13.169064559883248 119.387
13.191529303857127 134.269
13.213994557076367 150.65200000000002
13.236442809902437 172.968
13.258909083908291 207.36900000000003
13.28135835851934 252.17700000000002
13.30382565690295 318.117
13.326293469022952 395.79699999999997
13.348744283242008 444.69300000000004
13.371213125129904 422.543
13.39366497011003 329.121
13.416134845360597 225.722
13.438605238843131 150.297
13.46105863690397 118.37100000000001
13.483530069144786 113.12100000000001
13.505984506951902 117.64299999999999
13.528456981549432 127.25399999999999
13.550929978879088 138.136
13.573385983253365 153.13
13.595860028340867 175.824
13.618317081455832 209.25400000000002
13.64079217790333 255.00099999999998
13.663250283359057 310.619
13.685726434770173 359.404
13.708203115221277 373.06
13.730662806148091 320.867
13.75314054697177 235.64
13.775601299246777 160.034
13.798080104050406 111.721
13.820559442405358 91.9502
13.843021793671388 85.9119
13.865502201420897 83.2922
13.887965623051947 82.5829
13.910447103807167 81.3452
13.932929122629764 79.789
13.955394156785959 79.2965
13.977877254034569 78.3625
14.000343367582113 77.517
14.022827546871707 76.7197
14.045294743423524 76.1236
14.06778000837062 75.3671
14.090265817715476 75.3247
14.112734645763819 75.11
14.13522154619454 75.2919
14.157691466286913 75.3903
14.180179461423874 74.9285
14.202668005486178 74.0014
14.22513957064374 73.1357
14.247629214846473 72.4622
14.270101881097517 72.6138
14.29259262906496 73.2917
14.315083930490205 74.7586
14.337558255389705 75.2812
14.360050666019726 75.0059
14.382526101071944 73.4582
14.405019624534942 72.1011
14.427513705993134 71.0191
14.449990813291825 71.1085
14.47248601302899 71.0354
14.49496423954951 70.9533
14.517460561197822 71.1258
14.539939910570322 70.4544
14.562437357763558 71.2817
14.58493536931253 72.8633
14.607416409993311 74.65899999999999
14.62991555254159 75.7708
14.652397725157423 75.3721
14.674898002342799 74.0102
14.697398848433282 72.9597
14.719882725991326 73.1991
14.74238471217934 74.262
14.764869730765593 77.987
14.787372860692983 81.9376
14.809876564079925 87.0053
14.83236330125751 92.6073
14.854868153850365 98.6761
14.877356041159485 107.428
14.899862046604186 118.785
14.922351087688757 134.88
14.944858249632887 157.002
14.967365991421232 183.86
14.989856770231246 211.706
15.012365673994204 227.27200000000002
15.03485761569738 212.44400000000002
15.05736768508665 176.382
15.07987833888692 136.498
15.102372032001655 104.792
15.124883856909658 84.4688
15.14737872204565 76.3854
15.169891721717274 73.7929
15.192405310371893 73.4158
15.214901940621196 74.2557
15.237416709527137 74.7969
15.259914520936249 75.2822
15.282430473753607 74.5679
15.304947020131227 72.5776
15.327446610371178 70.9971
15.349964346154254 70.0351
15.372465126703139 69.3837
15.394984055556009 69.0905
15.417486030076159 68.4311
15.44000615566487 68.1886
15.462526881230803 68.4541
15.485030653812652 68.5203
15.507552581617434 68.8412
15.530057557334603 69.0863
15.55258069104857 68.8194
15.575104429329837 68.7304
15.597611216864632 67.9979
15.620136166564563 67.9909
15.6426441664095 68.9856
15.665170331202765 71.6378
15.687697105158826 75.3441
15.710206930593545 79.1899
15.732734925158933 83.40700000000001
15.755245972089478 88.1209
15.77777519094324 93.8798
15.800287463046663 102.06200000000001
15.822817909869592 113.838
15.84534897229804 129.365
15.867863089299354 150.80700000000002
15.890395385222186 174.205
15.912910736597423 193.59400000000002
15.935444269699861 200.66099999999997
15.957978423016485 182.623
15.980495633101265 150.88299999999998
16.003031029129367 117.145
16.02554948280019 89.2701
16.048086125229432 74.6053
16.070623392487107 70.0333
16.09314371869582 69.0024
16.11568223789321 67.9094
16.13820381691126 66.6462
16.160743591742527 64.8512
16.183283996022084 63.1537
16.205807461423195 61.9313
16.228349126881973 61.4537
16.25087385432698 61.3232
16.27341678466365 60.7982
16.29594277784926 60.6539
16.31848697676433 61.3741
16.341031811604868 62.4016
16.36355971058487 63.0567
16.3861058195587 62.7552
16.40863499352978 61.0717
16.431182380342005 59.6331
16.453730407713202 58.5818
16.476261501364792 57.9284
16.498810812136167 57.4756
16.52134319004079 57.7413
16.54389378792203 57.6082
16.566445031001553 57.2884
16.588979342490088 57.1933
16.61153187824822 57.1185
16.634067483263312 56.8017
16.656621315414416 56.8015
16.679175797408888 56.5155
16.701713349928728 56.7773
16.72426913389191 56.8834
16.74680798922351 57.1358
16.76936507887444 57.1989
16.791905240734874 56.9639
16.814463639794468 56.8787
16.837022695210294 56.9678
16.859564824093756 57.3638
16.882125194503903 58.7128
16.904668639217885 59.8909
16.927230328348003 60.1575
16.949792678493612 60.0429
16.972338104193863 59.0623
16.994901778652235 58.1745
17.017448529496576 57.5646
17.040013531998152 57.7082
17.06257920018044 58.2201
17.0851279459922 59.2607
17.107694947817667 60.0738
17.130245028099072 60.9165
17.15281336730298 62.1478
17.17536478578733 63.4986
17.19793446610687 64.9401
17.220504818648422 66.8201
17.243058251703697 68.4476
17.265629950971032 72.0564
17.288184731571736 76.3926
17.310757781306908 81.3643
17.33333150794385 84.7925
17.355888317140174 85.8562
17.37846339986244 83.6262
17.401021565958885 77.4199
17.42359800851343 70.9798
17.44617513265564 66.2053
17.468735341390783 63.1129
17.491261035594565 61.5665
17.51396340099364 61.0781
17.536490463869136 61.1509
17.559018209820174 61.1197
17.58154663977963 61.1775
17.604251766089718 61.2195
17.626781572227713 61.4542
17.64931206518155 61.7459
17.671843245885103 62.581
17.69455114821572 62.8699
17.717083712612634 63.1458
17.739616967569667 63.1288
17.762150914021706 63.169
17.78486160749854 63.1827
17.807396945166804 63.9045
17.829932977143503 64.7334
17.85246970436452 66.0688
17.875183204129467 68.3116
17.897721330097664 70.8376
17.920260154126645 73.6422
17.942799677153296 76.167
17.9655159983646 78.8702
17.988056927677544 82.3457
18.010598558807683 86.8661
18.033140892692916 93.1625
18.05586005052525 100.973
18.07840379824407 111.37200000000001
18.10094825154059 123.945
18.12366954819864 137.23
18.146215420998306 145.196
18.16876200220057 143.778
18.191309292745153 133.86
18.214033452627167 118.318
18.236582170236648 102.193
18.259131600016456 91.7855
18.281681742907335 87.1762
18.304408781233683 88.1906
18.32696035875955 91.2892
18.349512652227624 96.0755
18.372065662579683 102.62899999999999
18.394795594587553 107.976
18.41735004715306 110.53200000000001
18.43990521943684 106.255
18.46246111238171 97.2914
18.485193953325208 86.0398
18.507751296070428 76.6565
18.530309362314178 70.4026
18.552868153000343 66.9912
18.57560391815056 64.8943
18.59816416623245 64.1997
18.620725141597372 63.5187
18.643286845190268 63.1863
18.666025549835414 62.6844
18.688588718427933 62.0596
18.711152618092243 61.9219
18.73389353884365 61.5235
18.75645890921984 61.0559
18.77902501351406 60.7782
18.801591852673102 60.9369
18.824335739722738 60.2768
18.846904057212626 60.0752
18.8694731124168 59.7024
18.89204290628315 59.8523
18.914789774966803 59.555
18.937361054791623 59.0908
18.959933076131318 59.0447
18.982505839934877 59.1364
19.00525570560582 59.0657
19.027829963004184 58.9361
19.05040496572238 59.3559
19.072980714710468 59.1061
19.095733592739563 59.2066
19.11831084296757 59.768
19.140888842324735 60.4393
19.16346759176222 60.6451
19.18622349753803 61.1562
19.208803755869358 61.6415
19.231384767143577 62.1409
19.253966532312948 63.0737
19.276725481241822 64.1508
19.29930876296784 65.6466
19.3218928014549 68.4283
19.34465404436217 71.4895
19.36723960516257 75.3027
19.389825925592426 78.2975
19.412413006605938 79.7389
19.43517731967805 78.0151
19.457765930683355 74.2387
19.48035530514408 69.1828
19.50294544401556 64.2823
19.525712842708348 60.4925
19.54830451925909 58.0404
19.570896963095727 56.4325
19.593490175174704 56.2161
19.616260674962184 56.0044
19.638855432416964 55.4531
19.661450960992624 55.5576
19.68404726164677 55.403999999999996
19.706820878021247 55.1966
19.729418731756834 55.3336
19.752017360452857 55.1317
19.77461676506804 55.4067
19.797393513540218 55.3455
19.819994478951667 55.8685
19.84259622316767 56.6583
19.8651987471481 56.981
19.887978643247177 57.2484
19.91058273574792 57.5056
19.933187610901943 57.9764
19.955969879466828 58.7179
19.97857632894404 59.5603
20.00118356396599 60.5291
20.023791585494575 61.8359
20.046577028914875 64.1745
20.069186632506966 66.4919
20.091797025500632 69.023
20.114408208858933 71.1594
20.137196842715273 72.6429
20.159809615886765 72.459
20.18242318232135 69.8469
20.20503754298326 67.1855
20.227829382875154 64.8366
20.250445341109344 63.2704
20.27306209647285 63.013000000000005
20.29567964993108 63.8373
20.31847471147704 64.7957
20.34109387027612 66.6858
20.363713830075454 67.9518
20.386334591841646 67.84100000000001
20.409132890679302 65.9062
20.431755265564437 62.7213
20.454378445325528 59.5637
20.477002430930366 57.0864
20.499803982716553 55.5065
20.522429589228004 54.3705
20.54505600449589 53.6924
20.567683229489194 53.3535
20.590488049900088 52.5995
20.61311690359731 52.1207
20.63574656993626 51.8223
20.658553853717297 51.5159
20.681185154618298 51.5782
20.703817271080066 51.3851
20.72645020407368 50.9488
20.749260783967177 50.8358
20.771895359337133 50.8505
20.794530754161617 50.8835
20.817166969412938 50.6624
20.83998086114876 50.6857
20.86261872660049 50.4129
20.885257415405402 50.2706
20.90789692853701 50.2137
20.930714147864748 50.2277
20.953355319030678 50.3322
20.97599731745334 50.5232
20.99864014410749 50.1819
21.021460706796564 50.3632
21.044105199328826 50.5585
21.06675052302631 50.8229
21.089396678865015 50.7956
21.112220600704806 50.7369
21.134868430275347 51.2403
21.15751709492456 51.3844
21.180166595629693 51.559
21.202993892429635 52.156000000000006
21.22564507473034 52.463
21.24829709602816 52.7743
21.27112693608965 53.1246
21.293780644891275 53.4455
21.316435195634053 53.0321
21.339090589297417 52.3255
21.361923832041875 51.7114
21.384580921090404 51.1055
21.407238856007325 50.4605
21.429897637773326 50.1336
21.45273429906592 50.1362
21.475394784108598 50.013999999999996
21.498056118951983 49.9461
21.520718304578022 49.9901
21.543558400304388 50.2404
21.566222297108816 50.465
21.58888704765135 50.6449
21.61155265291521 50.8831
21.63439619898156 51.3735
21.657063523335786 51.6608
21.67973170537063 52.0891
21.7024007460706 52.7115
21.72524775840385 53.1205
21.747918526116475 53.9061
21.770590155457388 54.6099
21.79326264741238 55.7836
21.816113141960237 57.0651
21.838787368860547 58.4694
21.861462461341976 60.1769
21.884315579735777 62.3938
21.90699241312273 64.402
21.92967011506078 66.3447
21.95234868653799 67.3439
21.9752053151131 67.2976
21.997885635446785 65.5807
22.020566828293532 63.3071
22.04324889464272 60.7399
22.066109049404666 58.4994
22.088792872571794 57.3563
22.111477572219204 57.3226
22.1341631493376 57.6409
22.157026846313123 58.0945
22.179714188221507 58.0269
22.202402410582668 57.2948
22.22509151438863 55.8609
22.24795876962584 54.3733
22.270649646204486 53.1839
22.293341407213727 52.1501
22.316034053646906 51.4724
22.338904883215342 51.1452
22.36159931041458 50.9469
22.38429462602756 50.9557
22.40699083104897 50.7365
22.429865251039757 50.9299
22.452563244831367 50.895
22.47526213102522 50.7448
22.49813925616515 50.6451
22.520839937143307 50.4632
22.543541513520587 50.4521
22.56624398629403 50.2075
22.589124730075895 50.1267
22.611829005656723 50.425
22.63453418063466 50.3909
22.657240256008077 50.6881
22.680124634582935 50.6662
22.70283252079775 51.0323
22.725541310413075 51.2933
22.74825100442868 51.5571
22.771139033969575 51.9158
22.79385054687155 51.7542
22.81656296718292 52.1974
22.83927629590484 52.9064
22.862167992606945 53.5429
22.88488314827121 54.2782
22.907599215359284 55.1507
22.93031619487366 56.1163
22.953211574954405 57.3995
22.975930389478226 58.7976
22.998650119445763 59.8148
23.02137076586092 60.1118
23.044269845560063 59.4734
23.06699233506288 58.1718
23.089715744034912 56.1693
23.112617610931565 54.1727
23.135342869061212 52.6394
23.158069049684816 51.4947
23.1807961538087 50.8189
23.20370174880544 50.6144
23.226430710184808 50.5948
23.249160598093425 50.5405
23.271891413539002 50.7317
23.294800752937697 50.8006
23.31753343374794 50.756
23.340267045128353 50.831
23.36300158808808 51.2476
23.38591468821339 51.3434
23.408651104658304 51.7142
23.431388455719986 51.9228
23.454126742409 52.2854
23.4770436196085 53.0128
23.499783787914662 54.128
23.522524894889884 54.6932
23.54526694154616 55.5386
23.56818761219047 57.0082
23.59093154860734 58.2927
23.613676427751283 59.7353
23.636422250635754 59.6728
23.659346731118656 59.0374
23.68209445191868 57.6123
23.704843119509587 55.2825
23.72759273490623 53.1184
23.750521041644767 51.1178
23.77327256312355 49.5949
23.796025035462787 48.7267
23.818956224555475 48.0293
23.841710609113413 47.7405
23.86446594758979 47.3544
23.887222241002014 47.248000000000005
23.910157285144578 46.9403
23.932915498962537 46.7799
23.955674670778713 46.7508
23.978434801611975 46.4721
24.001373717286125 46.3401
24.024135776723917 46.1189
24.046898798245582 46.2133
24.06966278287146 46.1436
24.092605586582614 45.7637
24.115371508023642 45.7185
24.1381383956401 45.6456
24.16090625045381 45.565
24.183852958731244 45.7787
24.206622758582608 45.6085
24.229393528706886 45.276
24.252165270127392 45.2882
24.27511589952438 45.1986
24.297889594216997 45.0402
24.32066426328598 44.8883
24.34343990775613 44.8726
24.36639447485003 44.8091
24.38917208083877 44.7457
24.41195066531332 44.5662
24.43490819850244 44.7539
24.457688750692377 44.3996
24.48047028445616 44.5085
24.503252800821233 44.4917
24.526214300784112 44.5168
24.548998793132213 44.3693
24.57178427117417 44.4106
24.59457073593893 44.5164
24.617536219319863 44.3638
24.64032466834748 44.6565
24.663114107195035 44.4888
24.685904536893013 44.3599
24.708874020360852 44.19
24.731666442613744 44.0188
24.754459858818787 43.9867
24.777254270007962 43.9659
24.80022777025625 43.8416
24.82302418230472 43.7556
24.845821592443674 43.7954
24.86862000170663 43.6002
24.891597535453727 43.66
24.914397953892728 43.802
24.93719937456671 43.6113
24.96000179851076 43.7379
24.98298338249997 43.8653
25.00578782394922 44.0607
25.028593271784167 44.143
25.05157790644186 44.3478
25.07438537804115 44.3505
25.097193859145293 44.6617
25.120003350792075 44.7578
25.142992065061257 45.221000000000004
25.165803588823465 45.5033
25.18861612625217 45.8074
25.211429678386736 46.02
25.234422489079968 46.2002
25.257238081693636 46.1394
25.280054692141732 46.128
25.3028723214652 46.0883
25.325869245420463 46.1251
25.348688923599397 46.1369
25.371509623787006 46.3787
25.394331347025812 46.4657
25.41733240110666 46.2779
25.440156181590016 45.8457
25.46298098826268 45.2403
25.48580682216873 44.5241
25.50881202326435 43.8165
25.53163992281684 43.1892
25.55446885274561 42.8607
25.577298814096377 42.4036
25.600308179121807 42.2855
25.623140214533745 42.3143
25.64597328451537 42.1971
25.66898578564376 41.9573
25.691820936010206 42.0997
25.714657124097695 41.9602
25.737494350954734 41.9901
25.760511045684957 41.9547
25.783350361364224 41.9674
25.806190718969255 42.0634
25.82903211955018 42.0606
25.852053024868923 42.151
25.874896522722523 41.9899
25.897741066713106 41.9768
25.920586657892454 42.056000000000004
25.943611790812668 42.0963
25.966459487728237 42.1271
25.989308234998564 42.083
26.01215803367705 42.2804
26.03518741123814 42.5179
26.05803932412957 42.7273
26.080892291600094 42.6972
26.10374631470478 43.0028
26.12677995397268 43.0913
26.14963609978026 43.0766
26.172493304397875 42.9668
26.19535156888223 42.8262
26.218389486949604 42.523999999999994
26.241249882640123 42.2611
26.26411134137826 41.9785
26.28715248187403 41.7379
26.31001607820869 41.6091
26.3328807407756 41.4392
26.35574647063438 41.6056
26.37879191991473 41.5044
26.401659795896734 41.4636
26.424528742360263 41.5774
26.447398760366614 41.7072
26.470448535598294 41.768
26.49332070826805 42.0416
26.516193955675355 42.2311
26.53906827888316 42.3586
26.562122397260108 42.4282
26.584998883685063 42.8268
26.607876449110325 42.9873
26.63075509460056 43.0655
26.65381357334404 43.306999999999995
26.67669439061878 43.5066
26.699576291163382 43.5126
26.722459276044212 43.5539
26.745522132402975 43.3302
26.768407297649354 43.0319
26.791293550442003 42.6675
26.814180891848974 42.5162
26.837248143099337 42.1104
26.860137673466657 41.8901
26.88302829566349 41.626999999999995
26.90592001075963 41.6422
26.92899167420566 41.5167
26.951885586870763 41.1149
26.974780595655517 40.9027
26.99785558178161 40.7183
27.020752794605112 40.4703
27.043651106772522 40.4157
27.06655051935668 40.208
27.089629948036183 40.0368
27.112531573292053 40.0493
27.135434302194138 40.1203
27.158338135817015 39.8793
27.181422024430987 39.8762
27.204328079372566 39.7863
27.22723524226965 39.9051
27.250143514198573 39.9893
27.273231880156334 39.8499
27.296142382065014 39.6386
27.319053996245536 39.691
27.341966723775965 39.8065
27.365059584515222 39.7335
27.38797455070062 39.7723
27.410890633481237 39.5817
27.433807833936918 39.62
27.456905206923906 39.6843
27.47982465472398 39.8286
27.502745223449743 39.779
27.525666914182825 39.7721
27.548768816912457 39.8602
27.571692763693633 39.8648
27.59461783573812 39.7738
27.617723149491244 39.583
27.640650484125285 39.5966
27.66357894728264 39.5898
27.686508540048052 39.5473
27.709618414237887 39.2638
27.732550278321757 39.2008
27.755483275279115 39.2417
27.778417406196485 39.1961
27.801531858397514 39.1296
27.824468269376716 39.0361
27.847405817586786 39.0236
27.870344504116094 39.1817
27.893463551932008 39.245
27.916404527281053 39.4946
27.93934664422563 39.5639
27.962289903855886 39.407
27.98541356491974 39.6528
28.00835912214229 39.7199
28.03130582533231 39.9995
28.054253675581805 40.2429
28.077381967556104 40.255
28.100332124185126 40.3478
28.123283431160893 40.3022
28.146235889577238 40.2433
28.169368830154156 40.1595
28.192323603752033 39.9207
28.215279532083304 39.501999999999995
28.238415973016764 39.3226
28.261374223145094 39.275999999999996
28.284333631303806 39.0064
28.307294198589954 39.0034
28.330435319167677 38.799
28.353398217078915 38.3973
28.376362277420153 38.0731
28.39932750129032 38.0924
28.422473319286713 37.7298
28.44544088262495 37.8155
28.468409612800283 37.5569
28.491379510913497 37.2893
28.51453004413313 37.2083
28.53750229057244 37.2016
28.56047570826344 37.1555
28.583450298308804 37.1307
28.606605564586562 37.0492
28.629582511831156 36.9618
28.65256063474956 36.9529
28.675539934446338 36.8914
28.698699951647605 36.7969
28.72168161743193 36.8002
28.74466446331978 36.8644
28.767648490417624 36.7443
28.790813276438353 36.5759
28.813799678527303 36.6138
28.836787265157085 36.5474
28.859955641890075 36.5616
28.882945610203045 36.625
28.905936766392035 36.5866
28.928929111566863 36.5371
28.952102288520145 36.5986
28.975097024308607 36.5028
28.998092952423807 36.3071
29.021090073977508 36.3051
29.04426806913204 36.1657
29.067267590245258 35.8642
29.090268308143695 35.8205
29.11327022394099 35.874
29.13645305530891 35.7254
29.159457379627167 35.7052
29.18246290519685 35.4942
29.20546963313352 35.4893
29.22865731875826 35.6229
29.25166646419296 35.501999999999995
29.27467681535305 35.3363
29.29768837335608 35.3669
29.320880931312562 35.427
29.34389491580634 35.4203
29.366910110507334 35.3798
29.38992651653503 35.3555
29.41312396492981 35.4139
29.436142806456754 35.3341
29.45916286268059 35.3915
29.48236399319994 35.2274
29.50538649169417 35.1408
29.528410208259935 35.0942
29.55143514402014 34.8374
29.574641196749695 34.7542
29.597668583816574 34.5323
29.6206971934585 34.3467
29.64372702680042 34.4024
29.666938019934474 34.26
29.689970313635285 34.2331
29.713003834422636 34.2632
29.73603858342347 34.166
29.759254535188578 34.0058
29.78229175361658 33.9207
29.80533020365064 34.0262
29.82836988641968 33.9847
29.85159081507472 33.9645
29.874632976355343 33.896
29.89767637376955 33.903
29.920721008448314 33.7966
29.9439469322847 33.757
29.96699405457564 33.6674
29.9900424175358 33.7342
30.013092022298157 33.5934
30.03632295963995 33.5031
30.059375061131373 33.5864
30.08242840783577 33.5903
30.105483000888153 33.5707
30.128718970092244 33.4194
30.151776069006917 33.5036
30.17483441768648 33.5121
30.198074175317235 33.4964
30.221135036724256 33.5939
30.24419715131772 33.4647
30.267260520236203 33.3936
30.290505341942243 33.418
30.313571232750228 33.5381
30.336638381310948 33.5814
30.35970678876503 33.4932
30.38295669299435 33.3583
30.40602763151657 33.336
30.429099832366074 33.2777
30.452173296685572 33.2278
30.47542830191959 33.1085
30.498504306502497 33.1175
30.521581577995562 33.1776
30.544660117543582 33.2463
30.56792024229725 33.1951
30.59100133132069 33.165
30.614083691845494 33.1324
30.637167325018545 33.2501
30.660432587840603 33.2629
30.683518779717886 33.0787
30.70660624769615 33.3597
30.729694992924372 33.3472
30.75296541239743 33.2881
30.77605672557558 33.2877
30.799149319462742 33.364000000000004
30.8224236211637 33.1553
30.845518789950724 32.9925
30.868615242910597 33.0254
30.891712981195973 32.8699
30.91499247215866 32.7882
30.938092794619365 32.711999999999996
30.96119440587579 32.5674
30.984297307082752 32.556
31.00758200598383 32.3944
31.030687500658694 32.3184
31.053794288760695 32.2799
31.076902371446767 32.1875
31.100192296997445 32.2838
31.12330298246119 32.1468
31.14641496599209 31.9987
31.169528248749216 32.0597
31.19282341969534 31.9782
31.215939314557186 32.0721
31.239056512134788 32.0232
31.262175013589378 31.9428
31.28547544871168 32.010999999999996
31.30859657161541 31.8395
31.331719001892175 31.8339
31.35484274070538 31.9688
31.378148458819545 32.0272
31.401274828443725 31.8159
31.424402510106933 31.9445
31.447712205419993 31.9809
31.470842524931633 31.7754
31.493974159989783 31.9219
31.51710711176168 31.9446
31.54042212308802 31.8956
31.563557722100917 31.8637
31.586694641341655 31.6335
31.609832881979628 31.6771
31.63315322823208 31.5083
31.656294125521327 31.5014
31.679436347728515 31.3937
31.70257989602529 31.4246
31.725905596152327 31.3199
31.74905181052835 31.1695
31.772199354521323 31.256
31.79534822930507 31.2028
31.818679302290967 31.1317
31.84183085259981 31.206
31.864983737233473 31.2544
31.88813795736804 31.2803
31.911474422233013 30.9964
31.934631327356435 31.1176
31.9577895715215 31.1047
31.980949155906522 31.1272
32.004291031706956 31.1583
32.027453310562606 30.8724
32.05061693318573 30.8427
32.07396288236386 30.8598
32.09712920658542 30.8174
32.12029687812702 30.7111
32.14346589817093 30.7808
32.166817291729984 30.6399
32.18998902288583 30.5772
32.21316210610336 30.4737
32.23633654256711 30.3712
32.259693399663725 30.2736
32.282870556771144 30.2436
32.30604907069099 30.2591
32.329228942610065 30.1221
32.35259128243769 29.9669
32.375773884550505 29.9368
32.398957848235646 29.9246
32.422143174682176 29.944000000000003
32.445511016471215 29.7882
32.468699082679954 29.7312
32.49188851523011 29.701999999999998
32.51507931531304 29.6707
32.538452678331 29.5955
32.56164622776311 29.576
32.58484114831493 29.5158
32.60803744118015 29.4652
32.631416344731896 29.4572
32.654615396551876 29.5375
32.67781582427913 29.4885
32.701198898634416 29.3056
32.72440209253756 29.1028
32.747606665947124 29.3112
32.77081262006088 29.2419
32.79420126883317 29.1596
32.81740999876112 29.1422
32.840620112999424 28.9791
32.86383161274818 29.0134
32.88722585534586 29.066999999999997
32.91044014056596 29.1075
32.933655814909734 29.0614
32.95687287957963 29.0342
32.98027273544904 28.9347
33.00349259526636 28.9067
33.026713849030116 28.8519
33.04993649794511 28.8301
33.073341986570746 28.8371
33.09656744032826 28.7931
33.11979429286444 28.7458
33.14302254538647 28.7296
33.166433686291185 28.6611
33.18966475336992 28.7476
33.212897224069096 28.4881
33.23613109959831 28.4666
33.259547912343415 28.4836
33.2827846121627 28.6271
33.306022720453775 28.5033
33.32926223842861 28.319000000000003
33.352684742614166 28.4194
33.37592709463173 28.3818
33.399170859982064 28.3523
33.422597648419426 28.2965
33.44584425514446 28.1606
33.46909227885668 28.009
33.4923417207723 28.0088
33.51577423505344 27.997
33.539026528130385 27.8363
33.56228024307245 27.9013
33.585535381098246 27.7655
33.60897364093058 27.8074
33.63223163992385 27.7641
33.6554910656699 27.6285
33.678751919389796 27.6519
33.702195944520106 27.6168
33.72545966903325 27.5411
33.74872482519663 27.4121
33.771991414233746 27.4473
33.79544122444841 27.3707
33.81871069412428 27.3367
33.84198160035767 27.2762
33.86525394437455 27.3563
33.88870955949969 27.2366
33.911984794020626 27.3056
33.93526147001624 27.2071
33.958539588715006 27.1383
33.98200102861669 27.1049
34.0052820477047 26.9768
34.02856451319451 26.9126
34.05203033759056 26.837
34.07531571090147 26.8986
34.09860253431845 26.8911
34.121890809074316 26.8488
34.145362493118924 26.8552
34.16865368561615 26.798000000000002
34.191946333164054 26.7707
34.21524043699793 26.6694
34.23871800066799 26.6838
34.26201503218366 26.5695
34.28531352370466 26.6206
34.30861347646881 26.4772
34.33209693978188 26.4622
34.3553998301885 26.4931
34.378704185565205 26.3659
34.402010007152356 26.3044
34.42549939016683 26.3127
34.44880815937748 26.2615
34.472118398533134 26.1611
34.49543010887669 26.19
34.51892543169198 25.965999999999998
34.54224009966052 26.0549
34.56555624255917 25.9961
34.58887386163339 26.068
34.61237514439016 25.9555
34.6356957311114 25.8351
34.65901779775809 25.8709
34.68252356662995 25.7691
34.705848608458616 25.7917
34.72917513396849 25.7793
34.75250314440949 25.704
34.77601490857862 25.6845
34.799345904259795 25.5302
34.82267838863559 25.5557
34.846012362958525 25.5257
34.869530142679984 25.4834
34.89286711232212 25.454
34.91620557568269 25.4347
34.93954553401677 25.4503
34.9630693495876 25.3105
34.986412313340814 25.3832
35.00975677584668 25.2668
35.033102738362956 25.3133
35.05663261012228 25.169
35.0799815881786 25.176
35.10333207003229 25.1342
35.12668405694369 25.215
35.150220005273056 25.1648
35.17357501786656 25.1156
35.19693153931268 25.0135
35.220289570874385 24.9925
35.24383161619786 25.0388
35.267192683604904 24.971
35.290555264930376 24.9871
35.314101899412165 24.9375
35.33746752422433 24.881
35.36083466676374 24.8028
35.38420332829803 24.8211
35.407756095629054 24.8662
35.43112781085063 24.8967
35.45450104888391 24.8314
35.477875810999194 24.7698
35.50143473172161 24.6883
35.52481255774625 24.7658
35.54819191167777 24.7291
35.57157279478914 24.6012
35.595137889488406 24.5699
35.61852184675279 24.5311
35.641907337029984 24.55
35.665294361595684 24.4904
35.68886565090076 24.3787
35.7122557598848 24.4286
35.73564740699838 24.3193
35.759040593519934 24.2806
35.78261809810353 24.3055
35.80601437933051 24.2149
35.829412203814705 24.1007
35.85281157283719 24.034000000000002
35.876395313415884 24.1448
35.8997977874528 24.0
35.92320180988546 23.9971
35.946790244133936 23.88
35.97019737933222 23.9118
35.993606066789866 23.8457
36.01701630779276 23.8509
36.04061101440684 23.8505
36.06402437852291 23.8396
36.08743930005611 23.8447
36.1108557802951 23.718000000000004
36.13445678011326 23.7706
36.15787639383515 23.732
36.18129757014299 23.660999999999998
36.20472031032821 23.6599
36.22832762423364 23.5671
36.25175350829375 23.4931
36.275180960119776 23.4166
36.298609981005924 23.4888
36.32222362992669 23.5034
36.34565580510207 23.4091
36.36908955323448 23.33
36.39252487562093 23.1964
36.416144880530226 23.1966
36.43958336764275 23.2742
36.463023432914625 23.2435
36.486465077645676 23.173000000000002
36.51009145956204 23.2505
36.53353627947859 23.1247
36.55698268276811 23.1089
36.58043067073321 23.0464
36.60406345072071 22.9415
36.62751462435344 22.9921
36.65096738658405 22.9793
36.67460498210655 22.9341
36.69806093788647 22.9203
36.72151848619297 22.9034
36.744977628333636 22.8598
36.76862165890998 22.807
36.79208400512205 22.7783
36.81554794910557 22.7145
36.83901349217101 22.6725
36.862663978991606 22.6137
36.88613273667352 22.5762
36.90960309738324 22.6134
36.933075062434064 22.4861
36.95673202673572 22.4723
36.98020721697122 22.4591
37.003684015502365 22.4145
37.027162423645365 22.3807
37.050825886711465 22.4133
37.07430753063053 22.2746
37.09779078812467 22.1987
37.121275660513014 22.2716
37.144945643673694 22.1454
37.16843376245278 22.0829
37.19192350009803 22.2322
37.215414857931435 22.0492
37.239091382563885 21.9343
37.262585997426164 21.968000000000004
37.28608223645736 21.9379
37.309763684451696 22.0378
37.33326318851098 22.025
37.356764320726555 21.939
37.380267082425526 21.910999999999998
37.40395510942588 21.8158
37.42746114683234 21.7668
37.45096881771841 21.7351
37.474478123414166 21.7488
37.49817275092816 21.6989
37.52168534303452 21.6661
37.54519957395567 21.5714
37.568715445024665 21.5698
37.592416694607714 21.4918
37.61593586281424 21.5645
37.63945667518264 21.6019
37.66297913304891 21.438000000000002
37.68668702630454 21.4166
37.710212792059274 21.3642
37.733740207334854 21.3321
37.757269273470364 21.2776
37.780983832050374 21.2783
37.80451621684926 21.2555
37.82805025654007 21.3025
37.851585952464795 21.1935
37.8753071980695 21.156
37.89884622345676 21.07
37.92238690911902 21.1071
37.94611318753442 20.9995
37.969657210779765 20.9951
37.99320289834801 20.9849
38.016750251586465 20.9487
38.04048325513017 20.8658
38.06403395679343 20.7901
38.087586328183946 20.8193
38.11114037065203 20.7794
38.13488012115898 20.82
38.1584375229181 20.7101
38.181996599821 20.6813
38.205557353221124 20.6564
38.229303872575656 20.654
38.2528679961576 20.6728
38.27643380031219 20.6242
38.30000128639589 20.5454
38.32375459653193 20.5124
38.34732546371299 20.5315
38.37089801690786 20.4479
38.39447225747609 20.435
38.418232380377425 20.3891
38.441810012983396 20.3703
38.46538933705673 20.3042
38.488970353960084 20.3058
38.51273731166058 20.2363
38.536321731567014 20.1954
38.55990784840681 20.194000000000003
38.58367995004091 20.1408
38.60726947812959 20.0987
38.63086070726198 20.1168
38.654453638806274 20.0694
38.678232613930824 19.9757
38.70182896773327 19.9572
38.72542702806741 19.933
38.7490267963045 19.9326
38.77281266709232 19.928
38.79641586862214 19.9004
38.8200207821842 19.7477
38.843627409152944 19.8375
38.86742019782782 19.7799
38.891030269149255 19.7229
38.914642058016156 19.6789
38.938255565806124 19.7573
38.96205529464307 19.656
38.98567225787121 19.6227
39.00929094417078 19.6406
39.03291135492255 19.5726
39.05671804624804 19.5464
39.080341923549106 19.4193
39.103967529460334 19.465
39.127594865365744 19.3614
39.15140854155791 19.3745
39.17503935514948 19.3898
39.19867190290282 19.3949
39.22249083587951 19.2744
39.24612686969409 19.3499
39.269764641845306 19.2558
39.293404153722804 19.2307
39.317230110864074 19.124000000000002
39.34087311998506 19.0706
39.36451787301696 19.1547
39.388164371352595 19.0701
39.41199737518003 19.046
39.43564738196752 18.9697
39.45929913825317 18.957
39.48295264543308 18.8904
39.506792718520884 18.901
39.530449745387216 18.9339
39.55410852735203 18.8627
39.57776906581474 18.8857
39.60161623079 18.8276
39.625280300200025 18.817
39.64894613032202 18.7076
39.67261372255866 18.785
39.6964680021016 18.741
39.72013913657293 18.7007
39.74381203738292 18.6355
39.76748670593756 18.6694
39.79134812278169 18.5889
39.81502634488497 18.5215
39.83870633896685 18.4997
39.862388106436654 18.4859
39.88625668336918 18.4789
39.90994201572829 18.4025
39.933629125719285 18.4093
39.957503091207826 18.3993
39.9811937746168 18.3522
40.00488623990914 18.3803
40.02858048850006 18.2709
40.05246165409549 18.2597
40.076159487492085 18.2048
40.099859108448875 18.2399
40.123560518384345 18.1801
40.1474489070226 18.133
40.171153913178564 18.0493
40.194860712584955 18.0945
40.2185693066637 18.1162
40.242464941335314 18.0165
40.26617714307655 17.9738
40.289891143772046 18.0229
40.3136069448471 17.9379
40.33750984859743 17.9518
40.3612292688043 17.9275
40.3849504936829 17.9033
40.40867352466194 17.8599
40.43258372059144 17.8388
40.45631038219906 17.7791
40.48003885420956 17.7033
40.503769138055105 17.7449
40.52768664931955 17.7627
40.55142057531802 17.6245
40.57515631746428 17.6754
40.599079334038514 17.5972
40.62281872700477 17.5282
40.64655994043941 17.6041
40.67030297578061 17.5666
40.69423334835778 17.4872
40.71798004609188 17.4562
40.74172857006355 17.4266
40.76547892171441 17.4345
40.7894166736039 17.4411
40.813170699248566 17.3718
40.83692655691388 17.3466
40.86068424804498 17.3717
40.884629402612525 17.3109
40.908390779366385 17.3028
40.932153993938 17.2537
40.95591904777605 17.2345
40.979871628443995 17.1787
41.003640379561936 17.1139
41.02741097430883 17.1637
41.05118341413683 17.1438
41.075143444384416 17.0447
41.098919593177826 17.0403
41.1226975914255 17.0098
41.14647744058318 16.9688
41.170444943946755 16.9059
41.19422851378379 16.9795
41.218013938914645 16.9246
41.24198706625173 16.8796
41.26577622087193 16.8547
41.289567235177785 16.8357
41.31336011063129 16.8017
41.337340752422875 16.7376
41.361137369129835 16.7553
41.38493585138705 16.7027
41.40873620066004 16.7193
41.43272438060107 16.6852
41.45652848292052 16.5846
41.48033445666918 16.5027
41.50414230331616 16.4863
41.528138045159764 16.5461
41.551949656675205 16.4875
41.575763145513235 16.4907
41.59957851314666 16.4247
41.62358184070442 16.4363
41.64740098505737 16.344
41.6712220126409 16.3525
41.69504492493139 16.3407
41.71905586207357 16.328
41.74288256296395 16.209
41.766711153007456 16.2051
41.79054163368412 16.1652
41.814560204340054 16.2303
41.838394485526365 16.2189
41.86223066180303 16.1779
41.88625497706819 16.1461
41.910094962812 16.0879
41.93393684811168 16.0777
41.95778063445365 15.9982
41.981812625263366 16.0131
42.00566023303407 16.0003
42.029509746323676 15.9179
42.05336116662236 15.9184
42.077400857069705 15.9141
42.10125611078846 15.8457
42.12511327600405 15.7862
42.14897235421036 15.8172
42.173019768448455 15.8458
42.19688269209613 15.7884
42.22074753323349 15.7568
42.24461429335818 15.7383
42.268669455600495 15.6748
42.292540073217886 15.6989
42.31641261433284 15.6839
42.34028708044675 15.6249
42.36435001496739 15.6243
42.38822835065557 15.575
42.41210861586426 15.527000000000001
42.4359908120986 15.5458
42.46006154323262 15.4836
42.48394762115317 15.4755
42.507835634632315 15.4672
42.531912233047436 15.4137
42.55580413732265 15.3672
42.579697981698 15.331
42.60359376768525 15.3158
42.62767820545945 15.2644
42.65157789440821 15.2704
42.67547952952185 15.2687
42.699383112316 15.2082
42.72347541395347 15.1783
42.74738291190531 15.0952
42.771292362102166 15.130999999999998
42.795203766063516 15.1592
42.819303956130405 15.1394
42.843219287476536 15.0608
42.86713657716324 15.0605
42.89105582671383 15.0006
42.91516392983864 15.0045
42.939087119032166 14.9735
42.963012272677304 14.8924
42.98693939230129 14.9179
43.01105543317513 14.8733
43.034986504731386 14.8502
43.05891954686589 14.8441
43.08285456110972 14.7839
43.10697856448665 14.7547
43.130917542983475 14.7224
43.15485849820081 14.7113
43.17880143167367 14.6974
43.20293342237094 14.7002
43.226880332449 14.6183
43.25082922540554 14.6467
43.27496722682525 14.6408
43.29892010567796 14.5462
43.32287497204102 14.52
43.34683182745632 14.4844
43.370977859791836 14.4972
43.39493871351105 14.4515
43.41890156092628 14.4935
43.44286640358341 14.4194
43.46702049182749 14.4199
43.49098934522816 14.412
43.51496019852649 14.4039
43.5389330532723 14.2989
43.56309522248204 14.2897
43.58707210044314 14.2952
43.61105098451946 14.2257
43.63503187626491 14.2056
43.659202151562134 14.2578
43.68318707902681 14.1778
43.70717401884041 14.1155
43.731162972560874 14.1235
43.75534137913236 14.1294
43.779334381108384 14.026
43.803329401683186 14.0309
43.82732644241872 14.0386
43.8515130055166 14.014000000000001
43.87551410707659 13.9662
43.89951723350145 14.0036
43.923709934595614 13.8926
43.94771713129917 13.9075
43.97172635758096 13.9167
43.99573761501002 13.9204
44.0199385169922 13.8584
44.04395385732619 13.8356
44.067971233533086 13.7875
44.09199064718605 13.7718
44.11619977548961 13.7608
44.14022328470671 13.6868
44.16424883610785 13.7569
44.18827643127035 13.7268
44.21249381139513 13.6501
44.236525514814076 13.5879
44.26055926674478 13.5405
44.28459506876863 13.546
44.3088207262813 13.4973
44.33286064928722 13.5369
44.35690262714919 13.5034
44.38094666145278 13.4917
44.4051806219871 13.487
44.42922879003185 13.456
44.45327901929361 13.4201
44.477331311362136 13.3597
44.501573600619416 13.3625
44.525630039221795 13.3354
44.54968854541895 13.3202
44.573937102200176 13.2774
44.5979997645541 13.3109
44.622064499300315 13.2792
44.64613130803592 13.2566
44.67038823869318 13.2264
44.69445921643748 13.1922
44.718532272981385 13.1487
44.742607409926194 13.16
44.76687274034801 13.1235
44.79095205918753 13.1038
44.81503346325094 13.0784
44.839116954143876 13.0544
44.86339071028742 13.0144
44.88747839599524 13.0402
44.91156817336837 12.9828
44.93566004401666 12.9721
44.959942251908146 12.9291
44.984038330325966 12.9189
45.00813650686762 12.8826
45.03223678314731 12.8641
45.05652746888232 12.8218
45.08063196592069 12.7618
45.104738567558705 12.7612
45.128847275414856 12.7535
45.15314646515866 12.7586
45.17725940679741 12.7004
45.20137445952892 12.7036
45.22568004865265 12.6981
45.24979934496396 12.624
45.27392075725247 12.585
45.29804428714431 12.6315
45.322358426247604 12.6098
45.346486212804315 12.5762
45.370616121861914 12.5161
45.39474815505086 12.4997
45.41907087049246 12.5112
45.4432071734666 12.4796
45.46734560548283 12.4807
45.49148616817604 12.4489
45.51581748638564 12.4718
45.5399623320197 12.3986
45.56410931325473 12.3922
45.58825843173002 12.3763
45.61259837920865 12.3425
45.636751793816 12.365
45.66090735060093 12.2693
45.68506505120716 12.2571
45.7094136545275 12.2489
45.73357566449271 12.1908
45.75773982322992 12.2059
45.78190613238733 12.1821
45.806263418194064 12.1122
45.83043404997326 12.1511
45.85460683713677 12.116
45.87897065658495 12.0794
45.90314777634752 12.027999999999999
45.92732705646868 12.0566
45.9515084986045 12.0224
45.97588104735473 11.9836
46.00006683541565 12.0002
46.02425479047904 11.9688
46.04844491420549 11.9528
46.0728262191024 11.9285
46.09702070211635 11.9125
46.12121735879483 11.8722
46.14541619080294 11.862
46.169806278764455 11.8147
46.194009483459034 11.7762
46.21821486849841 11.7767
46.24242243555223 11.7804
46.266821333570014 11.7081
46.29103328674601 11.7148
46.31524742696538 11.7535
46.33946375590237 11.6968
46.36387149104216 11.6581
46.38809221957392 11.628
46.41231514186606 11.6299
46.436540259597464 11.6024
46.460956858999374 11.6027
46.48518638983522 11.5346
46.509418121166966 11.5333
46.533652054678114 11.5289
46.55807754555709 11.5302
46.58231590571962 11.4717
46.60655647313217 11.4235
46.630988654873654 11.4387
46.655233659129024 11.4021
46.67948087571551 11.392000000000001
46.70373030632484 11.3759
46.72817142736393 11.3489
46.752425308428684 11.3506
46.77668140861147 11.2839
46.80093972960865 11.2411
46.82538981736788 11.2998
46.849652602470904 11.2067
46.87391761349769 11.1934
46.8981848521493 11.1442
46.9226439341274 11.1587
46.946915650573224 11.1497
46.97118959976749 11.1232
46.99546578341598 11.0874
47.019933887188216 11.0544
47.04421456235744 11.065
47.06849747711879 11.0702
47.09278263318286 11.0251
47.11725978640143 10.9972
47.14154944775105 11.0088
47.165841355555656 11.0061
47.1901355115306 10.929
47.214621741924994 10.9587
47.23892041698887 10.9142
47.26322134538975 10.898
47.28771440635075 10.8212
47.31201986422527 10.8434
47.33632758061436 10.8387
47.360637557241866 10.8038
47.38513974410611 10.8051
47.40945426407847 10.7655
47.43377104948137 10.7355
47.45809010204344 10.6947
47.48260144275502 10.6726
47.506925052572285 10.6822
47.53125093475548 10.665
47.55557909103813 10.6533
47.58009961361992 10.6013
47.60443234110732 10.6121
47.62876734791564 10.6006
47.65310463578333 10.5678
47.6776343683373 10.5634
47.7019762413987 10.4721
47.72632040075572 10.4795
47.75066684815169 10.488
47.77520581885936 10.469000000000001
47.799556865477655 10.4618
47.823910205386 10.4428
47.84826584033272 10.4468
47.87281407745551 10.3815
47.89717432569297 10.3837
47.92153687423484 10.3678
47.94609208429692 10.3524
47.97045925671401 10.3328
47.99482873471275 10.2839
48.01920052005013 10.2873
48.04376504619224 10.2584
48.068141469543484 10.2863
48.09252020552573 10.2512
48.11690125590099 10.2098
48.1414751266064 10.1902
48.16586082917454 10.1584
48.19024885144316 10.1688
48.2146391951793 10.1496
48.239222439012764 10.1401
48.26361744916137 10.1268
48.28801478610016 10.1312
48.31241445160131 10.0933
48.337007097209366 10.039
48.36141144338331 10.0258
48.38581812345755 10.0194
48.41022713920929 10.0336
48.434829215320704 9.97824
48.45924292604658 9.99129
48.48365897780325 9.96537
48.50807737237308 9.91816
48.532688907799276 9.92553
48.55711201168574 9.84879
48.581537463754074 9.86743
48.60615611725119 9.86406
48.63058628942721 9.85252
48.65501881516546 9.81253
48.6794536962573 9.79785
48.70408185970339 9.78618
48.72852147531801 9.770589999999999
48.75296345168211 9.68277
48.77740779059232 9.72147
48.80204549302823 9.72062
48.82649458091802 9.696530000000001
48.85094603676547 9.66816
48.87539986237231 9.63026
48.90004713292306 9.622580000000001
48.92450572200832 9.62438
48.94896668628025 9.57911
48.97343002754588 9.566180000000001
48.99808689542115 9.54995
49.02255501470614 9.54917
49.04702551642794 9.51342
49.0714984023988 9.511560000000001
49.096164896893235 9.48024
49.120642575466796 9.47534
49.145122643748394 9.4736
49.16960510355558 9.41628
49.19428125404938 9.41659
49.2187685210852 9.41492
49.243258185121555 9.41563
49.26794160167084 9.363710000000001
49.2924360839405 9.38058
49.31693296869764 9.2952
49.34143225776915 9.30697
49.36612538195438 9.30308
49.39062950396021 9.270669999999999
49.41513603578346 9.26823
49.4396449792564 9.248510000000001
49.46434784069503 9.23053
49.488861631846454 9.18835
49.513377840166804 9.16799
49.537896467493745 9.19135
49.56260909589029 9.15584
49.587132585683285 9.152239999999999
49.611658500018365 9.11321
49.636186840738596 9.0981
49.66090926588511 9.11618
49.685442483902584 9.082469999999999
49.70997813385706 9.05436
49.734516217597076 9.02741
49.75924846937352 9.01965
49.7837914452858 9.01644
49.80833686055187 8.97782
49.83288471702571 8.934389999999999
49.85762682540054 8.93864
49.882179588965734 8.898719999999999
49.9067347993235 8.88767
49.93129245833333 8.88165
49.95604445336378 8.88067
49.98060703442832 8.82253
50.005172069746266 8.830010000000001
50.02993150438364 8.83502
50.05450147301533 8.79515
50.07907390151433 8.78505
50.10364879174981 8.76812
50.12841816587289 8.736180000000001
50.1529980044635 8.71921
50.17758031042124 8.7363
50.20216508562089 8.742339999999999
50.22694442953363 8.68566
50.25153416817468 8.66532
50.27612638170508 8.681939999999999
50.300721072005196 8.640989999999999
50.325510416102105 8.6287
50.350110084975064 8.59375
50.37471223628208 8.575389999999999
50.39931687190919 8.56883
50.424116246675766 8.5557
50.44872587605249 8.550239999999999
50.47333799543065 8.57197
50.49795260670191 8.56427
50.52276204271512 8.4741
50.54738166295838 8.47967
50.57200378079314 8.44636
50.596628398116835 8.42868
50.62144792604559 8.43927
50.646077567609396 8.401589999999999
50.670709714377715 8.420960000000001
50.69553683636198 8.40369
50.72017401885922 8.3631
50.7448137122895 8.376669999999999
50.76945591856022 8.33318
50.79429318636823 8.34483
50.818940443716784 8.297080000000001
50.84359021965163 8.283619999999999
50.868242516085964 8.283539999999999
50.893089960641895 8.25576
50.917747323549435 8.21798
50.94240721271973 8.224210000000001
50.96706963007175 8.17873
50.99192728239342 8.189060000000001
51.01659478166073 8.19558
51.04126481489051 8.16596
51.06593738400761 8.16488
51.090805275207074 8.11091
51.11548294172845 8.08283
51.14016314993547 8.047789999999999
51.164845901758845 8.077960000000001
51.18972406304274 8.06616
51.21441192780656 8.0305
51.23910234200271 8.03965
51.2637953075678 7.9924
51.288683770237945 7.981660000000001
51.31338186432707 7.982419999999999
51.33808251561888 7.94
51.362978729967345 7.9219100000000005
51.387684521509755 7.93692
51.41239287610203 7.912260000000001
51.437103795691165 7.862760000000001
51.46201036644977 7.8837
51.486726441956634 7.82097
51.51144508832545 7.82722
51.536166307509156 7.8006
51.56108326624387 7.84668
51.58580965706056 7.80175
51.61053862657523 7.763839999999999
51.635270176746864 7.726030000000001
51.66019755512065 7.746989999999999
51.68493429268881 7.74598
51.70967361681515 7.7634
51.73441552946465 7.69734
51.759353359237934 7.665019999999999
51.7841004750961 7.67465
51.80885018539685 7.65815
51.833602492111254 7.5994399999999995
51.8585508051424 7.62948
51.883308330926425 7.60365
51.90806845906181 7.58126
51.932831191525715 7.5804100000000005
51.95779001977161 7.51376
51.98255798721516 7.5095
52.00732856494335 7.517360000000001
52.03229530577543 7.4977100000000005
52.057071130455945 7.479939999999999
52.081849571391054 7.45321
52.106630630568695 7.43156
52.13160794279417 7.42255
52.15639426492067 7.446110000000001
52.18118321127822 7.42258
52.205974783860896 7.43686
52.23096269971011 7.38784
52.255759551287994 7.38835
52.280559035098186 7.352130000000001
52.30536115314103 7.34802
52.33035970494467 7.31756
52.35516711807904 7.283119999999999
52.37997717147198 7.26991
52.40478986713005 7.282719999999999
52.42979908731974 7.27555
52.454617094216 7.2567699999999995
52.47943774942214 7.2226300000000005
52.50426105495102 7.1799800000000005
52.529280976059844 7.185169999999999
52.554109609024096 7.1581
52.57894089837482 7.13749
52.60377484613117 7.156289999999999
52.62880550079408 7.144839999999999
52.65364479223379 7.11848
52.67848674816189 7.11745
52.70352547971946 7.09472
52.72837279155837 7.07591
52.753222773982785 7.09875
52.778075429022984 7.07222
52.80312495150885 7.0487
52.827982978797436 7.025989999999999
52.85284368481815 7.01468
52.87770707160767 6.98463
52.90276741793998 6.98062
52.92763619336701 6.97335
52.952507655698504 6.948060000000001
52.977381806977576 6.95472
53.00245301017842 6.94447
53.02733256653592 6.93098
53.052214817996074 6.911689999999999
53.077099766608484 6.8902600000000005
53.102181859804446 6.86221
53.127072229988265 6.860639999999999
53.15196530349892 6.84812
53.17686108239249 6.80525
53.20195409881522 6.81266
53.22685531582556 6.80519
53.25175924441303 6.74891
53.27666588664027 6.7444
53.30176985962693 6.72015
53.3266819565689 6.74344
53.35159677336455 6.699380000000001
53.376514312083096 6.7103600000000005
53.40162927507703 6.73663
53.42655228516116 6.6915
53.45147802340193 6.615710000000001
53.47660125628886 6.66251
53.50153247842639 6.6488
53.52646643496923 6.634689999999999
53.55140312799818 6.62206
53.576537409691696 6.58713
53.60147960336152 6.573339999999999
53.626424539786164 6.54826
53.65137222105307 6.50913
53.67651758529126 6.4996
53.70147078399681 6.49038
53.72642673383343 6.49148
53.75138543689533 6.5044900000000005
53.776541917524526 6.46655
53.801506154876755 6.47411
53.826473151763246 6.48639
53.851442910284916 6.42784
53.87661054126026 6.42647
53.9015858509782 6.40906
53.92656392866066 6.40284
53.95154477641532 6.3621
53.976723591801296 6.33178
54.00171000771266 6.333130000000001
54.02669920004598 6.35245
54.051691170915745 6.38704
54.076881204886796 6.29359
54.101878760928514 6.27412
54.12687910187696 6.25896
54.152077577768296 6.2607099999999996
54.1770835166946 6.16689
54.20209224691339 6.20582
54.22710377055121 6.2561599999999995
54.25231352511594 6.2278400000000005
54.27733066384342 6.17356
54.30235060239643 6.20195
54.32737334290836 6.1761800000000004
54.35259441062629 6.08818
54.377622783395324 6.080019999999999
54.40265396455061 6.14647
54.42768795623251 6.0767
54.45292037169559 6.04667
54.477960012857906 6.03452
54.50300247099511 6.01659
54.52804774825457 6.02834
54.55329154616743 5.97657
54.57834249018678 5.95538
54.6033962597977 5.90399
54.6284528571545 5.91146
54.653708072335164 5.85273
54.67877035378786 5.88358
54.70383546947698 5.84809
54.72890342156389 5.8337699999999995
54.7541700889442 5.8348
54.77924374251975 5.76574
54.8043202390049 5.76094
54.82959552413022 5.77379
54.8546777351945 5.7321599999999995
54.87976279569621 5.72384
54.90485070780914 5.71194
54.930137506558005 5.64084
54.95523115074295 5.70672
54.98032765308844 5.69088
55.005427015775496 5.5926800000000005
55.03072536339621 5.6060099999999995
55.05583047570572 5.58464
55.080938454927676 5.56185
55.10604930325027 5.52471
55.131359235107396 5.57877
55.15647585066083 5.51561
55.181595341907496 5.47925
55.20671771104285 5.4404900000000005
55.232039262617704 5.47351
55.25716741665048 5.41079
55.28229845518636 5.4299800000000005
55.30743238042802 5.29895
55.33276558731939 5.312790000000001
55.357905315183636 5.29375
55.383047936390035 5.30152
55.40819345314859 5.26492
55.433538351073295 5.24635
55.458689688238415 5.21135
55.483843927614096 5.202319999999999
55.509197623043605 5.15289
55.53435769621134 5.123530000000001
55.55952067826466 5.1325400000000005
55.5846865714265 5.10274
55.61005202069737 5.07346
55.63522376553902 5.0873
55.66039842818645 5.020969999999999
55.68557601087004 4.9873400000000006
55.7109532500271 4.94728
55.73613670233794 4.97124
