TT I
1.2716486653135266 7.49452
1.2939594142134223 7.6630199999999995
1.3162702121660406 6.888999999999999
1.3385810600174564 6.8120899999999995
1.3608919586137629 6.71905
1.383202908801069 6.892119999999999
1.405513911425503 5.89941
1.4278249673332093 6.0837900000000005
1.4501343378461518 6.76135
1.4724455028545926 6.25172
1.4947567236847858 5.88896
1.517068001182951 6.39754
1.5393793361953272 5.76087
1.5616907295681737 5.626469999999999
1.5840021821477681 5.289569999999999
1.60631369478041 5.6031699999999995
1.6286252683124185 5.17553
1.6509369035901333 5.3103
1.6732468618895553 5.3584
1.695558623192809 5.32343
1.7178704487808514 5.614719999999999
1.7401823395001077 4.85061
1.7625012545597203 4.82725
1.7848028405262486 4.74851
1.8071218901122095 4.6413400000000005
1.8294236121921872 4.62153
1.8517427996910911 4.67093
1.8740620574440425 4.582319999999999
1.8963639900671978 4.78249
1.9186833908139995 4.68656
1.9409854680117449 4.90255
1.9633050151394713 5.52444
1.9856246367570705 5.0338400000000005
2.0079269371922672 4.87171
2.03024671027244 4.750769999999999
2.0525491637446027 4.66125
2.074869091674931 4.6616599999999995
2.097171701569106 4.74282
2.1194917877373847 4.69838
2.141811954326636 5.10746
2.164114805233074 4.40937
2.186435135143035 5.50361
2.208738150935709 9.21255
2.231058647554722 15.6651
2.2533792288321184 12.5707
2.275682498336085 7.255310000000001
2.298003251406138 5.08387
2.3203066942619714 5.1064
2.3426276225136022 4.81841
2.3649486396617507 4.78075
2.387252348930071 5.32165
2.4095735463442893 5.40765
2.4318774374315884 5.25767
2.4541988185014043 5.69236
2.476502894794693 5.9824
2.498824462909887 6.33789
2.521146125856138 6.06647
2.5434504863470337 6.46455
2.5657723414244717 6.58678
2.588076895590662 6.92587
2.610398946189713 6.51412
2.6327210958598384 7.26174
2.6550259469304716 7.4394
2.6773482972090137 6.79485
2.6996533504259 7.13732
2.7219759047039602 8.08158
2.744298562293959 8.13717
2.7666039251246595 7.3358
2.7889267918020164 8.227269999999999
2.8112323652516555 7.35561
2.833555444408179 7.7057899999999995
2.8558786311183852 8.00405
2.8781845268938557 8.070889999999999
2.9005079311721484 8.41147
2.9228140460410397 8.469380000000001
2.9451376712799635 8.93132
2.967444008632326 9.41896
2.9897678582247247 9.74576
3.0120918213106695 10.1486
3.0343984987899373 10.9167
3.0567226913198637 11.2819
3.079029599759726 11.3729
3.101354025127254 12.3186
3.123678568232338 12.9747
3.145985829517914 13.0272
3.16831061055229 13.5483
3.1906181112775593 14.3033
3.212943133635653 14.425
3.2352682779763207 14.8938
3.2575761442691227 15.2259
3.2799015350264273 15.645
3.302209649240067 16.2595
3.3245352898092655 16.9039
3.3468436553365257 17.4817
3.369169549113219 18.2503
3.3914955708171384 18.7003
3.413804319727358 18.9666
3.4361305997334863 19.2423
3.4584396084414553 19.9445
3.4807661501462652 20.2961
3.503092824025881 20.854
3.5254022288463154 21.2259
3.5477291695206588 21.7806
3.5700388426251948 22.4487
3.5923660534916446 23.4846
3.6146934007816114 31.061
3.637003482731501 56.0381
3.6593311053109985 60.2074
3.681641464033634 39.9977
3.7039693653009733 27.6193
3.726297407241705 25.8636
3.7486081875460804 25.8139
3.7709365132734978 26.3388
3.793247578841633 26.5883
3.8155761917550093 26.7586
3.8378875459837216 27.0025
3.8602164494827234 27.7167
3.882545499606844 28.3118
3.9048572932539183 29.0677
3.9271866390645718 29.5815
3.9494987298666713 30.0506
3.971828374764527 30.9573
3.9941581705403255 31.2861
4.016470713506008 31.614
4.038800813471445 32.4589
4.061113662089144 33.2148
4.0834440696459176 33.8355
4.105774632334751 34.3704
4.128087945865126 34.866
4.150418821249301 35.9876
4.172732448931298 36.8769
4.195063640413578 38.105
4.2173775856475215 40.9533
4.239709096631102 57.4617
4.262040768704612 136.303
4.284355196706267 177.158
4.306687193387355 122.765
4.329001947444346 61.4134
4.35133427213731 46.0104
4.373666762177566 44.7858
4.395982011761091 45.0849
4.418314834921175 45.7289
4.44063041906622 49.8357
4.4629635787515625 55.8046
4.4852969080429785 56.1381
4.5076130004776225 52.5569
4.529946671403969 52.6511
4.552263106909177 53.31399999999999
4.574597122877047 53.4021
4.596931312711224 53.9326
4.619248269273446 54.6902
4.6415828092605835 55.5831
4.663900117405352 56.8898
4.686235010953232 58.8996
4.708552674085913 59.8202
4.730887924602802 61.4637
4.753223354952695 62.9072
4.775541557023902 64.6053
4.797877349456786 66.5364
4.820195915032126 68.5295
4.842532072957498 70.0281
4.864868414979744 72.4272
4.88718753227192 75.0538
4.909524244902505 77.1252
4.931843734218147 78.9177
4.954180820867835 81.8788
4.976518095879839 84.3634
4.998838149695359 88.3819
5.021175803844231 91.8761
5.043496238205739 95.8291
5.065834274903528 100.88799999999999
5.088172504230693 107.09
5.1104935158799565 115.404
5.132832132875765 135.655
5.155153533596801 170.96599999999998
5.1774925416746225 243.22
5.199814334878411 611.587
5.2221537374521505 1621.07
5.244493338631803 3699.21
5.266815727034316 7516.94
5.289155727832427 11346.4
5.311478517248165 8769.75
5.333818921080011 3382.42
5.356159527788849 723.785
5.3784829252032536 221.528
5.400823940070432 160.899
5.423147747031976 138.94899999999998
5.445489173474152 126.881
5.467830807066149 121.46700000000001
5.490155234831516 117.26799999999999
5.512497285125229 112.115
5.534822130975162 109.154
5.557164601388673 106.72200000000001
5.579489868738879 103.285
5.601832762690846 101.94
5.6241758697774475 100.98
5.646501775867269 100.11399999999999
5.668845311622074 99.3219
5.691171647754637 98.2511
5.713515615597765 97.3789
5.735859800852677 96.9626
5.758186788542988 96.6971
5.780531411018185 97.60600000000001
5.802858837297399 96.5769
5.825203900414495 97.3448
5.8475491852224 98.7193
5.869877275883075 99.1449
5.892223006467101 99.9237
5.914551544266608 101.72
5.936897724049891 106.84100000000001
5.959244129804903 117.611
5.981573344815301 159.185
6.0039202049061 327.657
6.026249875609095 680.171
6.04859719346037 1279.36
6.070927323278297 2346.04
6.093275102315365 3969.8
6.115623113320588 4837.69
6.137953938319995 3347.5
6.160302415650845 1152.66
6.182633708324452 286.601
6.2049826554078376 127.594
6.227331838745022 99.7533
6.249663839443684 89.7638
6.27201349767565 85.34299999999999
6.294345974611799 86.6665
6.316696111167083 90.4269
6.339046488263839 86.618
6.361379686074702 78.1184
6.383730546639482 73.3763
6.406064229255215 71.3626
6.428415576718203 70.9135
6.450749747566656 69.4103
6.47310158535871 67.8111
6.495453669698332 66.9052
6.517788579421056 66.318
6.540141159237969 65.2779
6.562476565766648 64.569
6.5848296444934045 64.2857
6.607182974060425 63.8566
6.6295191323281015 63.4966
6.651872965955752 65.4314
6.6742096296068985 77.3808
6.6965639707294615 99.9908
6.71891856698715 98.9015
6.741255995248479 77.7674
6.763611104154477 64.5188
6.785949046381137 60.76
6.808304671371482 59.7159
6.8306605557940046 59.8951
6.852999275508618 58.8005
6.875355681171544 58.6705
6.897694923437771 58.0601
6.92005185377892 57.7173
6.9423916220322655 57.3921
6.964749080490181 56.6009
6.987106804399774 56.9193
7.009447368180821 57.2666
7.031805625367033 56.4703
7.054146723727803 56.4847
7.076505517631004 56.1582
7.098864581288365 56.5071
7.121206488070854 56.0538
7.143566093607822 55.9168
7.165908543567245 56.2316
7.188268694426048 56.2683
7.2106291193438095 56.5022
7.232972390625943 56.7056
7.255333366030969 62.547
7.277677189091925 88.9913
7.300038718428332 113.93
7.322400526130865 100.544
7.344745183422596 72.9415
7.367107550224791 59.233000000000004
7.389452767901992 56.5919
7.411815697249891 56.185
7.434161478756298 55.2906
7.456524974096713 55.2256
7.478888753837185 55.321999999999996
7.501235387657368 55.2867
7.523599738562711 55.8341
7.545946944825532 56.2426
7.568311870344528 56.6282
7.5906770845765665 56.5267
7.613025156078678 57.1972
7.635390950099687 58.1231
7.657739602662809 57.7417
7.680105979923558 56.9715
7.702472650212829 57.3325
7.724822180948224 57.2377
7.747189439655568 57.2052
7.769539560075357 57.4139
7.791907410653562 58.1017
7.81425812420825 58.1759
7.836626570110925 58.395
7.858995315087906 59.1288
7.881346924933401 59.2373
7.903716270417482 59.986999999999995
7.926068482028405 60.0457
7.948438431475253 60.7599
7.9708086843180235 61.2385
7.993161805171116 62.3459
8.015532667162402 62.8299
8.037886398416653 63.8945
8.060257873014221 63.9919
8.082629655331942 64.6667
8.104984308787587 65.4159
8.127356708900503 67.7118
8.149711981398308 71.447
8.172085002766314 73.078
8.194458336181368 71.8558
8.216814543847752 70.9658
8.23918850371002 71.3119
8.26154533906492 72.4729
8.283919928836452 74.47399999999999
8.306277395339652 75.4104
8.328652618483376 76.7681
8.351028159736202 79.1177
8.373386579575245 81.6423
8.395762759396959 83.7407
8.418121819038275 88.1554
8.440498640894003 97.2804
8.462875785192262 112.145
8.485235811156207 146.205
8.507613602688501 227.192
8.529974277114228 346.099
8.552352719347912 505.42800000000005
8.574731488360351 765.3560000000001
8.59709314210385 1190.78
8.619472567021075 1713.72
8.64183487789147 2086.67
8.664214962183097 1844.41
8.686577933647762 1037.88
8.708958680784317 412.039
8.731339760774953 178.799
8.753703729764451 118.491
8.77608547780821 103.902
8.798450116065078 99.8242
8.820832535634787 96.2427
8.843215292401656 94.7354
8.865580941199045 93.3525
8.887964374703538 92.185
8.910330701447199 92.0059
8.932714815164482 92.04899999999999
8.955099270424924 90.8395
8.977466620733543 89.1151
8.999851761421976 87.5699
9.022219798361645 86.3464
9.04460562795561 86.2644
9.066991803441677 85.6421
9.089360876979615 85.6244
9.111747746589993 85.3311
9.13411751544971 84.4978
9.156505082664324 84.5638
9.178875550323522 84.6662
9.20126381862328 84.6515
9.223652438908596 84.8535
9.246023961427412 84.5466
9.26841328802173 84.4555
9.290785518039224 84.6823
9.313175554425882 85.8147
9.335565947154315 85.9383
9.357939245086508 86.3009
9.380330352834827 85.855
9.40270436697103 85.9997
9.425096193225055 86.4008
9.447488380180165 86.65700000000001
9.469863475295412 87.09100000000001
9.492256385987508 87.2042
9.514632206018318 88.2696
9.537025843935714 88.6729
9.559402392368193 89.242
9.581796761000229 90.9675
9.604191496441521 91.6064
9.626569144158516 93.9859
9.648964615551032 96.5259
9.671343000390081 96.9479
9.693739211225699 96.5151
9.716135793237463 96.0836
9.738515290448102 96.0831
9.760912617143402 97.6474
9.783292860202891 98.9024
9.805690935076182 100.115
9.828089385495742 101.41
9.850470754023561 104.18
9.872869957865444 108.87
9.89525208097539 117.479
9.917652041736662 126.76700000000001
9.940052382417589 137.286
9.962435644102392 172.887
9.984836746950979 237.93
10.007220771957746 323.393
10.029622640473708 443.458
10.052007432299963 621.611
10.074410069984072 873.1669999999999
10.096813093716005 1216.25
10.119199042482517 1595.19
10.141602840636468 1844.97
10.163989564971628 1628.83
10.186394141051062 999.084
10.208799107559706 458.659
10.231187001965623 208.947
10.253592751657669 134.931
10.275981430388155 118.288
10.298387966769793 114.824
10.320794897965431 115.189
10.343184759907361 113.316
10.36559248305461 109.81200000000001
10.387983138083852 110.24700000000001
10.410391656691655 119.655
10.432800574501677 137.502
10.455192425893369 158.719
10.47760214443012 188.953
10.499994797678786 233.373
10.522405320453982 300.497
10.54479877906917 387.144
10.567210109595656 489.955
10.5896218454736 542.524
10.612016518879773 513.121
10.634429067781074 362.223
10.656824555333241 215.22799999999998
10.679237920773568 130.57399999999998
10.701651695961992 99.8014
10.724048411481384 92.8402
10.746463008485165 89.6142
10.768860546937125 87.6166
10.791275969274796 85.5475
10.81369180576079 84.3449
10.836090585366925 83.5217
10.858507252467449 81.9796
10.88090686379991 81.1875
10.903324365036394 80.4299
10.925724811614439 79.568
10.948143150509463 80.5459
10.970561909719066 79.8863
10.992963615930844 78.5602
11.015383218085756 76.6476
11.037785768347074 75.3669
11.06020621697282 74.7198
11.082627090322113 74.1007
11.105030913430326 73.6314
11.12745263854165 73.5499
11.149857314510728 74.832
11.172279894912576 77.6064
11.194702904450653 77.8802
11.217108866490921 75.4434
11.239532736615194 72.8216
11.26193956033512 71.2475
11.284364294577085 70.6396
11.306789462371718 69.4701
11.329197585398376 68.6509
11.351623622610898 68.4111
11.37403261614354 67.5428
11.396459526308487 67.4548
11.418869393879497 67.3767
11.441297180532617 66.7498
11.463725406927658 66.6155
11.486136592353875 66.3625
11.508565700543707 66.5123
11.530977768845315 67.343
11.553407762368774 67.5823
11.575838200059769 67.2753
11.598251599479612 65.9253
11.620682927815501 65.2321
11.64309721895548 65.1687
11.665529441478206 64.759
11.687962112597958 64.4957
11.710377748130886 64.5268
11.732811318753434 64.6365
11.755227854859067 64.5153
11.777662328529495 64.3073
11.800079768750786 64.3156
11.822515149015453 64.3384
11.844950984084935 64.4531
11.867369787303163 63.9882
11.889806534289491 63.8207
11.912226250487029 64.5602
11.934663912939751 64.7026
11.9571020346363 64.9632
11.979523127133968 65.2091
12.001962169624331 66.3892
12.024384183972964 68.9579
12.046824150809913 73.8124
12.069264581333726 80.5182
12.091687985297767 87.1469
12.11412934550045 96.51799999999999
12.136553680195208 109.959
12.158995973632788 129.346
12.181438735204349 151.072
12.20386447284199 175.632
12.226308172985636 200.87099999999998
12.24873485024193 202.403
12.271179492516982 171.488
12.293607112949127 132.346
12.316052700916226 96.1965
12.338498763250042 77.8318
12.360927805303868 70.2051
12.383374818673879 67.5949
12.405804812803074 66.275
12.428252780773262 66.0947
12.45070122756722 66.2341
12.473132656675375 65.8273
12.49558206341869 65.8771
12.518014453510101 65.9945
12.540464823770117 66.0416
12.562915677315177 66.3855
12.58534951575545 67.0342
12.607801338171472 67.9761
12.630236146511358 70.5222
12.652688941369085 73.0803
12.675124723177234 73.8193
12.697578494048786 72.4218
12.720032754458185 70.0411
12.742470003354093 69.5085
12.764925245138771 69.5749
12.787363476431278 69.8001
12.809819703166806 70.3619
12.83227642391173 71.2237
12.854716135692716 71.7383
12.877173846755147 72.9903
12.899614549869717 73.5371
12.9220732548287 74.3305
12.94453245827299 74.5815
12.966974655289818 75.8259
12.989434858002571 76.9177
13.011878055298721 77.4486
13.034339260862497 78.5705
13.056800969391883 80.2539
13.079245674017244 83.0936
13.101708390774869 88.59700000000001
13.12415410463411 100.146
13.146617833206086 114.228
13.169064559883248 128.343
13.191529303857127 144.983
13.213994557076367 168.87400000000002
13.236442809902437 202.7
13.258909083908291 246.687
13.28135835851934 295.436
13.30382565690295 352.713
13.326293469022952 401.082
13.348744283242008 420.755
13.371213125129904 369.338
13.39366497011003 276.714
13.416134845360597 185.533
13.438605238843131 132.244
13.46105863690397 116.44
13.483530069144786 118.565
13.505984506951902 125.484
13.528456981549432 137.061
13.550929978879088 152.595
13.573385983253365 175.06799999999998
13.595860028340867 206.291
13.618317081455832 245.278
13.64079217790333 288.943
13.663250283359057 334.285
13.685726434770173 360.23199999999997
13.708203115221277 345.472
13.730662806148091 276.89099999999996
13.75314054697177 200.893
13.775601299246777 135.247
13.798080104050406 102.448
13.820559442405358 88.5787
13.843021793671388 84.2163
13.865502201420897 82.5598
13.887965623051947 82.1297
13.910447103807167 80.9602
13.932929122629764 79.4354
13.955394156785959 78.9714
13.977877254034569 78.16199999999999
14.000343367582113 77.2938
14.022827546871707 76.5407
14.045294743423524 75.7436
14.06778000837062 75.2954
14.090265817715476 75.2562
14.112734645763819 74.756
14.13522154619454 74.2303
14.157691466286913 73.9872
14.180179461423874 73.7779
14.202668005486178 73.363
14.22513957064374 73.1101
14.247629214846473 72.8183
14.270101881097517 72.1411
14.29259262906496 72.3743
14.315083930490205 72.7257
14.337558255389705 72.5444
14.360050666019726 72.3659
14.382526101071944 71.7665
14.405019624534942 70.9707
14.427513705993134 70.876
14.449990813291825 71.008
14.47248601302899 70.8661
14.49496423954951 70.9885
14.517460561197822 71.1116
14.539939910570322 70.9902
14.562437357763558 71.1248
14.58493536931253 71.6301
14.607416409993311 72.12
14.62991555254159 72.7732
14.652397725157423 72.721
14.674898002342799 72.878
14.697398848433282 72.757
14.719882725991326 74.3495
14.74238471217934 77.0976
14.764869730765593 82.1509
14.787372860692983 86.4152
14.809876564079925 92.0924
14.83236330125751 98.3033
14.854868153850365 107.399
14.877356041159485 120.31299999999999
14.899862046604186 135.56799999999998
14.922351087688757 155.471
14.944858249632887 176.71900000000002
14.967365991421232 199.665
14.989856770231246 216.21
15.012365673994204 216.90400000000002
15.03485761569738 193.78400000000002
15.05736768508665 152.488
15.07987833888692 119.928
15.102372032001655 93.728
15.124883856909658 79.3495
15.14737872204565 74.5101
15.169891721717274 72.8971
15.192405310371893 72.3639
15.214901940621196 72.1119
15.237416709527137 71.876
15.259914520936249 71.7654
15.282430473753607 71.0141
15.304947020131227 70.2112
15.327446610371178 69.8255
15.349964346154254 68.8353
15.372465126703139 68.8566
15.394984055556009 68.4976
15.417486030076159 68.4251
15.44000615566487 68.1278
15.462526881230803 68.0302
15.485030653812652 68.0242
15.507552581617434 67.8864
15.530057557334603 67.888
15.55258069104857 68.0158
15.575104429329837 68.2019
15.597611216864632 68.108
15.620136166564563 69.0037
15.6426441664095 71.3814
15.665170331202765 75.1145
15.687697105158826 79.0564
15.710206930593545 82.8492
15.732734925158933 87.8617
15.755245972089478 94.1876
15.77777519094324 103.568
15.800287463046663 114.77
15.822817909869592 129.483
15.84534897229804 144.502
15.867863089299354 165.13299999999998
15.890395385222186 180.864
15.912910736597423 192.523
15.935444269699861 187.18200000000002
15.957978423016485 162.058
15.980495633101265 130.82399999999998
16.003031029129367 101.823
16.02554948280019 80.5675
16.048086125229432 69.9071
16.070623392487107 66.2854
16.09314371869582 65.0949
16.11568223789321 64.1874
16.13820381691126 63.5588
16.160743591742527 62.7115
16.183283996022084 61.9758
16.205807461423195 61.1914
16.228349126881973 60.7445
16.25087385432698 60.7387
16.27341678466365 59.9387
16.29594277784926 59.5031
16.31848697676433 59.693000000000005
16.341031811604868 59.5265
16.36355971058487 59.5429
16.3861058195587 59.2604
16.40863499352978 58.4924
16.431182380342005 58.0672
16.453730407713202 57.7106
16.476261501364792 57.2556
16.498810812136167 56.8647
16.52134319004079 57.1944
16.54389378792203 56.9598
16.566445031001553 56.8059
16.588979342490088 56.6227
16.61153187824822 56.6093
16.634067483263312 56.4436
16.656621315414416 56.2583
16.679175797408888 55.9682
16.701713349928728 56.0431
16.72426913389191 56.4769
16.74680798922351 56.1754
16.76936507887444 56.3797
16.791905240734874 56.4404
16.814463639794468 56.2097
16.837022695210294 56.1759
16.859564824093756 56.4581
16.882125194503903 56.7887
16.904668639217885 57.2879
16.927230328348003 57.3224
16.949792678493612 57.5708
16.972338104193863 57.283
16.994901778652235 57.049
17.017448529496576 57.2234
17.040013531998152 57.9108
17.06257920018044 58.67
17.0851279459922 59.5916
17.107694947817667 60.4382
17.130245028099072 61.3423
17.15281336730298 62.8243
17.17536478578733 64.7104
17.19793446610687 66.8414
17.220504818648422 69.2902
17.243058251703697 71.5192
17.265629950971032 75.0688
17.288184731571736 79.1121
17.310757781306908 82.7498
17.33333150794385 84.5987
17.355888317140174 83.6105
17.37846339986244 79.548
17.401021565958885 73.322
17.42359800851343 67.9591
17.44617513265564 64.3807
17.468735341390783 62.0723
17.491261035594565 61.0632
17.51396340099364 60.7333
17.536490463869136 60.9567
17.559018209820174 61.001000000000005
17.58154663977963 61.09
17.604251766089718 61.2388
17.626781572227713 61.4907
17.64931206518155 61.6975
17.671843245885103 62.1628
17.69455114821572 62.2054
17.717083712612634 62.6628
17.739616967569667 62.8773
17.762150914021706 63.3155
17.78486160749854 63.6667
17.807396945166804 64.6536
17.829932977143503 66.3952
17.85246970436452 68.7161
17.875183204129467 70.7417
17.897721330097664 73.1548
17.920260154126645 75.9396
17.942799677153296 79.0798
17.9655159983646 82.9527
17.988056927677544 88.0535
18.010598558807683 94.8128
18.033140892692916 102.499
18.05586005052525 110.28200000000001
18.07840379824407 120.12200000000001
18.10094825154059 130.035
18.12366954819864 140.058
18.146215420998306 143.077
18.16876200220057 137.014
18.191309292745153 124.561
18.214033452627167 111.251
18.236582170236648 97.5558
18.259131600016456 90.8503
18.281681742907335 89.5019
18.304408781233683 91.8863
18.32696035875955 95.3129
18.349512652227624 99.2829
18.372065662579683 103.90100000000001
18.394795594587553 106.25399999999999
18.41735004715306 104.163
18.43990521943684 97.9858
18.46246111238171 89.0228
18.485193953325208 79.333
18.507751296070428 71.8078
18.530309362314178 67.7291
18.552868153000343 65.2572
18.57560391815056 63.8001
18.59816416623245 63.3636
18.620725141597372 62.9794
18.643286845190268 62.5334
18.666025549835414 61.9897
18.688588718427933 61.3989
18.711152618092243 61.2614
18.73389353884365 61.0556
18.75645890921984 60.6077
18.77902501351406 60.2881
18.801591852673102 60.42
18.824335739722738 59.8291
18.846904057212626 59.9023
18.8694731124168 59.5441
18.89204290628315 59.3109
18.914789774966803 59.1314
18.937361054791623 58.8828
18.959933076131318 58.7655
18.982505839934877 58.824
19.00525570560582 58.5301
19.027829963004184 58.3992
19.05040496572238 58.7816
19.072980714710468 59.0127
19.095733592739563 59.0867
19.11831084296757 59.5419
19.140888842324735 60.0706
19.16346759176222 60.3385
19.18622349753803 60.8637
19.208803755869358 61.6735
19.231384767143577 62.9386
19.253966532312948 64.5297
19.276725481241822 66.0822
19.29930876296784 67.8509
19.3218928014549 69.9733
19.34465404436217 72.3449
19.36723960516257 75.0638
19.389825925592426 76.9682
19.412413006605938 76.597
19.43517731967805 74.2449
19.457765930683355 70.1237
19.48035530514408 65.3295
19.50294544401556 61.4706
19.525712842708348 58.3263
19.54830451925909 56.8324
19.570896963095727 55.883
19.593490175174704 55.4493
19.616260674962184 55.4829
19.638855432416964 55.131
19.661450960992624 55.2924
19.68404726164677 55.1049
19.706820878021247 54.9755
19.729418731756834 55.1736
19.752017360452857 54.8855
19.77461676506804 55.0987
19.797393513540218 55.4704
19.819994478951667 55.9959
19.84259622316767 56.4033
19.8651987471481 56.9502
19.887978643247177 57.0248
19.91058273574792 57.7272
19.933187610901943 58.7157
19.955969879466828 59.7294
19.97857632894404 61.1706
20.00118356396599 62.4296
20.023791585494575 64.1286
20.046577028914875 66.2726
20.069186632506966 67.9863
20.091797025500632 70.0371
20.114408208858933 71.4575
20.137196842715273 71.9588
20.159809615886765 70.9958
20.18242318232135 68.5829
20.20503754298326 65.9808
20.227829382875154 64.2369
20.250445341109344 63.6018
20.27306209647285 63.5796
20.29567964993108 64.5505
20.31847471147704 65.6702
20.34109387027612 66.5373
20.363713830075454 66.9909
20.386334591841646 66.0272
20.409132890679302 63.3544
20.431755265564437 60.367
20.454378445325528 57.2965
20.477002430930366 54.9361
20.499803982716553 53.5965
20.522429589228004 52.7577
20.54505600449589 52.3736
20.567683229489194 52.3324
20.590488049900088 51.8326
20.61311690359731 51.496
20.63574656993626 51.4368
20.658553853717297 51.2496
20.681185154618298 51.0404
20.703817271080066 50.9221
20.72645020407368 50.5402
20.749260783967177 50.4423
20.771895359337133 50.3514
20.794530754161617 50.3698
20.817166969412938 50.4243
20.83998086114876 50.2792
20.86261872660049 50.2349
20.885257415405402 50.2225
20.90789692853701 50.1257
20.930714147864748 50.1626
20.953355319030678 50.2218
20.97599731745334 50.2767
20.99864014410749 50.0424
21.021460706796564 50.1562
21.044105199328826 50.4473
21.06675052302631 50.4888
21.089396678865015 50.7517
21.112220600704806 50.9986
21.134868430275347 51.3171
21.15751709492456 51.5391
21.180166595629693 51.4998
21.202993892429635 51.8918
21.22564507473034 52.2966
21.24829709602816 52.669
21.27112693608965 52.931000000000004
21.293780644891275 53.0036
21.316435195634053 52.488
21.339090589297417 51.5406
21.361923832041875 51.0469
21.384580921090404 50.4403
21.407238856007325 49.975
21.429897637773326 50.0236
21.45273429906592 49.9558
21.475394784108598 49.9272
21.498056118951983 49.7838
21.520718304578022 50.1726
21.543558400304388 50.3924
21.566222297108816 50.6364
21.58888704765135 50.9025
21.61155265291521 51.2804
21.63439619898156 51.6622
21.657063523335786 51.9341
21.67973170537063 52.4773
21.7024007460706 52.9145
21.72524775840385 53.6199
21.747918526116475 54.7792
21.770590155457388 55.7636
21.79326264741238 57.1719
21.816113141960237 58.6235
21.838787368860547 60.0485
21.861462461341976 61.7385
21.884315579735777 63.5419
21.90699241312273 64.9728
21.92967011506078 66.1825
21.95234868653799 66.3814
21.9752053151131 65.3786
21.997885635446785 63.4921
22.020566828293532 61.4836
22.04324889464272 59.3863
22.066109049404666 57.7977
22.088792872571794 57.1874
22.111477572219204 57.1781
22.1341631493376 57.5014
22.157026846313123 57.3834
22.179714188221507 56.9664
22.202402410582668 55.9603
22.22509151438863 54.2369
22.24795876962584 53.1342
22.270649646204486 52.0622
22.293341407213727 51.5314
22.316034053646906 50.9261
22.338904883215342 50.5648
22.36159931041458 50.5375
22.38429462602756 50.3473
22.40699083104897 50.3812
22.429865251039757 50.1469
22.452563244831367 50.157
22.47526213102522 50.2545
22.49813925616515 50.1047
22.520839937143307 50.0918
22.543541513520587 50.0091
22.56624398629403 50.0016
22.589124730075895 50.0178
22.611829005656723 50.2852
22.63453418063466 50.4345
22.657240256008077 50.6121
22.680124634582935 50.8956
22.70283252079775 51.0925
22.725541310413075 51.3663
22.74825100442868 51.6197
22.771139033969575 52.175
22.79385054687155 52.4162
22.81656296718292 53.0369
22.83927629590484 53.7524
22.862167992606945 54.6667
22.88488314827121 55.3503
22.907599215359284 56.1472
22.93031619487366 57.0779
22.953211574954405 58.1315
22.975930389478226 59.0008
22.998650119445763 59.4344
23.02137076586092 58.821999999999996
23.044269845560063 57.7593
23.06699233506288 56.4
23.089715744034912 54.4246
23.112617610931565 52.8238
23.135342869061212 51.4633
23.158069049684816 50.8158
23.1807961538087 50.3976
23.20370174880544 50.3081
23.226430710184808 50.4259
23.249160598093425 50.5876
23.271891413539002 50.6353
23.294800752937697 50.4861
23.31753343374794 50.758
23.340267045128353 51.0545
23.36300158808808 51.3334
23.38591468821339 51.6662
23.408651104658304 52.1544
23.431388455719986 52.6599
23.454126742409 53.3436
23.4770436196085 54.1812
23.499783787914662 55.0498
23.522524894889884 55.7918
23.54526694154616 56.5737
23.56818761219047 57.7239
23.59093154860734 58.31399999999999
23.613676427751283 58.9634
23.636422250635754 58.5847
23.659346731118656 57.1946
23.68209445191868 55.5464
23.704843119509587 53.2868
23.72759273490623 51.2897
23.750521041644767 49.7398
23.77327256312355 48.5787
23.796025035462787 47.9245
23.818956224555475 47.6167
23.841710609113413 47.3817
23.86446594758979 47.1674
23.887222241002014 46.8851
23.910157285144578 46.5465
23.932915498962537 46.5483
23.955674670778713 46.398
23.978434801611975 46.1177
24.001373717286125 46.019
24.024135776723917 45.8349
24.046898798245582 45.8459
24.06966278287146 45.7415
24.092605586582614 45.4927
24.115371508023642 45.4606
24.1381383956401 45.2775
24.16090625045381 45.2487
24.183852958731244 45.3091
24.206622758582608 44.9613
24.229393528706886 44.7123
24.252165270127392 44.8817
24.27511589952438 44.9418
24.297889594216997 44.6517
24.32066426328598 44.5044
24.34343990775613 44.5353
24.36639447485003 44.4441
24.38917208083877 44.3919
24.41195066531332 44.2619
24.43490819850244 44.2651
24.457688750692377 44.2039
24.48047028445616 44.2083
24.503252800821233 44.4425
24.526214300784112 44.4056
24.548998793132213 44.1473
24.57178427117417 43.9895
24.59457073593893 44.2264
24.617536219319863 44.1735
24.64032466834748 44.2408
24.663114107195035 44.0411
24.685904536893013 43.6746
24.708874020360852 43.6893
24.731666442613744 43.7842
24.754459858818787 43.6928
24.777254270007962 43.6354
24.80022777025625 43.4597
24.82302418230472 43.5714
24.845821592443674 43.6049
24.86862000170663 43.5728
24.891597535453727 43.355
24.914397953892728 43.5567
24.93719937456671 43.5477
24.96000179851076 43.7549
24.98298338249997 43.9463
25.00578782394922 44.1321
25.028593271784167 44.2321
25.05157790644186 44.6089
25.07438537804115 44.5503
25.097193859145293 44.65
25.120003350792075 44.8971
25.142992065061257 45.3437
25.165803588823465 45.685
25.18861612625217 45.8713
25.211429678386736 45.9823
25.234422489079968 45.9623
25.257238081693636 45.9776
25.280054692141732 45.9317
25.3028723214652 45.8981
25.325869245420463 45.9553
25.348688923599397 46.06399999999999
25.371509623787006 45.9471
25.394331347025812 45.8615
25.41733240110666 45.4896
25.440156181590016 44.8752
25.46298098826268 44.3864
25.48580682216873 43.754
25.50881202326435 43.1774
25.53163992281684 42.714
25.55446885274561 42.376000000000005
25.577298814096377 42.1346
25.600308179121807 42.0207
25.623140214533745 42.0735
25.64597328451537 41.97
25.66898578564376 41.7989
25.691820936010206 41.7127
25.714657124097695 41.7397
25.737494350954734 41.7331
25.760511045684957 41.5853
25.783350361364224 41.6224
25.806190718969255 41.7373
25.82903211955018 41.81
25.852053024868923 41.7389
25.874896522722523 41.843
25.897741066713106 41.7899
25.920586657892454 41.8656
25.943611790812668 42.1372
25.966459487728237 42.1743
25.989308234998564 42.17
26.01215803367705 42.3703
26.03518741123814 42.45
26.05803932412957 42.6983
26.080892291600094 42.7246
26.10374631470478 42.9111
26.12677995397268 42.8571
26.14963609978026 42.7358
26.172493304397875 42.5776
26.19535156888223 42.2557
26.218389486949604 41.9561
26.241249882640123 41.6935
26.26411134137826 41.5849
26.28715248187403 41.4528
26.31001607820869 41.2608
26.3328807407756 41.2234
26.35574647063438 41.3189
26.37879191991473 41.294
26.401659795896734 41.3923
26.424528742360263 41.6181
26.447398760366614 41.6371
26.470448535598294 41.7919
26.49332070826805 41.9854
26.516193955675355 42.1842
26.53906827888316 42.2741
26.562122397260108 42.5884
26.584998883685063 42.8276
26.607876449110325 42.9365
26.63075509460056 43.0709
26.65381357334404 43.2607
26.67669439061878 43.4035
26.699576291163382 43.2864
26.722459276044212 43.1193
26.745522132402975 42.8327
26.768407297649354 42.5077
26.791293550442003 42.102
26.814180891848974 41.9139
26.837248143099337 41.7053
26.860137673466657 41.6648
26.88302829566349 41.348
26.90592001075963 41.1676
26.92899167420566 41.148
26.951885586870763 40.7035
26.974780595655517 40.5515
26.99785558178161 40.3932
27.020752794605112 40.0805
27.043651106772522 39.9725
27.06655051935668 40.0687
27.089629948036183 39.9161
27.112531573292053 39.8735
27.135434302194138 39.9696
27.158338135817015 39.6925
27.181422024430987 39.7691
27.204328079372566 39.5769
27.22723524226965 39.6349
27.250143514198573 39.7371
27.273231880156334 39.7027
27.296142382065014 39.5061
27.319053996245536 39.5568
27.341966723775965 39.4952
27.365059584515222 39.4758
27.38797455070062 39.554
27.410890633481237 39.5023
27.433807833936918 39.5204
27.456905206923906 39.4213
27.47982465472398 39.4229
27.502745223449743 39.6926
27.525666914182825 39.6961
27.548768816912457 39.6611
27.571692763693633 39.5836
27.59461783573812 39.5448
27.617723149491244 39.3441
27.640650484125285 39.3405
27.66357894728264 39.353
27.686508540048052 39.2289
27.709618414237887 39.0955
27.732550278321757 38.9132
27.755483275279115 38.9619
27.778417406196485 39.041
27.801531858397514 39.0523
27.824468269376716 39.0124
27.847405817586786 39.0644
27.870344504116094 39.1335
27.893463551932008 39.0863
27.916404527281053 39.287
27.93934664422563 39.3989
27.962289903855886 39.4543
27.98541356491974 39.7036
28.00835912214229 39.8759
28.03130582533231 40.0481
28.054253675581805 40.1686
28.077381967556104 40.1147
28.100332124185126 40.0991
28.123283431160893 39.9478
28.146235889577238 39.8078
28.169368830154156 39.7303
28.192323603752033 39.4701
28.215279532083304 39.2256
28.238415973016764 39.0492
28.261374223145094 38.8606
28.284333631303806 38.653
28.307294198589954 38.4736
28.330435319167677 38.2115
28.353398217078915 37.9929
28.376362277420153 37.8003
28.39932750129032 37.5726
28.422473319286713 37.4681
28.44544088262495 37.4019
28.468409612800283 37.2268
28.491379510913497 37.0891
28.51453004413313 36.9957
28.53750229057244 36.8836
28.56047570826344 36.8395
28.583450298308804 36.8462
28.606605564586562 36.6109
28.629582511831156 36.7438
28.65256063474956 36.6068
28.675539934446338 36.6528
28.698699951647605 36.5448
28.72168161743193 36.5117
28.74466446331978 36.4812
28.767648490417624 36.4272
28.790813276438353 36.4727
28.813799678527303 36.3966
28.836787265157085 36.3199
28.859955641890075 36.3095
28.882945610203045 36.2564
28.905936766392035 36.2437
28.928929111566863 36.2968
28.952102288520145 36.2642
28.975097024308607 36.1001
28.998092952423807 35.9591
29.021090073977508 35.8905
29.04426806913204 35.8309
29.067267590245258 35.6428
29.090268308143695 35.7271
29.11327022394099 35.5991
29.13645305530891 35.4478
29.159457379627167 35.412
29.18246290519685 35.3222
29.20546963313352 35.2386
29.22865731875826 35.3744
29.25166646419296 35.2091
29.27467681535305 35.2167
29.29768837335608 35.1769
29.320880931312562 35.2759
29.34389491580634 35.1559
29.366910110507334 35.1075
29.38992651653503 35.1098
29.41312396492981 35.0529
29.436142806456754 35.0446
29.45916286268059 35.0165
29.48236399319994 34.8736
29.50538649169417 34.6667
29.528410208259935 34.5758
29.55143514402014 34.518
29.574641196749695 34.361999999999995
29.597668583816574 34.2693
29.6206971934585 34.07
29.64372702680042 34.1284
29.666938019934474 33.9769
29.689970313635285 33.9124
29.713003834422636 33.8168
29.73603858342347 33.8253
29.759254535188578 33.8432
29.78229175361658 33.7836
29.80533020365064 33.7858
29.82836988641968 33.7886
29.85159081507472 33.6209
29.874632976355343 33.6057
29.89767637376955 33.6835
29.920721008448314 33.5102
29.9439469322847 33.5593
29.96699405457564 33.4504
29.9900424175358 33.4951
30.013092022298157 33.3573
30.03632295963995 33.3098
30.059375061131373 33.4384
30.08242840783577 33.3573
30.105483000888153 33.3351
30.128718970092244 33.3344
30.151776069006917 33.292
30.17483441768648 33.2819
30.198074175317235 33.189
30.221135036724256 33.3581
30.24419715131772 33.2342
30.267260520236203 33.199
30.290505341942243 33.227
30.313571232750228 33.2682
30.336638381310948 33.2522
30.35970678876503 33.1308
30.38295669299435 33.0552
30.40602763151657 33.1759
30.429099832366074 33.1168
30.452173296685572 33.0351
30.47542830191959 32.9482
30.498504306502497 32.9045
30.521581577995562 32.9836
30.544660117543582 33.1213
30.56792024229725 33.082
30.59100133132069 32.9701
30.614083691845494 32.9655
30.637167325018545 32.9838
30.660432587840603 33.1253
30.683518779717886 33.0031
30.70660624769615 33.0424
30.729694992924372 33.116
30.75296541239743 33.1894
30.77605672557558 33.0265
30.799149319462742 32.9277
30.8224236211637 32.8859
30.845518789950724 32.7887
30.868615242910597 32.702
30.891712981195973 32.5306
30.91499247215866 32.4458
30.938092794619365 32.5161
30.96119440587579 32.3259
30.984297307082752 32.2744
31.00758200598383 32.2067
31.030687500658694 32.1809
31.053794288760695 32.1506
31.076902371446767 31.8909
31.100192296997445 31.9723
31.12330298246119 31.9003
31.14641496599209 31.7776
31.169528248749216 31.8548
31.19282341969534 31.8221
31.215939314557186 31.8183
31.239056512134788 31.8566
31.262175013589378 31.8036
31.28547544871168 31.7455
31.30859657161541 31.6702
31.331719001892175 31.6455
31.35484274070538 31.7344
31.378148458819545 31.7359
31.401274828443725 31.6822
31.424402510106933 31.7337
31.447712205419993 31.7737
31.470842524931633 31.6391
31.493974159989783 31.6796
31.51710711176168 31.635
31.54042212308802 31.6396
31.563557722100917 31.6098
31.586694641341655 31.5477
31.609832881979628 31.4491
31.63315322823208 31.3695
31.656294125521327 31.2197
31.679436347728515 31.1194
31.70257989602529 30.9831
31.725905596152327 31.014
31.74905181052835 30.9676
31.772199354521323 31.0535
31.79534822930507 31.0063
31.818679302290967 30.9844
31.84183085259981 30.9241
31.864983737233473 30.9059
31.88813795736804 30.9077
31.911474422233013 30.8609
31.934631327356435 30.9585
31.9577895715215 30.8966
31.980949155906522 30.862
32.004291031706956 30.8515
32.027453310562606 30.8412
32.05061693318573 30.7156
32.07396288236386 30.706
32.09712920658542 30.5963
32.12029687812702 30.3752
32.14346589817093 30.3646
32.166817291729984 30.3299
32.18998902288583 30.2096
32.21316210610336 30.1455
32.23633654256711 30.033
32.259693399663725 30.0845
32.282870556771144 29.984
32.30604907069099 30.0445
32.329228942610065 29.9584
32.35259128243769 29.8377
32.375773884550505 29.8413
32.398957848235646 29.7546
32.422143174682176 29.7028
32.445511016471215 29.5749
32.468699082679954 29.4948
32.49188851523011 29.4856
32.51507931531304 29.3942
32.538452678331 29.4249
32.56164622776311 29.3702
32.58484114831493 29.2702
32.60803744118015 29.267
32.631416344731896 29.2911
32.654615396551876 29.2352
32.67781582427913 29.1762
32.701198898634416 29.1077
32.72440209253756 28.9986
32.747606665947124 29.0678
32.77081262006088 28.9093
32.79420126883317 28.9269
32.81740999876112 28.9866
32.840620112999424 28.9197
32.86383161274818 28.7578
32.88722585534586 28.8141
32.91044014056596 28.8078
32.933655814909734 28.7137
32.95687287957963 28.8017
32.98027273544904 28.7472
33.00349259526636 28.6556
33.026713849030116 28.6668
33.04993649794511 28.6181
33.073341986570746 28.5778
33.09656744032826 28.5779
33.11979429286444 28.5889
33.14302254538647 28.526999999999997
33.166433686291185 28.4506
33.18966475336992 28.3954
33.212897224069096 28.4923
33.23613109959831 28.4007
33.259547912343415 28.3413
33.2827846121627 28.4037
33.306022720453775 28.2957
33.32926223842861 28.1122
33.352684742614166 28.0992
33.37592709463173 28.1283
33.399170859982064 28.1336
33.422597648419426 27.9576
33.44584425514446 27.9064
33.46909227885668 27.8742
33.4923417207723 27.6818
33.51577423505344 27.7584
33.539026528130385 27.694000000000003
33.56228024307245 27.7685
33.585535381098246 27.4629
33.60897364093058 27.4464
33.63223163992385 27.5352
33.6554910656699 27.4221
33.678751919389796 27.3065
33.702195944520106 27.29
33.72545966903325 27.3782
33.74872482519663 27.2676
33.771991414233746 27.2836
33.79544122444841 27.2353
33.81871069412428 27.1554
33.84198160035767 27.1424
33.86525394437455 27.0912
33.88870955949969 26.9816
33.911984794020626 27.0311
33.93526147001624 26.9709
33.958539588715006 26.9313
33.98200102861669 26.8685
34.0052820477047 26.7446
34.02856451319451 26.7766
34.05203033759056 26.6403
34.07531571090147 26.7074
34.09860253431845 26.7504
34.121890809074316 26.6183
34.145362493118924 26.6059
34.16865368561615 26.5607
34.191946333164054 26.5097
34.21524043699793 26.4583
34.23871800066799 26.4338
34.26201503218366 26.4123
34.28531352370466 26.2875
34.30861347646881 26.180999999999997
34.33209693978188 26.2418
34.3553998301885 26.2832
34.378704185565205 26.2418
34.402010007152356 26.127
34.42549939016683 26.0387
34.44880815937748 25.9557
34.472118398533134 25.9319
34.49543010887669 25.9308
34.51892543169198 25.765
34.54224009966052 25.8913
34.56555624255917 25.8813
34.58887386163339 25.7521
34.61237514439016 25.6467
34.6356957311114 25.6949
34.65901779775809 25.6724
34.68252356662995 25.6296
34.705848608458616 25.5919
34.72917513396849 25.5411
34.75250314440949 25.4447
34.77601490857862 25.2811
34.799345904259795 25.2899
34.82267838863559 25.2672
34.846012362958525 25.3203
34.869530142679984 25.3493
34.89286711232212 25.3237
34.91620557568269 25.3168
34.93954553401677 25.2702
34.9630693495876 25.253
34.986412313340814 25.1801
35.00975677584668 25.1213
35.033102738362956 25.0771
35.05663261012228 24.9708
35.0799815881786 25.0416
35.10333207003229 24.995
35.12668405694369 24.9628
35.150220005273056 24.9181
35.17357501786656 24.9461
35.19693153931268 24.8912
35.220289570874385 24.7967
35.24383161619786 24.7794
35.267192683604904 24.8082
35.290555264930376 24.7791
35.314101899412165 24.7175
35.33746752422433 24.677
35.36083466676374 24.6214
35.38420332829803 24.6539
35.407756095629054 24.6575
35.43112781085063 24.5692
35.45450104888391 24.6293
35.477875810999194 24.563000000000002
35.50143473172161 24.4795
35.52481255774625 24.5254
35.54819191167777 24.5082
35.57157279478914 24.4416
35.595137889488406 24.3834
35.61852184675279 24.291
35.641907337029984 24.2769
35.665294361595684 24.2058
35.68886565090076 24.1118
35.7122557598848 24.2237
35.73564740699838 24.182
35.759040593519934 24.1002
35.78261809810353 24.0651
35.80601437933051 23.9826
35.829412203814705 23.8957
35.85281157283719 23.8071
35.876395313415884 23.8843
35.8997977874528 23.8522
35.92320180988546 23.8187
35.946790244133936 23.7196
35.97019737933222 23.7948
35.993606066789866 23.7224
36.01701630779276 23.6555
36.04061101440684 23.6133
36.06402437852291 23.6763
36.08743930005611 23.5933
36.1108557802951 23.5203
36.13445678011326 23.4844
36.15787639383515 23.4446
36.18129757014299 23.4215
36.20472031032821 23.3533
36.22832762423364 23.3349
36.25175350829375 23.2221
36.275180960119776 23.2073
36.298609981005924 23.3864
36.32222362992669 23.246
36.34565580510207 23.2391
36.36908955323448 23.1439
36.39252487562093 23.0769
36.416144880530226 23.04
36.43958336764275 23.0164
36.463023432914625 22.9759
36.486465077645676 22.8883
36.51009145956204 22.9693
36.53353627947859 22.9657
36.55698268276811 22.9213
36.58043067073321 22.8419
36.60406345072071 22.7742
36.62751462435344 22.7894
36.65096738658405 22.7609
36.67460498210655 22.6594
36.69806093788647 22.6454
36.72151848619297 22.6041
36.744977628333636 22.5971
36.76862165890998 22.5189
36.79208400512205 22.6409
36.81554794910557 22.6409
36.83901349217101 22.4453
36.862663978991606 22.4171
36.88613273667352 22.4296
36.90960309738324 22.4038
36.933075062434064 22.3156
36.95673202673572 22.2762
36.98020721697122 22.2044
37.003684015502365 22.1508
37.027162423645365 22.1696
37.050825886711465 22.093000000000004
37.07430753063053 22.0445
37.09779078812467 22.0746
37.121275660513014 22.0414
37.144945643673694 21.9768
37.16843376245278 21.9748
37.19192350009803 21.9996
37.215414857931435 21.9209
37.239091382563885 21.8997
37.262585997426164 21.8637
37.28608223645736 21.8503
37.309763684451696 21.7599
37.33326318851098 21.7205
37.356764320726555 21.6223
37.380267082425526 21.6803
37.40395510942588 21.6248
37.42746114683234 21.6292
37.45096881771841 21.5494
37.474478123414166 21.5373
37.49817275092816 21.5608
37.52168534303452 21.5644
37.54519957395567 21.4127
37.568715445024665 21.3574
37.592416694607714 21.3633
37.61593586281424 21.3853
37.63945667518264 21.4393
37.66297913304891 21.2722
37.68668702630454 21.2708
37.710212792059274 21.1555
37.733740207334854 21.1936
37.757269273470364 21.1256
37.780983832050374 21.1408
37.80451621684926 21.0701
37.82805025654007 21.0569
37.851585952464795 21.0153
37.8753071980695 20.9521
37.89884622345676 20.9174
37.92238690911902 20.9152
37.94611318753442 20.8892
37.969657210779765 20.8495
37.99320289834801 20.8273
38.016750251586465 20.7306
38.04048325513017 20.6923
38.06403395679343 20.7292
38.087586328183946 20.6648
38.11114037065203 20.5852
38.13488012115898 20.6215
38.1584375229181 20.5059
38.181996599821 20.4468
38.205557353221124 20.4382
38.229303872575656 20.4351
38.2528679961576 20.5025
38.27643380031219 20.4462
38.30000128639589 20.3187
38.32375459653193 20.2951
38.34732546371299 20.3519
38.37089801690786 20.2425
38.39447225747609 20.2284
38.418232380377425 20.1596
38.441810012983396 20.1798
38.46538933705673 20.1344
38.488970353960084 20.1544
38.51273731166058 20.1383
38.536321731567014 20.0554
38.55990784840681 19.9995
38.58367995004091 19.9438
38.60726947812959 19.8662
38.63086070726198 19.9418
38.654453638806274 19.8931
38.678232613930824 19.8537
38.70182896773327 19.7664
38.72542702806741 19.8371
38.7490267963045 19.7797
38.77281266709232 19.7334
38.79641586862214 19.6857
38.8200207821842 19.6794
38.843627409152944 19.5925
38.86742019782782 19.6239
38.891030269149255 19.5591
38.914642058016156 19.5573
38.938255565806124 19.5111
38.96205529464307 19.4002
38.98567225787121 19.3518
39.00929094417078 19.419
39.03291135492255 19.3875
39.05671804624804 19.3275
39.080341923549106 19.3356
39.103967529460334 19.2443
39.127594865365744 19.18
39.15140854155791 19.1763
39.17503935514948 19.1471
39.19867190290282 19.1662
39.22249083587951 19.1072
39.24612686969409 19.1342
39.269764641845306 19.094
39.293404153722804 19.0946
39.317230110864074 19.0501
39.34087311998506 18.9769
39.36451787301696 18.9481
39.388164371352595 18.9161
39.41199737518003 18.9225
39.43564738196752 18.8314
39.45929913825317 18.8762
39.48295264543308 18.8376
39.506792718520884 18.7648
39.530449745387216 18.7726
39.55410852735203 18.78
39.57776906581474 18.6792
39.60161623079 18.6848
39.625280300200025 18.6381
39.64894613032202 18.605999999999998
39.67261372255866 18.5909
39.6964680021016 18.5502
39.72013913657293 18.5169
39.74381203738292 18.518
39.76748670593756 18.4734
39.79134812278169 18.4529
39.81502634488497 18.4192
39.83870633896685 18.4144
39.862388106436654 18.3637
39.88625668336918 18.2593
39.90994201572829 18.3226
39.933629125719285 18.2669
39.957503091207826 18.1697
39.9811937746168 18.2676
40.00488623990914 18.2195
40.02858048850006 18.1428
40.05246165409549 18.0735
40.076159487492085 18.0629
40.099859108448875 18.0148
40.123560518384345 18.0105
40.1474489070226 18.0073
40.171153913178564 17.9557
40.194860712584955 17.8888
40.2185693066637 17.9038
40.242464941335314 17.8344
40.26617714307655 17.8617
40.289891143772046 17.8082
40.3136069448471 17.7903
40.33750984859743 17.7712
40.3612292688043 17.7257
40.3849504936829 17.7234
40.40867352466194 17.688
40.43258372059144 17.6456
40.45631038219906 17.6456
40.48003885420956 17.5336
40.503769138055105 17.5377
40.52768664931955 17.5848
40.55142057531802 17.5305
40.57515631746428 17.4263
40.599079334038514 17.4579
40.62281872700477 17.405
40.64655994043941 17.4346
40.67030297578061 17.4122
40.69423334835778 17.3421
40.71798004609188 17.3573
40.74172857006355 17.2869
40.76547892171441 17.2895
40.7894166736039 17.2239
40.813170699248566 17.1568
40.83692655691388 17.176
40.86068424804498 17.1981
40.884629402612525 17.1609
40.908390779366385 17.1012
40.932153993938 17.1012
40.95591904777605 17.0381
40.979871628443995 17.0505
41.003640379561936 16.9955
41.02741097430883 16.9478
41.05118341413683 16.9103
41.075143444384416 16.9262
41.098919593177826 16.8961
41.1226975914255 16.8402
41.14647744058318 16.8281
41.170444943946755 16.7802
41.19422851378379 16.7561
41.218013938914645 16.707
41.24198706625173 16.7019
41.26577622087193 16.679000000000002
41.289567235177785 16.6098
41.31336011063129 16.5559
41.337340752422875 16.5621
41.361137369129835 16.5968
41.38493585138705 16.5384
41.40873620066004 16.5357
41.43272438060107 16.489
41.45652848292052 16.4269
41.48033445666918 16.4321
41.50414230331616 16.3468
41.528138045159764 16.3937
41.551949656675205 16.3029
41.575763145513235 16.2682
41.59957851314666 16.2296
41.62358184070442 16.243
41.64740098505737 16.2321
41.6712220126409 16.213
41.69504492493139 16.2161
41.71905586207357 16.1283
41.74288256296395 16.122
41.766711153007456 16.14
41.79054163368412 16.1053
41.814560204340054 16.0611
41.838394485526365 16.0334
41.86223066180303 15.9998
41.88625497706819 15.9318
41.910094962812 15.9341
41.93393684811168 15.9093
41.95778063445365 15.8564
41.981812625263366 15.8144
42.00566023303407 15.8086
42.029509746323676 15.7853
42.05336116662236 15.7586
42.077400857069705 15.7617
42.10125611078846 15.7232
42.12511327600405 15.7346
42.14897235421036 15.6836
42.173019768448455 15.5968
42.19688269209613 15.6365
42.22074753323349 15.5939
42.24461429335818 15.5807
42.268669455600495 15.4967
42.292540073217886 15.5624
42.31641261433284 15.4859
42.34028708044675 15.4976
42.36435001496739 15.436
42.38822835065557 15.4348
42.41210861586426 15.3687
42.4359908120986 15.3657
42.46006154323262 15.2945
42.48394762115317 15.2918
42.507835634632315 15.2795
42.531912233047436 15.2383
42.55580413732265 15.1899
42.579697981698 15.2233
42.60359376768525 15.1868
42.62767820545945 15.1273
42.65157789440821 15.1179
42.67547952952185 15.0918
42.699383112316 15.1235
42.72347541395347 15.0343
42.74738291190531 15.0304
42.771292362102166 14.9947
42.795203766063516 14.9591
42.819303956130405 14.9381
42.843219287476536 14.9734
42.86713657716324 14.9475
42.89105582671383 14.8704
42.91516392983864 14.8695
42.939087119032166 14.8253
42.963012272677304 14.7834
42.98693939230129 14.8026
43.01105543317513 14.7733
43.034986504731386 14.7184
43.05891954686589 14.682
43.08285456110972 14.6658
43.10697856448665 14.6869
43.130917542983475 14.5854
43.15485849820081 14.6013
43.17880143167367 14.5433
43.20293342237094 14.497
43.226880332449 14.4949
43.25082922540554 14.489
43.27496722682525 14.4441
43.29892010567796 14.3963
43.32287497204102 14.4581
43.34683182745632 14.4536
43.370977859791836 14.3361
43.39493871351105 14.3481
43.41890156092628 14.3102
43.44286640358341 14.3028
43.46702049182749 14.2875
43.49098934522816 14.2151
43.51496019852649 14.2307
43.5389330532723 14.1866
43.56309522248204 14.1712
43.58707210044314 14.1327
43.61105098451946 14.1407
43.63503187626491 14.1086
43.659202151562134 14.0393
43.68318707902681 14.0635
43.70717401884041 13.9805
43.731162972560874 14.0046
43.75534137913236 13.9451
43.779334381108384 14.0071
43.803329401683186 13.9782
43.82732644241872 13.9225
43.8515130055166 13.8689
43.87551410707659 13.8397
43.89951723350145 13.8349
43.923709934595614 13.8417
43.94771713129917 13.7994
43.97172635758096 13.7737
43.99573761501002 13.7564
44.0199385169922 13.6557
44.04395385732619 13.7155
44.067971233533086 13.71
44.09199064718605 13.6469
44.11619977548961 13.5731
44.14022328470671 13.5567
44.16424883610785 13.6211
44.18827643127035 13.5701
44.21249381139513 13.5189
44.236525514814076 13.5341
44.26055926674478 13.4632
44.28459506876863 13.4616
44.3088207262813 13.4555
44.33286064928722 13.4079
44.35690262714919 13.3918
44.38094666145278 13.3305
44.4051806219871 13.3552
44.42922879003185 13.3133
44.45327901929361 13.2828
44.477331311362136 13.3012
44.501573600619416 13.2483
44.525630039221795 13.1888
44.54968854541895 13.1982
44.573937102200176 13.1852
44.5979997645541 13.1668
44.622064499300315 13.1351
44.64613130803592 13.0892
44.67038823869318 13.12
44.69445921643748 13.0434
44.718532272981385 13.038
44.742607409926194 12.9923
44.76687274034801 13.0137
44.79095205918753 12.9634
44.81503346325094 12.946
44.839116954143876 12.9
44.86339071028742 12.8698
44.88747839599524 12.8746
44.91156817336837 12.8339
44.93566004401666 12.8328
44.959942251908146 12.8212
44.984038330325966 12.8006
45.00813650686762 12.7373
45.03223678314731 12.7485
45.05652746888232 12.7419
45.08063196592069 12.6608
45.104738567558705 12.615
45.128847275414856 12.6399
45.15314646515866 12.5608
45.17725940679741 12.6253
45.20137445952892 12.5926
45.22568004865265 12.5243
45.24979934496396 12.554
45.27392075725247 12.5142
45.29804428714431 12.4724
45.322358426247604 12.4522
45.346486212804315 12.4458
45.370616121861914 12.4702
45.39474815505086 12.36
45.41907087049246 12.343
45.4432071734666 12.3674
45.46734560548283 12.3372
45.49148616817604 12.3179
45.51581748638564 12.3305
45.5399623320197 12.2863
45.56410931325473 12.2449
45.58825843173002 12.2582
45.61259837920865 12.2094
45.636751793816 12.2395
45.66090735060093 12.2143
45.68506505120716 12.1646
45.7094136545275 12.0834
45.73357566449271 12.0228
45.75773982322992 12.0418
45.78190613238733 12.0209
45.806263418194064 12.0319
45.83043404997326 12.0187
45.85460683713677 11.9624
45.87897065658495 11.9672
45.90314777634752 11.9453
45.92732705646868 11.8904
45.9515084986045 11.8913
45.97588104735473 11.8756
46.00006683541565 11.853
46.02425479047904 11.8811
46.04844491420549 11.8582
46.0728262191024 11.8024
46.09702070211635 11.7684
46.12121735879483 11.7936
46.14541619080294 11.7493
46.169806278764455 11.7242
46.194009483459034 11.6889
46.21821486849841 11.6749
46.24242243555223 11.6055
46.266821333570014 11.6212
46.29103328674601 11.630999999999998
46.31524742696538 11.6335
46.33946375590237 11.5569
46.36387149104216 11.5526
46.38809221957392 11.4952
46.41231514186606 11.4689
46.436540259597464 11.4683
46.460956858999374 11.4765
46.48518638983522 11.409
46.509418121166966 11.4232
46.533652054678114 11.3882
46.55807754555709 11.3574
46.58231590571962 11.3803
46.60655647313217 11.3965
46.630988654873654 11.2946
46.655233659129024 11.2583
46.67948087571551 11.2813
46.70373030632484 11.2276
46.72817142736393 11.2347
46.752425308428684 11.202
46.77668140861147 11.1899
46.80093972960865 11.1691
46.82538981736788 11.1321
46.849652602470904 11.0919
46.87391761349769 11.0735
46.8981848521493 11.0783
46.9226439341274 11.073
46.946915650573224 10.9959
46.97118959976749 10.9998
46.99546578341598 10.9829
47.019933887188216 10.9665
47.04421456235744 10.9542
47.06849747711879 10.957
47.09278263318286 10.9275
47.11725978640143 10.9285
47.14154944775105 10.9034
47.165841355555656 10.863
47.1901355115306 10.8345
47.214621741924994 10.8592
47.23892041698887 10.8187
47.26322134538975 10.7713
47.28771440635075 10.725
47.31201986422527 10.7683
47.33632758061436 10.7245
47.360637557241866 10.7205
47.38513974410611 10.7122
47.40945426407847 10.673
47.43377104948137 10.6647
47.45809010204344 10.6154
47.48260144275502 10.5853
47.506925052572285 10.5849
47.53125093475548 10.5686
47.55557909103813 10.5536
47.58009961361992 10.5093
47.60443234110732 10.4937
47.62876734791564 10.5062
47.65310463578333 10.5048
47.6776343683373 10.4548
47.7019762413987 10.3855
47.72632040075572 10.3918
47.75066684815169 10.4085
47.77520581885936 10.3805
47.799556865477655 10.339
47.823910205386 10.3448
47.84826584033272 10.3146
47.87281407745551 10.2468
47.89717432569297 10.2656
47.92153687423484 10.247
47.94609208429692 10.2579
47.97045925671401 10.1897
47.99482873471275 10.2073
48.01920052005013 10.1857
48.04376504619224 10.1705
48.068141469543484 10.2043
48.09252020552573 10.1768
48.11690125590099 10.0758
48.1414751266064 10.1391
48.16586082917454 10.1056
48.19024885144316 10.0773
48.2146391951793 10.0373
48.239222439012764 10.0555
48.26361744916137 10.0343
48.28801478610016 10.0273
48.31241445160131 9.95234
48.337007097209366 9.94138
48.36141144338331 9.94307
48.38581812345755 9.86984
48.41022713920929 9.88009
48.434829215320704 9.88392
48.45924292604658 9.868219999999999
48.48365897780325 9.86273
48.50807737237308 9.832089999999999
48.532688907799276 9.84399
48.55711201168574 9.82133
48.581537463754074 9.76567
48.60615611725119 9.80176
48.63058628942721 9.77247
48.65501881516546 9.72995
48.6794536962573 9.74128
48.70408185970339 9.673860000000001
48.72852147531801 9.65523
48.75296345168211 9.63597
48.77740779059232 9.64264
48.80204549302823 9.64847
48.82649458091802 9.58334
48.85094603676547 9.58367
48.87539986237231 9.57388
48.90004713292306 9.52253
48.92450572200832 9.54388
48.94896668628025 9.50867
48.97343002754588 9.50638
48.99808689542115 9.4423
49.02255501470614 9.451130000000001
49.04702551642794 9.434289999999999
49.0714984023988 9.39372
49.096164896893235 9.37007
49.120642575466796 9.37792
49.145122643748394 9.371089999999999
49.16960510355558 9.3447
49.19428125404938 9.28328
49.2187685210852 9.30269
49.243258185121555 9.295060000000001
49.26794160167084 9.28525
49.2924360839405 9.24543
49.31693296869764 9.22098
49.34143225776915 9.17678
49.36612538195438 9.19379
49.39062950396021 9.183119999999999
49.41513603578346 9.14901
49.4396449792564 9.12957
49.46434784069503 9.164819999999999
49.488861631846454 9.11925
49.513377840166804 9.10324
49.537896467493745 9.08038
49.56260909589029 9.0562
49.587132585683285 9.04186
49.611658500018365 9.034469999999999
49.636186840738596 8.96835
49.66090926588511 9.00295
49.685442483902584 8.96566
49.70997813385706 8.9501
49.734516217597076 8.952210000000001
49.75924846937352 8.94183
49.7837914452858 8.93173
49.80833686055187 8.8744
49.83288471702571 8.87704
49.85762682540054 8.87459
49.882179588965734 8.80844
49.9067347993235 8.83271
49.93129245833333 8.81148
49.95604445336378 8.77932
49.98060703442832 8.775089999999999
50.005172069746266 8.73935
50.02993150438364 8.72284
50.05450147301533 8.72177
50.07907390151433 8.6838
50.10364879174981 8.70331
50.12841816587289 8.67285
50.1529980044635 8.634310000000001
50.17758031042124 8.62636
50.20216508562089 8.61507
50.22694442953363 8.57536
50.25153416817468 8.579460000000001
50.27612638170508 8.58889
50.300721072005196 8.556560000000001
50.325510416102105 8.53556
50.350110084975064 8.49808
50.37471223628208 8.52036
50.39931687190919 8.50388
50.424116246675766 8.4695
50.44872587605249 8.423969999999999
50.47333799543065 8.4603
50.49795260670191 8.44898
50.52276204271512 8.39436
50.54738166295838 8.40397
50.57200378079314 8.3919
50.596628398116835 8.363480000000001
50.62144792604559 8.33103
50.646077567609396 8.304110000000001
50.670709714377715 8.314869999999999
50.69553683636198 8.29003
50.72017401885922 8.24623
50.7448137122895 8.22367
50.76945591856022 8.25357
50.79429318636823 8.23475
50.818940443716784 8.21161
50.84359021965163 8.17655
50.868242516085964 8.18004
50.893089960641895 8.16077
50.917747323549435 8.11635
50.94240721271973 8.12931
50.96706963007175 8.10924
50.99192728239342 8.11351
51.01659478166073 8.1023
51.04126481489051 8.08758
51.06593738400761 8.06134
51.090805275207074 8.04988
51.11548294172845 8.01443
51.14016314993547 7.991810000000001
51.164845901758845 7.99172
51.18972406304274 7.97377
51.21441192780656 7.9587
51.23910234200271 7.93007
51.2637953075678 7.95072
51.288683770237945 7.9131800000000005
51.31338186432707 7.888960000000001
51.33808251561888 7.84923
51.362978729967345 7.81015
51.387684521509755 7.84417
51.41239287610203 7.84975
51.437103795691165 7.85065
51.46201036644977 7.809539999999999
51.486726441956634 7.78602
51.51144508832545 7.769360000000001
51.536166307509156 7.76955
51.56108326624387 7.74987
51.58580965706056 7.70317
51.61053862657523 7.696219999999999
51.635270176746864 7.66984
51.66019755512065 7.679819999999999
51.68493429268881 7.630510000000001
51.70967361681515 7.61481
51.73441552946465 7.60912
51.759353359237934 7.6006100000000005
51.7841004750961 7.57337
51.80885018539685 7.59895
51.833602492111254 7.56539
51.8585508051424 7.55505
51.883308330926425 7.53187
51.90806845906181 7.46692
51.932831191525715 7.49154
51.95779001977161 7.46925
51.98255798721516 7.43496
52.00732856494335 7.40517
52.03229530577543 7.4596
52.057071130455945 7.420319999999999
52.081849571391054 7.38183
52.106630630568695 7.40455
52.13160794279417 7.37723
52.15639426492067 7.358160000000001
52.18118321127822 7.3417699999999995
52.205974783860896 7.32476
52.23096269971011 7.31835
52.255759551287994 7.30996
52.280559035098186 7.254760000000001
52.30536115314103 7.25206
52.33035970494467 7.25975
52.35516711807904 7.24016
52.37997717147198 7.21822
52.40478986713005 7.2184800000000005
52.42979908731974 7.16518
52.454617094216 7.153010000000001
52.47943774942214 7.16299
52.50426105495102 7.1455
52.529280976059844 7.140439999999999
52.554109609024096 7.07115
52.57894089837482 7.11532
52.60377484613117 7.04661
52.62880550079408 7.07205
52.65364479223379 7.026110000000001
52.67848674816189 7.017739999999999
52.70352547971946 6.982819999999999
52.72837279155837 7.00215
52.753222773982785 6.9763399999999995
52.778075429022984 6.99627
52.80312495150885 6.95953
52.827982978797436 6.918419999999999
52.85284368481815 6.938389999999999
52.87770707160767 6.931939999999999
52.90276741793998 6.928669999999999
52.92763619336701 6.90136
52.952507655698504 6.861689999999999
52.977381806977576 6.8356
53.00245301017842 6.83383
53.02733256653592 6.820589999999999
53.052214817996074 6.82555
53.077099766608484 6.8395
53.102181859804446 6.83442
53.127072229988265 6.81315
53.15196530349892 6.767760000000001
53.17686108239249 6.751930000000001
53.20195409881522 6.72788
53.22685531582556 6.76704
53.25175924441303 6.69465
53.27666588664027 6.66482
53.30176985962693 6.6727
53.3266819565689 6.63656
53.35159677336455 6.6036
53.376514312083096 6.6417
53.40162927507703 6.622039999999999
53.42655228516116 6.61435
53.45147802340193 6.59273
53.47660125628886 6.5739399999999995
53.50153247842639 6.5809
53.52646643496923 6.51729
53.55140312799818 6.52407
53.576537409691696 6.4865699999999995
53.60147960336152 6.48595
53.626424539786164 6.46171
53.65137222105307 6.45252
53.67651758529126 6.44313
53.70147078399681 6.42848
53.72642673383343 6.46549
53.75138543689533 6.43204
53.776541917524526 6.44937
53.801506154876755 6.39398
53.826473151763246 6.34814
53.851442910284916 6.33249
53.87661054126026 6.33306
53.9015858509782 6.33295
53.92656392866066 6.3375
53.95154477641532 6.31771
53.976723591801296 6.34745
54.00171000771266 6.29871
54.02669920004598 6.285159999999999
54.051691170915745 6.22203
54.076881204886796 6.25535
54.101878760928514 6.20906
54.12687910187696 6.1778699999999995
54.152077577768296 6.16869
54.1770835166946 6.169580000000001
54.20209224691339 6.15468
54.22710377055121 6.1447400000000005
54.25231352511594 6.15857
54.27733066384342 6.08899
54.30235060239643 6.12291
54.32737334290836 6.10482
54.35259441062629 6.0639400000000006
54.377622783395324 6.027430000000001
54.40265396455061 6.04664
54.42768795623251 6.0437199999999995
54.45292037169559 5.95065
54.477960012857906 5.947019999999999
54.50300247099511 5.95787
54.52804774825457 5.93851
54.55329154616743 5.87737
54.57834249018678 5.89985
54.6033962597977 5.8524199999999995
54.6284528571545 5.850709999999999
54.653708072335164 5.82839
54.67877035378786 5.8013
54.70383546947698 5.80459
54.72890342156389 5.73655
54.7541700889442 5.7615300000000005
54.77924374251975 5.73741
54.8043202390049 5.7533
54.82959552413022 5.6666
54.8546777351945 5.6579
54.87976279569621 5.59877
54.90485070780914 5.65925
54.930137506558005 5.58791
54.95523115074295 5.60917
54.98032765308844 5.604430000000001
55.005427015775496 5.55588
55.03072536339621 5.54467
55.05583047570572 5.5121
55.080938454927676 5.500319999999999
55.10604930325027 5.47569
55.131359235107396 5.48928
55.15647585066083 5.46812
55.181595341907496 5.418130000000001
55.20671771104285 5.394
55.232039262617704 5.362430000000001
55.25716741665048 5.37885
55.28229845518636 5.32343
55.30743238042802 5.28798
55.33276558731939 5.3149
55.357905315183636 5.3099
55.383047936390035 5.19374
55.40819345314859 5.19589
55.433538351073295 5.21702
55.458689688238415 5.20898
55.483843927614096 5.1256699999999995
55.509197623043605 5.06323
55.53435769621134 5.06639
55.55952067826466 5.0622
55.5846865714265 5.05261
55.61005202069737 5.04934
55.63522376553902 5.03811
55.66039842818645 4.9593300000000005
55.68557601087004 4.974559999999999
55.7109532500271 4.9305699999999995
55.73613670233794 4.93991
