TT I
1.2716486653135266 7.375089999999999
1.2939594142134223 6.49993
1.3162702121660406 6.18366
1.3385810600174564 6.39382
1.3608919586137629 6.2461199999999995
1.383202908801069 6.1699
1.405513911425503 5.25047
1.4278249673332093 5.73071
1.4501343378461518 5.8082400000000005
1.4724455028545926 5.72302
1.4947567236847858 5.3201
1.517068001182951 5.93235
1.5393793361953272 5.94284
1.5616907295681737 5.8286
1.5840021821477681 5.61691
1.60631369478041 4.40845
1.6286252683124185 5.49219
1.6509369035901333 5.03833
1.6732468618895553 4.64337
1.695558623192809 3.99727
1.7178704487808514 3.86895
1.7401823395001077 4.70695
1.7625012545597203 4.5822400000000005
1.7848028405262486 4.45301
1.8071218901122095 4.5001
1.8294236121921872 4.41563
1.8517427996910911 4.20116
1.8740620574440425 4.17718
1.8963639900671978 4.47596
1.9186833908139995 4.28694
1.9409854680117449 4.06961
1.9633050151394713 3.81495
1.9856246367570705 4.10659
2.0079269371922672 4.13915
2.03024671027244 4.50871
2.0525491637446027 3.8499
2.074869091674931 4.14884
2.097171701569106 4.66004
2.1194917877373847 4.4963
2.141811954326636 4.56147
2.164114805233074 4.76556
2.186435135143035 4.74885
2.208738150935709 5.64583
2.231058647554722 6.957380000000001
2.2533792288321184 6.43171
2.275682498336085 5.23754
2.298003251406138 5.08464
2.3203066942619714 5.15506
2.3426276225136022 4.68668
2.3649486396617507 5.26813
2.387252348930071 6.4032
2.4095735463442893 5.56596
2.4318774374315884 5.7694
2.4541988185014043 6.462680000000001
2.476502894794693 6.908010000000001
2.498824462909887 6.78844
2.521146125856138 6.90234
2.5434504863470337 6.991289999999999
2.5657723414244717 8.2624
2.588076895590662 8.607999999999999
2.610398946189713 8.343210000000001
2.6327210958598384 7.60698
2.6550259469304716 8.61243
2.6773482972090137 8.862
2.6996533504259 8.07109
2.7219759047039602 8.64209
2.744298562293959 8.7167
2.7666039251246595 7.99103
2.7889267918020164 7.94365
2.8112323652516555 8.275739999999999
2.833555444408179 8.95916
2.8558786311183852 8.360489999999999
2.8781845268938557 8.3807
2.9005079311721484 8.83058
2.9228140460410397 8.94546
2.9451376712799635 9.12219
2.967444008632326 9.76223
2.9897678582247247 9.8697
3.0120918213106695 10.6113
3.0343984987899373 10.7616
3.0567226913198637 10.8284
3.079029599759726 11.16
3.101354025127254 12.3385
3.123678568232338 12.5967
3.145985829517914 13.4512
3.16831061055229 13.8697
3.1906181112775593 14.6347
3.212943133635653 14.4503
3.2352682779763207 15.0567
3.2575761442691227 15.3151
3.2799015350264273 15.5823
3.302209649240067 15.7032
3.3245352898092655 15.9642
3.3468436553365257 16.6865
3.369169549113219 17.3195
3.3914955708171384 17.7631
3.413804319727358 18.29
3.4361305997334863 18.668
3.4584396084414553 19.1896
3.4807661501462652 19.4426
3.503092824025881 19.8388
3.5254022288463154 20.4481
3.5477291695206588 20.4817
3.5700388426251948 20.7894
3.5923660534916446 21.595
3.6146934007816114 22.752
3.637003482731501 27.6852
3.6593311053109985 30.2636
3.681641464033634 26.8733
3.7039693653009733 23.8044
3.726297407241705 24.0175
3.7486081875460804 24.2302
3.7709365132734978 24.5299
3.793247578841633 25.1579
3.8155761917550093 25.378
3.8378875459837216 25.875999999999998
3.8602164494827234 26.0284
3.882545499606844 26.9733
3.9048572932539183 27.5474
3.9271866390645718 27.8666
3.9494987298666713 28.8077
3.971828374764527 28.8675
3.9941581705403255 29.0604
4.016470713506008 29.3327
4.038800813471445 30.0129
4.061113662089144 30.7978
4.0834440696459176 31.499000000000002
4.105774632334751 31.9266
4.128087945865126 32.7322
4.150418821249301 33.2899
4.172732448931298 33.21
4.195063640413578 34.1762
4.2173775856475215 35.356
4.239709096631102 37.4105
4.262040768704612 52.4864
4.284355196706267 64.7189
4.306687193387355 57.0157
4.329001947444346 44.2034
4.35133427213731 40.5347
4.373666762177566 40.5628
4.395982011761091 40.8036
4.418314834921175 41.9339
4.44063041906622 43.2992
4.4629635787515625 45.0642
4.4852969080429785 46.0943
4.5076130004776225 46.7031
4.529946671403969 46.972
4.552263106909177 47.3114
4.574597122877047 48.5086
4.596931312711224 49.5764
4.619248269273446 50.483000000000004
4.6415828092605835 51.0688
4.663900117405352 52.5293
4.686235010953232 54.028999999999996
4.708552674085913 55.4674
4.730887924602802 56.592
4.753223354952695 58.1821
4.775541557023902 59.1862
4.797877349456786 60.788999999999994
4.820195915032126 62.6889
4.842532072957498 64.0349
4.864868414979744 65.9543
4.88718753227192 68.0852
4.909524244902505 70.2852
4.931843734218147 71.0015
4.954180820867835 73.7676
4.976518095879839 76.6161
4.998838149695359 79.7597
5.021175803844231 82.7114
5.043496238205739 85.4396
5.065834274903528 89.229
5.088172504230693 93.2195
5.1104935158799565 97.9154
5.132832132875765 105.39
5.155153533596801 118.345
5.1774925416746225 137.524
5.199814334878411 230.912
5.2221537374521505 793.003
5.244493338631803 2479.6
5.266815727034316 7127.41
5.289155727832427 13509.6
5.311478517248165 9560.17
5.333818921080011 3270.71
5.356159527788849 686.184
5.3784829252032536 214.97799999999998
5.400823940070432 145.91
5.423147747031976 123.84200000000001
5.445489173474152 113.758
5.467830807066149 107.931
5.490155234831516 104.35600000000001
5.512497285125229 100.685
5.534822130975162 99.0618
5.557164601388673 97.3273
5.579489868738879 94.7557
5.601832762690846 93.0685
5.6241758697774475 91.7119
5.646501775867269 90.90799999999999
5.668845311622074 90.3546
5.691171647754637 89.4456
5.713515615597765 88.7363
5.735859800852677 87.8457
5.758186788542988 86.5683
5.780531411018185 86.7722
5.802858837297399 86.3002
5.825203900414495 86.3959
5.8475491852224 86.4204
5.869877275883075 86.8061
5.892223006467101 87.8968
5.914551544266608 88.9181
5.936897724049891 91.1007
5.959244129804903 95.0566
5.981573344815301 106.82600000000001
6.0039202049061 162.88299999999998
6.026249875609095 391.325
6.04859719346037 890.38
6.070927323278297 2042.03
6.093275102315365 4529.6
6.115623113320588 5641.39
6.137953938319995 3588.4
6.160302415650845 1072.19
6.182633708324452 240.10299999999998
6.2049826554078376 108.92
6.227331838745022 87.1718
6.249663839443684 79.7436
6.27201349767565 75.8695
6.294345974611799 73.7612
6.316696111167083 72.8544
6.339046488263839 71.7299
6.361379686074702 68.6072
6.383730546639482 66.2369
6.406064229255215 64.6538
6.428415576718203 64.7454
6.450749747566656 63.5889
6.47310158535871 62.4426
6.495453669698332 61.9999
6.517788579421056 61.3947
6.540141159237969 60.213
6.562476565766648 59.4202
6.5848296444934045 58.7007
6.607182974060425 58.2734
6.6295191323281015 57.9079
6.651872965955752 57.2383
6.6742096296068985 58.6004
6.6965639707294615 63.1608
6.71891856698715 64.2886
6.741255995248479 60.0421
6.763611104154477 56.4084
6.785949046381137 55.2279
6.808304671371482 54.5806
6.8306605557940046 54.397
6.852999275508618 53.7797
6.875355681171544 54.0357
6.897694923437771 53.6026
6.92005185377892 53.2972
6.9423916220322655 53.0053
6.964749080490181 52.7566
6.987106804399774 52.7551
7.009447368180821 52.6228
7.031805625367033 52.2708
7.054146723727803 52.2678
7.076505517631004 52.3049
7.098864581288365 52.323
7.121206488070854 51.9891
7.143566093607822 51.5535
7.165908543567245 51.4976
7.188268694426048 51.3673
7.2106291193438095 50.8585
7.232972390625943 51.1904
7.255333366030969 52.0257
7.277677189091925 55.9949
7.300038718428332 62.0005
7.322400526130865 61.4442
7.344745183422596 55.9391
7.367107550224791 52.3449
7.389452767901992 51.7487
7.411815697249891 51.6548
7.434161478756298 51.2242
7.456524974096713 51.3637
7.478888753837185 51.2786
7.501235387657368 53.0167
7.523599738562711 59.4907
7.545946944825532 70.52600000000001
7.568311870344528 75.3968
7.5906770845765665 66.6441
7.613025156078678 57.0607
7.635390950099687 53.7226
7.657739602662809 53.0038
7.680105979923558 52.3857
7.702472650212829 53.1468
7.724822180948224 52.7684
7.747189439655568 53.1923
7.769539560075357 53.4959
7.791907410653562 53.9369
7.81425812420825 53.5602
7.836626570110925 53.7009
7.858995315087906 54.6155
7.881346924933401 54.7728
7.903716270417482 55.4411
7.926068482028405 55.6568
7.948438431475253 56.0275
7.9708086843180235 56.6768
7.993161805171116 57.1566
8.015532667162402 57.6256
8.037886398416653 58.8443
8.060257873014221 59.1519
8.082629655331942 59.5041
8.104984308787587 59.9834
8.127356708900503 60.8237
8.149711981398308 62.168
8.172085002766314 63.6588
8.194458336181368 63.9737
8.216814543847752 64.7127
8.23918850371002 65.3796
8.26154533906492 66.1893
8.283919928836452 68.0568
8.306277395339652 69.0475
8.328652618483376 70.4199
8.351028159736202 72.2707
8.373386579575245 74.0741
8.395762759396959 75.3345
8.418121819038275 77.4886
8.440498640894003 81.2289
8.462875785192262 86.3746
8.485235811156207 94.4091
8.507613602688501 128.457
8.529974277114228 228.088
8.552352719347912 368.599
8.574731488360351 610.956
8.59709314210385 1078.33
8.619472567021075 1826.0
8.64183487789147 2253.82
8.664214962183097 1976.26
8.686577933647762 1089.59
8.708958680784317 413.48400000000004
8.731339760774953 177.423
8.753703729764451 109.99600000000001
8.77608547780821 94.9056
8.798450116065078 90.5909
8.820832535634787 88.1955
8.843215292401656 87.0246
8.865580941199045 85.1361
8.887964374703538 83.7753
8.910330701447199 83.4281
8.932714815164482 83.1845
8.955099270424924 82.3323
8.977466620733543 81.5985
8.999851761421976 80.7008
9.022219798361645 80.0086
9.04460562795561 79.6858
9.066991803441677 79.46300000000001
9.089360876979615 79.687
9.111747746589993 79.3226
9.13411751544971 78.7974
9.156505082664324 78.7357
9.178875550323522 79.4004
9.20126381862328 82.0381
9.223652438908596 92.7452
9.246023961427412 109.874
9.26841328802173 116.37799999999999
9.290785518039224 105.351
9.313175554425882 89.9713
9.335565947154315 81.88600000000001
9.357939245086508 79.9584
9.380330352834827 79.5085
9.40270436697103 79.8832
9.425096193225055 79.7724
9.447488380180165 80.3776
9.469863475295412 80.4425
9.492256385987508 80.639
9.514632206018318 81.2908
9.537025843935714 81.5846
9.559402392368193 82.5105
9.581796761000229 83.068
9.604191496441521 83.2857
9.626569144158516 83.8049
9.648964615551032 85.2921
9.671343000390081 86.64399999999999
9.693739211225699 87.2967
9.716135793237463 87.5791
9.738515290448102 88.2129
9.760912617143402 89.3765
9.783292860202891 90.322
9.805690935076182 91.2388
9.828089385495742 92.2588
9.850470754023561 93.65299999999999
9.872869957865444 95.5877
9.89525208097539 98.5852
9.917652041736662 102.262
9.940052382417589 105.883
9.962435644102392 115.022
9.984836746950979 146.972
10.007220771957746 226.592
10.029622640473708 346.009
10.052007432299963 512.561
10.074410069984072 770.806
10.096813093716005 1194.75
10.119199042482517 1749.36
10.141602840636468 2078.87
10.163989564971628 1673.23
10.186394141051062 992.447
10.208799107559706 438.69
10.231187001965623 200.324
10.253592751657669 125.1
10.275981430388155 107.316
10.298387966769793 103.023
10.320794897965431 102.13799999999999
10.343184759907361 100.78200000000001
10.36559248305461 98.8362
10.387983138083852 97.4031
10.410391656691655 98.35600000000001
10.432800574501677 107.37899999999999
10.455192425893369 129.019
10.47760214443012 160.053
10.499994797678786 200.28400000000002
10.522405320453982 267.587
10.54479877906917 376.986
10.567210109595656 504.658
10.5896218454736 584.134
10.612016518879773 561.122
10.634429067781074 393.764
10.656824555333241 228.97
10.679237920773568 141.874
10.701651695961992 104.89299999999999
10.724048411481384 93.1051
10.746463008485165 86.2542
10.768860546937125 82.5924
10.791275969274796 79.775
10.81369180576079 78.5236
10.836090585366925 77.4033
10.858507252467449 76.43
10.88090686379991 75.3137
10.903324365036394 74.3781
10.925724811614439 73.17
10.948143150509463 73.0251
10.970561909719066 72.4007
10.992963615930844 71.5768
11.015383218085756 70.6284
11.037785768347074 69.4538
11.06020621697282 69.4643
11.082627090322113 69.0029
11.105030913430326 68.0027
11.12745263854165 67.2071
11.149857314510728 66.9646
11.172279894912576 67.7758
11.194702904450653 67.2487
11.217108866490921 66.1495
11.239532736615194 65.5264
11.26193956033512 65.2243
11.284364294577085 64.6592
11.306789462371718 64.0275
11.329197585398376 63.4262
11.351623622610898 63.5771
11.37403261614354 62.7807
11.396459526308487 62.428999999999995
11.418869393879497 62.2012
11.441297180532617 62.0189
11.463725406927658 61.6672
11.486136592353875 61.2963
11.508565700543707 61.2835
11.530977768845315 61.4686
11.553407762368774 61.1189
11.575838200059769 60.9686
11.598251599479612 60.7995
11.620682927815501 60.4775
11.64309721895548 60.4345
11.665529441478206 60.2107
11.687962112597958 60.2708
11.710377748130886 60.0357
11.732811318753434 59.9494
11.755227854859067 59.9939
11.777662328529495 59.3575
11.800079768750786 59.5459
11.822515149015453 59.5229
11.844950984084935 59.9237
11.867369787303163 59.4467
11.889806534289491 60.2571
11.912226250487029 62.1775
11.934663912939751 65.6946
11.9571020346363 68.6769
11.979523127133968 69.1859
12.001962169624331 67.016
12.024384183972964 63.9712
12.046824150809913 64.5387
12.069264581333726 69.1191
12.091687985297767 76.6226
12.11412934550045 85.465
12.136553680195208 98.4275
12.158995973632788 118.719
12.181438735204349 145.918
12.20386447284199 178.424
12.226308172985636 204.687
12.24873485024193 214.768
12.271179492516982 176.24099999999999
12.293607112949127 134.134
12.316052700916226 99.6264
12.338498763250042 73.8847
12.360927805303868 64.4939
12.383374818673879 62.0163
12.405804812803074 60.8943
12.428252780773262 61.0773
12.45070122756722 61.2106
12.473132656675375 61.1603
12.49558206341869 60.9977
12.518014453510101 61.2384
12.540464823770117 61.2123
12.562915677315177 61.3236
12.58534951575545 61.9154
12.607801338171472 61.9712
12.630236146511358 62.4397
12.652688941369085 63.2808
12.675124723177234 63.8811
12.697578494048786 64.2529
12.720032754458185 63.9101
12.742470003354093 63.7667
12.764925245138771 64.1184
12.787363476431278 64.6115
12.809819703166806 65.134
12.83227642391173 65.6455
12.854716135692716 66.4574
12.877173846755147 67.4194
12.899614549869717 67.6133
12.9220732548287 68.419
12.94453245827299 68.8131
12.966974655289818 70.12
12.989434858002571 70.9989
13.011878055298721 71.4685
13.034339260862497 72.5564
13.056800969391883 74.0234
13.079245674017244 76.5953
13.101708390774869 78.2087
13.12415410463411 82.1488
13.146617833206086 92.4064
13.169064559883248 107.516
13.191529303857127 125.34
13.213994557076367 146.83700000000002
13.236442809902437 178.43900000000002
13.258909083908291 226.77200000000002
13.28135835851934 289.002
13.30382565690295 362.965
13.326293469022952 428.045
13.348744283242008 441.908
13.371213125129904 380.30800000000005
13.39366497011003 279.697
13.416134845360597 184.321
13.438605238843131 127.336
13.46105863690397 102.575
13.483530069144786 98.8553
13.505984506951902 106.89
13.528456981549432 119.399
13.550929978879088 134.99200000000002
13.573385983253365 155.494
13.595860028340867 187.685
13.618317081455832 235.387
13.64079217790333 293.81
13.663250283359057 354.843
13.685726434770173 387.974
13.708203115221277 359.48800000000006
13.730662806148091 288.221
13.75314054697177 204.623
13.775601299246777 138.18
13.798080104050406 100.04
13.820559442405358 84.6151
13.843021793671388 79.2486
13.865502201420897 77.2333
13.887965623051947 76.6352
13.910447103807167 75.4131
13.932929122629764 74.5455
13.955394156785959 73.9576
13.977877254034569 73.3416
14.000343367582113 72.6837
14.022827546871707 72.196
14.045294743423524 71.3227
14.06778000837062 70.7814
14.090265817715476 70.9108
14.112734645763819 71.6608
14.13522154619454 73.8702
14.157691466286913 75.8243
14.180179461423874 76.03699999999999
14.202668005486178 73.9807
14.22513957064374 71.0328
14.247629214846473 68.8635
14.270101881097517 67.935
14.29259262906496 67.2953
14.315083930490205 67.2748
14.337558255389705 67.3403
14.360050666019726 67.0571
14.382526101071944 66.6495
14.405019624534942 66.3711
14.427513705993134 66.09899999999999
14.449990813291825 66.1306
14.47248601302899 66.1116
14.49496423954951 66.1199
14.517460561197822 66.33800000000001
14.539939910570322 66.0695
14.562437357763558 66.4788
14.58493536931253 66.6471
14.607416409993311 66.3252
14.62991555254159 66.6786
14.652397725157423 66.8445
14.674898002342799 67.1954
14.697398848433282 67.2088
14.719882725991326 68.0377
14.74238471217934 68.2863
14.764869730765593 70.4071
14.787372860692983 74.0363
14.809876564079925 80.6307
14.83236330125751 88.244
14.854868153850365 96.7984
14.877356041159485 109.235
14.899862046604186 125.02600000000001
14.922351087688757 147.442
14.944858249632887 177.653
14.967365991421232 207.66299999999998
14.989856770231246 226.57299999999998
15.012365673994204 227.60299999999998
15.03485761569738 200.032
15.05736768508665 160.465
15.07987833888692 122.009
15.102372032001655 93.4962
15.124883856909658 77.0172
15.14737872204565 71.0463
15.169891721717274 68.6455
15.192405310371893 67.9961
15.214901940621196 67.1144
15.237416709527137 66.367
15.259914520936249 66.2287
15.282430473753607 65.6406
15.304947020131227 65.0388
15.327446610371178 64.7101
15.349964346154254 64.664
15.372465126703139 64.2283
15.394984055556009 63.9035
15.417486030076159 63.9266
15.44000615566487 63.5575
15.462526881230803 63.4012
15.485030653812652 63.2542
15.507552581617434 63.0302
15.530057557334603 63.0903
15.55258069104857 63.1392
15.575104429329837 63.6467
15.597611216864632 63.3545
15.620136166564563 63.4685
15.6426441664095 63.7353
15.665170331202765 64.889
15.687697105158826 68.2131
15.710206930593545 73.3915
15.732734925158933 79.0119
15.755245972089478 85.9173
15.77777519094324 93.7303
15.800287463046663 104.91799999999999
15.822817909869592 121.728
15.84534897229804 142.455
15.867863089299354 168.486
15.890395385222186 189.63099999999997
15.912910736597423 201.265
15.935444269699861 190.84599999999998
15.957978423016485 167.847
15.980495633101265 132.84
16.003031029129367 102.665
16.02554948280019 80.9338
16.048086125229432 69.2167
16.070623392487107 64.7527
16.09314371869582 62.9772
16.11568223789321 61.3556
16.13820381691126 59.9533
16.160743591742527 58.8432
16.183283996022084 58.2427
16.205807461423195 57.3062
16.228349126881973 56.5966
16.25087385432698 56.6267
16.27341678466365 56.2035
16.29594277784926 55.9256
16.31848697676433 55.4773
16.341031811604868 55.1702
16.36355971058487 55.2075
16.3861058195587 55.0401
16.40863499352978 54.2693
16.431182380342005 54.0135
16.453730407713202 53.8111
16.476261501364792 53.4243
16.498810812136167 53.2744
16.52134319004079 53.4791
16.54389378792203 53.3302
16.566445031001553 53.1177
16.588979342490088 53.0027
16.61153187824822 52.9996
16.634067483263312 52.7121
16.656621315414416 52.7322
16.679175797408888 52.4718
16.701713349928728 52.4297
16.72426913389191 52.7517
16.74680798922351 52.6449
16.76936507887444 52.6388
16.791905240734874 52.5318
16.814463639794468 52.3907
16.837022695210294 52.5638
16.859564824093756 52.8173
16.882125194503903 52.9846
16.904668639217885 53.4871
16.927230328348003 53.8849
16.949792678493612 54.217
16.972338104193863 54.0488
16.994901778652235 53.806999999999995
17.017448529496576 53.8631
17.040013531998152 53.6435
17.06257920018044 53.9037
17.0851279459922 54.7451
17.107694947817667 55.8325
17.130245028099072 56.9152
17.15281336730298 58.2789
17.17536478578733 59.9646
17.19793446610687 61.832
17.220504818648422 64.5019
17.243058251703697 67.6767
17.265629950971032 72.2338
17.288184731571736 77.2148
17.310757781306908 81.5277
17.33333150794385 82.74600000000001
17.355888317140174 82.5093
17.37846339986244 78.3594
17.401021565958885 71.8661
17.42359800851343 65.6534
17.44617513265564 61.41
17.468735341390783 58.7042
17.491261035594565 57.4725
17.51396340099364 57.0632
17.536490463869136 57.1959
17.559018209820174 57.0309
17.58154663977963 57.2214
17.604251766089718 57.4204
17.626781572227713 57.5357
17.64931206518155 57.7076
17.671843245885103 58.0327
17.69455114821572 58.1884
17.717083712612634 58.7268
17.739616967569667 59.1804
17.762150914021706 59.9735
17.78486160749854 60.25
17.807396945166804 60.7528
17.829932977143503 60.9694
17.85246970436452 61.6696
17.875183204129467 63.2468
17.897721330097664 66.1369
17.920260154126645 69.6485
17.942799677153296 73.1058
17.9655159983646 77.0888
17.988056927677544 81.3923
18.010598558807683 88.1569
18.033140892692916 97.2033
18.05586005052525 108.76899999999999
18.07840379824407 120.98100000000001
18.10094825154059 132.797
18.12366954819864 141.76
18.146215420998306 143.406
18.16876200220057 137.013
18.191309292745153 123.209
18.214033452627167 108.544
18.236582170236648 95.544
18.259131600016456 87.7828
18.281681742907335 85.3094
18.304408781233683 88.7067
18.32696035875955 93.9437
18.349512652227624 99.3892
18.372065662579683 105.044
18.394795594587553 107.024
18.41735004715306 104.72399999999999
18.43990521943684 98.0526
18.46246111238171 89.256
18.485193953325208 78.9843
18.507751296070428 70.8684
18.530309362314178 65.4331
18.552868153000343 62.8933
18.57560391815056 61.1579
18.59816416623245 60.5412
18.620725141597372 60.0498
18.643286845190268 59.3248
18.666025549835414 58.7319
18.688588718427933 58.1426
18.711152618092243 57.9244
18.73389353884365 57.6498
18.75645890921984 56.9276
18.77902501351406 56.8691
18.801591852673102 56.8242
18.824335739722738 56.2827
18.846904057212626 56.2904
18.8694731124168 55.9452
18.89204290628315 56.0278
18.914789774966803 55.8662
18.937361054791623 55.4312
18.959933076131318 55.3623
18.982505839934877 55.3771
19.00525570560582 55.1958
19.027829963004184 54.8754
19.05040496572238 55.058
19.072980714710468 54.9198
19.095733592739563 54.8065
19.11831084296757 55.1438
19.140888842324735 55.8277
19.16346759176222 56.1496
19.18622349753803 56.9308
19.208803755869358 57.8084
19.231384767143577 59.0546
19.253966532312948 60.2473
19.276725481241822 62.6106
19.29930876296784 65.5839
19.3218928014549 68.85
19.34465404436217 71.9972
19.36723960516257 74.6566
19.389825925592426 75.9295
19.412413006605938 74.9467
19.43517731967805 72.1835
19.457765930683355 67.7267
19.48035530514408 63.2031
19.50294544401556 59.2205
19.525712842708348 55.8458
19.54830451925909 54.2803
19.570896963095727 52.7693
19.593490175174704 52.516000000000005
19.616260674962184 52.3577
19.638855432416964 51.82
19.661450960992624 52.1685
19.68404726164677 51.8566
19.706820878021247 51.6275
19.729418731756834 51.8083
19.752017360452857 51.7305
19.77461676506804 51.7385
19.797393513540218 51.6599
19.819994478951667 51.9412
19.84259622316767 52.4221
19.8651987471481 52.9976
19.887978643247177 53.5516
19.91058273574792 54.0894
19.933187610901943 54.8474
19.955969879466828 56.1649
19.97857632894404 57.1598
20.00118356396599 58.6763
20.023791585494575 60.8397
20.046577028914875 63.7488
20.069186632506966 66.34
20.091797025500632 68.8992
20.114408208858933 70.5038
20.137196842715273 70.6618
20.159809615886765 68.9894
20.18242318232135 66.3532
20.20503754298326 63.8498
20.227829382875154 62.1497
20.250445341109344 61.592
20.27306209647285 62.136
20.29567964993108 63.4834
20.31847471147704 64.5059
20.34109387027612 65.2408
20.363713830075454 65.2637
20.386334591841646 63.9631
20.409132890679302 61.3911
20.431755265564437 58.0037
20.454378445325528 55.2178
20.477002430930366 52.7483
20.499803982716553 51.1721
20.522429589228004 49.9393
20.54505600449589 49.3441
20.567683229489194 49.1674
20.590488049900088 48.9114
20.61311690359731 48.6206
20.63574656993626 48.5806
20.658553853717297 48.2885
20.681185154618298 48.3961
20.703817271080066 48.2297
20.72645020407368 47.9219
20.749260783967177 47.9909
20.771895359337133 48.0248
20.794530754161617 48.0323
20.817166969412938 47.8434
20.83998086114876 47.9624
20.86261872660049 47.6472
20.885257415405402 47.6289
20.90789692853701 47.4056
20.930714147864748 47.1668
20.953355319030678 47.195
20.97599731745334 47.3206
20.99864014410749 47.0509
21.021460706796564 47.3606
21.044105199328826 47.6398
21.06675052302631 47.8446
21.089396678865015 47.8343
21.112220600704806 48.0999
21.134868430275347 48.446000000000005
21.15751709492456 48.5744
21.180166595629693 48.8117
21.202993892429635 49.5286
21.22564507473034 50.1339
21.24829709602816 50.4466
21.27112693608965 50.4353
21.293780644891275 50.5909
21.316435195634053 49.8549
21.339090589297417 48.925
21.361923832041875 48.3488
21.384580921090404 47.9239
21.407238856007325 47.4107
21.429897637773326 47.2917
21.45273429906592 47.3379
21.475394784108598 47.1783
21.498056118951983 47.016999999999996
21.520718304578022 47.1275
21.543558400304388 47.2881
21.566222297108816 47.472
21.58888704765135 47.4251
21.61155265291521 47.6761
21.63439619898156 48.3318
21.657063523335786 48.7027
21.67973170537063 49.3327
21.7024007460706 49.9701
21.72524775840385 50.638999999999996
21.747918526116475 51.7294
21.770590155457388 52.5916
21.79326264741238 54.0596
21.816113141960237 55.8617
21.838787368860547 57.7878
21.861462461341976 60.0954
21.884315579735777 62.5356
21.90699241312273 64.31
21.92967011506078 65.3613
21.95234868653799 65.1143
21.9752053151131 63.7554
21.997885635446785 61.8329
22.020566828293532 59.6454
22.04324889464272 57.7685
22.066109049404666 56.3489
22.088792872571794 55.7352
22.111477572219204 55.8365
22.1341631493376 56.0697
22.157026846313123 55.9692
22.179714188221507 55.3685
22.202402410582668 54.2221
22.22509151438863 52.5835
22.24795876962584 51.0333
22.270649646204486 49.9819
22.293341407213727 49.0225
22.316034053646906 48.3089
22.338904883215342 47.8109
22.36159931041458 47.7805
22.38429462602756 47.6192
22.40699083104897 47.3347
22.429865251039757 47.3265
22.452563244831367 47.3783
22.47526213102522 47.4551
22.49813925616515 47.2735
22.520839937143307 47.2724
22.543541513520587 47.3396
22.56624398629403 47.2872
22.589124730075895 47.434
22.611829005656723 47.5056
22.63453418063466 47.4022
22.657240256008077 47.4846
22.680124634582935 47.8587
22.70283252079775 48.3062
22.725541310413075 48.4832
22.74825100442868 48.8702
22.771139033969575 49.3461
22.79385054687155 49.7185
22.81656296718292 50.2308
22.83927629590484 51.0475
22.862167992606945 52.0402
22.88488314827121 53.2125
22.907599215359284 54.1946
22.93031619487366 55.6606
22.953211574954405 56.6814
22.975930389478226 57.6678
22.998650119445763 58.1329
23.02137076586092 57.6144
23.044269845560063 56.3407
23.06699233506288 54.5431
23.089715744034912 52.5878
23.112617610931565 50.9426
23.135342869061212 49.4341
23.158069049684816 48.4031
23.1807961538087 47.9504
23.20370174880544 47.7879
23.226430710184808 47.7306
23.249160598093425 47.6524
23.271891413539002 47.6416
23.294800752937697 47.7772
23.31753343374794 48.1407
23.340267045128353 48.3883
23.36300158808808 48.9212
23.38591468821339 49.2651
23.408651104658304 49.7087
23.431388455719986 50.2104
23.454126742409 50.9477
23.4770436196085 52.0505
23.499783787914662 53.3857
23.522524894889884 54.3621
23.54526694154616 55.6311
23.56818761219047 57.1085
23.59093154860734 57.9998
23.613676427751283 58.506
23.636422250635754 57.6955
23.659346731118656 56.3135
23.68209445191868 54.4743
23.704843119509587 51.8709
23.72759273490623 49.9046
23.750521041644767 48.3534
23.77327256312355 46.7782
23.796025035462787 45.9652
23.818956224555475 45.2512
23.841710609113413 45.0433
23.86446594758979 44.8463
23.887222241002014 44.5537
23.910157285144578 44.159
23.932915498962537 44.2033
23.955674670778713 44.0384
23.978434801611975 43.9146
24.001373717286125 43.6463
24.024135776723917 43.5754
24.046898798245582 43.4985
24.06966278287146 43.369
24.092605586582614 43.2018
24.115371508023642 43.0648
24.1381383956401 42.8417
24.16090625045381 42.8857
24.183852958731244 42.7662
24.206622758582608 42.7025
24.229393528706886 42.3967
24.252165270127392 42.5321
24.27511589952438 42.5695
24.297889594216997 42.306000000000004
24.32066426328598 42.2106
24.34343990775613 42.297
24.36639447485003 41.9652
24.38917208083877 42.0552
24.41195066531332 41.9163
24.43490819850244 42.0181
24.457688750692377 41.9071
24.48047028445616 42.0513
24.503252800821233 42.0473
24.526214300784112 42.1719
24.548998793132213 42.1418
24.57178427117417 41.941
24.59457073593893 42.1402
24.617536219319863 42.1315
24.64032466834748 42.1382
24.663114107195035 41.9119
24.685904536893013 41.6646
24.708874020360852 41.5097
24.731666442613744 41.4946
24.754459858818787 41.3528
24.777254270007962 41.2848
24.80022777025625 41.1301
24.82302418230472 41.0723
24.845821592443674 41.1462
24.86862000170663 41.202
24.891597535453727 41.1559
24.914397953892728 41.3233
24.93719937456671 41.2389
24.96000179851076 41.3126
24.98298338249997 41.6368
25.00578782394922 41.68600000000001
25.028593271784167 41.8688
25.05157790644186 42.3009
25.07438537804115 42.5
25.097193859145293 42.8395
25.120003350792075 43.128
25.142992065061257 43.5507
25.165803588823465 43.7686
25.18861612625217 43.9951
25.211429678386736 44.0632
25.234422489079968 44.305
25.257238081693636 44.397
25.280054692141732 44.4287
25.3028723214652 44.5002
25.325869245420463 44.4642
25.348688923599397 44.6613
25.371509623787006 44.5539
25.394331347025812 44.2221
25.41733240110666 43.7318
25.440156181590016 43.1132
25.46298098826268 42.5552
25.48580682216873 41.9204
25.50881202326435 41.2434
25.53163992281684 40.7438
25.55446885274561 40.3911
25.577298814096377 40.2368
25.600308179121807 39.9033
25.623140214533745 40.0907
25.64597328451537 39.9233
25.66898578564376 39.5396
25.691820936010206 39.5576
25.714657124097695 39.5643
25.737494350954734 39.6162
25.760511045684957 39.59
25.783350361364224 39.6318
25.806190718969255 39.6279
25.82903211955018 39.7596
25.852053024868923 39.8821
25.874896522722523 39.8496
25.897741066713106 39.7467
25.920586657892454 39.9147
25.943611790812668 40.1175
25.966459487728237 40.135
25.989308234998564 40.2299
26.01215803367705 40.5514
26.03518741123814 40.7676
26.05803932412957 40.8958
26.080892291600094 40.8457
26.10374631470478 41.0241
26.12677995397268 41.1526
26.14963609978026 41.3462
26.172493304397875 40.9602
26.19535156888223 40.8087
26.218389486949604 40.2917
26.241249882640123 39.8361
26.26411134137826 39.5964
26.28715248187403 39.4441
26.31001607820869 39.2639
26.3328807407756 39.1897
26.35574647063438 39.2476
26.37879191991473 39.1894
26.401659795896734 39.3928
26.424528742360263 39.6368
26.447398760366614 39.7002
26.470448535598294 39.8194
26.49332070826805 39.8703
26.516193955675355 40.2581
26.53906827888316 40.4499
26.562122397260108 40.8092
26.584998883685063 41.1806
26.607876449110325 41.4144
26.63075509460056 41.6906
26.65381357334404 41.7842
26.67669439061878 41.8259
26.699576291163382 41.8086
26.722459276044212 41.7662
26.745522132402975 41.3641
26.768407297649354 41.1803
26.791293550442003 40.7042
26.814180891848974 40.4149
26.837248143099337 40.0171
26.860137673466657 40.036
26.88302829566349 39.7941
26.90592001075963 39.5969
26.92899167420566 39.4126
26.951885586870763 39.0358
26.974780595655517 38.7244
26.99785558178161 38.6561
27.020752794605112 38.4446
27.043651106772522 38.163000000000004
27.06655051935668 38.139
27.089629948036183 38.1455
27.112531573292053 38.0397
27.135434302194138 37.9946
27.158338135817015 37.8486
27.181422024430987 37.9218
27.204328079372566 37.759
27.22723524226965 37.8082
27.250143514198573 37.9865
27.273231880156334 37.762
27.296142382065014 37.7222
27.319053996245536 37.7497
27.341966723775965 37.7489
27.365059584515222 37.7667
27.38797455070062 37.7181
27.410890633481237 37.6485
27.433807833936918 37.6178
27.456905206923906 37.9044
27.47982465472398 37.9253
27.502745223449743 37.9849
27.525666914182825 37.982
27.548768816912457 37.9527
27.571692763693633 37.876999999999995
27.59461783573812 37.7578
27.617723149491244 37.5945
27.640650484125285 37.5332
27.66357894728264 37.4698
27.686508540048052 37.4677
27.709618414237887 37.3885
27.732550278321757 37.2826
27.755483275279115 37.211
27.778417406196485 37.3868
27.801531858397514 37.404
27.824468269376716 37.1664
27.847405817586786 37.1546
27.870344504116094 37.3578
27.893463551932008 37.5182
27.916404527281053 37.7172
27.93934664422563 37.8242
27.962289903855886 37.9284
27.98541356491974 38.3573
28.00835912214229 38.3515
28.03130582533231 38.6718
28.054253675581805 38.7322
28.077381967556104 38.8542
28.100332124185126 38.833
28.123283431160893 38.6313
28.146235889577238 38.6956
28.169368830154156 38.5406
28.192323603752033 38.3063
28.215279532083304 37.8418
28.238415973016764 37.703
28.261374223145094 37.4878
28.284333631303806 37.2228
28.307294198589954 37.1715
28.330435319167677 36.786
28.353398217078915 36.5054
28.376362277420153 36.1976
28.39932750129032 35.9912
28.422473319286713 35.9004
28.44544088262495 35.7398
28.468409612800283 35.54
28.491379510913497 35.3102
28.51453004413313 35.3425
28.53750229057244 35.2234
28.56047570826344 35.3503
28.583450298308804 35.2153
28.606605564586562 34.8889
28.629582511831156 35.0892
28.65256063474956 35.04
28.675539934446338 35.0245
28.698699951647605 34.8702
28.72168161743193 34.7908
28.74466446331978 34.7682
28.767648490417624 34.7947
28.790813276438353 34.7822
28.813799678527303 34.7613
28.836787265157085 34.726
28.859955641890075 34.8189
28.882945610203045 34.773
28.905936766392035 34.6323
28.928929111566863 34.821
28.952102288520145 34.6314
28.975097024308607 34.597
28.998092952423807 34.5216
29.021090073977508 34.3821
29.04426806913204 34.2044
29.067267590245258 34.0775
29.090268308143695 33.9544
29.11327022394099 33.8436
29.13645305530891 33.8675
29.159457379627167 33.8135
29.18246290519685 33.6683
29.20546963313352 33.622
29.22865731875826 33.6779
29.25166646419296 33.7324
29.27467681535305 33.6239
29.29768837335608 33.6855
29.320880931312562 33.6769
29.34389491580634 33.6082
29.366910110507334 33.7173
29.38992651653503 33.716
29.41312396492981 33.677
29.436142806456754 33.7167
29.45916286268059 33.4785
29.48236399319994 33.3466
29.50538649169417 33.3712
29.528410208259935 33.1166
29.55143514402014 32.9208
29.574641196749695 32.9596
29.597668583816574 32.7944
29.6206971934585 32.5437
29.64372702680042 32.575
29.666938019934474 32.4395
29.689970313635285 32.2944
29.713003834422636 32.2791
29.73603858342347 32.2739
29.759254535188578 32.2181
29.78229175361658 32.1037
29.80533020365064 32.2019
29.82836988641968 32.22
29.85159081507472 32.1351
29.874632976355343 32.086999999999996
29.89767637376955 32.1754
29.920721008448314 31.9633
29.9439469322847 31.9521
29.96699405457564 32.0069
29.9900424175358 31.9689
30.013092022298157 31.8809
30.03632295963995 31.8287
30.059375061131373 31.8587
30.08242840783577 31.9353
30.105483000888153 31.8627
30.128718970092244 31.747
30.151776069006917 31.7205
30.17483441768648 31.7922
30.198074175317235 31.933000000000003
30.221135036724256 31.8124
30.24419715131772 31.7505
30.267260520236203 31.6708
30.290505341942243 31.7288
30.313571232750228 31.8224
30.336638381310948 31.7715
30.35970678876503 31.6218
30.38295669299435 31.4916
30.40602763151657 31.6169
30.429099832366074 31.6167
30.452173296685572 31.5323
30.47542830191959 31.4103
30.498504306502497 31.4723
30.521581577995562 31.4828
30.544660117543582 31.6793
30.56792024229725 31.590999999999998
30.59100133132069 31.5193
30.614083691845494 31.5911
30.637167325018545 31.6469
30.660432587840603 31.6309
30.683518779717886 31.7179
30.70660624769615 31.7719
30.729694992924372 31.9048
30.75296541239743 31.8647
30.77605672557558 31.8116
30.799149319462742 31.7032
30.8224236211637 31.5151
30.845518789950724 31.4675
30.868615242910597 31.5047
30.891712981195973 31.2859
30.91499247215866 31.1661
30.938092794619365 31.0713
30.96119440587579 31.0824
30.984297307082752 30.9521
31.00758200598383 30.8561
31.030687500658694 30.8031
31.053794288760695 30.695
31.076902371446767 30.6587
31.100192296997445 30.6449
31.12330298246119 30.5102
31.14641496599209 30.4323
31.169528248749216 30.4579
31.19282341969534 30.3379
31.215939314557186 30.4286
31.239056512134788 30.4281
31.262175013589378 30.4695
31.28547544871168 30.5067
31.30859657161541 30.2931
31.331719001892175 30.2686
31.35484274070538 30.3879
31.378148458819545 30.4585
31.401274828443725 30.4033
31.424402510106933 30.3472
31.447712205419993 30.4343
31.470842524931633 30.344
31.493974159989783 30.4058
31.51710711176168 30.3068
31.54042212308802 30.3651
31.563557722100917 30.3774
31.586694641341655 30.249000000000002
31.609832881979628 30.065
31.63315322823208 30.0553
31.656294125521327 29.8515
31.679436347728515 29.8484
31.70257989602529 29.8563
31.725905596152327 29.8173
31.74905181052835 29.6317
31.772199354521323 29.7289
31.79534822930507 29.6709
31.818679302290967 29.6634
31.84183085259981 29.6262
31.864983737233473 29.6874
31.88813795736804 29.7415
31.911474422233013 29.5882
31.934631327356435 29.6563
31.9577895715215 29.5894
31.980949155906522 29.499000000000002
32.004291031706956 29.5954
32.027453310562606 29.5385
32.05061693318573 29.4724
32.07396288236386 29.3737
32.09712920658542 29.3204
32.12029687812702 29.1849
32.14346589817093 29.0949
32.166817291729984 29.1205
32.18998902288583 29.0241
32.21316210610336 28.915
32.23633654256711 28.8299
32.259693399663725 28.7551
32.282870556771144 28.6627
32.30604907069099 28.7092
32.329228942610065 28.6422
32.35259128243769 28.3561
32.375773884550505 28.4598
32.398957848235646 28.4313
32.422143174682176 28.3474
32.445511016471215 28.2377
32.468699082679954 28.1973
32.49188851523011 28.0895
32.51507931531304 28.0756
32.538452678331 28.1856
32.56164622776311 28.0601
32.58484114831493 27.943
32.60803744118015 28.0526
32.631416344731896 27.9652
32.654615396551876 27.8581
32.67781582427913 27.8851
32.701198898634416 27.7713
32.72440209253756 27.7998
32.747606665947124 27.8531
32.77081262006088 27.7135
32.79420126883317 27.5368
32.81740999876112 27.6666
32.840620112999424 27.6328
32.86383161274818 27.5671
32.88722585534586 27.6219
32.91044014056596 27.6407
32.933655814909734 27.4838
32.95687287957963 27.5032
32.98027273544904 27.4539
33.00349259526636 27.4404
33.026713849030116 27.4345
33.04993649794511 27.331999999999997
33.073341986570746 27.3241
33.09656744032826 27.3055
33.11979429286444 27.2907
33.14302254538647 27.3812
33.166433686291185 27.313000000000002
33.18966475336992 27.2879
33.212897224069096 27.1531
33.23613109959831 27.2243
33.259547912343415 27.1583
33.2827846121627 27.2213
33.306022720453775 27.0998
33.32926223842861 26.9896
33.352684742614166 27.0279
33.37592709463173 26.936
33.399170859982064 26.8568
33.422597648419426 26.7964
33.44584425514446 26.6296
33.46909227885668 26.735
33.4923417207723 26.5907
33.51577423505344 26.5752
33.539026528130385 26.4211
33.56228024307245 26.4008
33.585535381098246 26.2985
33.60897364093058 26.3402
33.63223163992385 26.2582
33.6554910656699 26.1917
33.678751919389796 26.2046
33.702195944520106 26.1242
33.72545966903325 26.1638
33.74872482519663 26.1456
33.771991414233746 26.1206
33.79544122444841 25.9801
33.81871069412428 25.8338
33.84198160035767 25.8449
33.86525394437455 25.9863
33.88870955949969 25.9086
33.911984794020626 25.8447
33.93526147001624 25.8593
33.958539588715006 25.7866
33.98200102861669 25.7542
34.0052820477047 25.6067
34.02856451319451 25.6861
34.05203033759056 25.5926
34.07531571090147 25.5089
34.09860253431845 25.4523
34.121890809074316 25.3428
34.145362493118924 25.3652
34.16865368561615 25.3852
34.191946333164054 25.3277
34.21524043699793 25.355999999999998
34.23871800066799 25.3463
34.26201503218366 25.2637
34.28531352370466 25.2522
34.30861347646881 25.136
34.33209693978188 25.0767
34.3553998301885 25.0995
34.378704185565205 24.9612
34.402010007152356 24.9292
34.42549939016683 25.0054
34.44880815937748 24.9336
34.472118398533134 24.8503
34.49543010887669 24.7801
34.51892543169198 24.6044
34.54224009966052 24.6187
34.56555624255917 24.6752
34.58887386163339 24.6239
34.61237514439016 24.5533
34.6356957311114 24.5541
34.65901779775809 24.4999
34.68252356662995 24.4535
34.705848608458616 24.3884
34.72917513396849 24.3914
34.75250314440949 24.3664
34.77601490857862 24.3107
34.799345904259795 24.239
34.82267838863559 24.1911
34.846012362958525 24.2596
34.869530142679984 24.2462
34.89286711232212 24.1468
34.91620557568269 24.1839
34.93954553401677 24.104
34.9630693495876 24.0515
34.986412313340814 24.1075
35.00975677584668 24.0675
35.033102738362956 23.9305
35.05663261012228 23.8803
35.0799815881786 23.9758
35.10333207003229 23.8824
35.12668405694369 23.8407
35.150220005273056 23.8365
35.17357501786656 23.7902
35.19693153931268 23.7538
35.220289570874385 23.8054
35.24383161619786 23.7761
35.267192683604904 23.7827
35.290555264930376 23.6893
35.314101899412165 23.7115
35.33746752422433 23.5815
35.36083466676374 23.656999999999996
35.38420332829803 23.6408
35.407756095629054 23.5684
35.43112781085063 23.6256
35.45450104888391 23.5487
35.477875810999194 23.5196
35.50143473172161 23.4723
35.52481255774625 23.5281
35.54819191167777 23.4406
35.57157279478914 23.4332
35.595137889488406 23.3985
35.61852184675279 23.3265
35.641907337029984 23.3248
35.665294361595684 23.1634
35.68886565090076 23.1507
35.7122557598848 23.2354
35.73564740699838 23.1708
35.759040593519934 23.0832
35.78261809810353 23.1003
35.80601437933051 23.0001
35.829412203814705 22.9843
35.85281157283719 22.8846
35.876395313415884 22.9341
35.8997977874528 22.7758
35.92320180988546 22.789
35.946790244133936 22.7543
35.97019737933222 22.8187
35.993606066789866 22.7577
36.01701630779276 22.7067
36.04061101440684 22.6556
36.06402437852291 22.6078
36.08743930005611 22.6309
36.1108557802951 22.5078
36.13445678011326 22.5511
36.15787639383515 22.4959
36.18129757014299 22.5071
36.20472031032821 22.3841
36.22832762423364 22.285999999999998
36.25175350829375 22.3953
36.275180960119776 22.263
36.298609981005924 22.2948
36.32222362992669 22.2559
36.34565580510207 22.2518
36.36908955323448 22.2348
36.39252487562093 22.0549
36.416144880530226 22.0684
36.43958336764275 22.0599
36.463023432914625 22.0132
36.486465077645676 22.0832
36.51009145956204 22.0758
36.53353627947859 22.0585
36.55698268276811 22.0013
36.58043067073321 21.9745
36.60406345072071 21.7681
36.62751462435344 21.8366
36.65096738658405 21.8197
36.67460498210655 21.7324
36.69806093788647 21.7767
36.72151848619297 21.6844
36.744977628333636 21.6826
36.76862165890998 21.6331
36.79208400512205 21.6354
36.81554794910557 21.6533
36.83901349217101 21.5277
36.862663978991606 21.3899
36.88613273667352 21.4046
36.90960309738324 21.5004
36.933075062434064 21.3674
36.95673202673572 21.3029
36.98020721697122 21.2027
37.003684015502365 21.2352
37.027162423645365 21.2371
37.050825886711465 21.2331
37.07430753063053 21.1029
37.09779078812467 21.1858
37.121275660513014 21.146
37.144945643673694 21.0584
37.16843376245278 21.0122
37.19192350009803 21.0066
37.215414857931435 21.0228
37.239091382563885 20.9258
37.262585997426164 20.9086
37.28608223645736 20.8971
37.309763684451696 20.901
37.33326318851098 20.7552
37.356764320726555 20.7911
37.380267082425526 20.7995
37.40395510942588 20.7631
37.42746114683234 20.6774
37.45096881771841 20.6389
37.474478123414166 20.6489
37.49817275092816 20.5721
37.52168534303452 20.5594
37.54519957395567 20.5252
37.568715445024665 20.526
37.592416694607714 20.4466
37.61593586281424 20.5229
37.63945667518264 20.5418
37.66297913304891 20.311
37.68668702630454 20.2953
37.710212792059274 20.2681
37.733740207334854 20.2243
37.757269273470364 20.1599
37.780983832050374 20.2017
37.80451621684926 20.1974
37.82805025654007 20.1286
37.851585952464795 20.1055
37.8753071980695 20.0289
37.89884622345676 20.0028
37.92238690911902 19.9712
37.94611318753442 19.8862
37.969657210779765 19.9107
37.99320289834801 19.9166
38.016750251586465 19.8272
38.04048325513017 19.8
38.06403395679343 19.7769
38.087586328183946 19.7794
38.11114037065203 19.7475
38.13488012115898 19.7265
38.1584375229181 19.6388
38.181996599821 19.6291
38.205557353221124 19.6115
38.229303872575656 19.6091
38.2528679961576 19.6316
38.27643380031219 19.5084
38.30000128639589 19.4708
38.32375459653193 19.5176
38.34732546371299 19.4866
38.37089801690786 19.3838
38.39447225747609 19.2897
38.418232380377425 19.3564
38.441810012983396 19.344
38.46538933705673 19.250999999999998
38.488970353960084 19.3304
38.51273731166058 19.2952
38.536321731567014 19.1546
38.55990784840681 19.1648
38.58367995004091 19.1445
38.60726947812959 19.1494
38.63086070726198 19.1246
38.654453638806274 19.1257
38.678232613930824 18.9997
38.70182896773327 18.984
38.72542702806741 18.9412
38.7490267963045 18.9048
38.77281266709232 18.9288
38.79641586862214 18.8879
38.8200207821842 18.8176
38.843627409152944 18.8072
38.86742019782782 18.8453
38.891030269149255 18.7049
38.914642058016156 18.6846
38.938255565806124 18.6808
38.96205529464307 18.6406
38.98567225787121 18.628
39.00929094417078 18.6378
39.03291135492255 18.6056
39.05671804624804 18.6037
39.080341923549106 18.5362
39.103967529460334 18.5521
39.127594865365744 18.4147
39.15140854155791 18.3777
39.17503935514948 18.3983
39.19867190290282 18.3743
39.22249083587951 18.2512
39.24612686969409 18.345
39.269764641845306 18.3113
39.293404153722804 18.2558
39.317230110864074 18.1648
39.34087311998506 18.1287
39.36451787301696 18.1698
39.388164371352595 18.1286
39.41199737518003 18.0863
39.43564738196752 18.0633
39.45929913825317 18.0367
39.48295264543308 17.977
39.506792718520884 17.9923
39.530449745387216 17.9061
39.55410852735203 17.8718
39.57776906581474 17.9178
39.60161623079 17.8884
39.625280300200025 17.8308
39.64894613032202 17.7836
39.67261372255866 17.7354
39.6964680021016 17.7488
39.72013913657293 17.7262
39.74381203738292 17.6894
39.76748670593756 17.6601
39.79134812278169 17.6998
39.81502634488497 17.6406
39.83870633896685 17.5767
39.862388106436654 17.5581
39.88625668336918 17.5792
39.90994201572829 17.4831
39.933629125719285 17.476
39.957503091207826 17.4578
39.9811937746168 17.4984
40.00488623990914 17.4199
40.02858048850006 17.3664
40.05246165409549 17.2868
40.076159487492085 17.2943
40.099859108448875 17.3413
40.123560518384345 17.2853
40.1474489070226 17.2027
40.171153913178564 17.1425
40.194860712584955 17.1763
40.2185693066637 17.1588
40.242464941335314 17.0807
40.26617714307655 17.0902
40.289891143772046 17.1058
40.3136069448471 17.0656
40.33750984859743 17.053
40.3612292688043 16.9525
40.3849504936829 16.9122
40.40867352466194 16.9134
40.43258372059144 16.8924
40.45631038219906 16.9061
40.48003885420956 16.8428
40.503769138055105 16.8619
40.52768664931955 16.8234
40.55142057531802 16.8183
40.57515631746428 16.7605
40.599079334038514 16.708
40.62281872700477 16.6823
40.64655994043941 16.6393
40.67030297578061 16.6109
40.69423334835778 16.6192
40.71798004609188 16.5972
40.74172857006355 16.544
40.76547892171441 16.5499
40.7894166736039 16.5361
40.813170699248566 16.518
40.83692655691388 16.4631
40.86068424804498 16.4892
40.884629402612525 16.4359
40.908390779366385 16.4434
40.932153993938 16.3333
40.95591904777605 16.2689
40.979871628443995 16.3329
41.003640379561936 16.3189
41.02741097430883 16.2764
41.05118341413683 16.2516
41.075143444384416 16.1635
41.098919593177826 16.2201
41.1226975914255 16.242
41.14647744058318 16.1552
41.170444943946755 16.0561
41.19422851378379 16.089000000000002
41.218013938914645 16.0257
41.24198706625173 16.0183
41.26577622087193 16.0009
41.289567235177785 15.9361
41.31336011063129 15.946
41.337340752422875 15.8921
41.361137369129835 15.8683
41.38493585138705 15.8348
41.40873620066004 15.8108
41.43272438060107 15.8269
41.45652848292052 15.7632
41.48033445666918 15.7467
41.50414230331616 15.7008
41.528138045159764 15.6626
41.551949656675205 15.603
41.575763145513235 15.5816
41.59957851314666 15.5986
41.62358184070442 15.5353
41.64740098505737 15.562000000000001
41.6712220126409 15.5101
41.69504492493139 15.5004
41.71905586207357 15.4211
41.74288256296395 15.4919
41.766711153007456 15.4177
41.79054163368412 15.4232
41.814560204340054 15.3892
41.838394485526365 15.2922
41.86223066180303 15.305
41.88625497706819 15.2997
41.910094962812 15.2835
41.93393684811168 15.2495
41.95778063445365 15.1663
41.981812625263366 15.1638
42.00566023303407 15.1392
42.029509746323676 15.1499
42.05336116662236 15.1584
42.077400857069705 15.1688
42.10125611078846 15.1047
42.12511327600405 15.0488
42.14897235421036 15.05
42.173019768448455 15.0892
42.19688269209613 14.9412
42.22074753323349 14.9564
42.24461429335818 14.9629
42.268669455600495 14.8732
42.292540073217886 14.8443
42.31641261433284 14.8623
42.34028708044675 14.8215
42.36435001496739 14.819
42.38822835065557 14.8078
42.41210861586426 14.7745
42.4359908120986 14.7621
42.46006154323262 14.6996
42.48394762115317 14.6457
42.507835634632315 14.6777
42.531912233047436 14.6523
42.55580413732265 14.6402
42.579697981698 14.597999999999999
42.60359376768525 14.5307
42.62767820545945 14.5574
42.65157789440821 14.4947
42.67547952952185 14.4318
42.699383112316 14.4293
42.72347541395347 14.3629
42.74738291190531 14.3904
42.771292362102166 14.3687
42.795203766063516 14.3428
42.819303956130405 14.2955
42.843219287476536 14.2586
42.86713657716324 14.2424
42.89105582671383 14.2639
42.91516392983864 14.2193
42.939087119032166 14.1975
42.963012272677304 14.2044
42.98693939230129 14.1734
43.01105543317513 14.14
43.034986504731386 14.0953
43.05891954686589 14.1455
43.08285456110972 14.0995
43.10697856448665 13.9639
43.130917542983475 13.9571
43.15485849820081 14.0034
43.17880143167367 13.9808
43.20293342237094 13.9298
43.226880332449 13.9128
43.25082922540554 13.9519
43.27496722682525 13.8423
43.29892010567796 13.8511
43.32287497204102 13.8214
43.34683182745632 13.782
43.370977859791836 13.7588
43.39493871351105 13.7268
43.41890156092628 13.7286
43.44286640358341 13.725
43.46702049182749 13.6609
43.49098934522816 13.6472
43.51496019852649 13.6544
43.5389330532723 13.6372
43.56309522248204 13.5669
43.58707210044314 13.5502
43.61105098451946 13.4951
43.63503187626491 13.4807
43.659202151562134 13.4689
43.68318707902681 13.4575
43.70717401884041 13.4523
43.731162972560874 13.3764
43.75534137913236 13.3886
43.779334381108384 13.3875
43.803329401683186 13.3618
43.82732644241872 13.3565
43.8515130055166 13.3281
43.87551410707659 13.2938
43.89951723350145 13.265
43.923709934595614 13.2671
43.94771713129917 13.2325
43.97172635758096 13.2033
43.99573761501002 13.186
44.0199385169922 13.1567
44.04395385732619 13.1349
44.067971233533086 13.1321
44.09199064718605 13.0832
44.11619977548961 13.0354
44.14022328470671 12.9896
44.16424883610785 13.0192
44.18827643127035 13.0057
44.21249381139513 12.9794
44.236525514814076 12.9773
44.26055926674478 12.9676
44.28459506876863 12.9202
44.3088207262813 12.8545
44.33286064928722 12.8055
44.35690262714919 12.7667
44.38094666145278 12.7859
44.4051806219871 12.7636
44.42922879003185 12.777999999999999
44.45327901929361 12.7338
44.477331311362136 12.7281
44.501573600619416 12.6775
44.525630039221795 12.6337
44.54968854541895 12.6452
44.573937102200176 12.6705
44.5979997645541 12.6455
44.622064499300315 12.564
44.64613130803592 12.5678
44.67038823869318 12.558
44.69445921643748 12.5125
44.718532272981385 12.4799
44.742607409926194 12.4527
44.76687274034801 12.4525
44.79095205918753 12.4033
44.81503346325094 12.4187
44.839116954143876 12.3939
44.86339071028742 12.3438
44.88747839599524 12.3243
44.91156817336837 12.3281
44.93566004401666 12.2927
44.959942251908146 12.2393
44.984038330325966 12.1961
45.00813650686762 12.1993
45.03223678314731 12.2196
45.05652746888232 12.16
45.08063196592069 12.1367
45.104738567558705 12.1304
45.128847275414856 12.1346
45.15314646515866 12.0924
45.17725940679741 12.0622
45.20137445952892 12.0855
45.22568004865265 12.0722
45.24979934496396 11.9731
45.27392075725247 12.0121
45.29804428714431 11.991
45.322358426247604 11.9363
45.346486212804315 11.9315
45.370616121861914 11.8868
45.39474815505086 11.8963
45.41907087049246 11.8222
45.4432071734666 11.8216
45.46734560548283 11.8351
45.49148616817604 11.8281
45.51581748638564 11.7638
45.5399623320197 11.7516
45.56410931325473 11.7805
45.58825843173002 11.7371
45.61259837920865 11.7261
45.636751793816 11.7096
45.66090735060093 11.6724
45.68506505120716 11.5995
45.7094136545275 11.5702
45.73357566449271 11.5695
45.75773982322992 11.5578
45.78190613238733 11.58
45.806263418194064 11.5095
45.83043404997326 11.522
45.85460683713677 11.5069
45.87897065658495 11.4872
45.90314777634752 11.4892
45.92732705646868 11.4354
45.9515084986045 11.4396
45.97588104735473 11.382
46.00006683541565 11.4039
46.02425479047904 11.2991
46.04844491420549 11.2918
46.0728262191024 11.3771
46.09702070211635 11.3502
46.12121735879483 11.2993
46.14541619080294 11.2772
46.169806278764455 11.2309
46.194009483459034 11.2134
46.21821486849841 11.210999999999999
46.24242243555223 11.1668
46.266821333570014 11.1585
46.29103328674601 11.1299
46.31524742696538 11.1345
46.33946375590237 11.107999999999999
46.36387149104216 11.0829
46.38809221957392 11.0585
46.41231514186606 11.0223
46.436540259597464 10.9918
46.460956858999374 10.9675
46.48518638983522 10.9919
46.509418121166966 10.968
46.533652054678114 10.9085
46.55807754555709 10.8622
46.58231590571962 10.9237
46.60655647313217 10.8431
46.630988654873654 10.8441
46.655233659129024 10.8025
46.67948087571551 10.8274
46.70373030632484 10.785
46.72817142736393 10.7736
46.752425308428684 10.7785
46.77668140861147 10.7465
46.80093972960865 10.7481
46.82538981736788 10.6867
46.849652602470904 10.6486
46.87391761349769 10.6416
46.8981848521493 10.6372
46.9226439341274 10.5928
46.946915650573224 10.5763
46.97118959976749 10.595999999999998
46.99546578341598 10.5576
47.019933887188216 10.5197
47.04421456235744 10.5211
47.06849747711879 10.4897
47.09278263318286 10.4421
47.11725978640143 10.4487
47.14154944775105 10.4048
47.165841355555656 10.3865
47.1901355115306 10.4078
47.214621741924994 10.3864
47.23892041698887 10.3464
47.26322134538975 10.3374
47.28771440635075 10.2991
47.31201986422527 10.292
47.33632758061436 10.2372
47.360637557241866 10.2537
47.38513974410611 10.2656
47.40945426407847 10.2124
47.43377104948137 10.2224
47.45809010204344 10.1832
47.48260144275502 10.1429
47.506925052572285 10.1401
47.53125093475548 10.0735
47.55557909103813 10.1221
47.58009961361992 10.0766
47.60443234110732 10.0543
47.62876734791564 10.058
47.65310463578333 10.0581
47.6776343683373 10.0033
47.7019762413987 10.0045
47.72632040075572 9.9875
47.75066684815169 9.98507
47.77520581885936 9.92722
47.799556865477655 9.888
47.823910205386 9.926910000000001
47.84826584033272 9.87018
47.87281407745551 9.87076
47.89717432569297 9.865110000000001
47.92153687423484 9.85648
47.94609208429692 9.81175
47.97045925671401 9.799760000000001
47.99482873471275 9.7787
48.01920052005013 9.75583
48.04376504619224 9.749189999999999
48.068141469543484 9.770589999999999
48.09252020552573 9.722000000000001
48.11690125590099 9.71563
48.1414751266064 9.689960000000001
48.16586082917454 9.660969999999999
48.19024885144316 9.65271
48.2146391951793 9.62401
48.239222439012764 9.64092
48.26361744916137 9.61328
48.28801478610016 9.564969999999999
48.31241445160131 9.57756
48.337007097209366 9.5578
48.36141144338331 9.54518
48.38581812345755 9.50568
48.41022713920929 9.50106
48.434829215320704 9.454930000000001
48.45924292604658 9.4679
48.48365897780325 9.47759
48.50807737237308 9.44482
48.532688907799276 9.41385
48.55711201168574 9.400689999999999
48.581537463754074 9.37468
48.60615611725119 9.35737
48.63058628942721 9.32429
48.65501881516546 9.322230000000001
48.6794536962573 9.33128
48.70408185970339 9.25988
48.72852147531801 9.24175
48.75296345168211 9.24895
48.77740779059232 9.26675
48.80204549302823 9.23408
48.82649458091802 9.21391
48.85094603676547 9.1563
48.87539986237231 9.16822
48.90004713292306 9.13918
48.92450572200832 9.11711
48.94896668628025 9.12101
48.97343002754588 9.086269999999999
48.99808689542115 9.07138
49.02255501470614 9.04739
49.04702551642794 9.05221
49.0714984023988 9.0432
49.096164896893235 9.00935
49.120642575466796 8.96936
49.145122643748394 8.96513
49.16960510355558 8.946
49.19428125404938 8.92268
49.2187685210852 8.91682
49.243258185121555 8.91675
49.26794160167084 8.92333
49.2924360839405 8.87138
49.31693296869764 8.851460000000001
49.34143225776915 8.83526
49.36612538195438 8.80265
49.39062950396021 8.835
49.41513603578346 8.82045
49.4396449792564 8.73676
49.46434784069503 8.74388
49.488861631846454 8.73276
49.513377840166804 8.72052
49.537896467493745 8.685080000000001
49.56260909589029 8.640839999999999
49.587132585683285 8.66031
49.611658500018365 8.65771
49.636186840738596 8.6455
49.66090926588511 8.6166
49.685442483902584 8.57912
49.70997813385706 8.55445
49.734516217597076 8.60233
49.75924846937352 8.55808
49.7837914452858 8.52978
49.80833686055187 8.50735
49.83288471702571 8.49066
49.85762682540054 8.482339999999999
49.882179588965734 8.474789999999999
49.9067347993235 8.40958
49.93129245833333 8.434610000000001
49.95604445336378 8.43241
49.98060703442832 8.37365
50.005172069746266 8.43962
50.02993150438364 8.395719999999999
50.05450147301533 8.383980000000001
50.07907390151433 8.33747
50.10364879174981 8.3093
50.12841816587289 8.33538
50.1529980044635 8.28403
50.17758031042124 8.2774
50.20216508562089 8.260019999999999
50.22694442953363 8.196489999999999
50.25153416817468 8.220189999999999
50.27612638170508 8.20457
50.300721072005196 8.20857
50.325510416102105 8.20899
50.350110084975064 8.180019999999999
50.37471223628208 8.14825
50.39931687190919 8.11346
50.424116246675766 8.140039999999999
50.44872587605249 8.10833
50.47333799543065 8.04856
50.49795260670191 8.08619
50.52276204271512 8.05803
50.54738166295838 8.03771
50.57200378079314 8.0357
50.596628398116835 8.0111
50.62144792604559 7.98838
50.646077567609396 7.97617
50.670709714377715 7.95258
50.69553683636198 7.9435899999999995
50.72017401885922 7.904839999999999
50.7448137122895 7.87665
50.76945591856022 7.880389999999999
50.79429318636823 7.877339999999999
50.818940443716784 7.89315
50.84359021965163 7.8486899999999995
50.868242516085964 7.8564
50.893089960641895 7.82666
50.917747323549435 7.805630000000001
50.94240721271973 7.79178
50.96706963007175 7.7951
50.99192728239342 7.76537
51.01659478166073 7.76107
51.04126481489051 7.732530000000001
51.06593738400761 7.72692
51.090805275207074 7.70362
51.11548294172845 7.68933
51.14016314993547 7.64743
51.164845901758845 7.65084
51.18972406304274 7.65861
51.21441192780656 7.61768
51.23910234200271 7.6269100000000005
51.2637953075678 7.60955
51.288683770237945 7.596239999999999
51.31338186432707 7.542669999999999
51.33808251561888 7.51765
51.362978729967345 7.487139999999999
51.387684521509755 7.5456
51.41239287610203 7.49435
51.437103795691165 7.45885
51.46201036644977 7.47163
51.486726441956634 7.4815
51.51144508832545 7.43819
51.536166307509156 7.457110000000001
51.56108326624387 7.426010000000001
51.58580965706056 7.38773
51.61053862657523 7.384289999999999
51.635270176746864 7.338360000000001
51.66019755512065 7.34328
51.68493429268881 7.32463
51.70967361681515 7.2900100000000005
51.73441552946465 7.282939999999999
51.759353359237934 7.27866
51.7841004750961 7.27343
51.80885018539685 7.21995
51.833602492111254 7.2107399999999995
51.8585508051424 7.231739999999999
51.883308330926425 7.1999
51.90806845906181 7.17822
51.932831191525715 7.1628
51.95779001977161 7.12708
51.98255798721516 7.129160000000001
52.00732856494335 7.139060000000001
52.03229530577543 7.13997
52.057071130455945 7.101539999999999
52.081849571391054 7.11
52.106630630568695 7.12374
52.13160794279417 7.06425
52.15639426492067 7.09082
52.18118321127822 7.029710000000001
52.205974783860896 7.0056
52.23096269971011 6.979210000000001
52.255759551287994 6.98108
52.280559035098186 6.97165
52.30536115314103 6.9689
52.33035970494467 6.949739999999999
52.35516711807904 6.931360000000001
52.37997717147198 6.916060000000001
52.40478986713005 6.92472
52.42979908731974 6.900939999999999
52.454617094216 6.88408
52.47943774942214 6.85122
52.50426105495102 6.858230000000001
52.529280976059844 6.8377
52.554109609024096 6.838710000000001
52.57894089837482 6.82826
52.60377484613117 6.8281
52.62880550079408 6.80139
52.65364479223379 6.76594
52.67848674816189 6.74493
52.70352547971946 6.74972
52.72837279155837 6.762739999999999
52.753222773982785 6.690989999999999
52.778075429022984 6.7033
52.80312495150885 6.6989399999999995
52.827982978797436 6.649089999999999
52.85284368481815 6.59657
52.87770707160767 6.63998
52.90276741793998 6.66639
52.92763619336701 6.602519999999999
52.952507655698504 6.58471
52.977381806977576 6.59939
53.00245301017842 6.579160000000001
53.02733256653592 6.56925
53.052214817996074 6.54637
53.077099766608484 6.532430000000001
53.102181859804446 6.49036
53.127072229988265 6.51588
53.15196530349892 6.46919
53.17686108239249 6.46424
53.20195409881522 6.44908
53.22685531582556 6.47417
53.25175924441303 6.39666
53.27666588664027 6.40116
53.30176985962693 6.3948599999999995
53.3266819565689 6.35098
53.35159677336455 6.38848
53.376514312083096 6.36019
53.40162927507703 6.3833
53.42655228516116 6.3135
53.45147802340193 6.31515
53.47660125628886 6.3586800000000006
53.50153247842639 6.29908
53.52646643496923 6.29171
53.55140312799818 6.27764
53.576537409691696 6.2815
53.60147960336152 6.25536
53.626424539786164 6.2565
53.65137222105307 6.21166
53.67651758529126 6.22195
53.70147078399681 6.17854
53.72642673383343 6.14424
53.75138543689533 6.1573400000000005
53.776541917524526 6.14006
53.801506154876755 6.122999999999999
53.826473151763246 6.11412
53.851442910284916 6.08868
53.87661054126026 6.07471
53.9015858509782 6.09818
53.92656392866066 6.0822199999999995
53.95154477641532 6.062180000000001
53.976723591801296 6.06878
54.00171000771266 6.04365
54.02669920004598 6.015280000000001
54.051691170915745 5.99381
54.076881204886796 5.9730300000000005
54.101878760928514 5.97269
54.12687910187696 5.95102
54.152077577768296 5.96091
54.1770835166946 5.9557199999999995
54.20209224691339 5.93056
54.22710377055121 5.91749
54.25231352511594 5.885269999999999
54.27733066384342 5.8139400000000006
54.30235060239643 5.89432
54.32737334290836 5.86819
54.35259441062629 5.8449
54.377622783395324 5.8201
54.40265396455061 5.80128
54.42768795623251 5.80978
54.45292037169559 5.77276
54.477960012857906 5.7252
54.50300247099511 5.72034
54.52804774825457 5.71799
54.55329154616743 5.69883
54.57834249018678 5.67009
54.6033962597977 5.60567
54.6284528571545 5.62954
54.653708072335164 5.62001
54.67877035378786 5.62704
54.70383546947698 5.59331
54.72890342156389 5.58982
54.7541700889442 5.53198
54.77924374251975 5.52925
54.8043202390049 5.48821
54.82959552413022 5.4745
54.8546777351945 5.4828
54.87976279569621 5.44035
54.90485070780914 5.4226
54.930137506558005 5.391430000000001
54.95523115074295 5.41015
54.98032765308844 5.34236
55.005427015775496 5.32902
55.03072536339621 5.34431
55.05583047570572 5.264390000000001
55.080938454927676 5.2401
55.10604930325027 5.28032
55.131359235107396 5.28875
55.15647585066083 5.24085
55.181595341907496 5.19736
55.20671771104285 5.17436
55.232039262617704 5.15801
55.25716741665048 5.18542
55.28229845518636 5.16178
55.30743238042802 5.07165
55.33276558731939 5.0404800000000005
55.357905315183636 5.06387
55.383047936390035 5.03609
55.40819345314859 4.982480000000001
55.433538351073295 5.01828
55.458689688238415 5.02465
55.483843927614096 4.96114
55.509197623043605 4.95259
55.53435769621134 4.88606
55.55952067826466 4.88535
55.5846865714265 4.862080000000001
55.61005202069737 4.835719999999999
55.63522376553902 4.83881
55.66039842818645 4.83981
55.68557601087004 4.77914
55.7109532500271 4.70349
55.73613670233794 4.72433
