TT I
1.2716486653135266 7.097519999999999
1.2939594142134223 6.9764100000000004
1.3162702121660406 6.752669999999999
1.3385810600174564 6.59012
1.3608919586137629 6.9417
1.383202908801069 6.1837599999999995
1.405513911425503 6.07977
1.4278249673332093 6.10818
1.4501343378461518 5.65841
1.4724455028545926 5.62319
1.4947567236847858 6.38756
1.517068001182951 5.83322
1.5393793361953272 5.85203
1.5616907295681737 5.60611
1.5840021821477681 5.3031
1.60631369478041 5.739719999999999
1.6286252683124185 5.66749
1.6509369035901333 5.02196
1.6732468618895553 5.400119999999999
1.695558623192809 5.39304
1.7178704487808514 5.28653
1.7401823395001077 5.0684
1.7625012545597203 4.48979
1.7848028405262486 4.96077
1.8071218901122095 4.6016900000000005
1.8294236121921872 4.78796
1.8517427996910911 4.72282
1.8740620574440425 4.8567800000000005
1.8963639900671978 4.81496
1.9186833908139995 4.08629
1.9409854680117449 4.732080000000001
1.9633050151394713 4.765969999999999
1.9856246367570705 4.76885
2.0079269371922672 4.64786
2.03024671027244 4.4676
2.0525491637446027 3.92981
2.074869091674931 4.83207
2.097171701569106 4.5887
2.1194917877373847 5.088769999999999
2.141811954326636 4.9881
2.164114805233074 5.35759
2.186435135143035 6.38615
2.208738150935709 13.8913
2.231058647554722 28.284000000000002
2.2533792288321184 21.8045
2.275682498336085 10.2371
2.298003251406138 6.04858
2.3203066942619714 5.36801
2.3426276225136022 5.18971
2.3649486396617507 5.26886
2.387252348930071 5.54315
2.4095735463442893 6.33121
2.4318774374315884 6.3217300000000005
2.4541988185014043 6.37253
2.476502894794693 6.59811
2.498824462909887 6.8098
2.521146125856138 6.69212
2.5434504863470337 7.07765
2.5657723414244717 7.61302
2.588076895590662 8.05053
2.610398946189713 8.73536
2.6327210958598384 7.837560000000001
2.6550259469304716 6.78412
2.6773482972090137 8.142669999999999
2.6996533504259 7.856960000000001
2.7219759047039602 8.52993
2.744298562293959 8.62365
2.7666039251246595 8.28275
2.7889267918020164 8.9117
2.8112323652516555 8.38705
2.833555444408179 8.3952
2.8558786311183852 8.72958
2.8781845268938557 8.68459
2.9005079311721484 8.71578
2.9228140460410397 9.353019999999999
2.9451376712799635 9.4044
2.967444008632326 9.49655
2.9897678582247247 9.685960000000001
3.0120918213106695 10.3332
3.0343984987899373 10.4808
3.0567226913198637 10.8012
3.079029599759726 11.5833
3.101354025127254 12.4793
3.123678568232338 12.7701
3.145985829517914 12.6831
3.16831061055229 13.8857
3.1906181112775593 13.8971
3.212943133635653 14.5898
3.2352682779763207 15.0219
3.2575761442691227 15.1761
3.2799015350264273 15.8479
3.302209649240067 16.4248
3.3245352898092655 16.7572
3.3468436553365257 17.593
3.369169549113219 18.0004
3.3914955708171384 18.5617
3.413804319727358 18.8431
3.4361305997334863 19.4624
3.4584396084414553 19.672
3.4807661501462652 20.412
3.503092824025881 20.6857
3.5254022288463154 21.127
3.5477291695206588 21.6145
3.5700388426251948 22.2002
3.5923660534916446 23.5701
3.6146934007816114 39.1374
3.637003482731501 90.022
3.6593311053109985 99.3036
3.681641464033634 56.7907
3.7039693653009733 30.7516
3.726297407241705 26.1033
3.7486081875460804 25.4963
3.7709365132734978 26.0444
3.793247578841633 26.7018
3.8155761917550093 27.3199
3.8378875459837216 26.7587
3.8602164494827234 27.4413
3.882545499606844 28.2991
3.9048572932539183 28.7511
3.9271866390645718 28.8371
3.9494987298666713 29.6182
3.971828374764527 30.4722
3.9941581705403255 30.5862
4.016470713506008 31.4842
4.038800813471445 32.2261
4.061113662089144 32.4081
4.0834440696459176 33.4387
4.105774632334751 34.0585
4.128087945865126 34.7709
4.150418821249301 35.5028
4.172732448931298 36.6343
4.195063640413578 38.5249
4.2173775856475215 43.0951
4.239709096631102 75.2012
4.262040768704612 237.515
4.284355196706267 324.926
4.306687193387355 210.33
4.329001947444346 82.1327
4.35133427213731 48.5833
4.373666762177566 44.9027
4.395982011761091 44.6056
4.418314834921175 45.2267
4.44063041906622 53.4193
4.4629635787515625 64.7837
4.4852969080429785 64.3436
4.5076130004776225 54.2647
4.529946671403969 50.3282
4.552263106909177 50.0062
4.574597122877047 51.0095
4.596931312711224 52.214
4.619248269273446 53.4409
4.6415828092605835 54.019
4.663900117405352 55.215
4.686235010953232 56.5682
4.708552674085913 57.6164
4.730887924602802 59.2398
4.753223354952695 60.3427
4.775541557023902 62.4593
4.797877349456786 63.8435
4.820195915032126 65.521
4.842532072957498 66.3807
4.864868414979744 68.4735
4.88718753227192 70.8878
4.909524244902505 72.8005
4.931843734218147 74.4561
4.954180820867835 77.3725
4.976518095879839 80.0305
4.998838149695359 82.5631
5.021175803844231 86.1862
5.043496238205739 89.4615
5.065834274903528 93.6128
5.088172504230693 98.2449
5.1104935158799565 104.49
5.132832132875765 125.425
5.155153533596801 167.41
5.1774925416746225 199.4
5.199814334878411 321.567
5.2221537374521505 900.05
5.244493338631803 2766.03
5.266815727034316 7690.7
5.289155727832427 12660.9
5.311478517248165 8979.45
5.333818921080011 2878.47
5.356159527788849 549.511
5.3784829252032536 184.49099999999999
5.400823940070432 143.21
5.423147747031976 127.381
5.445489173474152 118.311
5.467830807066149 112.915
5.490155234831516 108.662
5.512497285125229 105.07
5.534822130975162 103.37200000000001
5.557164601388673 101.969
5.579489868738879 98.9183
5.601832762690846 97.9681
5.6241758697774475 97.2916
5.646501775867269 96.2529
5.668845311622074 94.8838
5.691171647754637 94.4017
5.713515615597765 92.5665
5.735859800852677 91.6092
5.758186788542988 90.9052
5.780531411018185 91.1364
5.802858837297399 90.0743
5.825203900414495 90.3465
5.8475491852224 90.57600000000001
5.869877275883075 91.2348
5.892223006467101 92.1093
5.914551544266608 93.0522
5.936897724049891 95.2932
5.959244129804903 99.8372
5.981573344815301 114.755
6.0039202049061 190.338
6.026249875609095 412.277
6.04859719346037 904.885
6.070927323278297 2174.72
6.093275102315365 4625.65
6.115623113320588 5161.99
6.137953938319995 3231.62
6.160302415650845 990.382
6.182633708324452 239.35299999999998
6.2049826554078376 115.258
6.227331838745022 92.1857
6.249663839443684 84.9748
6.27201349767565 82.3558
6.294345974611799 89.1165
6.316696111167083 100.178
6.339046488263839 94.7127
6.361379686074702 79.7319
6.383730546639482 71.7231
6.406064229255215 68.9159
6.428415576718203 68.1222
6.450749747566656 67.0686
6.47310158535871 66.1332
6.495453669698332 65.4811
6.517788579421056 64.9002
6.540141159237969 63.7324
6.562476565766648 63.4474
6.5848296444934045 62.8567
6.607182974060425 62.5706
6.6295191323281015 62.8122
6.651872965955752 66.6272
6.6742096296068985 92.8538
6.6965639707294615 140.359
6.71891856698715 140.16299999999998
6.741255995248479 95.3895
6.763611104154477 68.3516
6.785949046381137 60.8433
6.808304671371482 58.7642
6.8306605557940046 58.136
6.852999275508618 57.0529
6.875355681171544 57.001000000000005
6.897694923437771 56.9553
6.92005185377892 56.6937
6.9423916220322655 56.3056
6.964749080490181 55.4993
6.987106804399774 55.725
7.009447368180821 55.3309
7.031805625367033 55.2587
7.054146723727803 55.1211
7.076505517631004 54.9953
7.098864581288365 55.2307
7.121206488070854 55.3269
7.143566093607822 54.5525
7.165908543567245 55.0628
7.188268694426048 55.1423
7.2106291193438095 55.543
7.232972390625943 57.0721
7.255333366030969 69.8065
7.277677189091925 124.514
7.300038718428332 173.57299999999998
7.322400526130865 145.304
7.344745183422596 89.1614
7.367107550224791 61.9346
7.389452767901992 56.3528
7.411815697249891 55.4327
7.434161478756298 54.2884
7.456524974096713 54.3119
7.478888753837185 54.4386
7.501235387657368 54.5727
7.523599738562711 54.738
7.545946944825532 54.9291
7.568311870344528 55.0524
7.5906770845765665 55.4455
7.613025156078678 56.9878
7.635390950099687 57.9991
7.657739602662809 56.9551
7.680105979923558 55.6854
7.702472650212829 56.1854
7.724822180948224 56.4469
7.747189439655568 56.1803
7.769539560075357 55.9603
7.791907410653562 56.6842
7.81425812420825 56.5955
7.836626570110925 56.6658
7.858995315087906 57.6628
7.881346924933401 57.8402
7.903716270417482 58.2185
7.926068482028405 58.6468
7.948438431475253 59.2954
7.9708086843180235 59.7921
7.993161805171116 60.0049
8.015532667162402 60.6865
8.037886398416653 61.6544
8.060257873014221 62.3889
8.082629655331942 62.7418
8.104984308787587 63.6683
8.127356708900503 66.8171
8.149711981398308 72.6151
8.172085002766314 75.0804
8.194458336181368 71.7142
8.216814543847752 69.1621
8.23918850371002 69.2241
8.26154533906492 69.7448
8.283919928836452 71.5589
8.306277395339652 72.1792
8.328652618483376 73.6227
8.351028159736202 75.7376
8.373386579575245 77.7736
8.395762759396959 79.7489
8.418121819038275 84.5202
8.440498640894003 97.8615
8.462875785192262 111.846
8.485235811156207 121.119
8.507613602688501 154.358
8.529974277114228 234.021
8.552352719347912 367.13
8.574731488360351 628.376
8.59709314210385 1158.79
8.619472567021075 1838.95
8.64183487789147 2174.16
8.664214962183097 1779.4
8.686577933647762 988.25
8.708958680784317 373.89099999999996
8.731339760774953 163.613
8.753703729764451 111.118
8.77608547780821 98.8312
8.798450116065078 95.0835
8.820832535634787 91.9934
8.843215292401656 90.6443
8.865580941199045 89.2528
8.887964374703538 88.4048
8.910330701447199 89.2709
8.932714815164482 91.9536
8.955099270424924 91.1369
8.977466620733543 87.5845
8.999851761421976 85.0748
9.022219798361645 83.4092
9.04460562795561 83.0519
9.066991803441677 82.7963
9.089360876979615 82.5689
9.111747746589993 82.0059
9.13411751544971 81.9264
9.156505082664324 81.4659
9.178875550323522 81.6258
9.20126381862328 82.2304
9.223652438908596 82.559
9.246023961427412 82.3814
9.26841328802173 81.5325
9.290785518039224 81.5703
9.313175554425882 82.5428
9.335565947154315 82.1562
9.357939245086508 82.1788
9.380330352834827 82.0561
9.40270436697103 82.8367
9.425096193225055 82.7569
9.447488380180165 83.3015
9.469863475295412 83.9695
9.492256385987508 84.2063
9.514632206018318 84.9474
9.537025843935714 84.9126
9.559402392368193 85.6717
9.581796761000229 86.7402
9.604191496441521 88.1468
9.626569144158516 91.4676
9.648964615551032 95.969
9.671343000390081 97.8615
9.693739211225699 95.8664
9.716135793237463 93.4795
9.738515290448102 92.7864
9.760912617143402 93.3921
9.783292860202891 94.4133
9.805690935076182 95.8922
9.828089385495742 96.6578
9.850470754023561 99.3694
9.872869957865444 107.154
9.89525208097539 122.46799999999999
9.917652041736662 134.912
9.940052382417589 133.635
9.962435644102392 135.905
9.984836746950979 165.91299999999998
10.007220771957746 225.495
10.029622640473708 325.426
10.052007432299963 501.73400000000004
10.074410069984072 797.6469999999999
10.096813093716005 1259.96
10.119199042482517 1767.88
10.141602840636468 2007.57
10.163989564971628 1629.96
10.186394141051062 922.063
10.208799107559706 410.49699999999996
10.231187001965623 190.363
10.253592751657669 126.334
10.275981430388155 113.281
10.298387966769793 112.69200000000001
10.320794897965431 115.006
10.343184759907361 113.626
10.36559248305461 108.11200000000001
10.387983138083852 103.834
10.410391656691655 105.309
10.432800574501677 115.09200000000001
10.455192425893369 130.93200000000002
10.47760214443012 155.27200000000002
10.499994797678786 197.993
10.522405320453982 278.546
10.54479877906917 402.875
10.567210109595656 515.0930000000001
10.5896218454736 584.447
10.612016518879773 508.398
10.634429067781074 356.76300000000003
10.656824555333241 206.609
10.679237920773568 127.302
10.701651695961992 96.7589
10.724048411481384 89.2189
10.746463008485165 86.0578
10.768860546937125 84.8883
10.791275969274796 82.8602
10.81369180576079 81.5502
10.836090585366925 80.9391
10.858507252467449 79.6988
10.88090686379991 78.9335
10.903324365036394 78.3525
10.925724811614439 78.1686
10.948143150509463 79.3923
10.970561909719066 78.0557
10.992963615930844 76.3813
11.015383218085756 74.4183
11.037785768347074 73.0879
11.06020621697282 72.6851
11.082627090322113 71.9812
11.105030913430326 71.6138
11.12745263854165 72.2594
11.149857314510728 75.7815
11.172279894912576 81.9618
11.194702904450653 82.6379
11.217108866490921 78.5809
11.239532736615194 73.7244
11.26193956033512 71.4956
11.284364294577085 70.2125
11.306789462371718 68.005
11.329197585398376 66.8187
11.351623622610898 66.8294
11.37403261614354 65.8929
11.396459526308487 65.6726
11.418869393879497 65.0335
11.441297180532617 65.1131
11.463725406927658 64.6679
11.486136592353875 64.54
11.508565700543707 65.1408
11.530977768845315 67.0223
11.553407762368774 68.066
11.575838200059769 67.1515
11.598251599479612 65.1689
11.620682927815501 63.8563
11.64309721895548 63.6171
11.665529441478206 63.032
11.687962112597958 62.7947
11.710377748130886 62.6004
11.732811318753434 62.668
11.755227854859067 62.7347
11.777662328529495 62.6754
11.800079768750786 62.4935
11.822515149015453 62.239
11.844950984084935 62.1994
11.867369787303163 62.0892
11.889806534289491 62.2636
11.912226250487029 62.3541
11.934663912939751 62.6306
11.9571020346363 62.6669
11.979523127133968 62.5072
12.001962169624331 63.4183
12.024384183972964 64.0302
12.046824150809913 66.8094
12.069264581333726 71.7302
12.091687985297767 77.3633
12.11412934550045 86.5016
12.136553680195208 101.505
12.158995973632788 124.345
12.181438735204349 153.162
12.20386447284199 179.775
12.226308172985636 200.386
12.24873485024193 196.813
12.271179492516982 164.188
12.293607112949127 126.941
12.316052700916226 98.9478
12.338498763250042 79.801
12.360927805303868 70.2149
12.383374818673879 66.3203
12.405804812803074 64.2322
12.428252780773262 64.1294
12.45070122756722 64.0773
12.473132656675375 63.7008
12.49558206341869 63.7525
12.518014453510101 63.9813
12.540464823770117 64.21300000000001
12.562915677315177 64.3127
12.58534951575545 65.2903
12.607801338171472 67.5586
12.630236146511358 72.6783
12.652688941369085 77.5332
12.675124723177234 77.6745
12.697578494048786 74.0764
12.720032754458185 69.645
12.742470003354093 67.7148
12.764925245138771 67.5916
12.787363476431278 67.8031
12.809819703166806 68.0797
12.83227642391173 68.7985
12.854716135692716 69.4228
12.877173846755147 70.6092
12.899614549869717 70.5155
12.9220732548287 71.4381
12.94453245827299 71.8975
12.966974655289818 73.0434
12.989434858002571 73.6465
13.011878055298721 74.2341
13.034339260862497 75.4288
13.056800969391883 76.3882
13.079245674017244 78.4138
13.101708390774869 80.1433
13.12415410463411 86.0747
13.146617833206086 96.6172
13.169064559883248 108.25299999999999
13.191529303857127 123.012
13.213994557076367 145.46200000000002
13.236442809902437 182.605
13.258909083908291 237.43599999999998
13.28135835851934 303.277
13.30382565690295 372.55400000000003
13.326293469022952 423.725
13.348744283242008 416.973
13.371213125129904 357.851
13.39366497011003 265.45
13.416134845360597 178.09400000000002
13.438605238843131 126.755
13.46105863690397 105.334
13.483530069144786 103.28
13.505984506951902 107.964
13.528456981549432 117.209
13.550929978879088 131.247
13.573385983253365 155.585
13.595860028340867 194.946
13.618317081455832 248.56799999999998
13.64079217790333 305.1
13.663250283359057 349.26800000000003
13.685726434770173 369.374
13.708203115221277 334.712
13.730662806148091 260.04400000000004
13.75314054697177 185.761
13.775601299246777 127.734
13.798080104050406 97.5025
13.820559442405358 85.3756
13.843021793671388 81.4552
13.865502201420897 79.7081
13.887965623051947 79.1528
13.910447103807167 78.0715
13.932929122629764 76.6939
13.955394156785959 76.5273
13.977877254034569 75.623
14.000343367582113 74.5323
14.022827546871707 74.1343
14.045294743423524 73.4793
14.06778000837062 72.7553
14.090265817715476 72.6626
14.112734645763819 72.1907
14.13522154619454 72.0092
14.157691466286913 72.1648
14.180179461423874 71.8936
14.202668005486178 71.1301
14.22513957064374 70.5548
14.247629214846473 70.0974
14.270101881097517 69.7472
14.29259262906496 70.1772
14.315083930490205 71.0789
14.337558255389705 71.1963
14.360050666019726 70.9636
14.382526101071944 70.0329
14.405019624534942 68.997
14.427513705993134 68.482
14.449990813291825 68.6925
14.47248601302899 68.3586
14.49496423954951 68.4664
14.517460561197822 68.726
14.539939910570322 68.4006
14.562437357763558 68.618
14.58493536931253 69.8911
14.607416409993311 70.9239
14.62991555254159 71.6946
14.652397725157423 71.4308
14.674898002342799 70.5606
14.697398848433282 69.8544
14.719882725991326 70.3771
14.74238471217934 71.1174
14.764869730765593 73.8382
14.787372860692983 77.1415
14.809876564079925 81.6569
14.83236330125751 87.2442
14.854868153850365 95.4885
14.877356041159485 109.277
14.899862046604186 127.221
14.922351087688757 153.016
14.944858249632887 181.87400000000002
14.967365991421232 206.67700000000002
14.989856770231246 218.36599999999999
15.012365673994204 214.794
15.03485761569738 190.178
15.05736768508665 149.38299999999998
15.07987833888692 115.74799999999999
15.102372032001655 91.257
15.124883856909658 76.9321
15.14737872204565 72.0107
15.169891721717274 70.178
15.192405310371893 70.1073
15.214901940621196 70.6068
15.237416709527137 70.8941
15.259914520936249 70.9957
15.282430473753607 69.9824
15.304947020131227 68.533
15.327446610371178 67.8085
15.349964346154254 66.923
15.372465126703139 66.5126
15.394984055556009 66.1263
15.417486030076159 66.0745
15.44000615566487 65.8728
15.462526881230803 65.5906
15.485030653812652 65.8241
15.507552581617434 65.959
15.530057557334603 65.9486
15.55258069104857 65.82300000000001
15.575104429329837 65.7929
15.597611216864632 65.3209
15.620136166564563 65.3166
15.6426441664095 66.1235
15.665170331202765 68.0147
15.687697105158826 70.9661
15.710206930593545 74.4382
15.732734925158933 78.3292
15.755245972089478 84.6719
15.77777519094324 93.5099
15.800287463046663 106.926
15.822817909869592 126.53
15.84534897229804 148.642
15.867863089299354 172.27900000000002
15.890395385222186 188.985
15.912910736597423 194.997
15.935444269699861 184.03099999999998
15.957978423016485 155.806
15.980495633101265 123.926
16.003031029129367 98.2831
16.02554948280019 77.6731
16.048086125229432 68.3338
16.070623392487107 65.2845
16.09314371869582 64.6232
16.11568223789321 63.3951
16.13820381691126 62.4838
16.160743591742527 61.3496
16.183283996022084 60.3182
16.205807461423195 59.2041
16.228349126881973 58.8528
16.25087385432698 58.8548
16.27341678466365 58.2022
16.29594277784926 58.2709
16.31848697676433 58.69
16.341031811604868 58.7615
16.36355971058487 59.0138
16.3861058195587 58.8302
16.40863499352978 57.5971
16.431182380342005 56.7875
16.453730407713202 56.1062
16.476261501364792 55.6834
16.498810812136167 55.4408
16.52134319004079 55.4325
16.54389378792203 55.1291
16.566445031001553 55.0268
16.588979342490088 55.0708
16.61153187824822 54.858000000000004
16.634067483263312 54.6028
16.656621315414416 54.6146
16.679175797408888 54.0958
16.701713349928728 54.3838
16.72426913389191 54.7622
16.74680798922351 54.7971
16.76936507887444 54.8285
16.791905240734874 54.8138
16.814463639794468 54.7416
16.837022695210294 54.6704
16.859564824093756 55.1916
16.882125194503903 55.8111
16.904668639217885 56.3024
16.927230328348003 56.533
16.949792678493612 56.6704
16.972338104193863 55.8371
16.994901778652235 55.4317
17.017448529496576 55.3164
17.040013531998152 55.4483
17.06257920018044 56.0708
17.0851279459922 56.6826
17.107694947817667 57.408
17.130245028099072 58.1278
17.15281336730298 59.6589
17.17536478578733 61.2002
17.19793446610687 63.5374
17.220504818648422 66.685
17.243058251703697 70.0483
17.265629950971032 74.3313
17.288184731571736 79.3316
17.310757781306908 82.6722
17.33333150794385 83.9537
17.355888317140174 81.9205
17.37846339986244 76.5876
17.401021565958885 70.5224
17.42359800851343 65.3409
17.44617513265564 62.0674
17.468735341390783 60.1304
17.491261035594565 59.0417
17.51396340099364 58.6111
17.536490463869136 58.9136
17.559018209820174 58.8001
17.58154663977963 58.8184
17.604251766089718 58.8385
17.626781572227713 59.0847
17.64931206518155 59.3831
17.671843245885103 60.1947
17.69455114821572 60.3226
17.717083712612634 60.5719
17.739616967569667 60.6778
17.762150914021706 61.0204
17.78486160749854 60.885
17.807396945166804 61.5045
17.829932977143503 62.16
17.85246970436452 63.5608
17.875183204129467 65.4748
17.897721330097664 67.3933
17.920260154126645 69.743
17.942799677153296 72.7285
17.9655159983646 76.4534
17.988056927677544 81.6692
18.010598558807683 89.5701
18.033140892692916 99.6727
18.05586005052525 110.821
18.07840379824407 122.175
18.10094825154059 131.738
18.12366954819864 138.238
18.146215420998306 137.601
18.16876200220057 129.986
18.191309292745153 116.51899999999999
18.214033452627167 102.811
18.236582170236648 91.7456
18.259131600016456 86.6605
18.281681742907335 86.41
18.304408781233683 90.5618
18.32696035875955 95.6338
18.349512652227624 100.389
18.372065662579683 104.396
18.394795594587553 105.09899999999999
18.41735004715306 101.706
18.43990521943684 95.3401
18.46246111238171 86.5274
18.485193953325208 77.1729
18.507751296070428 69.8494
18.530309362314178 65.6572
18.552868153000343 63.4922
18.57560391815056 61.8429
18.59816416623245 61.5142
18.620725141597372 61.1441
18.643286845190268 60.565
18.666025549835414 60.0934
18.688588718427933 59.4246
18.711152618092243 59.3347
18.73389353884365 59.1119
18.75645890921984 58.6165
18.77902501351406 58.3535
18.801591852673102 58.2639
18.824335739722738 57.8794
18.846904057212626 57.6255
18.8694731124168 57.4953
18.89204290628315 57.5702
18.914789774966803 57.2518
18.937361054791623 56.9381
18.959933076131318 56.6908
18.982505839934877 56.7103
19.00525570560582 56.78
19.027829963004184 56.5504
19.05040496572238 56.785
19.072980714710468 56.7219
19.095733592739563 56.7472
19.11831084296757 57.0321
19.140888842324735 57.5831
19.16346759176222 57.846000000000004
19.18622349753803 58.4035
19.208803755869358 59.1638
19.231384767143577 60.4146
19.253966532312948 61.7456
19.276725481241822 63.8857
19.29930876296784 66.3747
19.3218928014549 69.5404
19.34465404436217 72.5173
19.36723960516257 75.0916
19.389825925592426 75.8003
19.412413006605938 74.9767
19.43517731967805 71.36399999999999
19.457765930683355 67.4
19.48035530514408 63.0983
19.50294544401556 59.4282
19.525712842708348 56.5016
19.54830451925909 55.0177
19.570896963095727 53.9261
19.593490175174704 53.563
19.616260674962184 53.6056
19.638855432416964 53.4421
19.661450960992624 53.4692
19.68404726164677 53.2892
19.706820878021247 53.0171
19.729418731756834 53.43600000000001
19.752017360452857 53.0586
19.77461676506804 53.3441
19.797393513540218 53.2238
19.819994478951667 53.5204
19.84259622316767 54.089
19.8651987471481 54.5686
19.887978643247177 54.781000000000006
19.91058273574792 55.1474
19.933187610901943 55.817
19.955969879466828 57.1647
19.97857632894404 58.3772
20.00118356396599 60.1761
20.023791585494575 62.3308
20.046577028914875 65.1903
20.069186632506966 67.1702
20.091797025500632 68.667
20.114408208858933 69.3354
20.137196842715273 68.7304
20.159809615886765 67.5882
20.18242318232135 65.1327
20.20503754298326 63.1356
20.227829382875154 62.1514
20.250445341109344 62.0172
20.27306209647285 62.6899
20.29567964993108 63.7307
20.31847471147704 65.0056
20.34109387027612 65.6254
20.363713830075454 65.0342
20.386334591841646 63.4801
20.409132890679302 60.9371
20.431755265564437 58.2148
20.454378445325528 55.3383
20.477002430930366 53.6032
20.499803982716553 52.3744
20.522429589228004 51.5156
20.54505600449589 51.062
20.567683229489194 50.7657
20.590488049900088 50.3926
20.61311690359731 50.0569
20.63574656993626 49.8401
20.658553853717297 49.5649
20.681185154618298 49.4216
20.703817271080066 49.5209
20.72645020407368 48.9912
20.749260783967177 48.9567
20.771895359337133 48.8727
20.794530754161617 48.7922
20.817166969412938 48.7918
20.83998086114876 48.5397
20.86261872660049 48.5223
20.885257415405402 48.4852
20.90789692853701 48.3916
20.930714147864748 48.4076
20.953355319030678 48.3873
20.97599731745334 48.4463
20.99864014410749 48.4521
21.021460706796564 48.4963
21.044105199328826 48.778
21.06675052302631 48.7893
21.089396678865015 48.9628
21.112220600704806 49.2236
21.134868430275347 49.6037
21.15751709492456 49.8763
21.180166595629693 50.2025
21.202993892429635 50.7502
21.22564507473034 50.994
21.24829709602816 51.3099
21.27112693608965 51.2956
21.293780644891275 51.1859
21.316435195634053 50.6167
21.339090589297417 49.8861
21.361923832041875 49.4785
21.384580921090404 48.6026
21.407238856007325 48.3564
21.429897637773326 48.3418
21.45273429906592 48.4098
21.475394784108598 48.1896
21.498056118951983 48.2129
21.520718304578022 48.2736
21.543558400304388 48.4677
21.566222297108816 48.5659
21.58888704765135 48.6063
21.61155265291521 48.9064
21.63439619898156 49.2857
21.657063523335786 49.559
21.67973170537063 50.0094
21.7024007460706 50.3891
21.72524775840385 51.1504
21.747918526116475 52.2801
21.770590155457388 53.565
21.79326264741238 55.1556
21.816113141960237 56.9343
21.838787368860547 58.6873
21.861462461341976 60.4697
21.884315579735777 62.2966
21.90699241312273 63.5242
21.92967011506078 64.2262
21.95234868653799 63.9432
21.9752053151131 62.9703
21.997885635446785 61.1266
22.020566828293532 59.2822
22.04324889464272 57.7471
22.066109049404666 56.5105
22.088792872571794 56.0656
22.111477572219204 55.8338
22.1341631493376 55.8235
22.157026846313123 55.5513
22.179714188221507 54.9819
22.202402410582668 53.9848
22.22509151438863 52.5547
22.24795876962584 51.2143
22.270649646204486 50.4505
22.293341407213727 49.7143
22.316034053646906 49.1416
22.338904883215342 48.8598
22.36159931041458 48.7665
22.38429462602756 48.7837
22.40699083104897 48.6885
22.429865251039757 48.8319
22.452563244831367 48.765
22.47526213102522 48.6198
22.49813925616515 48.4344
22.520839937143307 48.4734
22.543541513520587 48.3734
22.56624398629403 48.1444
22.589124730075895 48.2323
22.611829005656723 48.2774
22.63453418063466 48.4576
22.657240256008077 48.6118
22.680124634582935 48.6213
22.70283252079775 48.8447
22.725541310413075 49.2044
22.74825100442868 49.4973
22.771139033969575 49.938
22.79385054687155 50.1168
22.81656296718292 50.6259
22.83927629590484 51.7339
22.862167992606945 52.8164
22.88488314827121 53.925
22.907599215359284 54.8821
22.93031619487366 55.8984
22.953211574954405 56.9011
22.975930389478226 57.4953
22.998650119445763 57.5708
23.02137076586092 56.8608
23.044269845560063 55.7637
23.06699233506288 54.2628
23.089715744034912 52.652
23.112617610931565 51.0205
23.135342869061212 49.9047
23.158069049684816 49.1295
23.1807961538087 48.7093
23.20370174880544 48.6163
23.226430710184808 48.5208
23.249160598093425 48.5226
23.271891413539002 48.5272
23.294800752937697 48.5587
23.31753343374794 48.7958
23.340267045128353 48.9311
23.36300158808808 49.1391
23.38591468821339 49.4024
23.408651104658304 49.7912
23.431388455719986 50.5734
23.454126742409 51.4346
23.4770436196085 52.5249
23.499783787914662 53.8527
23.522524894889884 54.8931
23.54526694154616 55.8775
23.56818761219047 56.8421
23.59093154860734 57.3501
23.613676427751283 57.6199
23.636422250635754 56.8091
23.659346731118656 55.2579
23.68209445191868 53.6483
23.704843119509587 51.5584
23.72759273490623 49.6891
23.750521041644767 48.2454
23.77327256312355 47.225
23.796025035462787 46.5424
23.818956224555475 46.0971
23.841710609113413 45.8299
23.86446594758979 45.7716
23.887222241002014 45.4691
23.910157285144578 45.0918
23.932915498962537 45.1146
23.955674670778713 44.8277
23.978434801611975 44.5452
24.001373717286125 44.5459
24.024135776723917 44.3664
24.046898798245582 44.3201
24.06966278287146 44.27
24.092605586582614 44.1037
24.115371508023642 43.931999999999995
24.1381383956401 43.8705
24.16090625045381 43.7545
24.183852958731244 43.687
24.206622758582608 43.6619
24.229393528706886 43.4466
24.252165270127392 43.4754
24.27511589952438 43.549
24.297889594216997 43.2313
24.32066426328598 43.1426
24.34343990775613 43.1133
24.36639447485003 42.8679
24.38917208083877 42.88
24.41195066531332 42.8769
24.43490819850244 43.015
24.457688750692377 42.8421
24.48047028445616 42.7601
24.503252800821233 42.994
24.526214300784112 43.0058
24.548998793132213 42.9165
24.57178427117417 42.7752
24.59457073593893 42.8332
24.617536219319863 42.7261
24.64032466834748 42.9187
24.663114107195035 42.8603
24.685904536893013 42.4007
24.708874020360852 42.3732
24.731666442613744 42.3126
24.754459858818787 42.2778
24.777254270007962 42.1442
24.80022777025625 42.1003
24.82302418230472 41.917
24.845821592443674 41.9397
24.86862000170663 41.9901
24.891597535453727 41.9337
24.914397953892728 42.2638
24.93719937456671 42.0176
24.96000179851076 42.1912
24.98298338249997 42.3064
25.00578782394922 42.4876
25.028593271784167 42.6787
25.05157790644186 42.9283
25.07438537804115 43.0876
25.097193859145293 43.3029
25.120003350792075 43.397
25.142992065061257 43.9975
25.165803588823465 44.2699
25.18861612625217 44.2969
25.211429678386736 44.2968
25.234422489079968 44.5099
25.257238081693636 44.6221
25.280054692141732 44.6656
25.3028723214652 44.7726
25.325869245420463 44.7829
25.348688923599397 44.7975
25.371509623787006 44.604
25.394331347025812 44.3165
25.41733240110666 43.948
25.440156181590016 43.3735
25.46298098826268 42.9819
25.48580682216873 42.38
25.50881202326435 41.8
25.53163992281684 41.4283
25.55446885274561 41.0798
25.577298814096377 40.8077
25.600308179121807 40.6174
25.623140214533745 40.7346
25.64597328451537 40.5148
25.66898578564376 40.4748
25.691820936010206 40.3928
25.714657124097695 40.4428
25.737494350954734 40.3818
25.760511045684957 40.2824
25.783350361364224 40.3118
25.806190718969255 40.2818
25.82903211955018 40.5154
25.852053024868923 40.4086
25.874896522722523 40.4168
25.897741066713106 40.4262
25.920586657892454 40.6415
25.943611790812668 40.6849
25.966459487728237 40.7461
25.989308234998564 40.8464
26.01215803367705 41.1732
26.03518741123814 41.3887
26.05803932412957 41.3752
26.080892291600094 41.3664
26.10374631470478 41.4937
26.12677995397268 41.402
26.14963609978026 41.6344
26.172493304397875 41.2327
26.19535156888223 41.0229
26.218389486949604 40.6164
26.241249882640123 40.3631
26.26411134137826 40.2958
26.28715248187403 40.075
26.31001607820869 39.9298
26.3328807407756 39.7649
26.35574647063438 40.0444
26.37879191991473 40.0557
26.401659795896734 40.0201
26.424528742360263 40.0347
26.447398760366614 40.0772
26.470448535598294 40.3323
26.49332070826805 40.5613
26.516193955675355 41.0109
26.53906827888316 41.1593
26.562122397260108 41.3505
26.584998883685063 41.6456
26.607876449110325 41.8006
26.63075509460056 41.8102
26.65381357334404 41.9407
26.67669439061878 41.9499
26.699576291163382 41.9918
26.722459276044212 41.8543
26.745522132402975 41.4504
26.768407297649354 41.2269
26.791293550442003 40.9548
26.814180891848974 40.629
26.837248143099337 40.2931
26.860137673466657 40.2193
26.88302829566349 40.0634
26.90592001075963 39.8204
26.92899167420566 39.5633
26.951885586870763 39.1925
26.974780595655517 39.0552
26.99785558178161 39.0277
27.020752794605112 38.8507
27.043651106772522 38.6924
27.06655051935668 38.8399
27.089629948036183 38.5208
27.112531573292053 38.4661
27.135434302194138 38.5213
27.158338135817015 38.3114
27.181422024430987 38.324
27.204328079372566 38.2986
27.22723524226965 38.3702
27.250143514198573 38.5156
27.273231880156334 38.422
27.296142382065014 38.2141
27.319053996245536 38.1738
27.341966723775965 38.2569
27.365059584515222 38.2619
27.38797455070062 38.3721
27.410890633481237 38.1681
27.433807833936918 38.2617
27.456905206923906 38.2965
27.47982465472398 38.3784
27.502745223449743 38.4243
27.525666914182825 38.5631
27.548768816912457 38.3657
27.571692763693633 38.3073
27.59461783573812 38.1502
27.617723149491244 38.0268
27.640650484125285 37.8865
27.66357894728264 37.8432
27.686508540048052 37.8791
27.709618414237887 37.9732
27.732550278321757 37.7505
27.755483275279115 37.6819
27.778417406196485 37.6338
27.801531858397514 37.8069
27.824468269376716 37.7432
27.847405817586786 37.6718
27.870344504116094 37.8988
27.893463551932008 38.0912
27.916404527281053 38.1247
27.93934664422563 38.2129
27.962289903855886 38.2896
27.98541356491974 38.4897
28.00835912214229 38.6445
28.03130582533231 38.6939
28.054253675581805 38.9355
28.077381967556104 38.777
28.100332124185126 38.8638
28.123283431160893 38.7589
28.146235889577238 38.6422
28.169368830154156 38.5708
28.192323603752033 38.4157
28.215279532083304 38.0471
28.238415973016764 37.8561
28.261374223145094 37.7984
28.284333631303806 37.5364
28.307294198589954 37.3557
28.330435319167677 37.0981
28.353398217078915 36.7997
28.376362277420153 36.5604
28.39932750129032 36.5393
28.422473319286713 36.2996
28.44544088262495 36.2236
28.468409612800283 36.1764
28.491379510913497 35.8334
28.51453004413313 35.7083
28.53750229057244 35.7958
28.56047570826344 35.778
28.583450298308804 35.8141
28.606605564586562 35.5447
28.629582511831156 35.6639
28.65256063474956 35.3957
28.675539934446338 35.4131
28.698699951647605 35.4668
28.72168161743193 35.3081
28.74466446331978 35.3381
28.767648490417624 35.2359
28.790813276438353 35.3044
28.813799678527303 35.3396
28.836787265157085 35.2726
28.859955641890075 35.258
28.882945610203045 35.306999999999995
28.905936766392035 35.176
28.928929111566863 35.2868
28.952102288520145 35.2105
28.975097024308607 35.068000000000005
28.998092952423807 34.8095
29.021090073977508 34.8269
29.04426806913204 34.8383
29.067267590245258 34.5243
29.090268308143695 34.5839
29.11327022394099 34.5531
29.13645305530891 34.3587
29.159457379627167 34.286
29.18246290519685 34.1866
29.20546963313352 34.1893
29.22865731875826 34.2191
29.25166646419296 34.1902
29.27467681535305 34.0854
29.29768837335608 34.1234
29.320880931312562 34.1917
29.34389491580634 34.1133
29.366910110507334 34.0945
29.38992651653503 34.0674
29.41312396492981 34.1362
29.436142806456754 34.05
29.45916286268059 33.9223
29.48236399319994 33.7955
29.50538649169417 33.7153
29.528410208259935 33.7014
29.55143514402014 33.4821
29.574641196749695 33.3958
29.597668583816574 33.2392
29.6206971934585 33.0871
29.64372702680042 32.992
29.666938019934474 32.917
29.689970313635285 32.8499
29.713003834422636 32.888000000000005
29.73603858342347 32.8208
29.759254535188578 32.7385
29.78229175361658 32.6147
29.80533020365064 32.7848
29.82836988641968 32.7909
29.85159081507472 32.5822
29.874632976355343 32.635
29.89767637376955 32.6292
29.920721008448314 32.4822
29.9439469322847 32.5432
29.96699405457564 32.3567
29.9900424175358 32.5427
30.013092022298157 32.4759
30.03632295963995 32.2835
30.059375061131373 32.3522
30.08242840783577 32.3849
30.105483000888153 32.3543
30.128718970092244 32.191
30.151776069006917 32.2513
30.17483441768648 32.3451
30.198074175317235 32.3202
30.221135036724256 32.3277
30.24419715131772 32.1443
30.267260520236203 32.1811
30.290505341942243 32.2115
30.313571232750228 32.2084
30.336638381310948 32.1376
30.35970678876503 32.0503
30.38295669299435 32.0374
30.40602763151657 32.1056
30.429099832366074 32.0978
30.452173296685572 31.9765
30.47542830191959 32.02
30.498504306502497 31.8996
30.521581577995562 31.9866
30.544660117543582 32.0429
30.56792024229725 32.0374
30.59100133132069 32.0088
30.614083691845494 31.9288
30.637167325018545 32.0848
30.660432587840603 32.0962
30.683518779717886 32.0606
30.70660624769615 32.0996
30.729694992924372 32.0521
30.75296541239743 32.1438
30.77605672557558 31.9345
30.799149319462742 32.071999999999996
30.8224236211637 31.9586
30.845518789950724 31.7934
30.868615242910597 31.7685
30.891712981195973 31.6779
30.91499247215866 31.4845
30.938092794619365 31.4742
30.96119440587579 31.2899
30.984297307082752 31.2452
31.00758200598383 31.1584
31.030687500658694 31.0895
31.053794288760695 31.0995
31.076902371446767 30.9395
31.100192296997445 30.9977
31.12330298246119 30.9106
31.14641496599209 30.9349
31.169528248749216 30.9779
31.19282341969534 30.8158
31.215939314557186 30.8251
31.239056512134788 30.7981
31.262175013589378 30.7731
31.28547544871168 30.7853
31.30859657161541 30.7271
31.331719001892175 30.829
31.35484274070538 30.8843
31.378148458819545 30.9567
31.401274828443725 30.7438
31.424402510106933 30.8425
31.447712205419993 30.8914
31.470842524931633 30.7146
31.493974159989783 30.746
31.51710711176168 30.619
31.54042212308802 30.6705
31.563557722100917 30.6373
31.586694641341655 30.5125
31.609832881979628 30.4089
31.63315322823208 30.3058
31.656294125521327 30.2157
31.679436347728515 30.1704
31.70257989602529 30.1778
31.725905596152327 30.0958
31.74905181052835 30.0675
31.772199354521323 30.0691
31.79534822930507 30.1678
31.818679302290967 30.0644
31.84183085259981 30.1197
31.864983737233473 30.033
31.88813795736804 30.0273
31.911474422233013 29.9703
31.934631327356435 30.05
31.9577895715215 30.026
31.980949155906522 29.9757
32.004291031706956 29.9344
32.027453310562606 29.7959
32.05061693318573 29.7097
32.07396288236386 29.6088
32.09712920658542 29.6082
32.12029687812702 29.5113
32.14346589817093 29.4847
32.166817291729984 29.4166
32.18998902288583 29.3117
32.21316210610336 29.2205
32.23633654256711 29.1584
32.259693399663725 29.1679
32.282870556771144 29.0517
32.30604907069099 29.0653
32.329228942610065 28.9843
32.35259128243769 28.8809
32.375773884550505 28.7854
32.398957848235646 28.8189
32.422143174682176 28.7785
32.445511016471215 28.741
32.468699082679954 28.6288
32.49188851523011 28.5733
32.51507931531304 28.5815
32.538452678331 28.5319
32.56164622776311 28.5089
32.58484114831493 28.4215
32.60803744118015 28.4697
32.631416344731896 28.4067
32.654615396551876 28.421999999999997
32.67781582427913 28.375999999999998
32.701198898634416 28.2018
32.72440209253756 28.2556
32.747606665947124 28.1691
32.77081262006088 28.1325
32.79420126883317 28.0377
32.81740999876112 28.1196
32.840620112999424 27.8886
32.86383161274818 27.9704
32.88722585534586 27.9778
32.91044014056596 27.9921
32.933655814909734 27.8953
32.95687287957963 27.9506
32.98027273544904 27.8453
33.00349259526636 27.7857
33.026713849030116 27.8615
33.04993649794511 27.7858
33.073341986570746 27.7436
33.09656744032826 27.6962
33.11979429286444 27.6739
33.14302254538647 27.6064
33.166433686291185 27.616999999999997
33.18966475336992 27.5976
33.212897224069096 27.5205
33.23613109959831 27.5185
33.259547912343415 27.539
33.2827846121627 27.5189
33.306022720453775 27.3513
33.32926223842861 27.3637
33.352684742614166 27.3208
33.37592709463173 27.3084
33.399170859982064 27.226999999999997
33.422597648419426 27.0999
33.44584425514446 26.9914
33.46909227885668 26.9745
33.4923417207723 26.8864
33.51577423505344 26.9485
33.539026528130385 26.8206
33.56228024307245 26.8669
33.585535381098246 26.6892
33.60897364093058 26.629
33.63223163992385 26.6576
33.6554910656699 26.6066
33.678751919389796 26.5176
33.702195944520106 26.418000000000003
33.72545966903325 26.5294
33.74872482519663 26.4089
33.771991414233746 26.4348
33.79544122444841 26.3889
33.81871069412428 26.3256
33.84198160035767 26.301
33.86525394437455 26.3521
33.88870955949969 26.225
33.911984794020626 26.2451
33.93526147001624 26.1617
33.958539588715006 26.1362
33.98200102861669 26.0372
34.0052820477047 25.945
34.02856451319451 25.9617
34.05203033759056 25.9154
34.07531571090147 25.798000000000002
34.09860253431845 25.8113
34.121890809074316 25.8323
34.145362493118924 25.8212
34.16865368561615 25.6246
34.191946333164054 25.6753
34.21524043699793 25.6945
34.23871800066799 25.6197
34.26201503218366 25.6061
34.28531352370466 25.5955
34.30861347646881 25.482
34.33209693978188 25.4514
34.3553998301885 25.3905
34.378704185565205 25.3378
34.402010007152356 25.3204
34.42549939016683 25.2922
34.44880815937748 25.213
34.472118398533134 25.1212
34.49543010887669 25.1734
34.51892543169198 25.1028
34.54224009966052 25.1256
34.56555624255917 25.1007
34.58887386163339 24.9789
34.61237514439016 24.9297
34.6356957311114 24.859
34.65901779775809 24.8836
34.68252356662995 24.8296
34.705848608458616 24.8819
34.72917513396849 24.7804
34.75250314440949 24.746
34.77601490857862 24.6801
34.799345904259795 24.6268
34.82267838863559 24.5344
34.846012362958525 24.5918
34.869530142679984 24.6133
34.89286711232212 24.5378
34.91620557568269 24.4938
34.93954553401677 24.4542
34.9630693495876 24.3632
34.986412313340814 24.3833
35.00975677584668 24.4606
35.033102738362956 24.3247
35.05663261012228 24.3279
35.0799815881786 24.259
35.10333207003229 24.1882
35.12668405694369 24.2453
35.150220005273056 24.1086
35.17357501786656 24.1448
35.19693153931268 24.116
35.220289570874385 24.1124
35.24383161619786 24.163
35.267192683604904 24.0856
35.290555264930376 23.9472
35.314101899412165 23.9784
35.33746752422433 23.9979
35.36083466676374 24.0465
35.38420332829803 23.9266
35.407756095629054 23.9681
35.43112781085063 23.8845
35.45450104888391 23.831
35.477875810999194 23.7974
35.50143473172161 23.8241
35.52481255774625 23.8068
35.54819191167777 23.6919
35.57157279478914 23.624000000000002
35.595137889488406 23.6153
35.61852184675279 23.7082
35.641907337029984 23.5962
35.665294361595684 23.517
35.68886565090076 23.456999999999997
35.7122557598848 23.4232
35.73564740699838 23.4012
35.759040593519934 23.4005
35.78261809810353 23.3666
35.80601437933051 23.2029
35.829412203814705 23.245
35.85281157283719 23.160999999999998
35.876395313415884 23.1771
35.8997977874528 23.1366
35.92320180988546 23.0901
35.946790244133936 22.930999999999997
35.97019737933222 23.0383
35.993606066789866 23.0066
36.01701630779276 23.019000000000002
36.04061101440684 22.9627
36.06402437852291 22.9533
36.08743930005611 22.9456
36.1108557802951 22.7907
36.13445678011326 22.8188
36.15787639383515 22.826999999999998
36.18129757014299 22.7043
36.20472031032821 22.6862
36.22832762423364 22.6308
36.25175350829375 22.5427
36.275180960119776 22.5264
36.298609981005924 22.6344
36.32222362992669 22.5532
36.34565580510207 22.5515
36.36908955323448 22.5089
36.39252487562093 22.4113
36.416144880530226 22.3115
36.43958336764275 22.3759
36.463023432914625 22.353
36.486465077645676 22.3198
36.51009145956204 22.3595
36.53353627947859 22.2683
36.55698268276811 22.263
36.58043067073321 22.1606
36.60406345072071 22.1116
36.62751462435344 22.0875
36.65096738658405 22.0845
36.67460498210655 22.1149
36.69806093788647 22.0991
36.72151848619297 21.9382
36.744977628333636 21.9561
36.76862165890998 21.9258
36.79208400512205 21.8341
36.81554794910557 21.8666
36.83901349217101 21.7755
36.862663978991606 21.7517
36.88613273667352 21.7526
36.90960309738324 21.7528
36.933075062434064 21.7178
36.95673202673572 21.6759
36.98020721697122 21.6269
37.003684015502365 21.5261
37.027162423645365 21.5282
37.050825886711465 21.4348
37.07430753063053 21.3875
37.09779078812467 21.3964
37.121275660513014 21.3508
37.144945643673694 21.3661
37.16843376245278 21.3186
37.19192350009803 21.3247
37.215414857931435 21.2629
37.239091382563885 21.2115
37.262585997426164 21.1954
37.28608223645736 21.214000000000002
37.309763684451696 21.1978
37.33326318851098 21.0782
37.356764320726555 21.0367
37.380267082425526 21.0376
37.40395510942588 21.0299
37.42746114683234 20.8851
37.45096881771841 20.9438
37.474478123414166 20.9244
37.49817275092816 20.8845
37.52168534303452 20.815
37.54519957395567 20.7083
37.568715445024665 20.7681
37.592416694607714 20.7085
37.61593586281424 20.7487
37.63945667518264 20.7416
37.66297913304891 20.6437
37.68668702630454 20.6483
37.710212792059274 20.5154
37.733740207334854 20.5015
37.757269273470364 20.4817
37.780983832050374 20.4433
37.80451621684926 20.4504
37.82805025654007 20.3563
37.851585952464795 20.3726
37.8753071980695 20.320999999999998
37.89884622345676 20.3486
37.92238690911902 20.2901
37.94611318753442 20.1874
37.969657210779765 20.1778
37.99320289834801 20.1742
38.016750251586465 20.12
38.04048325513017 20.0436
38.06403395679343 20.0899
38.087586328183946 20.0666
38.11114037065203 20.0373
38.13488012115898 20.0816
38.1584375229181 20.005
38.181996599821 19.9634
38.205557353221124 19.9164
38.229303872575656 19.8291
38.2528679961576 19.842
38.27643380031219 19.7851
38.30000128639589 19.7872
38.32375459653193 19.702
38.34732546371299 19.7798
38.37089801690786 19.6252
38.39447225747609 19.6435
38.418232380377425 19.6401
38.441810012983396 19.6114
38.46538933705673 19.5356
38.488970353960084 19.5717
38.51273731166058 19.5181
38.536321731567014 19.4281
38.55990784840681 19.4062
38.58367995004091 19.343
38.60726947812959 19.334
38.63086070726198 19.3559
38.654453638806274 19.3561
38.678232613930824 19.2685
38.70182896773327 19.188
38.72542702806741 19.1687
38.7490267963045 19.2119
38.77281266709232 19.1687
38.79641586862214 19.1418
38.8200207821842 19.1078
38.843627409152944 19.0778
38.86742019782782 19.0699
38.891030269149255 18.9603
38.914642058016156 18.9292
38.938255565806124 18.8883
38.96205529464307 18.8839
38.98567225787121 18.8936
39.00929094417078 18.8952
39.03291135492255 18.8577
39.05671804624804 18.7821
39.080341923549106 18.7862
39.103967529460334 18.7288
39.127594865365744 18.6371
39.15140854155791 18.6061
39.17503935514948 18.6562
39.19867190290282 18.6592
39.22249083587951 18.5994
39.24612686969409 18.5938
39.269764641845306 18.5336
39.293404153722804 18.5346
39.317230110864074 18.3983
39.34087311998506 18.4056
39.36451787301696 18.4646
39.388164371352595 18.3756
39.41199737518003 18.3132
39.43564738196752 18.2876
39.45929913825317 18.2404
39.48295264543308 18.2786
39.506792718520884 18.2196
39.530449745387216 18.1794
39.55410852735203 18.1359
39.57776906581474 18.1823
39.60161623079 18.1412
39.625280300200025 18.0905
39.64894613032202 17.9963
39.67261372255866 18.0169
39.6964680021016 18.0391
39.72013913657293 17.9682
39.74381203738292 17.9318
39.76748670593756 17.9423
39.79134812278169 17.942999999999998
39.81502634488497 17.8577
39.83870633896685 17.8165
39.862388106436654 17.8335
39.88625668336918 17.7163
39.90994201572829 17.761
39.933629125719285 17.6797
39.957503091207826 17.6907
39.9811937746168 17.7639
40.00488623990914 17.6136
40.02858048850006 17.599
40.05246165409549 17.561
40.076159487492085 17.49
40.099859108448875 17.5382
40.123560518384345 17.5167
40.1474489070226 17.4576
40.171153913178564 17.416
40.194860712584955 17.3786
40.2185693066637 17.3897
40.242464941335314 17.3273
40.26617714307655 17.3309
40.289891143772046 17.3095
40.3136069448471 17.2701
40.33750984859743 17.242
40.3612292688043 17.2266
40.3849504936829 17.2268
40.40867352466194 17.1766
40.43258372059144 17.1239
40.45631038219906 17.1782
40.48003885420956 17.0796
40.503769138055105 17.0087
40.52768664931955 16.9889
40.55142057531802 16.9802
40.57515631746428 16.9939
40.599079334038514 16.9797
40.62281872700477 16.9292
40.64655994043941 16.8947
40.67030297578061 16.8027
40.69423334835778 16.84
40.71798004609188 16.8077
40.74172857006355 16.7687
40.76547892171441 16.7395
40.7894166736039 16.6953
40.813170699248566 16.6752
40.83692655691388 16.6799
40.86068424804498 16.6815
40.884629402612525 16.6259
40.908390779366385 16.6041
40.932153993938 16.5769
40.95591904777605 16.5953
40.979871628443995 16.538
41.003640379561936 16.4918
41.02741097430883 16.4703
41.05118341413683 16.4554
41.075143444384416 16.3939
41.098919593177826 16.4408
41.1226975914255 16.3948
41.14647744058318 16.3807
41.170444943946755 16.2808
41.19422851378379 16.255
41.218013938914645 16.1963
41.24198706625173 16.2108
41.26577622087193 16.1307
41.289567235177785 16.1324
41.31336011063129 16.1293
41.337340752422875 16.0703
41.361137369129835 16.0563
41.38493585138705 16.0113
41.40873620066004 16.0008
41.43272438060107 16.0314
41.45652848292052 16.0466
41.48033445666918 15.9247
41.50414230331616 15.8975
41.528138045159764 15.8901
41.551949656675205 15.8087
41.575763145513235 15.8526
41.59957851314666 15.8327
41.62358184070442 15.7767
41.64740098505737 15.7592
41.6712220126409 15.7025
41.69504492493139 15.7024
41.71905586207357 15.6851
41.74288256296395 15.6523
41.766711153007456 15.6384
41.79054163368412 15.6348
41.814560204340054 15.6181
41.838394485526365 15.5502
41.86223066180303 15.468
41.88625497706819 15.5499
41.910094962812 15.4891
41.93393684811168 15.4565
41.95778063445365 15.4448
41.981812625263366 15.4182
42.00566023303407 15.3675
42.029509746323676 15.3737
42.05336116662236 15.3757
42.077400857069705 15.2906
42.10125611078846 15.2673
42.12511327600405 15.2303
42.14897235421036 15.242
42.173019768448455 15.1942
42.19688269209613 15.1832
42.22074753323349 15.139000000000001
42.24461429335818 15.1177
42.268669455600495 15.1178
42.292540073217886 15.0669
42.31641261433284 15.0522
42.34028708044675 15.026
42.36435001496739 15.035
42.38822835065557 14.9707
42.41210861586426 14.9617
42.4359908120986 14.9145
42.46006154323262 14.9168
42.48394762115317 14.8372
42.507835634632315 14.8174
42.531912233047436 14.8414
42.55580413732265 14.7548
42.579697981698 14.7621
42.60359376768525 14.7339
42.62767820545945 14.7243
42.65157789440821 14.7229
42.67547952952185 14.7097
42.699383112316 14.67
42.72347541395347 14.5534
42.74738291190531 14.5414
42.771292362102166 14.557
42.795203766063516 14.5486
42.819303956130405 14.5543
42.843219287476536 14.4504
42.86713657716324 14.4606
42.89105582671383 14.4347
42.91516392983864 14.3865
42.939087119032166 14.3868
42.963012272677304 14.3699
42.98693939230129 14.3292
43.01105543317513 14.3219
43.034986504731386 14.2921
43.05891954686589 14.3237
43.08285456110972 14.2911
43.10697856448665 14.2495
43.130917542983475 14.2082
43.15485849820081 14.1746
43.17880143167367 14.1361
43.20293342237094 14.0937
43.226880332449 14.0822
43.25082922540554 14.0783
43.27496722682525 14.067
43.29892010567796 13.9928
43.32287497204102 13.9787
43.34683182745632 13.9321
43.370977859791836 13.9532
43.39493871351105 13.9257
43.41890156092628 13.9327
43.44286640358341 13.8806
43.46702049182749 13.9222
43.49098934522816 13.8585
43.51496019852649 13.7927
43.5389330532723 13.7885
43.56309522248204 13.7272
43.58707210044314 13.7467
43.61105098451946 13.7175
43.63503187626491 13.690999999999999
43.659202151562134 13.681
43.68318707902681 13.6771
43.70717401884041 13.6524
43.731162972560874 13.6088
43.75534137913236 13.5381
43.779334381108384 13.5131
43.803329401683186 13.5456
43.82732644241872 13.5235
43.8515130055166 13.4921
43.87551410707659 13.4294
43.89951723350145 13.5064
43.923709934595614 13.3966
43.94771713129917 13.3895
43.97172635758096 13.3351
43.99573761501002 13.3438
44.0199385169922 13.3204
44.04395385732619 13.3234
44.067971233533086 13.2682
44.09199064718605 13.2874
44.11619977548961 13.2545
44.14022328470671 13.2309
44.16424883610785 13.207
44.18827643127035 13.1836
44.21249381139513 13.1195
44.236525514814076 13.084000000000001
44.26055926674478 13.0461
44.28459506876863 13.0437
44.3088207262813 13.0552
44.33286064928722 12.9891
44.35690262714919 13.0358
44.38094666145278 13.0183
44.4051806219871 12.9877
44.42922879003185 12.9403
44.45327901929361 12.9574
44.477331311362136 12.8776
44.501573600619416 12.8439
44.525630039221795 12.8477
44.54968854541895 12.842
44.573937102200176 12.7923
44.5979997645541 12.7905
44.622064499300315 12.7557
44.64613130803592 12.7331
44.67038823869318 12.7412
44.69445921643748 12.6615
44.718532272981385 12.6397
44.742607409926194 12.6558
44.76687274034801 12.6087
44.79095205918753 12.5761
44.81503346325094 12.5534
44.839116954143876 12.5629
44.86339071028742 12.5645
44.88747839599524 12.5085
44.91156817336837 12.4493
44.93566004401666 12.4587
44.959942251908146 12.3988
44.984038330325966 12.415999999999999
45.00813650686762 12.4157
45.03223678314731 12.4218
45.05652746888232 12.3517
45.08063196592069 12.3243
45.104738567558705 12.3366
45.128847275414856 12.3016
45.15314646515866 12.2079
45.17725940679741 12.1904
45.20137445952892 12.1876
45.22568004865265 12.2015
45.24979934496396 12.2105
45.27392075725247 12.1255
45.29804428714431 12.163
45.322358426247604 12.1092
45.346486212804315 12.1112
45.370616121861914 12.0923
45.39474815505086 12.0651
45.41907087049246 11.99
45.4432071734666 12.0209
45.46734560548283 11.9663
45.49148616817604 11.9804
45.51581748638564 11.9376
45.5399623320197 11.9347
45.56410931325473 11.9255
45.58825843173002 11.8963
45.61259837920865 11.8733
45.636751793816 11.8186
45.66090735060093 11.7904
45.68506505120716 11.7865
45.7094136545275 11.7638
45.73357566449271 11.77
45.75773982322992 11.7089
45.78190613238733 11.7612
45.806263418194064 11.7304
45.83043404997326 11.6912
45.85460683713677 11.6454
45.87897065658495 11.6841
45.90314777634752 11.6339
45.92732705646868 11.561
45.9515084986045 11.5834
45.97588104735473 11.5702
46.00006683541565 11.5239
46.02425479047904 11.5061
46.04844491420549 11.4738
46.0728262191024 11.4486
46.09702070211635 11.4458
46.12121735879483 11.4108
46.14541619080294 11.4376
46.169806278764455 11.4015
46.194009483459034 11.3684
46.21821486849841 11.3675
46.24242243555223 11.3045
46.266821333570014 11.307
46.29103328674601 11.3341
46.31524742696538 11.302999999999999
46.33946375590237 11.2677
46.36387149104216 11.2706
46.38809221957392 11.2188
46.41231514186606 11.1747
46.436540259597464 11.1814
46.460956858999374 11.1725
46.48518638983522 11.129000000000001
46.509418121166966 11.1147
46.533652054678114 11.0724
46.55807754555709 11.0262
46.58231590571962 11.0283
46.60655647313217 11.0088
46.630988654873654 10.9913
46.655233659129024 10.9531
46.67948087571551 10.9707
46.70373030632484 10.9367
46.72817142736393 10.9061
46.752425308428684 10.9428
46.77668140861147 10.9042
46.80093972960865 10.8902
46.82538981736788 10.8295
46.849652602470904 10.8249
46.87391761349769 10.8071
46.8981848521493 10.7964
46.9226439341274 10.7394
46.946915650573224 10.741
46.97118959976749 10.6715
46.99546578341598 10.7041
47.019933887188216 10.7071
47.04421456235744 10.6825
47.06849747711879 10.6884
47.09278263318286 10.6376
47.11725978640143 10.5832
47.14154944775105 10.5771
47.165841355555656 10.5327
47.1901355115306 10.4957
47.214621741924994 10.5223
47.23892041698887 10.5393
47.26322134538975 10.4859
47.28771440635075 10.4418
47.31201986422527 10.4392
47.33632758061436 10.4447
47.360637557241866 10.3898
47.38513974410611 10.3959
47.40945426407847 10.4106
47.43377104948137 10.3576
47.45809010204344 10.353
47.48260144275502 10.3275
47.506925052572285 10.2757
47.53125093475548 10.2537
47.55557909103813 10.2748
47.58009961361992 10.2003
47.60443234110732 10.1864
47.62876734791564 10.1672
47.65310463578333 10.1903
47.6776343683373 10.169
47.7019762413987 10.1291
47.72632040075572 10.0988
47.75066684815169 10.1304
47.77520581885936 10.056000000000001
47.799556865477655 10.0811
47.823910205386 10.0462
47.84826584033272 10.0445
47.87281407745551 10.0058
47.89717432569297 9.989239999999999
47.92153687423484 9.973180000000001
47.94609208429692 9.95636
47.97045925671401 9.93357
47.99482873471275 9.880560000000001
48.01920052005013 9.88445
48.04376504619224 9.90958
48.068141469543484 9.91078
48.09252020552573 9.89075
48.11690125590099 9.83807
48.1414751266064 9.79515
48.16586082917454 9.80328
48.19024885144316 9.75441
48.2146391951793 9.76577
48.239222439012764 9.778739999999999
48.26361744916137 9.71693
48.28801478610016 9.71031
48.31241445160131 9.69483
48.337007097209366 9.66344
48.36141144338331 9.66283
48.38581812345755 9.62188
48.41022713920929 9.61252
48.434829215320704 9.63526
48.45924292604658 9.62783
48.48365897780325 9.59145
48.50807737237308 9.57579
48.532688907799276 9.51648
48.55711201168574 9.48606
48.581537463754074 9.52467
48.60615611725119 9.53253
48.63058628942721 9.48661
48.65501881516546 9.46458
48.6794536962573 9.452760000000001
48.70408185970339 9.447410000000001
48.72852147531801 9.40677
48.75296345168211 9.327810000000001
48.77740779059232 9.33563
48.80204549302823 9.40727
48.82649458091802 9.32517
48.85094603676547 9.30769
48.87539986237231 9.2666
48.90004713292306 9.27985
48.92450572200832 9.25361
48.94896668628025 9.2526
48.97343002754588 9.201889999999999
48.99808689542115 9.20481
49.02255501470614 9.20677
49.04702551642794 9.1464
49.0714984023988 9.16169
49.096164896893235 9.14816
49.120642575466796 9.105080000000001
49.145122643748394 9.09155
49.16960510355558 9.064689999999999
49.19428125404938 9.07718
49.2187685210852 9.05503
49.243258185121555 9.009260000000001
49.26794160167084 9.0045
49.2924360839405 8.94763
49.31693296869764 8.97199
49.34143225776915 8.95616
49.36612538195438 8.96655
49.39062950396021 8.93633
49.41513603578346 8.936630000000001
49.4396449792564 8.86535
49.46434784069503 8.87847
49.488861631846454 8.871830000000001
49.513377840166804 8.8848
49.537896467493745 8.8228
49.56260909589029 8.80751
49.587132585683285 8.81205
49.611658500018365 8.777439999999999
49.636186840738596 8.78107
49.66090926588511 8.75814
49.685442483902584 8.75002
49.70997813385706 8.689680000000001
49.734516217597076 8.67525
49.75924846937352 8.653139999999999
49.7837914452858 8.63986
49.80833686055187 8.64813
49.83288471702571 8.6314
49.85762682540054 8.62236
49.882179588965734 8.57017
49.9067347993235 8.538780000000001
49.93129245833333 8.57085
49.95604445336378 8.5545
49.98060703442832 8.52557
50.005172069746266 8.47615
50.02993150438364 8.47915
50.05450147301533 8.47887
50.07907390151433 8.47608
50.10364879174981 8.44277
50.12841816587289 8.43228
50.1529980044635 8.403830000000001
50.17758031042124 8.39444
50.20216508562089 8.36542
50.22694442953363 8.332989999999999
50.25153416817468 8.35144
50.27612638170508 8.3091
50.300721072005196 8.288689999999999
50.325510416102105 8.29003
50.350110084975064 8.28615
50.37471223628208 8.28256
50.39931687190919 8.25736
50.424116246675766 8.222480000000001
50.44872587605249 8.24642
50.47333799543065 8.17958
50.49795260670191 8.20105
50.52276204271512 8.14166
50.54738166295838 8.13291
50.57200378079314 8.13915
50.596628398116835 8.12577
50.62144792604559 8.12703
50.646077567609396 8.12008
50.670709714377715 8.08991
50.69553683636198 8.05105
50.72017401885922 8.04598
50.7448137122895 8.03632
50.76945591856022 8.05643
50.79429318636823 8.03452
50.818940443716784 8.01618
50.84359021965163 7.98048
50.868242516085964 7.95913
50.893089960641895 7.94185
50.917747323549435 7.91316
50.94240721271973 7.936160000000001
50.96706963007175 7.861510000000001
50.99192728239342 7.867610000000001
51.01659478166073 7.881419999999999
51.04126481489051 7.86412
51.06593738400761 7.828469999999999
51.090805275207074 7.81462
51.11548294172845 7.80179
51.14016314993547 7.78597
51.164845901758845 7.79135
51.18972406304274 7.74688
51.21441192780656 7.738410000000001
51.23910234200271 7.75921
51.2637953075678 7.711310000000001
51.288683770237945 7.67595
51.31338186432707 7.649769999999999
51.33808251561888 7.67393
51.362978729967345 7.65009
51.387684521509755 7.63094
51.41239287610203 7.608969999999999
51.437103795691165 7.60077
51.46201036644977 7.61717
51.486726441956634 7.53442
51.51144508832545 7.55593
51.536166307509156 7.56695
51.56108326624387 7.549239999999999
51.58580965706056 7.525980000000001
51.61053862657523 7.4706600000000005
51.635270176746864 7.4826
51.66019755512065 7.43854
51.68493429268881 7.42718
51.70967361681515 7.4428
51.73441552946465 7.420260000000001
51.759353359237934 7.40504
51.7841004750961 7.338660000000001
51.80885018539685 7.36578
51.833602492111254 7.3424
51.8585508051424 7.31878
51.883308330926425 7.30939
51.90806845906181 7.31571
51.932831191525715 7.25046
51.95779001977161 7.261939999999999
51.98255798721516 7.23302
52.00732856494335 7.2231
52.03229530577543 7.228
52.057071130455945 7.2372
52.081849571391054 7.21117
52.106630630568695 7.14752
52.13160794279417 7.13868
52.15639426492067 7.13426
52.18118321127822 7.13095
52.205974783860896 7.11132
52.23096269971011 7.12892
52.255759551287994 7.0762
52.280559035098186 7.077780000000001
52.30536115314103 7.065360000000001
52.33035970494467 7.04723
52.35516711807904 7.0674399999999995
52.37997717147198 7.02275
52.40478986713005 7.01962
52.42979908731974 7.0167600000000006
52.454617094216 6.991160000000001
52.47943774942214 6.939889999999999
52.50426105495102 6.95609
52.529280976059844 6.9127600000000005
52.554109609024096 6.919169999999999
52.57894089837482 6.911289999999999
52.60377484613117 6.882639999999999
52.62880550079408 6.891360000000001
52.65364479223379 6.85296
52.67848674816189 6.857069999999999
52.70352547971946 6.874039999999999
52.72837279155837 6.8151600000000006
52.753222773982785 6.7731
52.778075429022984 6.76715
52.80312495150885 6.812819999999999
52.827982978797436 6.78543
52.85284368481815 6.7329300000000005
52.87770707160767 6.707110000000001
52.90276741793998 6.6987
52.92763619336701 6.68457
52.952507655698504 6.642989999999999
52.977381806977576 6.6745399999999995
53.00245301017842 6.63813
53.02733256653592 6.6801
53.052214817996074 6.62748
53.077099766608484 6.593430000000001
53.102181859804446 6.60451
53.127072229988265 6.618930000000001
53.15196530349892 6.57837
53.17686108239249 6.53901
53.20195409881522 6.531000000000001
53.22685531582556 6.549180000000001
53.25175924441303 6.53688
53.27666588664027 6.494730000000001
53.30176985962693 6.44926
53.3266819565689 6.46737
53.35159677336455 6.483280000000001
53.376514312083096 6.4686
53.40162927507703 6.4417599999999995
53.42655228516116 6.43049
53.45147802340193 6.4173800000000005
53.47660125628886 6.41089
53.50153247842639 6.39277
53.52646643496923 6.357559999999999
53.55140312799818 6.34531
53.576537409691696 6.3682300000000005
53.60147960336152 6.34701
53.626424539786164 6.3068
53.65137222105307 6.30055
53.67651758529126 6.2702599999999995
53.70147078399681 6.257569999999999
53.72642673383343 6.2666
53.75138543689533 6.24669
53.776541917524526 6.24418
53.801506154876755 6.2506699999999995
53.826473151763246 6.2336
53.851442910284916 6.16068
53.87661054126026 6.13037
53.9015858509782 6.1085400000000005
53.92656392866066 6.148630000000001
53.95154477641532 6.16611
53.976723591801296 6.1268199999999995
54.00171000771266 6.10834
54.02669920004598 6.13432
54.051691170915745 6.07549
54.076881204886796 6.07789
54.101878760928514 6.06301
54.12687910187696 6.06136
54.152077577768296 6.00945
54.1770835166946 5.976030000000001
54.20209224691339 6.01236
54.22710377055121 6.00791
54.25231352511594 5.9903900000000005
54.27733066384342 5.92515
54.30235060239643 5.90716
54.32737334290836 5.9522
54.35259441062629 5.88662
54.377622783395324 5.86028
54.40265396455061 5.8657900000000005
54.42768795623251 5.848669999999999
54.45292037169559 5.84784
54.477960012857906 5.81527
54.50300247099511 5.83398
54.52804774825457 5.76921
54.55329154616743 5.79785
54.57834249018678 5.77405
54.6033962597977 5.73562
54.6284528571545 5.7562
54.653708072335164 5.6836400000000005
54.67877035378786 5.68813
54.70383546947698 5.60201
54.72890342156389 5.611680000000001
54.7541700889442 5.56759
54.77924374251975 5.60332
54.8043202390049 5.58826
54.82959552413022 5.51173
54.8546777351945 5.50406
54.87976279569621 5.47433
54.90485070780914 5.48505
54.930137506558005 5.45644
54.95523115074295 5.46611
54.98032765308844 5.46689
55.005427015775496 5.443980000000001
55.03072536339621 5.425730000000001
55.05583047570572 5.3137
55.080938454927676 5.35499
55.10604930325027 5.337280000000001
55.131359235107396 5.34088
55.15647585066083 5.2420800000000005
55.181595341907496 5.2833
55.20671771104285 5.2742
55.232039262617704 5.2159699999999996
55.25716741665048 5.17594
55.28229845518636 5.24226
55.30743238042802 5.18939
55.33276558731939 5.10468
55.357905315183636 5.13053
55.383047936390035 5.118930000000001
55.40819345314859 5.05211
55.433538351073295 5.07271
55.458689688238415 5.03463
55.483843927614096 4.96055
55.509197623043605 4.99169
55.53435769621134 4.96624
55.55952067826466 4.88655
55.5846865714265 4.9364099999999995
55.61005202069737 4.81731
55.63522376553902 4.84256
55.66039842818645 4.82816
55.68557601087004 4.84408
55.7109532500271 4.8368199999999995
55.73613670233794 4.82868
