TT I
1.2716486653135266 7.13483
1.2939594142134223 6.87971
1.3162702121660406 5.96406
1.3385810600174564 6.37017
1.3608919586137629 6.27491
1.383202908801069 6.01715
1.405513911425503 5.780130000000001
1.4278249673332093 5.44768
1.4501343378461518 5.55377
1.4724455028545926 5.837969999999999
1.4947567236847858 5.49408
1.517068001182951 5.21315
1.5393793361953272 5.4004199999999996
1.5616907295681737 4.83479
1.5840021821477681 4.61745
1.60631369478041 4.270919999999999
1.6286252683124185 4.58935
1.6509369035901333 4.7129900000000005
1.6732468618895553 4.82602
1.695558623192809 4.1426099999999995
1.7178704487808514 4.32901
1.7401823395001077 4.55395
1.7625012545597203 4.664
1.7848028405262486 4.50593
1.8071218901122095 4.422969999999999
1.8294236121921872 4.63675
1.8517427996910911 4.426130000000001
1.8740620574440425 4.34882
1.8963639900671978 4.2295
1.9186833908139995 3.9390400000000003
1.9409854680117449 4.06497
1.9633050151394713 4.23896
1.9856246367570705 4.13
2.0079269371922672 4.11766
2.03024671027244 4.31072
2.0525491637446027 4.0679099999999995
2.074869091674931 4.44495
2.097171701569106 4.3202300000000005
2.1194917877373847 4.230090000000001
2.141811954326636 4.65148
2.164114805233074 4.12397
2.186435135143035 4.06843
2.208738150935709 5.2797
2.231058647554722 6.40971
2.2533792288321184 6.163819999999999
2.275682498336085 5.44275
2.298003251406138 5.09271
2.3203066942619714 4.820469999999999
2.3426276225136022 5.05164
2.3649486396617507 5.81957
2.387252348930071 6.568460000000001
2.4095735463442893 6.479369999999999
2.4318774374315884 5.76163
2.4541988185014043 6.571460000000001
2.476502894794693 7.2240899999999995
2.498824462909887 7.18613
2.521146125856138 7.218389999999999
2.5434504863470337 6.98257
2.5657723414244717 7.6273100000000005
2.588076895590662 8.3471
2.610398946189713 7.81682
2.6327210958598384 8.15478
2.6550259469304716 8.26752
2.6773482972090137 8.51721
2.6996533504259 7.51703
2.7219759047039602 8.425889999999999
2.744298562293959 8.2393
2.7666039251246595 8.00189
2.7889267918020164 8.6377
2.8112323652516555 8.51254
2.833555444408179 8.6493
2.8558786311183852 8.321489999999999
2.8781845268938557 8.80143
2.9005079311721484 8.9489
2.9228140460410397 8.99146
2.9451376712799635 9.47764
2.967444008632326 9.71336
2.9897678582247247 9.62936
3.0120918213106695 10.4276
3.0343984987899373 10.2259
3.0567226913198637 10.835
3.079029599759726 10.9782
3.101354025127254 11.7172
3.123678568232338 12.1324
3.145985829517914 12.5918
3.16831061055229 13.0188
3.1906181112775593 13.8543
3.212943133635653 14.1285
3.2352682779763207 14.3546
3.2575761442691227 14.8351
3.2799015350264273 15.2132
3.302209649240067 15.6972
3.3245352898092655 16.1221
3.3468436553365257 17.0661
3.369169549113219 17.0677
3.3914955708171384 17.8872
3.413804319727358 18.1621
3.4361305997334863 18.0393
3.4584396084414553 18.6738
3.4807661501462652 19.6928
3.503092824025881 19.9968
3.5254022288463154 20.0051
3.5477291695206588 20.7478
3.5700388426251948 20.3782
3.5923660534916446 21.2686
3.6146934007816114 22.7153
3.637003482731501 27.3379
3.6593311053109985 29.9994
3.681641464033634 26.7736
3.7039693653009733 24.0634
3.726297407241705 24.2219
3.7486081875460804 23.9508
3.7709365132734978 24.5828
3.793247578841633 25.4566
3.8155761917550093 25.7166
3.8378875459837216 25.8546
3.8602164494827234 26.1496
3.882545499606844 26.8755
3.9048572932539183 26.9851
3.9271866390645718 27.6234
3.9494987298666713 27.9498
3.971828374764527 28.5756
3.9941581705403255 28.7599
4.016470713506008 29.679000000000002
4.038800813471445 29.9785
4.061113662089144 30.3501
4.0834440696459176 31.1068
4.105774632334751 31.509
4.128087945865126 32.0224
4.150418821249301 32.9471
4.172732448931298 33.8033
4.195063640413578 34.5542
4.2173775856475215 34.9908
4.239709096631102 37.3645
4.262040768704612 51.9374
4.284355196706267 63.3087
4.306687193387355 56.1812
4.329001947444346 44.1018
4.35133427213731 40.7562
4.373666762177566 40.3428
4.395982011761091 40.725
4.418314834921175 41.3474
4.44063041906622 42.9373
4.4629635787515625 45.4597
4.4852969080429785 46.5599
4.5076130004776225 46.4177
4.529946671403969 46.6527
4.552263106909177 47.2638
4.574597122877047 49.02
4.596931312711224 49.5292
4.619248269273446 50.5909
4.6415828092605835 51.8736
4.663900117405352 53.0647
4.686235010953232 54.152
4.708552674085913 55.1191
4.730887924602802 56.9247
4.753223354952695 57.8241
4.775541557023902 59.2482
4.797877349456786 60.8643
4.820195915032126 63.0327
4.842532072957498 64.3086
4.864868414979744 66.4613
4.88718753227192 67.6035
4.909524244902505 69.7047
4.931843734218147 71.4727
4.954180820867835 74.0272
4.976518095879839 76.9946
4.998838149695359 79.7892
5.021175803844231 82.6884
5.043496238205739 85.4049
5.065834274903528 89.3243
5.088172504230693 93.2559
5.1104935158799565 97.4925
5.132832132875765 104.598
5.155153533596801 117.454
5.1774925416746225 136.976
5.199814334878411 228.487
5.2221537374521505 805.855
5.244493338631803 2526.7
5.266815727034316 7252.64
5.289155727832427 13839.0
5.311478517248165 9966.23
5.333818921080011 3374.1
5.356159527788849 665.618
5.3784829252032536 201.485
5.400823940070432 142.164
5.423147747031976 123.056
5.445489173474152 113.647
5.467830807066149 108.04299999999999
5.490155234831516 104.056
5.512497285125229 100.975
5.534822130975162 99.3129
5.557164601388673 97.4701
5.579489868738879 94.3199
5.601832762690846 93.32600000000001
5.6241758697774475 91.9821
5.646501775867269 91.1499
5.668845311622074 90.5644
5.691171647754637 89.7678
5.713515615597765 88.8653
5.735859800852677 87.9731
5.758186788542988 86.7058
5.780531411018185 86.8287
5.802858837297399 86.6808
5.825203900414495 86.4044
5.8475491852224 86.4674
5.869877275883075 87.1776
5.892223006467101 87.9097
5.914551544266608 88.4942
5.936897724049891 90.4731
5.959244129804903 94.6252
5.981573344815301 106.24799999999999
6.0039202049061 162.68200000000002
6.026249875609095 391.64599999999996
6.04859719346037 883.971
6.070927323278297 2028.51
6.093275102315365 4467.15
6.115623113320588 5532.31
6.137953938319995 3663.98
6.160302415650845 1108.33
6.182633708324452 244.895
6.2049826554078376 109.605
6.227331838745022 87.1242
6.249663839443684 80.2295
6.27201349767565 75.8114
6.294345974611799 73.5296
6.316696111167083 72.5265
6.339046488263839 71.4057
6.361379686074702 68.9662
6.383730546639482 66.2601
6.406064229255215 64.9377
6.428415576718203 64.4929
6.450749747566656 63.371
6.47310158535871 62.2275
6.495453669698332 61.6164
6.517788579421056 60.9331
6.540141159237969 60.0015
6.562476565766648 59.6728
6.5848296444934045 58.7015
6.607182974060425 58.5976
6.6295191323281015 57.9378
6.651872965955752 57.6558
6.6742096296068985 58.4441
6.6965639707294615 62.9383
6.71891856698715 64.3064
6.741255995248479 60.1964
6.763611104154477 56.6927
6.785949046381137 54.8918
6.808304671371482 54.4733
6.8306605557940046 54.2459
6.852999275508618 53.9995
6.875355681171544 53.549
6.897694923437771 53.0945
6.92005185377892 53.2139
6.9423916220322655 53.3605
6.964749080490181 52.656000000000006
6.987106804399774 52.3546
7.009447368180821 52.2772
7.031805625367033 52.2749
7.054146723727803 52.1882
7.076505517631004 51.9769
7.098864581288365 51.9958
7.121206488070854 51.6896
7.143566093607822 51.3984
7.165908543567245 51.226000000000006
7.188268694426048 51.6345
7.2106291193438095 51.5767
7.232972390625943 51.2275
7.255333366030969 51.7311
7.277677189091925 55.7479
7.300038718428332 61.5935
7.322400526130865 61.096000000000004
7.344745183422596 55.9442
7.367107550224791 52.341
7.389452767901992 51.4575
7.411815697249891 51.3516
7.434161478756298 50.9736
7.456524974096713 51.271
7.478888753837185 51.163999999999994
7.501235387657368 52.542
7.523599738562711 57.427
7.545946944825532 65.7323
7.568311870344528 69.6672
7.5906770845765665 62.8444
7.613025156078678 55.9172
7.635390950099687 53.6246
7.657739602662809 52.5795
7.680105979923558 52.596000000000004
7.702472650212829 52.9526
7.724822180948224 52.9254
7.747189439655568 53.213
7.769539560075357 53.2148
7.791907410653562 54.0287
7.81425812420825 53.52
7.836626570110925 54.2767
7.858995315087906 54.8718
7.881346924933401 54.8023
7.903716270417482 55.1886
7.926068482028405 55.3193
7.948438431475253 56.347
7.9708086843180235 56.8882
7.993161805171116 57.3121
8.015532667162402 57.6512
8.037886398416653 58.891999999999996
8.060257873014221 59.538000000000004
8.082629655331942 59.5453
8.104984308787587 60.1747
8.127356708900503 60.9912
8.149711981398308 61.9435
8.172085002766314 63.163000000000004
8.194458336181368 63.9097
8.216814543847752 64.5624
8.23918850371002 65.6884
8.26154533906492 66.691
8.283919928836452 68.4001
8.306277395339652 69.031
8.328652618483376 70.3995
8.351028159736202 72.0337
8.373386579575245 73.8179
8.395762759396959 75.4276
8.418121819038275 78.0429
8.440498640894003 81.5317
8.462875785192262 86.395
8.485235811156207 94.0774
8.507613602688501 128.213
8.529974277114228 231.81099999999998
8.552352719347912 380.13
8.574731488360351 620.216
8.59709314210385 1102.08
8.619472567021075 1856.69
8.64183487789147 2332.08
8.664214962183097 2031.34
8.686577933647762 1130.6
8.708958680784317 425.564
8.731339760774953 173.52599999999998
8.753703729764451 108.805
8.77608547780821 94.8662
8.798450116065078 91.4677
8.820832535634787 88.507
8.843215292401656 86.8589
8.865580941199045 85.5435
8.887964374703538 84.4665
8.910330701447199 83.4552
8.932714815164482 83.1964
8.955099270424924 82.4915
8.977466620733543 81.4698
8.999851761421976 80.7021
9.022219798361645 80.2411
9.04460562795561 80.0936
9.066991803441677 80.0223
9.089360876979615 79.5586
9.111747746589993 79.2757
9.13411751544971 78.8842
9.156505082664324 78.9283
9.178875550323522 79.5242
9.20126381862328 80.8288
9.223652438908596 88.4899
9.246023961427412 101.70299999999999
9.26841328802173 106.686
9.290785518039224 98.45299999999999
9.313175554425882 87.0913
9.335565947154315 81.1704
9.357939245086508 79.9426
9.380330352834827 79.7653
9.40270436697103 79.7776
9.425096193225055 79.6695
9.447488380180165 80.4765
9.469863475295412 81.084
9.492256385987508 81.4592
9.514632206018318 81.5516
9.537025843935714 81.9375
9.559402392368193 81.9426
9.581796761000229 83.0375
9.604191496441521 83.4137
9.626569144158516 84.3818
9.648964615551032 85.5748
9.671343000390081 86.4961
9.693739211225699 87.1734
9.716135793237463 87.5174
9.738515290448102 88.3861
9.760912617143402 89.6385
9.783292860202891 90.367
9.805690935076182 91.5454
9.828089385495742 92.4443
9.850470754023561 94.1576
9.872869957865444 95.6969
9.89525208097539 98.4627
9.917652041736662 102.666
9.940052382417589 106.027
9.962435644102392 114.92399999999999
9.984836746950979 146.579
10.007220771957746 227.43099999999998
10.029622640473708 350.403
10.052007432299963 520.732
10.074410069984072 774.9060000000001
10.096813093716005 1196.17
10.119199042482517 1755.01
10.141602840636468 2108.21
10.163989564971628 1734.41
10.186394141051062 1026.89
10.208799107559706 451.347
10.231187001965623 201.25
10.253592751657669 125.40100000000001
10.275981430388155 107.74799999999999
10.298387966769793 103.275
10.320794897965431 102.334
10.343184759907361 100.809
10.36559248305461 98.9865
10.387983138083852 97.8045
10.410391656691655 98.9275
10.432800574501677 107.56700000000001
10.455192425893369 130.109
10.47760214443012 162.792
10.499994797678786 205.503
10.522405320453982 275.216
10.54479877906917 386.88800000000003
10.567210109595656 511.676
10.5896218454736 595.4119999999999
10.612016518879773 580.326
10.634429067781074 406.676
10.656824555333241 238.90400000000002
10.679237920773568 144.211
10.701651695961992 103.809
10.724048411481384 92.2209
10.746463008485165 85.3531
10.768860546937125 82.2027
10.791275969274796 80.0306
10.81369180576079 78.8387
10.836090585366925 77.597
10.858507252467449 76.3656
10.88090686379991 75.7665
10.903324365036394 74.7733
10.925724811614439 73.7067
10.948143150509463 73.4018
10.970561909719066 72.4654
10.992963615930844 71.488
11.015383218085756 70.7224
11.037785768347074 69.7664
11.06020621697282 69.352
11.082627090322113 68.8546
11.105030913430326 68.1762
11.12745263854165 67.5572
11.149857314510728 67.0647
11.172279894912576 67.6407
11.194702904450653 67.1652
11.217108866490921 66.7077
11.239532736615194 66.0048
11.26193956033512 65.2622
11.284364294577085 64.8643
11.306789462371718 64.2065
11.329197585398376 63.8988
11.351623622610898 63.6188
11.37403261614354 63.0931
11.396459526308487 63.3068
11.418869393879497 62.6966
11.441297180532617 62.2366
11.463725406927658 61.9606
11.486136592353875 61.7063
11.508565700543707 61.2014
11.530977768845315 61.1066
11.553407762368774 61.2423
11.575838200059769 61.3034
11.598251599479612 60.8719
11.620682927815501 60.4798
11.64309721895548 60.8452
11.665529441478206 60.3147
11.687962112597958 60.0515
11.710377748130886 60.0352
11.732811318753434 59.9813
11.755227854859067 60.0742
11.777662328529495 59.8247
11.800079768750786 59.3527
11.822515149015453 59.7165
11.844950984084935 59.8321
11.867369787303163 59.7938
11.889806534289491 60.0892
11.912226250487029 61.6942
11.934663912939751 64.1937
11.9571020346363 66.3558
11.979523127133968 66.7117
12.001962169624331 65.3726
12.024384183972964 63.4578
12.046824150809913 64.0759
12.069264581333726 69.4227
12.091687985297767 77.2036
12.11412934550045 86.6989
12.136553680195208 99.9156
12.158995973632788 121.191
12.181438735204349 146.86700000000002
12.20386447284199 179.243
12.226308172985636 200.625
12.24873485024193 210.016
12.271179492516982 177.485
12.293607112949127 134.924
12.316052700916226 97.1565
12.338498763250042 73.9826
12.360927805303868 64.3206
12.383374818673879 62.2193
12.405804812803074 61.465
12.428252780773262 61.1843
12.45070122756722 61.4818
12.473132656675375 61.0654
12.49558206341869 61.3101
12.518014453510101 61.3436
12.540464823770117 61.3634
12.562915677315177 61.7469
12.58534951575545 61.9652
12.607801338171472 61.9891
12.630236146511358 62.5799
12.652688941369085 63.7569
12.675124723177234 64.1779
12.697578494048786 64.1119
12.720032754458185 63.8802
12.742470003354093 64.342
12.764925245138771 64.7726
12.787363476431278 65.029
12.809819703166806 65.3898
12.83227642391173 65.792
12.854716135692716 66.59899999999999
12.877173846755147 67.9686
12.899614549869717 68.2645
12.9220732548287 68.9905
12.94453245827299 69.2699
12.966974655289818 70.3959
12.989434858002571 71.1312
13.011878055298721 71.9174
13.034339260862497 72.7
13.056800969391883 73.9008
13.079245674017244 76.2742
13.101708390774869 78.0145
13.12415410463411 82.12299999999999
13.146617833206086 92.4544
13.169064559883248 108.23700000000001
13.191529303857127 127.167
13.213994557076367 150.076
13.236442809902437 183.143
13.258909083908291 231.18099999999998
13.28135835851934 294.33099999999996
13.30382565690295 371.565
13.326293469022952 440.791
13.348744283242008 450.42400000000004
13.371213125129904 381.85699999999997
13.39366497011003 281.44599999999997
13.416134845360597 183.977
13.438605238843131 127.22
13.46105863690397 102.82600000000001
13.483530069144786 99.1072
13.505984506951902 107.00299999999999
13.528456981549432 120.861
13.550929978879088 136.80700000000002
13.573385983253365 158.55700000000002
13.595860028340867 190.477
13.618317081455832 237.97099999999998
13.64079217790333 299.654
13.663250283359057 358.93199999999996
13.685726434770173 390.60900000000004
13.708203115221277 363.59
13.730662806148091 289.94599999999997
13.75314054697177 206.426
13.775601299246777 139.05100000000002
13.798080104050406 100.245
13.820559442405358 84.7782
13.843021793671388 79.8518
13.865502201420897 77.6782
13.887965623051947 76.9597
13.910447103807167 76.0607
13.932929122629764 74.5946
13.955394156785959 74.3624
13.977877254034569 73.7019
14.000343367582113 72.6378
14.022827546871707 72.2025
14.045294743423524 71.6474
14.06778000837062 70.7458
14.090265817715476 70.8194
14.112734645763819 71.4568
14.13522154619454 72.8342
14.157691466286913 74.4255
14.180179461423874 74.1643
14.202668005486178 72.4064
14.22513957064374 70.3957
14.247629214846473 68.6491
14.270101881097517 67.8758
14.29259262906496 67.3339
14.315083930490205 67.34100000000001
14.337558255389705 67.3001
14.360050666019726 67.275
14.382526101071944 67.0254
14.405019624534942 66.7242
14.427513705993134 66.4434
14.449990813291825 66.2354
14.47248601302899 66.4421
14.49496423954951 66.6191
14.517460561197822 66.3699
14.539939910570322 66.0957
14.562437357763558 66.5291
14.58493536931253 66.8966
14.607416409993311 66.9231
14.62991555254159 67.1657
14.652397725157423 67.2206
14.674898002342799 67.5916
14.697398848433282 67.373
14.719882725991326 68.3226
14.74238471217934 68.6356
14.764869730765593 70.4076
14.787372860692983 74.3151
14.809876564079925 81.2139
14.83236330125751 89.1867
14.854868153850365 98.509
14.877356041159485 111.256
14.899862046604186 127.426
14.922351087688757 150.162
14.944858249632887 179.636
14.967365991421232 209.56599999999997
14.989856770231246 229.312
15.012365673994204 228.59099999999998
15.03485761569738 200.59099999999998
15.05736768508665 158.838
15.07987833888692 121.311
15.102372032001655 94.0355
15.124883856909658 77.4224
15.14737872204565 71.1926
15.169891721717274 68.7229
15.192405310371893 67.9457
15.214901940621196 67.2482
15.237416709527137 66.78699999999999
15.259914520936249 66.4405
15.282430473753607 66.0561
15.304947020131227 65.3047
15.327446610371178 65.0598
15.349964346154254 64.6734
15.372465126703139 64.3588
15.394984055556009 64.1126
15.417486030076159 63.9499
15.44000615566487 63.8466
15.462526881230803 63.5353
15.485030653812652 63.6775
15.507552581617434 63.5554
15.530057557334603 63.4054
15.55258069104857 63.6087
15.575104429329837 63.8954
15.597611216864632 63.6006
15.620136166564563 63.6889
15.6426441664095 63.9306
15.665170331202765 65.1428
15.687697105158826 68.72800000000001
15.710206930593545 74.0319
15.732734925158933 80.1815
15.755245972089478 87.4164
15.77777519094324 95.7497
15.800287463046663 106.904
15.822817909869592 124.01100000000001
15.84534897229804 144.336
15.867863089299354 169.442
15.890395385222186 191.396
15.912910736597423 202.61700000000002
15.935444269699861 195.862
15.957978423016485 169.69400000000002
15.980495633101265 135.38299999999998
16.003031029129367 104.604
16.02554948280019 81.5549
16.048086125229432 69.3073
16.070623392487107 64.5999
16.09314371869582 62.5201
16.11568223789321 60.8887
16.13820381691126 59.7498
16.160743591742527 59.1099
16.183283996022084 58.4192
16.205807461423195 57.6426
16.228349126881973 57.1315
16.25087385432698 56.9813
16.27341678466365 56.3513
16.29594277784926 55.9381
16.31848697676433 55.6165
16.341031811604868 55.3137
16.36355971058487 55.2571
16.3861058195587 55.1519
16.40863499352978 54.698
16.431182380342005 54.3229
16.453730407713202 54.0733
16.476261501364792 53.9861
16.498810812136167 53.4488
16.52134319004079 53.5844
16.54389378792203 53.3663
16.566445031001553 53.2437
16.588979342490088 53.2222
16.61153187824822 53.2128
16.634067483263312 52.9551
16.656621315414416 52.8117
16.679175797408888 52.4947
16.701713349928728 52.7916
16.72426913389191 52.8465
16.74680798922351 52.8154
16.76936507887444 52.6767
16.791905240734874 52.7773
16.814463639794468 52.6487
16.837022695210294 52.562
16.859564824093756 52.8482
16.882125194503903 53.1173
16.904668639217885 53.6833
16.927230328348003 53.6885
16.949792678493612 54.1937
16.972338104193863 54.1992
16.994901778652235 53.9799
17.017448529496576 54.0952
17.040013531998152 53.9558
17.06257920018044 54.2284
17.0851279459922 54.839
17.107694947817667 55.9595
17.130245028099072 57.1031
17.15281336730298 58.6328
17.17536478578733 60.3472
17.19793446610687 62.5603
17.220504818648422 65.3532
17.243058251703697 68.2817
17.265629950971032 72.6803
17.288184731571736 77.8529
17.310757781306908 82.42399999999999
17.33333150794385 83.6102
17.355888317140174 83.0205
17.37846339986244 79.5263
17.401021565958885 72.5943
17.42359800851343 65.9143
17.44617513265564 61.6171
17.468735341390783 58.9436
17.491261035594565 57.5863
17.51396340099364 57.2327
17.536490463869136 57.3762
17.559018209820174 57.2331
17.58154663977963 57.5344
17.604251766089718 57.4872
17.626781572227713 57.8766
17.64931206518155 58.0162
17.671843245885103 58.2193
17.69455114821572 58.4456
17.717083712612634 59.0896
17.739616967569667 59.2504
17.762150914021706 59.8388
17.78486160749854 60.2619
17.807396945166804 60.8034
17.829932977143503 61.1323
17.85246970436452 61.6693
17.875183204129467 63.4886
17.897721330097664 66.7759
17.920260154126645 70.112
17.942799677153296 73.7691
17.9655159983646 77.8317
17.988056927677544 82.7557
18.010598558807683 89.0847
18.033140892692916 98.0552
18.05586005052525 109.07600000000001
18.07840379824407 121.439
18.10094825154059 132.839
18.12366954819864 142.365
18.146215420998306 144.518
18.16876200220057 138.54
18.191309292745153 124.381
18.214033452627167 109.306
18.236582170236648 96.3254
18.259131600016456 88.505
18.281681742907335 86.1453
18.304408781233683 89.2097
18.32696035875955 94.5197
18.349512652227624 99.8341
18.372065662579683 105.405
18.394795594587553 107.568
18.41735004715306 104.552
18.43990521943684 98.491
18.46246111238171 88.8109
18.485193953325208 78.6497
18.507751296070428 70.8457
18.530309362314178 65.8217
18.552868153000343 62.9862
18.57560391815056 61.525
18.59816416623245 60.9255
18.620725141597372 60.1081
18.643286845190268 59.5729
18.666025549835414 59.0011
18.688588718427933 58.4474
18.711152618092243 58.2584
18.73389353884365 57.9223
18.75645890921984 57.5561
18.77902501351406 57.1586
18.801591852673102 57.1214
18.824335739722738 56.522
18.846904057212626 56.4754
18.8694731124168 56.4205
18.89204290628315 56.2341
18.914789774966803 55.9698
18.937361054791623 55.6919
18.959933076131318 55.5568
18.982505839934877 55.3373
19.00525570560582 55.511
19.027829963004184 55.1537
19.05040496572238 55.078
19.072980714710468 55.1622
19.095733592739563 54.9968
19.11831084296757 55.4088
19.140888842324735 56.2104
19.16346759176222 56.372
19.18622349753803 57.0656
19.208803755869358 58.2999
19.231384767143577 59.4641
19.253966532312948 60.7685
19.276725481241822 62.9872
19.29930876296784 65.6362
19.3218928014549 68.9897
19.34465404436217 71.9659
19.36723960516257 74.6187
19.389825925592426 75.6093
19.412413006605938 74.9526
19.43517731967805 72.2655
19.457765930683355 68.1205
19.48035530514408 63.4694
19.50294544401556 59.4743
19.525712842708348 56.1341
19.54830451925909 54.4571
19.570896963095727 53.2744
19.593490175174704 52.6185
19.616260674962184 52.55
19.638855432416964 52.2216
19.661450960992624 52.338
19.68404726164677 52.2443
19.706820878021247 52.0669
19.729418731756834 52.1942
19.752017360452857 51.9677
19.77461676506804 52.236999999999995
19.797393513540218 51.9533
19.819994478951667 52.1624
19.84259622316767 52.8977
19.8651987471481 53.5832
19.887978643247177 53.8474
19.91058273574792 54.5075
19.933187610901943 55.1848
19.955969879466828 56.383
19.97857632894404 57.8083
20.00118356396599 59.2347
20.023791585494575 61.2292
20.046577028914875 63.9568
20.069186632506966 66.7588
20.091797025500632 69.2096
20.114408208858933 70.6467
20.137196842715273 70.6975
20.159809615886765 69.2387
20.18242318232135 66.8664
20.20503754298326 64.2292
20.227829382875154 62.7327
20.250445341109344 61.9449
20.27306209647285 62.3739
20.29567964993108 63.7465
20.31847471147704 64.4729
20.34109387027612 65.5865
20.363713830075454 65.3143
20.386334591841646 64.1334
20.409132890679302 61.6163
20.431755265564437 58.5657
20.454378445325528 55.3076
20.477002430930366 52.8851
20.499803982716553 51.4589
20.522429589228004 50.2032
20.54505600449589 49.4119
20.567683229489194 49.3197
20.590488049900088 49.0262
20.61311690359731 48.9856
20.63574656993626 48.9602
20.658553853717297 48.4147
20.681185154618298 48.4658
20.703817271080066 48.3541
20.72645020407368 48.2041
20.749260783967177 48.1407
20.771895359337133 48.1011
20.794530754161617 48.2561
20.817166969412938 48.0106
20.83998086114876 47.7696
20.86261872660049 47.5988
20.885257415405402 47.5249
20.90789692853701 47.5048
20.930714147864748 47.1903
20.953355319030678 47.2774
20.97599731745334 47.4691
20.99864014410749 47.2401
21.021460706796564 47.5307
21.044105199328826 47.7211
21.06675052302631 47.8258
21.089396678865015 48.0421
21.112220600704806 48.2524
21.134868430275347 48.5975
21.15751709492456 48.8698
21.180166595629693 49.2174
21.202993892429635 49.9269
21.22564507473034 50.2859
21.24829709602816 50.6058
21.27112693608965 50.7033
21.293780644891275 50.547
21.316435195634053 50.001999999999995
21.339090589297417 49.202
21.361923832041875 48.617
21.384580921090404 48.06
21.407238856007325 47.5819
21.429897637773326 47.2884
21.45273429906592 47.4046
21.475394784108598 47.4503
21.498056118951983 47.3838
21.520718304578022 47.6203
21.543558400304388 47.6282
21.566222297108816 47.5702
21.58888704765135 47.5806
21.61155265291521 48.0629
21.63439619898156 48.59
21.657063523335786 49.1429
21.67973170537063 49.5535
21.7024007460706 50.3687
21.72524775840385 51.0342
21.747918526116475 52.0473
21.770590155457388 53.0935
21.79326264741238 54.5786
21.816113141960237 56.2226
21.838787368860547 58.1765
21.861462461341976 60.6258
21.884315579735777 63.1733
21.90699241312273 64.72800000000001
21.92967011506078 65.5712
21.95234868653799 65.7362
21.9752053151131 64.4139
21.997885635446785 62.2671
22.020566828293532 60.1411
22.04324889464272 58.0314
22.066109049404666 56.4978
22.088792872571794 55.8635
22.111477572219204 56.058
22.1341631493376 56.1835
22.157026846313123 56.2098
22.179714188221507 55.6464
22.202402410582668 54.4019
22.22509151438863 52.7358
22.24795876962584 51.4274
22.270649646204486 50.0465
22.293341407213727 49.108000000000004
22.316034053646906 48.471000000000004
22.338904883215342 48.1164
22.36159931041458 48.0872
22.38429462602756 47.7353
22.40699083104897 47.5628
22.429865251039757 47.665
22.452563244831367 47.5196
22.47526213102522 47.5528
22.49813925616515 47.5336
22.520839937143307 47.4437
22.543541513520587 47.4947
22.56624398629403 47.5255
22.589124730075895 47.4453
22.611829005656723 47.6565
22.63453418063466 47.5504
22.657240256008077 47.592
22.680124634582935 47.9835
22.70283252079775 48.2997
22.725541310413075 48.7554
22.74825100442868 49.221000000000004
22.771139033969575 49.753
22.79385054687155 49.9332
22.81656296718292 50.8429
22.83927629590484 51.4683
22.862167992606945 52.3375
22.88488314827121 53.5369
22.907599215359284 54.6019
22.93031619487366 55.9381
22.953211574954405 56.9177
22.975930389478226 57.8422
22.998650119445763 58.1146
23.02137076586092 57.604
23.044269845560063 56.3216
23.06699233506288 54.8432
23.089715744034912 52.7647
23.112617610931565 51.1896
23.135342869061212 49.8121
23.158069049684816 48.9295
23.1807961538087 48.1842
23.20370174880544 47.9532
23.226430710184808 47.8545
23.249160598093425 47.8037
23.271891413539002 47.8052
23.294800752937697 48.0055
23.31753343374794 48.4472
23.340267045128353 48.6565
23.36300158808808 49.0549
23.38591468821339 49.4076
23.408651104658304 49.9823
23.431388455719986 50.5747
23.454126742409 51.3226
23.4770436196085 52.1083
23.499783787914662 53.4911
23.522524894889884 54.5478
23.54526694154616 55.8038
23.56818761219047 57.0534
23.59093154860734 57.9635
23.613676427751283 58.7387
23.636422250635754 58.0304
23.659346731118656 56.6072
23.68209445191868 54.6811
23.704843119509587 52.2929
23.72759273490623 50.2646
23.750521041644767 48.3632
23.77327256312355 47.0644
23.796025035462787 46.1053
23.818956224555475 45.3856
23.841710609113413 45.2983
23.86446594758979 45.0579
23.887222241002014 44.8063
23.910157285144578 44.4705
23.932915498962537 44.2621
23.955674670778713 44.1378
23.978434801611975 44.1261
24.001373717286125 43.9036
24.024135776723917 43.7612
24.046898798245582 43.6741
24.06966278287146 43.5464
24.092605586582614 43.3312
24.115371508023642 43.1543
24.1381383956401 43.1222
24.16090625045381 43.0619
24.183852958731244 42.879
24.206622758582608 42.7477
24.229393528706886 42.6139
24.252165270127392 42.7271
24.27511589952438 42.6134
24.297889594216997 42.3603
24.32066426328598 42.3112
24.34343990775613 42.4648
24.36639447485003 42.2137
24.38917208083877 42.2895
24.41195066531332 42.3109
24.43490819850244 42.2163
24.457688750692377 42.0512
24.48047028445616 42.216
24.503252800821233 42.2591
24.526214300784112 42.419
24.548998793132213 42.2205
24.57178427117417 42.17100000000001
24.59457073593893 42.1212
24.617536219319863 42.2867
24.64032466834748 42.2366
24.663114107195035 42.0833
24.685904536893013 41.8092
24.708874020360852 41.6664
24.731666442613744 41.556999999999995
24.754459858818787 41.5738
24.777254270007962 41.5047
24.80022777025625 41.2423
24.82302418230472 41.2737
24.845821592443674 41.3853
24.86862000170663 41.3909
24.891597535453727 41.2671
24.914397953892728 41.4616
24.93719937456671 41.5271
24.96000179851076 41.5961
24.98298338249997 41.6834
25.00578782394922 41.9733
25.028593271784167 42.012
25.05157790644186 42.4774
25.07438537804115 42.6731
25.097193859145293 43.1093
25.120003350792075 43.2635
25.142992065061257 43.5948
25.165803588823465 43.8386
25.18861612625217 44.2457
25.211429678386736 44.4112
25.234422489079968 44.54
25.257238081693636 44.5046
25.280054692141732 44.6183
25.3028723214652 44.5613
25.325869245420463 44.7937
25.348688923599397 44.6851
25.371509623787006 44.6901
25.394331347025812 44.5687
25.41733240110666 44.0667
25.440156181590016 43.3881
25.46298098826268 42.7475
25.48580682216873 42.1176
25.50881202326435 41.5211
25.53163992281684 40.9617
25.55446885274561 40.5217
25.577298814096377 40.1416
25.600308179121807 40.0207
25.623140214533745 40.2055
25.64597328451537 40.147
25.66898578564376 40.042
25.691820936010206 39.8443
25.714657124097695 39.8344
25.737494350954734 39.7919
25.760511045684957 39.7139
25.783350361364224 39.7216
25.806190718969255 39.8525
25.82903211955018 39.9265
25.852053024868923 39.975
25.874896522722523 39.9131
25.897741066713106 39.926
25.920586657892454 40.1329
25.943611790812668 40.2775
25.966459487728237 40.3923
25.989308234998564 40.414
26.01215803367705 40.7286
26.03518741123814 41.0007
26.05803932412957 41.1537
26.080892291600094 41.1526
26.10374631470478 41.2361
26.12677995397268 41.3641
26.14963609978026 41.4452
26.172493304397875 41.1744
26.19535156888223 40.9806
26.218389486949604 40.5004
26.241249882640123 40.0022
26.26411134137826 39.7037
26.28715248187403 39.6856
26.31001607820869 39.4982
26.3328807407756 39.3235
26.35574647063438 39.4743
26.37879191991473 39.4725
26.401659795896734 39.5391
26.424528742360263 39.7132
26.447398760366614 39.8452
26.470448535598294 39.9356
26.49332070826805 40.2845
26.516193955675355 40.4722
26.53906827888316 40.6454
26.562122397260108 41.0361
26.584998883685063 41.4065
26.607876449110325 41.8098
26.63075509460056 41.861999999999995
26.65381357334404 42.1392
26.67669439061878 42.2426
26.699576291163382 42.1563
26.722459276044212 41.9692
26.745522132402975 41.56399999999999
26.768407297649354 41.3499
26.791293550442003 40.9263
26.814180891848974 40.6434
26.837248143099337 40.2681
26.860137673466657 40.1642
26.88302829566349 39.8023
26.90592001075963 39.7454
26.92899167420566 39.5767
26.951885586870763 39.126999999999995
26.974780595655517 38.9433
26.99785558178161 38.6291
27.020752794605112 38.4644
27.043651106772522 38.3195
27.06655051935668 38.4115
27.089629948036183 38.1798
27.112531573292053 38.0963
27.135434302194138 38.3417
27.158338135817015 38.15
27.181422024430987 37.9199
27.204328079372566 37.8615
27.22723524226965 37.9732
27.250143514198573 38.0914
27.273231880156334 38.0116
27.296142382065014 37.8634
27.319053996245536 37.802
27.341966723775965 37.8618
27.365059584515222 37.9592
27.38797455070062 37.8812
27.410890633481237 37.9063
27.433807833936918 37.8495
27.456905206923906 38.0649
27.47982465472398 38.0583
27.502745223449743 38.0324
27.525666914182825 38.1419
27.548768816912457 38.0592
27.571692763693633 38.1815
27.59461783573812 37.9838
27.617723149491244 37.715
27.640650484125285 37.7594
27.66357894728264 37.711
27.686508540048052 37.7724
27.709618414237887 37.6369
27.732550278321757 37.3749
27.755483275279115 37.4921
27.778417406196485 37.4364
27.801531858397514 37.3301
27.824468269376716 37.3334
27.847405817586786 37.3347
27.870344504116094 37.5051
27.893463551932008 37.6417
27.916404527281053 37.866
27.93934664422563 37.8985
27.962289903855886 38.0743
27.98541356491974 38.3648
28.00835912214229 38.5906
28.03130582533231 38.7444
28.054253675581805 38.8916
28.077381967556104 39.025999999999996
28.100332124185126 38.9768
28.123283431160893 39.0095
28.146235889577238 38.7513
28.169368830154156 38.592
28.192323603752033 38.4538
28.215279532083304 38.1543
28.238415973016764 37.7299
28.261374223145094 37.6109
28.284333631303806 37.5099
28.307294198589954 37.3821
28.330435319167677 36.9045
28.353398217078915 36.5707
28.376362277420153 36.3301
28.39932750129032 36.1533
28.422473319286713 36.0746
28.44544088262495 35.9857
28.468409612800283 35.7662
28.491379510913497 35.5725
28.51453004413313 35.4646
28.53750229057244 35.4525
28.56047570826344 35.3793
28.583450298308804 35.3847
28.606605564586562 35.1601
28.629582511831156 35.3787
28.65256063474956 35.1153
28.675539934446338 35.2116
28.698699951647605 35.1587
28.72168161743193 34.9014
28.74466446331978 34.9696
28.767648490417624 34.909
28.790813276438353 34.8921
28.813799678527303 35.0006
28.836787265157085 35.0434
28.859955641890075 35.0225
28.882945610203045 34.9171
28.905936766392035 34.8689
28.928929111566863 34.9364
28.952102288520145 34.7048
28.975097024308607 34.558
28.998092952423807 34.5558
29.021090073977508 34.5092
29.04426806913204 34.3987
29.067267590245258 34.2679
29.090268308143695 34.1724
29.11327022394099 34.1039
29.13645305530891 33.955999999999996
29.159457379627167 34.1095
29.18246290519685 33.8565
29.20546963313352 33.8801
29.22865731875826 33.8743
29.25166646419296 33.7598
29.27467681535305 33.6423
29.29768837335608 33.8102
29.320880931312562 33.7843
29.34389491580634 33.8068
29.366910110507334 33.8024
29.38992651653503 33.7957
29.41312396492981 33.8607
29.436142806456754 33.7099
29.45916286268059 33.7021
29.48236399319994 33.5738
29.50538649169417 33.359
29.528410208259935 33.3832
29.55143514402014 33.1991
29.574641196749695 33.0214
29.597668583816574 32.8379
29.6206971934585 32.659
29.64372702680042 32.6318
29.666938019934474 32.4911
29.689970313635285 32.5178
29.713003834422636 32.5084
29.73603858342347 32.3705
29.759254535188578 32.3428
29.78229175361658 32.2791
29.80533020365064 32.4412
29.82836988641968 32.385
29.85159081507472 32.3012
29.874632976355343 32.1984
29.89767637376955 32.2954
29.920721008448314 32.0252
29.9439469322847 31.994
29.96699405457564 32.0723
29.9900424175358 32.1556
30.013092022298157 32.0174
30.03632295963995 31.9831
30.059375061131373 31.9142
30.08242840783577 31.9896
30.105483000888153 32.0601
30.128718970092244 31.904
30.151776069006917 31.9072
30.17483441768648 31.9569
30.198074175317235 31.9221
30.221135036724256 32.0139
30.24419715131772 31.8288
30.267260520236203 31.7837
30.290505341942243 31.9448
30.313571232750228 31.9535
30.336638381310948 31.8519
30.35970678876503 31.9394
30.38295669299435 31.8323
30.40602763151657 31.8311
30.429099832366074 31.8028
30.452173296685572 31.6904
30.47542830191959 31.6717
30.498504306502497 31.6747
30.521581577995562 31.6289
30.544660117543582 31.7498
30.56792024229725 31.7796
30.59100133132069 31.7591
30.614083691845494 31.7205
30.637167325018545 31.8536
30.660432587840603 31.969
30.683518779717886 31.8993
30.70660624769615 31.9466
30.729694992924372 31.9884
30.75296541239743 31.9687
30.77605672557558 31.8958
30.799149319462742 31.831999999999997
30.8224236211637 31.8606
30.845518789950724 31.7193
30.868615242910597 31.5546
30.891712981195973 31.4995
30.91499247215866 31.2346
30.938092794619365 31.2104
30.96119440587579 31.1419
30.984297307082752 31.0333
31.00758200598383 30.9493
31.030687500658694 30.8813
31.053794288760695 30.8349
31.076902371446767 30.6383
31.100192296997445 30.6689
31.12330298246119 30.6445
31.14641496599209 30.4765
31.169528248749216 30.5182
31.19282341969534 30.5468
31.215939314557186 30.6497
31.239056512134788 30.694000000000003
31.262175013589378 30.544
31.28547544871168 30.5655
31.30859657161541 30.4177
31.331719001892175 30.5316
31.35484274070538 30.6037
31.378148458819545 30.6575
31.401274828443725 30.5843
31.424402510106933 30.5835
31.447712205419993 30.6181
31.470842524931633 30.5754
31.493974159989783 30.5546
31.51710711176168 30.5451
31.54042212308802 30.4663
31.563557722100917 30.4651
31.586694641341655 30.2855
31.609832881979628 30.2831
31.63315322823208 30.1525
31.656294125521327 30.0536
31.679436347728515 29.976999999999997
31.70257989602529 29.9651
31.725905596152327 29.9009
31.74905181052835 29.8366
31.772199354521323 29.9536
31.79534822930507 29.7885
31.818679302290967 29.8574
31.84183085259981 29.8544
31.864983737233473 29.8082
31.88813795736804 29.8458
31.911474422233013 29.7375
31.934631327356435 29.8555
31.9577895715215 29.8517
31.980949155906522 29.7857
32.004291031706956 29.7707
32.027453310562606 29.6548
32.05061693318573 29.5727
32.07396288236386 29.6143
32.09712920658542 29.4909
32.12029687812702 29.353
32.14346589817093 29.1641
32.166817291729984 29.1905
32.18998902288583 29.0873
32.21316210610336 29.0512
32.23633654256711 28.9787
32.259693399663725 28.8271
32.282870556771144 28.8837
32.30604907069099 28.8628
32.329228942610065 28.825
32.35259128243769 28.599
32.375773884550505 28.6055
32.398957848235646 28.5399
32.422143174682176 28.4726
32.445511016471215 28.4889
32.468699082679954 28.4007
32.49188851523011 28.3192
32.51507931531304 28.1315
32.538452678331 28.2597
32.56164622776311 28.1574
32.58484114831493 28.114
32.60803744118015 28.2177
32.631416344731896 28.095
32.654615396551876 27.9707
32.67781582427913 28.0167
32.701198898634416 27.9185
32.72440209253756 27.9344
32.747606665947124 27.9007
32.77081262006088 27.7439
32.79420126883317 27.7533
32.81740999876112 27.8283
32.840620112999424 27.7393
32.86383161274818 27.659000000000002
32.88722585534586 27.6747
32.91044014056596 27.6808
32.933655814909734 27.6856
32.95687287957963 27.7002
32.98027273544904 27.5175
33.00349259526636 27.514
33.026713849030116 27.5248
33.04993649794511 27.4538
33.073341986570746 27.4357
33.09656744032826 27.4577
33.11979429286444 27.4579
33.14302254538647 27.493000000000002
33.166433686291185 27.3803
33.18966475336992 27.4605
33.212897224069096 27.4021
33.23613109959831 27.2708
33.259547912343415 27.2732
33.2827846121627 27.2609
33.306022720453775 27.2552
33.32926223842861 27.1151
33.352684742614166 27.1703
33.37592709463173 27.0863
33.399170859982064 27.0199
33.422597648419426 26.9324
33.44584425514446 26.859
33.46909227885668 26.7135
33.4923417207723 26.6327
33.51577423505344 26.6853
33.539026528130385 26.6013
33.56228024307245 26.639
33.585535381098246 26.4052
33.60897364093058 26.3537
33.63223163992385 26.4324
33.6554910656699 26.4307
33.678751919389796 26.373
33.702195944520106 26.2433
33.72545966903325 26.1451
33.74872482519663 26.1307
33.771991414233746 26.1282
33.79544122444841 26.0839
33.81871069412428 26.1544
33.84198160035767 26.1117
33.86525394437455 26.035999999999998
33.88870955949969 26.0395
33.911984794020626 26.0478
33.93526147001624 26.0067
33.958539588715006 25.9254
33.98200102861669 25.8798
34.0052820477047 25.7317
34.02856451319451 25.747
34.05203033759056 25.6301
34.07531571090147 25.6139
34.09860253431845 25.5447
34.121890809074316 25.5773
34.145362493118924 25.5786
34.16865368561615 25.5031
34.191946333164054 25.462
34.21524043699793 25.4666
34.23871800066799 25.3881
34.26201503218366 25.3277
34.28531352370466 25.3224
34.30861347646881 25.2665
34.33209693978188 25.2404
34.3553998301885 25.2323
34.378704185565205 25.1277
34.402010007152356 25.0649
34.42549939016683 25.1304
34.44880815937748 25.0117
34.472118398533134 24.958000000000002
34.49543010887669 24.8424
34.51892543169198 24.7816
34.54224009966052 24.7471
34.56555624255917 24.773000000000003
34.58887386163339 24.6902
34.61237514439016 24.715999999999998
34.6356957311114 24.6079
34.65901779775809 24.6469
34.68252356662995 24.587
34.705848608458616 24.5568
34.72917513396849 24.5327
34.75250314440949 24.5412
34.77601490857862 24.3819
34.799345904259795 24.381999999999998
34.82267838863559 24.3264
34.846012362958525 24.4204
34.869530142679984 24.3412
34.89286711232212 24.3479
34.91620557568269 24.2627
34.93954553401677 24.2269
34.9630693495876 24.1425
34.986412313340814 24.1397
35.00975677584668 24.1731
35.033102738362956 24.1286
35.05663261012228 24.0898
35.0799815881786 24.0829
35.10333207003229 24.0103
35.12668405694369 23.936999999999998
35.150220005273056 23.9257
35.17357501786656 23.9646
35.19693153931268 23.9355
35.220289570874385 23.822
35.24383161619786 23.7694
35.267192683604904 23.8273
35.290555264930376 23.7264
35.314101899412165 23.7924
35.33746752422433 23.805
35.36083466676374 23.7373
35.38420332829803 23.6985
35.407756095629054 23.7673
35.43112781085063 23.8279
35.45450104888391 23.6323
35.477875810999194 23.7316
35.50143473172161 23.6436
35.52481255774625 23.6972
35.54819191167777 23.5823
35.57157279478914 23.5516
35.595137889488406 23.590999999999998
35.61852184675279 23.4023
35.641907337029984 23.4391
35.665294361595684 23.3416
35.68886565090076 23.3037
35.7122557598848 23.3396
35.73564740699838 23.2647
35.759040593519934 23.2326
35.78261809810353 23.2004
35.80601437933051 23.0792
35.829412203814705 23.0954
35.85281157283719 22.9665
35.876395313415884 22.9803
35.8997977874528 22.8635
35.92320180988546 22.8415
35.946790244133936 22.8089
35.97019737933222 22.8029
35.993606066789866 22.8478
36.01701630779276 22.8178
36.04061101440684 22.7325
36.06402437852291 22.7492
36.08743930005611 22.7761
36.1108557802951 22.7218
36.13445678011326 22.6092
36.15787639383515 22.5978
36.18129757014299 22.5886
36.20472031032821 22.5367
36.22832762423364 22.4657
36.25175350829375 22.3873
36.275180960119776 22.3936
36.298609981005924 22.4034
36.32222362992669 22.3888
36.34565580510207 22.3747
36.36908955323448 22.261
36.39252487562093 22.1427
36.416144880530226 22.1835
36.43958336764275 22.1899
36.463023432914625 22.1512
36.486465077645676 22.0477
36.51009145956204 22.1708
36.53353627947859 22.1732
36.55698268276811 22.1133
36.58043067073321 22.0973
36.60406345072071 21.9654
36.62751462435344 21.9641
36.65096738658405 21.9544
36.67460498210655 21.956
36.69806093788647 21.8621
36.72151848619297 21.8183
36.744977628333636 21.8422
36.76862165890998 21.6653
36.79208400512205 21.7391
36.81554794910557 21.7101
36.83901349217101 21.5822
36.862663978991606 21.5576
36.88613273667352 21.5696
36.90960309738324 21.5376
36.933075062434064 21.4508
36.95673202673572 21.4292
36.98020721697122 21.4083
37.003684015502365 21.4127
37.027162423645365 21.3342
37.050825886711465 21.3337
37.07430753063053 21.2375
37.09779078812467 21.2283
37.121275660513014 21.195
37.144945643673694 21.1861
37.16843376245278 21.1854
37.19192350009803 21.1733
37.215414857931435 21.1005
37.239091382563885 21.026999999999997
37.262585997426164 20.9906
37.28608223645736 20.9376
37.309763684451696 20.934
37.33326318851098 20.8683
37.356764320726555 20.8381
37.380267082425526 20.8655
37.40395510942588 20.8825
37.42746114683234 20.8392
37.45096881771841 20.7392
37.474478123414166 20.7444
37.49817275092816 20.7169
37.52168534303452 20.719
37.54519957395567 20.543000000000003
37.568715445024665 20.6236
37.592416694607714 20.5426
37.61593586281424 20.5402
37.63945667518264 20.5663
37.66297913304891 20.4401
37.68668702630454 20.4898
37.710212792059274 20.4058
37.733740207334854 20.3872
37.757269273470364 20.2676
37.780983832050374 20.247
37.80451621684926 20.2783
37.82805025654007 20.2773
37.851585952464795 20.2067
37.8753071980695 20.1688
37.89884622345676 20.1073
37.92238690911902 20.0763
37.94611318753442 20.016
37.969657210779765 19.9321
37.99320289834801 19.9981
38.016750251586465 20.0009
38.04048325513017 19.9154
38.06403395679343 19.8973
38.087586328183946 19.8578
38.11114037065203 19.9026
38.13488012115898 19.827
38.1584375229181 19.7152
38.181996599821 19.7454
38.205557353221124 19.7287
38.229303872575656 19.7063
38.2528679961576 19.6832
38.27643380031219 19.6771
38.30000128639589 19.5559
38.32375459653193 19.5969
38.34732546371299 19.5541
38.37089801690786 19.532
38.39447225747609 19.4577
38.418232380377425 19.3935
38.441810012983396 19.4331
38.46538933705673 19.2893
38.488970353960084 19.2894
38.51273731166058 19.2925
38.536321731567014 19.2575
38.55990784840681 19.2838
38.58367995004091 19.2509
38.60726947812959 19.0727
38.63086070726198 19.1113
38.654453638806274 19.2144
38.678232613930824 19.0959
38.70182896773327 19.0653
38.72542702806741 19.0282
38.7490267963045 18.9827
38.77281266709232 19.0163
38.79641586862214 18.8988
38.8200207821842 18.9163
38.843627409152944 18.9662
38.86742019782782 18.886
38.891030269149255 18.8153
38.914642058016156 18.7528
38.938255565806124 18.7453
38.96205529464307 18.7403
38.98567225787121 18.7167
39.00929094417078 18.702
39.03291135492255 18.7078
39.05671804624804 18.5868
39.080341923549106 18.6046
39.103967529460334 18.5646
39.127594865365744 18.4715
39.15140854155791 18.402
39.17503935514948 18.4572
39.19867190290282 18.4475
39.22249083587951 18.4354
39.24612686969409 18.3721
39.269764641845306 18.3128
39.293404153722804 18.3831
39.317230110864074 18.2868
39.34087311998506 18.2496
39.36451787301696 18.2142
39.388164371352595 18.1856
39.41199737518003 18.1897
39.43564738196752 18.1543
39.45929913825317 18.0796
39.48295264543308 18.0677
39.506792718520884 18.0722
39.530449745387216 18.0119
39.55410852735203 18.0031
39.57776906581474 17.9208
39.60161623079 17.9156
39.625280300200025 17.9322
39.64894613032202 17.9063
39.67261372255866 17.8956
39.6964680021016 17.8655
39.72013913657293 17.8499
39.74381203738292 17.8017
39.76748670593756 17.7816
39.79134812278169 17.750999999999998
39.81502634488497 17.7433
39.83870633896685 17.6772
39.862388106436654 17.6643
39.88625668336918 17.6084
39.90994201572829 17.6542
39.933629125719285 17.5171
39.957503091207826 17.473
39.9811937746168 17.5831
40.00488623990914 17.4705
40.02858048850006 17.4628
40.05246165409549 17.4654
40.076159487492085 17.3974
40.099859108448875 17.3469
40.123560518384345 17.2999
40.1474489070226 17.3645
40.171153913178564 17.2802
40.194860712584955 17.2543
40.2185693066637 17.2976
40.242464941335314 17.184
40.26617714307655 17.1708
40.289891143772046 17.162
40.3136069448471 17.0856
40.33750984859743 17.0998
40.3612292688043 17.0159
40.3849504936829 16.94
40.40867352466194 17.027
40.43258372059144 16.9965
40.45631038219906 16.967
40.48003885420956 16.8853
40.503769138055105 16.9068
40.52768664931955 16.8419
40.55142057531802 16.8595
40.57515631746428 16.8793
40.599079334038514 16.8169
40.62281872700477 16.7505
40.64655994043941 16.7825
40.67030297578061 16.7302
40.69423334835778 16.6924
40.71798004609188 16.6821
40.74172857006355 16.612000000000002
40.76547892171441 16.6327
40.7894166736039 16.5853
40.813170699248566 16.5497
40.83692655691388 16.5209
40.86068424804498 16.5496
40.884629402612525 16.4766
40.908390779366385 16.4378
40.932153993938 16.4196
40.95591904777605 16.3765
40.979871628443995 16.403
41.003640379561936 16.397000000000002
41.02741097430883 16.3868
41.05118341413683 16.2841
41.075143444384416 16.2783
41.098919593177826 16.2758
41.1226975914255 16.232
41.14647744058318 16.1773
41.170444943946755 16.1709
41.19422851378379 16.1445
41.218013938914645 16.0795
41.24198706625173 16.0557
41.26577622087193 16.0625
41.289567235177785 16.0679
41.31336011063129 16.0514
41.337340752422875 15.9717
41.361137369129835 15.9684
41.38493585138705 15.9436
41.40873620066004 15.8679
41.43272438060107 15.8568
41.45652848292052 15.8
41.48033445666918 15.8434
41.50414230331616 15.7347
41.528138045159764 15.7138
41.551949656675205 15.6724
41.575763145513235 15.6831
41.59957851314666 15.7247
41.62358184070442 15.6396
41.64740098505737 15.6035
41.6712220126409 15.5989
41.69504492493139 15.5604
41.71905586207357 15.5498
41.74288256296395 15.4973
41.766711153007456 15.5198
41.79054163368412 15.4838
41.814560204340054 15.4481
41.838394485526365 15.4748
41.86223066180303 15.399000000000001
41.88625497706819 15.4214
41.910094962812 15.3312
41.93393684811168 15.3175
41.95778063445365 15.2693
41.981812625263366 15.2699
42.00566023303407 15.248
42.029509746323676 15.1792
42.05336116662236 15.1626
42.077400857069705 15.2174
42.10125611078846 15.1488
42.12511327600405 15.1328
42.14897235421036 15.0744
42.173019768448455 15.0742
42.19688269209613 15.052999999999999
42.22074753323349 15.0238
42.24461429335818 14.9936
42.268669455600495 14.9895
42.292540073217886 14.9096
42.31641261433284 14.9322
42.34028708044675 14.9251
42.36435001496739 14.8791
42.38822835065557 14.8201
42.41210861586426 14.7868
42.4359908120986 14.8133
42.46006154323262 14.7425
42.48394762115317 14.7185
42.507835634632315 14.6946
42.531912233047436 14.6434
42.55580413732265 14.6659
42.579697981698 14.5889
42.60359376768525 14.5922
42.62767820545945 14.5881
42.65157789440821 14.6081
42.67547952952185 14.5351
42.699383112316 14.5742
42.72347541395347 14.5036
42.74738291190531 14.4442
42.771292362102166 14.4489
42.795203766063516 14.4059
42.819303956130405 14.3912
42.843219287476536 14.4033
42.86713657716324 14.3175
42.89105582671383 14.2925
42.91516392983864 14.2239
42.939087119032166 14.2107
42.963012272677304 14.2628
42.98693939230129 14.2071
43.01105543317513 14.1865
43.034986504731386 14.1854
43.05891954686589 14.1177
43.08285456110972 14.164000000000001
43.10697856448665 14.1027
43.130917542983475 14.0388
43.15485849820081 14.0437
43.17880143167367 14.0106
43.20293342237094 13.9746
43.226880332449 13.9518
43.25082922540554 13.9496
43.27496722682525 13.9575
43.29892010567796 13.913
43.32287497204102 13.8922
43.34683182745632 13.8447
43.370977859791836 13.7977
43.39493871351105 13.7664
43.41890156092628 13.797
43.44286640358341 13.7747
43.46702049182749 13.7585
43.49098934522816 13.7003
43.51496019852649 13.7386
43.5389330532723 13.6851
43.56309522248204 13.6525
43.58707210044314 13.6388
43.61105098451946 13.5736
43.63503187626491 13.6157
43.659202151562134 13.5165
43.68318707902681 13.5301
43.70717401884041 13.5214
43.731162972560874 13.4869
43.75534137913236 13.4621
43.779334381108384 13.4228
43.803329401683186 13.4033
43.82732644241872 13.3683
43.8515130055166 13.3712
43.87551410707659 13.3275
43.89951723350145 13.2433
43.923709934595614 13.3239
43.94771713129917 13.2896
43.97172635758096 13.2578
43.99573761501002 13.2367
44.0199385169922 13.2029
44.04395385732619 13.1635
44.067971233533086 13.2066
44.09199064718605 13.1722
44.11619977548961 13.1233
44.14022328470671 13.0689
44.16424883610785 13.0533
44.18827643127035 13.0582
44.21249381139513 13.0766
44.236525514814076 13.0022
44.26055926674478 12.9744
44.28459506876863 12.970999999999998
44.3088207262813 12.9189
44.33286064928722 12.932
44.35690262714919 12.9065
44.38094666145278 12.8484
44.4051806219871 12.8877
44.42922879003185 12.8152
44.45327901929361 12.7893
44.477331311362136 12.7718
44.501573600619416 12.7401
44.525630039221795 12.7071
44.54968854541895 12.7025
44.573937102200176 12.6536
44.5979997645541 12.6421
44.622064499300315 12.6101
44.64613130803592 12.6093
44.67038823869318 12.6307
44.69445921643748 12.5596
44.718532272981385 12.5074
44.742607409926194 12.5595
44.76687274034801 12.5468
44.79095205918753 12.4841
44.81503346325094 12.4859
44.839116954143876 12.4518
44.86339071028742 12.4213
44.88747839599524 12.3818
44.91156817336837 12.3629
44.93566004401666 12.3595
44.959942251908146 12.317
44.984038330325966 12.3045
45.00813650686762 12.3331
45.03223678314731 12.2877
45.05652746888232 12.2563
45.08063196592069 12.2503
45.104738567558705 12.209000000000001
45.128847275414856 12.195
45.15314646515866 12.1096
45.17725940679741 12.1502
45.20137445952892 12.1195
45.22568004865265 12.1167
45.24979934496396 12.0702
45.27392075725247 12.011
45.29804428714431 12.0151
45.322358426247604 12.0204
45.346486212804315 11.9455
45.370616121861914 11.9594
45.39474815505086 11.946
45.41907087049246 11.8789
45.4432071734666 11.88
45.46734560548283 11.8542
45.49148616817604 11.8817
45.51581748638564 11.8401
45.5399623320197 11.8209
45.56410931325473 11.7883
45.58825843173002 11.7843
45.61259837920865 11.7721
45.636751793816 11.7702
45.66090735060093 11.6944
45.68506505120716 11.6617
45.7094136545275 11.6274
45.73357566449271 11.6094
45.75773982322992 11.6115
45.78190613238733 11.6235
45.806263418194064 11.5405
45.83043404997326 11.5221
45.85460683713677 11.539000000000001
45.87897065658495 11.5311
45.90314777634752 11.5359
45.92732705646868 11.4922
45.9515084986045 11.4657
45.97588104735473 11.4509
46.00006683541565 11.3764
46.02425479047904 11.3637
46.04844491420549 11.3646
46.0728262191024 11.337
46.09702070211635 11.3076
46.12121735879483 11.334000000000001
46.14541619080294 11.2867
46.169806278764455 11.2955
46.194009483459034 11.2754
46.21821486849841 11.238
46.24242243555223 11.2305
46.266821333570014 11.2035
46.29103328674601 11.1292
46.31524742696538 11.1669
46.33946375590237 11.1646
46.36387149104216 11.1178
46.38809221957392 11.0725
46.41231514186606 11.1124
46.436540259597464 11.0964
46.460956858999374 11.0645
46.48518638983522 11.0326
46.509418121166966 10.9567
46.533652054678114 10.9662
46.55807754555709 10.9856
46.58231590571962 10.9276
46.60655647313217 10.923
46.630988654873654 10.9046
46.655233659129024 10.8473
46.67948087571551 10.8283
46.70373030632484 10.8303
46.72817142736393 10.8437
46.752425308428684 10.8275
46.77668140861147 10.7761
46.80093972960865 10.7323
46.82538981736788 10.743
46.849652602470904 10.7249
46.87391761349769 10.732999999999999
46.8981848521493 10.6947
46.9226439341274 10.6052
46.946915650573224 10.623
46.97118959976749 10.6682
46.99546578341598 10.5619
47.019933887188216 10.6107
47.04421456235744 10.5372
47.06849747711879 10.5208
47.09278263318286 10.475
47.11725978640143 10.4895
47.14154944775105 10.4622
47.165841355555656 10.443
47.1901355115306 10.4322
47.214621741924994 10.3838
47.23892041698887 10.3779
47.26322134538975 10.3636
47.28771440635075 10.3562
47.31201986422527 10.3768
47.33632758061436 10.3863
47.360637557241866 10.3214
47.38513974410611 10.3056
47.40945426407847 10.2494
47.43377104948137 10.2268
47.45809010204344 10.1712
47.48260144275502 10.1866
47.506925052572285 10.1859
47.53125093475548 10.1554
47.55557909103813 10.1362
47.58009961361992 10.1126
47.60443234110732 10.1247
47.62876734791564 10.1001
47.65310463578333 10.0525
47.6776343683373 10.057
47.7019762413987 10.0037
47.72632040075572 9.97892
47.75066684815169 9.982339999999999
47.77520581885936 9.95545
47.799556865477655 9.92247
47.823910205386 9.93973
47.84826584033272 9.93239
47.87281407745551 9.891580000000001
47.89717432569297 9.92723
47.92153687423484 9.898660000000001
47.94609208429692 9.86705
47.97045925671401 9.83437
47.99482873471275 9.8267
48.01920052005013 9.79878
48.04376504619224 9.78386
48.068141469543484 9.81136
48.09252020552573 9.75661
48.11690125590099 9.74174
48.1414751266064 9.67421
48.16586082917454 9.739130000000001
48.19024885144316 9.68859
48.2146391951793 9.65832
48.239222439012764 9.67658
48.26361744916137 9.621839999999999
48.28801478610016 9.61542
48.31241445160131 9.59028
48.337007097209366 9.60495
48.36141144338331 9.54338
48.38581812345755 9.55112
48.41022713920929 9.51493
48.434829215320704 9.52463
48.45924292604658 9.51577
48.48365897780325 9.50765
48.50807737237308 9.46444
48.532688907799276 9.41611
48.55711201168574 9.41117
48.581537463754074 9.40709
48.60615611725119 9.42768
48.63058628942721 9.37914
48.65501881516546 9.319939999999999
48.6794536962573 9.34027
48.70408185970339 9.31195
48.72852147531801 9.30315
48.75296345168211 9.25799
48.77740779059232 9.26865
48.80204549302823 9.27917
48.82649458091802 9.262960000000001
48.85094603676547 9.239460000000001
48.87539986237231 9.15891
48.90004713292306 9.15524
48.92450572200832 9.164539999999999
48.94896668628025 9.13102
48.97343002754588 9.1218
48.99808689542115 9.13212
49.02255501470614 9.09591
49.04702551642794 9.09539
49.0714984023988 9.07951
49.096164896893235 9.071639999999999
49.120642575466796 9.03398
49.145122643748394 9.01285
49.16960510355558 8.97688
49.19428125404938 8.98104
49.2187685210852 8.955110000000001
49.243258185121555 8.95236
49.26794160167084 8.95555
49.2924360839405 8.869710000000001
49.31693296869764 8.87086
49.34143225776915 8.85234
49.36612538195438 8.85024
49.39062950396021 8.826089999999999
49.41513603578346 8.833680000000001
49.4396449792564 8.813989999999999
49.46434784069503 8.822339999999999
49.488861631846454 8.79721
49.513377840166804 8.78012
49.537896467493745 8.74238
49.56260909589029 8.69335
49.587132585683285 8.69698
49.611658500018365 8.718689999999999
49.636186840738596 8.67099
49.66090926588511 8.64528
49.685442483902584 8.5941
49.70997813385706 8.59891
49.734516217597076 8.58982
49.75924846937352 8.564860000000001
49.7837914452858 8.53501
49.80833686055187 8.513760000000001
49.83288471702571 8.54326
49.85762682540054 8.53472
49.882179588965734 8.459060000000001
49.9067347993235 8.46027
49.93129245833333 8.45973
49.95604445336378 8.45117
49.98060703442832 8.402569999999999
50.005172069746266 8.43323
50.02993150438364 8.422460000000001
50.05450147301533 8.35285
50.07907390151433 8.35415
50.10364879174981 8.3431
50.12841816587289 8.357339999999999
50.1529980044635 8.30306
50.17758031042124 8.31656
50.20216508562089 8.297139999999999
50.22694442953363 8.2659
50.25153416817468 8.27488
50.27612638170508 8.2171
50.300721072005196 8.21879
50.325510416102105 8.20908
50.350110084975064 8.1744
50.37471223628208 8.18261
50.39931687190919 8.15956
50.424116246675766 8.1395
50.44872587605249 8.12645
50.47333799543065 8.12924
50.49795260670191 8.068999999999999
50.52276204271512 8.07979
50.54738166295838 8.08785
50.57200378079314 8.0379
50.596628398116835 8.01418
50.62144792604559 8.011660000000001
50.646077567609396 7.98822
50.670709714377715 7.99507
50.69553683636198 7.9477199999999995
50.72017401885922 7.96408
50.7448137122895 7.9614199999999995
50.76945591856022 7.95458
50.79429318636823 7.939660000000001
50.818940443716784 7.917560000000001
50.84359021965163 7.88713
50.868242516085964 7.87062
50.893089960641895 7.8277600000000005
50.917747323549435 7.825239999999999
50.94240721271973 7.837389999999999
50.96706963007175 7.822260000000001
50.99192728239342 7.7781899999999995
51.01659478166073 7.79385
51.04126481489051 7.78675
51.06593738400761 7.7365
51.090805275207074 7.731789999999999
51.11548294172845 7.73147
51.14016314993547 7.6980699999999995
51.164845901758845 7.64526
51.18972406304274 7.67178
51.21441192780656 7.67241
51.23910234200271 7.645760000000001
51.2637953075678 7.5969
51.288683770237945 7.59213
51.31338186432707 7.60544
51.33808251561888 7.57032
51.362978729967345 7.57107
51.387684521509755 7.56734
51.41239287610203 7.51463
51.437103795691165 7.5060199999999995
51.46201036644977 7.49224
51.486726441956634 7.47715
51.51144508832545 7.48349
51.536166307509156 7.47193
51.56108326624387 7.41858
51.58580965706056 7.40096
51.61053862657523 7.406439999999999
51.635270176746864 7.3757600000000005
51.66019755512065 7.38393
51.68493429268881 7.34325
51.70967361681515 7.385839999999999
51.73441552946465 7.349069999999999
51.759353359237934 7.373060000000001
51.7841004750961 7.28563
51.80885018539685 7.2835600000000005
51.833602492111254 7.260389999999999
51.8585508051424 7.2479
51.883308330926425 7.240310000000001
51.90806845906181 7.2164
51.932831191525715 7.17572
51.95779001977161 7.193289999999999
51.98255798721516 7.170310000000001
52.00732856494335 7.176010000000001
52.03229530577543 7.1528
52.057071130455945 7.1515699999999995
52.081849571391054 7.143610000000001
52.106630630568695 7.11021
52.13160794279417 7.0923
52.15639426492067 7.08143
52.18118321127822 7.07335
52.205974783860896 7.03365
52.23096269971011 7.046289999999999
52.255759551287994 7.0681899999999995
52.280559035098186 6.97383
52.30536115314103 6.975160000000001
52.33035970494467 6.9983699999999995
52.35516711807904 6.9512100000000006
52.37997717147198 6.90112
52.40478986713005 6.946960000000001
52.42979908731974 6.95356
52.454617094216 6.890039999999999
52.47943774942214 6.84353
52.50426105495102 6.85537
52.529280976059844 6.859310000000001
52.554109609024096 6.849060000000001
52.57894089837482 6.86728
52.60377484613117 6.85608
52.62880550079408 6.82953
52.65364479223379 6.769639999999999
52.67848674816189 6.747660000000001
52.70352547971946 6.781160000000001
52.72837279155837 6.74955
52.753222773982785 6.71673
52.778075429022984 6.757060000000001
52.80312495150885 6.71497
52.827982978797436 6.647880000000001
52.85284368481815 6.65095
52.87770707160767 6.66785
52.90276741793998 6.65355
52.92763619336701 6.674760000000001
52.952507655698504 6.60153
52.977381806977576 6.62995
53.00245301017842 6.627210000000001
53.02733256653592 6.608689999999999
53.052214817996074 6.59543
53.077099766608484 6.546119999999999
53.102181859804446 6.54038
53.127072229988265 6.55765
53.15196530349892 6.482069999999999
53.17686108239249 6.51254
53.20195409881522 6.47591
53.22685531582556 6.47962
53.25175924441303 6.440869999999999
53.27666588664027 6.46925
53.30176985962693 6.439369999999999
53.3266819565689 6.4012199999999995
53.35159677336455 6.39204
53.376514312083096 6.40797
53.40162927507703 6.40564
53.42655228516116 6.3474699999999995
53.45147802340193 6.30875
53.47660125628886 6.31585
53.50153247842639 6.30048
53.52646643496923 6.29775
53.55140312799818 6.26731
53.576537409691696 6.2454
53.60147960336152 6.23703
53.626424539786164 6.2365699999999995
53.65137222105307 6.1961900000000005
53.67651758529126 6.22139
53.70147078399681 6.19568
53.72642673383343 6.19298
53.75138543689533 6.18998
53.776541917524526 6.20504
53.801506154876755 6.201919999999999
53.826473151763246 6.163130000000001
53.851442910284916 6.11382
53.87661054126026 6.1259
53.9015858509782 6.12817
53.92656392866066 6.11165
53.95154477641532 6.12014
53.976723591801296 6.0494
54.00171000771266 6.08528
54.02669920004598 6.05396
54.051691170915745 6.0371
54.076881204886796 5.9928099999999995
54.101878760928514 6.03849
54.12687910187696 5.989319999999999
54.152077577768296 5.94056
54.1770835166946 5.93193
54.20209224691339 5.93635
54.22710377055121 5.94161
54.25231352511594 5.927169999999999
54.27733066384342 5.88542
54.30235060239643 5.92304
54.32737334290836 5.87702
54.35259441062629 5.8187
54.377622783395324 5.84821
54.40265396455061 5.88587
54.42768795623251 5.83919
54.45292037169559 5.7704
54.477960012857906 5.74539
54.50300247099511 5.73909
54.52804774825457 5.72924
54.55329154616743 5.67708
54.57834249018678 5.68185
54.6033962597977 5.6721900000000005
54.6284528571545 5.66259
54.653708072335164 5.63812
54.67877035378786 5.67354
54.70383546947698 5.59551
54.72890342156389 5.5743599999999995
54.7541700889442 5.51653
54.77924374251975 5.52784
54.8043202390049 5.47521
54.82959552413022 5.475280000000001
54.8546777351945 5.49282
54.87976279569621 5.466
54.90485070780914 5.52862
54.930137506558005 5.436730000000001
54.95523115074295 5.4261800000000004
54.98032765308844 5.35896
55.005427015775496 5.32845
55.03072536339621 5.34012
55.05583047570572 5.31011
55.080938454927676 5.2607
55.10604930325027 5.31011
55.131359235107396 5.32753
55.15647585066083 5.23189
55.181595341907496 5.24176
55.20671771104285 5.17586
55.232039262617704 5.21307
55.25716741665048 5.22421
55.28229845518636 5.20549
55.30743238042802 5.1374699999999995
55.33276558731939 5.09185
55.357905315183636 5.110530000000001
55.383047936390035 5.0376900000000004
55.40819345314859 5.01204
55.433538351073295 5.03223
55.458689688238415 4.9757
55.483843927614096 4.931690000000001
55.509197623043605 4.92565
55.53435769621134 4.91639
55.55952067826466 4.84465
55.5846865714265 4.8478
55.61005202069737 4.90219
55.63522376553902 4.8588
55.66039842818645 4.78535
55.68557601087004 4.7859300000000005
55.7109532500271 4.7556400000000005
55.73613670233794 4.76424
