TT I
1.2716486653135266 7.66478
1.2939594142134223 7.33325
1.3162702121660406 6.29235
1.3385810600174564 6.46166
1.3608919586137629 6.73498
1.383202908801069 7.0496300000000005
1.405513911425503 6.3876800000000005
1.4278249673332093 6.783519999999999
1.4501343378461518 6.65642
1.4724455028545926 5.46994
1.4947567236847858 6.22238
1.517068001182951 5.90989
1.5393793361953272 6.28765
1.5616907295681737 5.76156
1.5840021821477681 5.1056099999999995
1.60631369478041 5.12893
1.6286252683124185 5.098319999999999
1.6509369035901333 5.01807
1.6732468618895553 4.89093
1.695558623192809 4.12173
1.7178704487808514 5.14297
1.7401823395001077 4.42966
1.7625012545597203 4.69184
1.7848028405262486 4.85084
1.8071218901122095 4.71634
1.8294236121921872 4.8465300000000004
1.8517427996910911 4.370430000000001
1.8740620574440425 4.79091
1.8963639900671978 4.7103
1.9186833908139995 4.856730000000001
1.9409854680117449 4.97762
1.9633050151394713 4.8896
1.9856246367570705 4.93738
2.0079269371922672 4.703069999999999
2.03024671027244 4.46605
2.0525491637446027 5.03003
2.074869091674931 4.833069999999999
2.097171701569106 4.38473
2.1194917877373847 4.814019999999999
2.141811954326636 4.98402
2.164114805233074 5.3759
2.186435135143035 5.03761
2.208738150935709 8.85476
2.231058647554722 15.0999
2.2533792288321184 11.4303
2.275682498336085 6.05981
2.298003251406138 5.45673
2.3203066942619714 5.48986
2.3426276225136022 5.30473
2.3649486396617507 5.1490800000000005
2.387252348930071 5.40629
2.4095735463442893 5.2065
2.4318774374315884 5.8657900000000005
2.4541988185014043 6.2371300000000005
2.476502894794693 7.025460000000001
2.498824462909887 7.160010000000001
2.521146125856138 6.869089999999999
2.5434504863470337 7.15278
2.5657723414244717 7.618239999999999
2.588076895590662 8.07392
2.610398946189713 7.61447
2.6327210958598384 8.20427
2.6550259469304716 7.555680000000001
2.6773482972090137 7.38198
2.6996533504259 8.46199
2.7219759047039602 8.11055
2.744298562293959 8.47231
2.7666039251246595 8.12752
2.7889267918020164 8.42959
2.8112323652516555 8.33215
2.833555444408179 8.40088
2.8558786311183852 8.45728
2.8781845268938557 8.83422
2.9005079311721484 8.80713
2.9228140460410397 8.76858
2.9451376712799635 9.01425
2.967444008632326 9.00384
2.9897678582247247 9.71945
3.0120918213106695 10.4403
3.0343984987899373 10.8333
3.0567226913198637 10.6839
3.079029599759726 11.6071
3.101354025127254 12.5729
3.123678568232338 13.1715
3.145985829517914 13.2263
3.16831061055229 13.5301
3.1906181112775593 14.1523
3.212943133635653 14.8967
3.2352682779763207 14.9281
3.2575761442691227 15.6002
3.2799015350264273 15.8521
3.302209649240067 16.2627
3.3245352898092655 16.5797
3.3468436553365257 17.5809
3.369169549113219 17.5328
3.3914955708171384 18.3297
3.413804319727358 18.8323
3.4361305997334863 18.9458
3.4584396084414553 19.4748
3.4807661501462652 20.4739
3.503092824025881 20.5564
3.5254022288463154 20.9261
3.5477291695206588 21.5008
3.5700388426251948 22.1766
3.5923660534916446 23.1189
3.6146934007816114 29.7529
3.637003482731501 51.6161
3.6593311053109985 54.896
3.681641464033634 37.0118
3.7039693653009733 26.9171
3.726297407241705 25.2419
3.7486081875460804 25.2669
3.7709365132734978 25.6915
3.793247578841633 25.9983
3.8155761917550093 26.4476
3.8378875459837216 26.7146
3.8602164494827234 27.4162
3.882545499606844 28.1895
3.9048572932539183 28.913
3.9271866390645718 28.811999999999998
3.9494987298666713 29.1883
3.971828374764527 30.208000000000002
3.9941581705403255 30.3041
4.016470713506008 31.480999999999998
4.038800813471445 31.5031
4.061113662089144 32.4194
4.0834440696459176 33.4296
4.105774632334751 33.5488
4.128087945865126 34.4242
4.150418821249301 34.8295
4.172732448931298 35.4339
4.195063640413578 36.51
4.2173775856475215 39.0349
4.239709096631102 53.7236
4.262040768704612 123.072
4.284355196706267 154.203
4.306687193387355 107.87799999999999
4.329001947444346 57.8657
4.35133427213731 44.3118
4.373666762177566 43.0177
4.395982011761091 43.2028
4.418314834921175 44.5242
4.44063041906622 48.7087
4.4629635787515625 53.6849
4.4852969080429785 53.9593
4.5076130004776225 52.6819
4.529946671403969 56.0326
4.552263106909177 59.3485
4.574597122877047 56.5239
4.596931312711224 54.2899
4.619248269273446 53.7224
4.6415828092605835 54.4089
4.663900117405352 55.3623
4.686235010953232 56.7444
4.708552674085913 58.131
4.730887924602802 59.6198
4.753223354952695 61.1519
4.775541557023902 65.06
4.797877349456786 67.887
4.820195915032126 68.8098
4.842532072957498 68.9817
4.864868414979744 71.2554
4.88718753227192 74.52199999999999
4.909524244902505 76.3878
4.931843734218147 76.8846
4.954180820867835 78.5782
4.976518095879839 81.8374
4.998838149695359 84.5699
5.021175803844231 87.9254
5.043496238205739 90.9828
5.065834274903528 95.1154
5.088172504230693 100.697
5.1104935158799565 107.215
5.132832132875765 127.485
5.155153533596801 158.16
5.1774925416746225 205.028
5.199814334878411 432.811
5.2221537374521505 1122.07
5.244493338631803 3045.07
5.266815727034316 7884.29
5.289155727832427 12578.7
5.311478517248165 8510.95
5.333818921080011 2631.22
5.356159527788849 517.725
5.3784829252032536 195.968
5.400823940070432 152.958
5.423147747031976 131.036
5.445489173474152 120.105
5.467830807066149 119.31700000000001
5.490155234831516 117.84899999999999
5.512497285125229 111.294
5.534822130975162 106.029
5.557164601388673 102.63600000000001
5.579489868738879 99.6227
5.601832762690846 98.1562
5.6241758697774475 96.7991
5.646501775867269 96.5746
5.668845311622074 94.775
5.691171647754637 94.956
5.713515615597765 93.9297
5.735859800852677 93.3354
5.758186788542988 94.5983
5.780531411018185 97.7057
5.802858837297399 97.7848
5.825203900414495 97.9662
5.8475491852224 100.73700000000001
5.869877275883075 100.31299999999999
5.892223006467101 97.0767
5.914551544266608 95.8333
5.936897724049891 98.5528
5.959244129804903 106.18
5.981573344815301 137.361
6.0039202049061 256.17
6.026249875609095 509.565
6.04859719346037 1036.71
6.070927323278297 2264.8
6.093275102315365 4584.0
6.115623113320588 5124.26
6.137953938319995 3108.26
6.160302415650845 934.995
6.182633708324452 220.52599999999998
6.2049826554078376 109.984
6.227331838745022 91.0744
6.249663839443684 84.5515
6.27201349767565 81.0716
6.294345974611799 82.0608
6.316696111167083 84.8721
6.339046488263839 81.7469
6.361379686074702 74.5218
6.383730546639482 70.3223
6.406064229255215 69.6672
6.428415576718203 70.9474
6.450749747566656 69.2322
6.47310158535871 66.3024
6.495453669698332 65.2319
6.517788579421056 64.4581
6.540141159237969 63.3471
6.562476565766648 63.0229
6.5848296444934045 62.8955
6.607182974060425 62.7581
6.6295191323281015 62.7836
6.651872965955752 63.2356
6.6742096296068985 74.4021
6.6965639707294615 92.7679
6.71891856698715 91.9912
6.741255995248479 73.4884
6.763611104154477 62.0376
6.785949046381137 59.1485
6.808304671371482 59.285
6.8306605557940046 60.288000000000004
6.852999275508618 59.5135
6.875355681171544 57.6125
6.897694923437771 56.7987
6.92005185377892 56.216
6.9423916220322655 55.9025
6.964749080490181 55.1654
6.987106804399774 55.7657
7.009447368180821 55.9955
7.031805625367033 55.6342
7.054146723727803 55.1074
7.076505517631004 54.7351
7.098864581288365 54.5431
7.121206488070854 54.7258
7.143566093607822 54.5806
7.165908543567245 55.9123
7.188268694426048 56.2188
7.2106291193438095 55.4893
7.232972390625943 55.613
7.255333366030969 60.9864
7.277677189091925 82.6967
7.300038718428332 101.727
7.322400526130865 90.5589
7.344745183422596 68.3103
7.367107550224791 56.903999999999996
7.389452767901992 54.8661
7.411815697249891 54.2744
7.434161478756298 53.7693
7.456524974096713 53.6544
7.478888753837185 53.7286
7.501235387657368 54.1501
7.523599738562711 53.9391
7.545946944825532 54.4281
7.568311870344528 54.7466
7.5906770845765665 54.9035
7.613025156078678 55.6654
7.635390950099687 56.144
7.657739602662809 56.0664
7.680105979923558 56.0845
7.702472650212829 56.5931
7.724822180948224 56.4926
7.747189439655568 56.1617
7.769539560075357 55.8284
7.791907410653562 56.731
7.81425812420825 56.3737
7.836626570110925 56.5754
7.858995315087906 57.2528
7.881346924933401 57.7567
7.903716270417482 58.1367
7.926068482028405 58.4885
7.948438431475253 59.1994
7.9708086843180235 59.9124
7.993161805171116 60.3546
8.015532667162402 60.7957
8.037886398416653 61.6162
8.060257873014221 62.1955
8.082629655331942 63.2574
8.104984308787587 63.9852
8.127356708900503 66.5648
8.149711981398308 71.0593
8.172085002766314 72.6384
8.194458336181368 70.3873
8.216814543847752 68.9729
8.23918850371002 69.5611
8.26154533906492 70.3513
8.283919928836452 71.69
8.306277395339652 72.9515
8.328652618483376 74.2231
8.351028159736202 76.1969
8.373386579575245 78.725
8.395762759396959 80.3548
8.418121819038275 84.2097
8.440498640894003 92.2823
8.462875785192262 104.66799999999999
8.485235811156207 132.221
8.507613602688501 189.011
8.529974277114228 272.884
8.552352719347912 411.216
8.574731488360351 693.375
8.59709314210385 1256.25
8.619472567021075 1899.87
8.64183487789147 2173.34
8.664214962183097 1710.92
8.686577933647762 845.428
8.708958680784317 326.797
8.731339760774953 148.939
8.753703729764451 107.51
8.77608547780821 98.2464
8.798450116065078 94.8998
8.820832535634787 92.4228
8.843215292401656 92.3255
8.865580941199045 92.2629
8.887964374703538 91.5221
8.910330701447199 91.8234
8.932714815164482 91.7248
8.955099270424924 89.51299999999999
8.977466620733543 86.59100000000001
8.999851761421976 85.1244
9.022219798361645 83.8723
9.04460562795561 83.5778
9.066991803441677 83.7813
9.089360876979615 84.1463
9.111747746589993 83.5072
9.13411751544971 82.6202
9.156505082664324 81.9263
9.178875550323522 82.0877
9.20126381862328 81.8868
9.223652438908596 81.9943
9.246023961427412 82.4683
9.26841328802173 82.2132
9.290785518039224 82.6225
9.313175554425882 84.6753
9.335565947154315 85.9701
9.357939245086508 86.4668
9.380330352834827 85.8775
9.40270436697103 85.5889
9.425096193225055 85.3329
9.447488380180165 85.2225
9.469863475295412 84.8319
9.492256385987508 84.8295
9.514632206018318 85.3827
9.537025843935714 85.7421
9.559402392368193 87.2767
9.581796761000229 89.2665
9.604191496441521 91.1973
9.626569144158516 93.7432
9.648964615551032 95.7233
9.671343000390081 95.6391
9.693739211225699 93.9052
9.716135793237463 92.8758
9.738515290448102 93.26799999999999
9.760912617143402 95.0576
9.783292860202891 97.2438
9.805690935076182 99.4489
9.828089385495742 99.7645
9.850470754023561 101.69
9.872869957865444 105.491
9.89525208097539 112.31299999999999
9.917652041736662 120.211
9.940052382417589 129.85399999999998
9.962435644102392 156.29
9.984836746950979 200.16299999999998
10.007220771957746 259.936
10.029622640473708 366.445
10.052007432299963 552.085
10.074410069984072 853.9839999999999
10.096813093716005 1306.89
10.119199042482517 1800.79
10.141602840636468 1962.4
10.163989564971628 1536.36
10.186394141051062 830.4580000000001
10.208799107559706 355.88199999999995
10.231187001965623 170.532
10.253592751657669 121.82700000000001
10.275981430388155 111.889
10.298387966769793 109.545
10.320794897965431 109.781
10.343184759907361 108.67
10.36559248305461 105.633
10.387983138083852 105.85600000000001
10.410391656691655 112.93700000000001
10.432800574501677 124.656
10.455192425893369 140.625
10.47760214443012 166.484
10.499994797678786 213.707
10.522405320453982 294.945
10.54479877906917 412.591
10.567210109595656 514.028
10.5896218454736 568.2040000000001
10.612016518879773 492.48800000000006
10.634429067781074 328.885
10.656824555333241 192.00099999999998
10.679237920773568 118.555
10.701651695961992 94.0839
10.724048411481384 88.8563
10.746463008485165 86.1723
10.768860546937125 84.6307
10.791275969274796 83.2775
10.81369180576079 82.4419
10.836090585366925 81.2158
10.858507252467449 79.7047
10.88090686379991 78.8262
10.903324365036394 78.484
10.925724811614439 77.9442
10.948143150509463 78.5984
10.970561909719066 77.8563
10.992963615930844 76.7942
11.015383218085756 75.275
11.037785768347074 73.6043
11.06020621697282 72.8863
11.082627090322113 71.9829
11.105030913430326 71.244
11.12745263854165 71.4332
11.149857314510728 72.2386
11.172279894912576 74.3108
11.194702904450653 74.5648
11.217108866490921 72.6372
11.239532736615194 70.5884
11.26193956033512 69.2003
11.284364294577085 68.3768
11.306789462371718 67.6667
11.329197585398376 66.95
11.351623622610898 66.9041
11.37403261614354 65.8717
11.396459526308487 66.1759
11.418869393879497 65.4273
11.441297180532617 64.9498
11.463725406927658 64.5081
11.486136592353875 64.3407
11.508565700543707 64.4462
11.530977768845315 65.4236
11.553407762368774 65.39399999999999
11.575838200059769 64.9932
11.598251599479612 64.1549
11.620682927815501 63.5667
11.64309721895548 63.4627
11.665529441478206 63.2372
11.687962112597958 62.9455
11.710377748130886 63.0047
11.732811318753434 62.6193
11.755227854859067 62.5446
11.777662328529495 62.5695
11.800079768750786 62.2989
11.822515149015453 62.513999999999996
11.844950984084935 62.79
11.867369787303163 62.4273
11.889806534289491 62.0583
11.912226250487029 62.6422
11.934663912939751 62.8238
11.9571020346363 62.9187
11.979523127133968 63.2501
12.001962169624331 64.4553
12.024384183972964 66.1168
12.046824150809913 69.5346
12.069264581333726 73.8323
12.091687985297767 79.5169
12.11412934550045 89.3265
12.136553680195208 105.179
12.158995973632788 129.134
12.181438735204349 155.389
12.20386447284199 182.291
12.226308172985636 204.50400000000002
12.24873485024193 195.899
12.271179492516982 155.781
12.293607112949127 117.51799999999999
12.316052700916226 87.2534
12.338498763250042 72.5685
12.360927805303868 66.9517
12.383374818673879 64.718
12.405804812803074 63.7239
12.428252780773262 63.7395
12.45070122756722 63.9006
12.473132656675375 64.2323
12.49558206341869 64.6747
12.518014453510101 64.8227
12.540464823770117 64.875
12.562915677315177 64.6778
12.58534951575545 65.0139
12.607801338171472 65.7145
12.630236146511358 68.4478
12.652688941369085 70.3235
12.675124723177234 70.6971
12.697578494048786 69.8783
12.720032754458185 67.9488
12.742470003354093 67.3032
12.764925245138771 67.5134
12.787363476431278 68.0247
12.809819703166806 68.6892
12.83227642391173 69.1268
12.854716135692716 69.875
12.877173846755147 70.92399999999999
12.899614549869717 71.6465
12.9220732548287 72.4008
12.94453245827299 72.937
12.966974655289818 74.1471
12.989434858002571 74.6497
13.011878055298721 75.1171
13.034339260862497 76.1665
13.056800969391883 77.6943
13.079245674017244 80.5088
13.101708390774869 85.2984
13.12415410463411 94.0837
13.146617833206086 103.891
13.169064559883248 114.499
13.191529303857127 129.434
13.213994557076367 154.346
13.236442809902437 193.525
13.258909083908291 250.253
13.28135835851934 314.073
13.30382565690295 381.38199999999995
13.326293469022952 425.144
13.348744283242008 415.106
13.371213125129904 337.559
13.39366497011003 248.793
13.416134845360597 163.495
13.438605238843131 120.75200000000001
13.46105863690397 108.044
13.483530069144786 108.60600000000001
13.505984506951902 113.29
13.528456981549432 123.509
13.550929978879088 139.07
13.573385983253365 165.644
13.595860028340867 205.355
13.618317081455832 260.705
13.64079217790333 315.54200000000003
13.663250283359057 359.999
13.685726434770173 372.91
13.708203115221277 328.708
13.730662806148091 250.485
13.75314054697177 173.16400000000002
13.775601299246777 119.973
13.798080104050406 93.9981
13.820559442405358 84.1672
13.843021793671388 81.1654
13.865502201420897 79.9883
13.887965623051947 79.525
13.910447103807167 78.3351
13.932929122629764 77.1614
13.955394156785959 76.4868
13.977877254034569 75.7892
14.000343367582113 74.8356
14.022827546871707 74.2203
14.045294743423524 73.4191
14.06778000837062 72.9126
14.090265817715476 72.7497
14.112734645763819 72.4697
14.13522154619454 72.098
14.157691466286913 71.8015
14.180179461423874 71.6165
14.202668005486178 71.1924
14.22513957064374 70.3925
14.247629214846473 70.4468
14.270101881097517 70.0003
14.29259262906496 69.8855
14.315083930490205 70.15100000000001
14.337558255389705 70.3439
14.360050666019726 70.2505
14.382526101071944 69.6869
14.405019624534942 68.8558
14.427513705993134 68.639
14.449990813291825 68.88
14.47248601302899 68.5582
14.49496423954951 68.6492
14.517460561197822 68.9661
14.539939910570322 68.4059
14.562437357763558 69.0326
14.58493536931253 69.3348
14.607416409993311 69.9019
14.62991555254159 70.3395
14.652397725157423 70.5557
14.674898002342799 70.6116
14.697398848433282 70.6583
14.719882725991326 72.0704
14.74238471217934 74.2365
14.764869730765593 77.8094
14.787372860692983 80.7888
14.809876564079925 84.8443
14.83236330125751 90.7207
14.854868153850365 99.8392
14.877356041159485 114.462
14.899862046604186 133.768
14.922351087688757 159.631
14.944858249632887 188.455
14.967365991421232 213.02700000000002
14.989856770231246 226.003
15.012365673994204 215.472
15.03485761569738 180.646
15.05736768508665 139.454
15.07987833888692 108.055
15.102372032001655 86.4078
15.124883856909658 75.4721
15.14737872204565 71.7109
15.169891721717274 70.4481
15.192405310371893 70.1693
15.214901940621196 69.9649
15.237416709527137 69.3141
15.259914520936249 69.4722
15.282430473753607 68.8433
15.304947020131227 68.0492
15.327446610371178 67.3469
15.349964346154254 66.8503
15.372465126703139 66.6443
15.394984055556009 66.3443
15.417486030076159 66.3662
15.44000615566487 66.0548
15.462526881230803 65.8414
15.485030653812652 65.9097
15.507552581617434 65.7846
15.530057557334603 65.5926
15.55258069104857 65.7632
15.575104429329837 66.0985
15.597611216864632 65.9231
15.620136166564563 66.6324
15.6426441664095 68.5557
15.665170331202765 71.021
15.687697105158826 73.6442
15.710206930593545 76.8865
15.732734925158933 81.1396
15.755245972089478 87.9371
15.77777519094324 97.1957
15.800287463046663 111.00200000000001
15.822817909869592 130.314
15.84534897229804 151.423
15.867863089299354 174.38400000000001
15.890395385222186 190.02599999999998
15.912910736597423 194.00099999999998
15.935444269699861 176.472
15.957978423016485 148.655
15.980495633101265 115.696
16.003031029129367 91.2582
16.02554948280019 74.1752
16.048086125229432 66.4136
16.070623392487107 63.7823
16.09314371869582 63.0026
16.11568223789321 61.9839
16.13820381691126 61.2086
16.160743591742527 60.6034
16.183283996022084 60.042
16.205807461423195 59.0542
16.228349126881973 58.7602
16.25087385432698 58.604
16.27341678466365 57.931999999999995
16.29594277784926 57.7987
16.31848697676433 57.8046
16.341031811604868 57.6452
16.36355971058487 57.6864
16.3861058195587 57.3712
16.40863499352978 56.5119
16.431182380342005 56.2269
16.453730407713202 55.9957
16.476261501364792 55.507
16.498810812136167 55.2029
16.52134319004079 55.3847
16.54389378792203 55.1422
16.566445031001553 54.9354
16.588979342490088 54.9548
16.61153187824822 54.8051
16.634067483263312 54.7696
16.656621315414416 54.5362
16.679175797408888 54.3661
16.701713349928728 54.4308
16.72426913389191 54.5581
16.74680798922351 54.7129
16.76936507887444 54.6069
16.791905240734874 54.5961
16.814463639794468 54.4737
16.837022695210294 54.8774
16.859564824093756 54.9367
16.882125194503903 55.1821
16.904668639217885 55.43600000000001
16.927230328348003 55.4617
16.949792678493612 55.7613
16.972338104193863 55.599
16.994901778652235 55.1489
17.017448529496576 55.5086
17.040013531998152 56.0545
17.06257920018044 56.6474
17.0851279459922 57.2362
17.107694947817667 58.0691
17.130245028099072 58.8888
17.15281336730298 60.2136
17.17536478578733 62.0007
17.19793446610687 64.4143
17.220504818648422 67.6301
17.243058251703697 70.8504
17.265629950971032 75.1186
17.288184731571736 79.6978
17.310757781306908 83.09
17.33333150794385 84.5917
17.355888317140174 81.2257
17.37846339986244 75.4999
17.401021565958885 69.4599
17.42359800851343 64.4596
17.44617513265564 61.3723
17.468735341390783 59.7955
17.491261035594565 59.3024
17.51396340099364 58.958
17.536490463869136 58.9345
17.559018209820174 58.7835
17.58154663977963 59.0031
17.604251766089718 59.3988
17.626781572227713 59.7057
17.64931206518155 59.7309
17.671843245885103 60.0851
17.69455114821572 60.1039
17.717083712612634 60.6014
17.739616967569667 61.1223
17.762150914021706 61.4737
17.78486160749854 61.5465
17.807396945166804 62.4581
17.829932977143503 63.9506
17.85246970436452 65.5094
17.875183204129467 67.0321
17.897721330097664 69.0053
17.920260154126645 71.3028
17.942799677153296 74.4214
17.9655159983646 78.4645
17.988056927677544 84.1721
18.010598558807683 92.3218
18.033140892692916 102.70100000000001
18.05586005052525 113.881
18.07840379824407 125.73
18.10094825154059 136.053
18.12366954819864 141.96
18.146215420998306 139.602
18.16876200220057 130.276
18.191309292745153 114.436
18.214033452627167 100.531
18.236582170236648 89.6518
18.259131600016456 86.0082
18.281681742907335 86.4372
18.304408781233683 91.4826
18.32696035875955 96.4031
18.349512652227624 101.24799999999999
18.372065662579683 104.90299999999999
18.394795594587553 105.965
18.41735004715306 101.304
18.43990521943684 93.7307
18.46246111238171 84.06200000000001
18.485193953325208 74.9492
18.507751296070428 68.6387
18.530309362314178 65.0848
18.552868153000343 63.0494
18.57560391815056 61.9331
18.59816416623245 61.6058
18.620725141597372 60.8732
18.643286845190268 60.7237
18.666025549835414 59.9184
18.688588718427933 59.4699
18.711152618092243 59.2439
18.73389353884365 59.1041
18.75645890921984 58.7053
18.77902501351406 58.5585
18.801591852673102 58.63
18.824335739722738 58.0277
18.846904057212626 57.8895
18.8694731124168 57.7358
18.89204290628315 57.6492
18.914789774966803 57.4594
18.937361054791623 57.4389
18.959933076131318 56.7346
18.982505839934877 56.7673
19.00525570560582 56.9849
19.027829963004184 56.6252
19.05040496572238 56.9664
19.072980714710468 56.9226
19.095733592739563 57.103
19.11831084296757 57.2228
19.140888842324735 57.5505
19.16346759176222 57.7393
19.18622349753803 58.3085
19.208803755869358 59.3055
19.231384767143577 60.81100000000001
19.253966532312948 62.67
19.276725481241822 64.7475
19.29930876296784 67.2554
19.3218928014549 70.4258
19.34465404436217 73.2949
19.36723960516257 75.3702
19.389825925592426 75.9639
19.412413006605938 74.7092
19.43517731967805 70.9262
19.457765930683355 66.0966
19.48035530514408 61.7894
19.50294544401556 58.4343
19.525712842708348 55.8758
19.54830451925909 54.8082
19.570896963095727 54.0561
19.593490175174704 53.7342
19.616260674962184 53.91
19.638855432416964 53.3547
19.661450960992624 53.4383
19.68404726164677 53.5331
19.706820878021247 53.2486
19.729418731756834 53.5487
19.752017360452857 53.2652
19.77461676506804 53.5815
19.797393513540218 53.7726
19.819994478951667 53.9672
19.84259622316767 54.3261
19.8651987471481 54.5753
19.887978643247177 54.8025
19.91058273574792 55.1699
19.933187610901943 56.275
19.955969879466828 57.633
19.97857632894404 59.1835
20.00118356396599 60.9207
20.023791585494575 62.9909
20.046577028914875 65.6931
20.069186632506966 67.805
20.091797025500632 69.1911
20.114408208858933 69.6747
20.137196842715273 69.1806
20.159809615886765 67.5607
20.18242318232135 65.1491
20.20503754298326 63.203
20.227829382875154 62.2486
20.250445341109344 62.208
20.27306209647285 62.9583
20.29567964993108 64.0416
20.31847471147704 65.0936
20.34109387027612 65.4788
20.363713830075454 64.5279
20.386334591841646 62.9954
20.409132890679302 60.13
20.431755265564437 57.198
20.454378445325528 54.7028
20.477002430930366 52.6876
20.499803982716553 51.6513
20.522429589228004 51.1098
20.54505600449589 50.4916
20.567683229489194 50.5684
20.590488049900088 50.3338
20.61311690359731 50.0169
20.63574656993626 49.9888
20.658553853717297 49.3623
20.681185154618298 49.522
20.703817271080066 49.5368
20.72645020407368 49.0394
20.749260783967177 49.0731
20.771895359337133 49.0034
20.794530754161617 48.7992
20.817166969412938 48.7432
20.83998086114876 48.7782
20.86261872660049 48.551
20.885257415405402 48.6022
20.90789692853701 48.6744
20.930714147864748 48.4706
20.953355319030678 48.4606
20.97599731745334 48.6597
20.99864014410749 48.47
21.021460706796564 48.582
21.044105199328826 48.7661
21.06675052302631 48.9277
21.089396678865015 49.2778
21.112220600704806 49.4618
21.134868430275347 49.7595
21.15751709492456 50.058
21.180166595629693 50.4379
21.202993892429635 51.0311
21.22564507473034 51.3162
21.24829709602816 51.4559
21.27112693608965 51.42
21.293780644891275 51.3109
21.316435195634053 50.4526
21.339090589297417 49.6926
21.361923832041875 49.4159
21.384580921090404 48.7856
21.407238856007325 48.3785
21.429897637773326 48.3663
21.45273429906592 48.3756
21.475394784108598 48.2949
21.498056118951983 48.4539
21.520718304578022 48.5385
21.543558400304388 48.7666
21.566222297108816 49.0213
21.58888704765135 49.0509
21.61155265291521 49.3335
21.63439619898156 49.7396
21.657063523335786 50.0689
21.67973170537063 50.3405
21.7024007460706 50.9917
21.72524775840385 51.8348
21.747918526116475 52.783
21.770590155457388 54.0996
21.79326264741238 55.7782
21.816113141960237 57.5619
21.838787368860547 59.5075
21.861462461341976 61.5351
21.884315579735777 63.3565
21.90699241312273 64.2628
21.92967011506078 64.8779
21.95234868653799 64.1451
21.9752053151131 62.8774
21.997885635446785 60.5977
22.020566828293532 58.8019
22.04324889464272 57.2702
22.066109049404666 56.1824
22.088792872571794 56.0661
22.111477572219204 55.7989
22.1341631493376 56.1003
22.157026846313123 55.8471
22.179714188221507 55.0027
22.202402410582668 53.9515
22.22509151438863 52.3715
22.24795876962584 51.1663
22.270649646204486 50.0798
22.293341407213727 49.5311
22.316034053646906 49.1542
22.338904883215342 48.9007
22.36159931041458 48.7451
22.38429462602756 48.7208
22.40699083104897 48.6991
22.429865251039757 48.5585
22.452563244831367 48.7136
22.47526213102522 48.7697
22.49813925616515 48.6294
22.520839937143307 48.3537
22.543541513520587 48.542
22.56624398629403 48.4598
22.589124730075895 48.5264
22.611829005656723 48.6807
22.63453418063466 48.6635
22.657240256008077 48.867
22.680124634582935 48.888000000000005
22.70283252079775 49.2456
22.725541310413075 49.5907
22.74825100442868 49.6977
22.771139033969575 50.236000000000004
22.79385054687155 50.3741
22.81656296718292 51.2273
22.83927629590484 52.1143
22.862167992606945 53.3127
22.88488314827121 54.4178
22.907599215359284 55.3673
22.93031619487366 56.3495
22.953211574954405 57.1001
22.975930389478226 57.7724
22.998650119445763 57.8241
23.02137076586092 57.123000000000005
23.044269845560063 55.8194
23.06699233506288 53.8348
23.089715744034912 52.0057
23.112617610931565 50.6431
23.135342869061212 49.5071
23.158069049684816 48.8595
23.1807961538087 48.6798
23.20370174880544 48.6534
23.226430710184808 48.7395
23.249160598093425 48.9711
23.271891413539002 48.9065
23.294800752937697 48.9268
23.31753343374794 49.0352
23.340267045128353 49.0831
23.36300158808808 49.4036
23.38591468821339 49.6302
23.408651104658304 50.2222
23.431388455719986 50.9998
23.454126742409 51.81
23.4770436196085 52.922
23.499783787914662 54.2935
23.522524894889884 55.2319
23.54526694154616 56.2552
23.56818761219047 57.301
23.59093154860734 57.861000000000004
23.613676427751283 57.7343
23.636422250635754 56.6591
23.659346731118656 54.8766
23.68209445191868 52.8339
23.704843119509587 50.8383
23.72759273490623 49.1705
23.750521041644767 47.8506
23.77327256312355 46.9187
23.796025035462787 46.4829
23.818956224555475 45.9443
23.841710609113413 45.9613
23.86446594758979 45.731
23.887222241002014 45.5195
23.910157285144578 45.0592
23.932915498962537 45.1538
23.955674670778713 45.0302
23.978434801611975 44.6653
24.001373717286125 44.5493
24.024135776723917 44.5323
24.046898798245582 44.3527
24.06966278287146 44.257
24.092605586582614 44.0777
24.115371508023642 44.0113
24.1381383956401 43.9081
24.16090625045381 43.8133
24.183852958731244 43.803000000000004
24.206622758582608 43.6384
24.229393528706886 43.4154
24.252165270127392 43.4738
24.27511589952438 43.6107
24.297889594216997 43.2542
24.32066426328598 43.0329
24.34343990775613 43.1449
24.36639447485003 43.1446
24.38917208083877 42.9631
24.41195066531332 43.004
24.43490819850244 42.946999999999996
24.457688750692377 42.9044
24.48047028445616 42.81399999999999
24.503252800821233 42.9643
24.526214300784112 43.06399999999999
24.548998793132213 42.924
24.57178427117417 42.7306
24.59457073593893 42.9027
24.617536219319863 42.7765
24.64032466834748 42.8399
24.663114107195035 42.6476
24.685904536893013 42.4228
24.708874020360852 42.3186
24.731666442613744 42.1965
24.754459858818787 42.1606
24.777254270007962 42.248999999999995
24.80022777025625 42.1301
24.82302418230472 42.1623
24.845821592443674 42.2706
24.86862000170663 42.273999999999994
24.891597535453727 42.0063
24.914397953892728 42.1671
24.93719937456671 42.2644
24.96000179851076 42.2928
24.98298338249997 42.5069
25.00578782394922 42.6817
25.028593271784167 42.8805
25.05157790644186 43.1922
25.07438537804115 43.2916
25.097193859145293 43.5523
25.120003350792075 43.6648
25.142992065061257 44.1628
25.165803588823465 44.3576
25.18861612625217 44.4981
25.211429678386736 44.6293
25.234422489079968 44.7015
25.257238081693636 44.7587
25.280054692141732 44.7802
25.3028723214652 44.8019
25.325869245420463 44.8401
25.348688923599397 44.9365
25.371509623787006 44.8849
25.394331347025812 44.3966
25.41733240110666 43.9031
25.440156181590016 43.1614
25.46298098826268 42.6381
25.48580682216873 42.2517
25.50881202326435 41.5353
25.53163992281684 41.2186
25.55446885274561 41.0412
25.577298814096377 40.76
25.600308179121807 40.6904
25.623140214533745 40.8175
25.64597328451537 40.6555
25.66898578564376 40.4438
25.691820936010206 40.6303
25.714657124097695 40.5581
25.737494350954734 40.4639
25.760511045684957 40.2484
25.783350361364224 40.4695
25.806190718969255 40.4806
25.82903211955018 40.5008
25.852053024868923 40.4338
25.874896522722523 40.5521
25.897741066713106 40.5436
25.920586657892454 40.6601
25.943611790812668 40.8421
25.966459487728237 40.963
25.989308234998564 40.9496
26.01215803367705 41.3459
26.03518741123814 41.4426
26.05803932412957 41.5641
26.080892291600094 41.5087
26.10374631470478 41.4343
26.12677995397268 41.5362
26.14963609978026 41.6668
26.172493304397875 41.3006
26.19535156888223 41.0381
26.218389486949604 40.6498
26.241249882640123 40.463
26.26411134137826 40.0443
26.28715248187403 40.2011
26.31001607820869 40.0101
26.3328807407756 39.8639
26.35574647063438 40.0377
26.37879191991473 39.9124
26.401659795896734 39.9293
26.424528742360263 40.3205
26.447398760366614 40.278
26.470448535598294 40.408
26.49332070826805 40.6272
26.516193955675355 41.0638
26.53906827888316 41.2407
26.562122397260108 41.2902
26.584998883685063 41.7215
26.607876449110325 41.8819
26.63075509460056 42.0807
26.65381357334404 42.0592
26.67669439061878 42.0511
26.699576291163382 41.9056
26.722459276044212 41.8147
26.745522132402975 41.5027
26.768407297649354 41.3131
26.791293550442003 41.0342
26.814180891848974 40.8225
26.837248143099337 40.2443
26.860137673466657 40.2361
26.88302829566349 39.9694
26.90592001075963 39.7893
26.92899167420566 39.768
26.951885586870763 39.3659
26.974780595655517 39.1739
26.99785558178161 39.0765
27.020752794605112 38.989000000000004
27.043651106772522 38.8822
27.06655051935668 38.8344
27.089629948036183 38.7239
27.112531573292053 38.6706
27.135434302194138 38.6843
27.158338135817015 38.5787
27.181422024430987 38.5689
27.204328079372566 38.4282
27.22723524226965 38.4303
27.250143514198573 38.5562
27.273231880156334 38.4456
27.296142382065014 38.411
27.319053996245536 38.2381
27.341966723775965 38.3683
27.365059584515222 38.4142
27.38797455070062 38.5212
27.410890633481237 38.5166
27.433807833936918 38.4668
27.456905206923906 38.4576
27.47982465472398 38.4301
27.502745223449743 38.5222
27.525666914182825 38.4686
27.548768816912457 38.4467
27.571692763693633 38.5268
27.59461783573812 38.3139
27.617723149491244 38.1743
27.640650484125285 38.1684
27.66357894728264 38.1289
27.686508540048052 38.0368
27.709618414237887 37.9876
27.732550278321757 37.8169
27.755483275279115 37.7435
27.778417406196485 37.885999999999996
27.801531858397514 37.9217
27.824468269376716 37.7947
27.847405817586786 37.7724
27.870344504116094 37.9399
27.893463551932008 38.0427
27.916404527281053 38.2909
27.93934664422563 38.2894
27.962289903855886 38.3499
27.98541356491974 38.6813
28.00835912214229 38.7323
28.03130582533231 38.9775
28.054253675581805 39.1429
28.077381967556104 38.9959
28.100332124185126 38.8975
28.123283431160893 38.8415
28.146235889577238 38.7174
28.169368830154156 38.4789
28.192323603752033 38.3468
28.215279532083304 38.0835
28.238415973016764 37.7578
28.261374223145094 37.6898
28.284333631303806 37.4324
28.307294198589954 37.3454
28.330435319167677 37.0858
28.353398217078915 36.7318
28.376362277420153 36.6028
28.39932750129032 36.4394
28.422473319286713 36.2864
28.44544088262495 36.353
28.468409612800283 36.3102
28.491379510913497 35.9434
28.51453004413313 35.8368
28.53750229057244 35.8111
28.56047570826344 35.6986
28.583450298308804 35.7201
28.606605564586562 35.5863
28.629582511831156 35.7464
28.65256063474956 35.5695
28.675539934446338 35.5728
28.698699951647605 35.5307
28.72168161743193 35.4478
28.74466446331978 35.4389
28.767648490417624 35.3685
28.790813276438353 35.3151
28.813799678527303 35.3207
28.836787265157085 35.3578
28.859955641890075 35.2523
28.882945610203045 35.2946
28.905936766392035 35.3341
28.928929111566863 35.3584
28.952102288520145 35.1369
28.975097024308607 35.1044
28.998092952423807 34.8544
29.021090073977508 34.754
29.04426806913204 34.7215
29.067267590245258 34.647
29.090268308143695 34.4806
29.11327022394099 34.4593
29.13645305530891 34.3827
29.159457379627167 34.4052
29.18246290519685 34.2895
29.20546963313352 34.1459
29.22865731875826 34.2909
29.25166646419296 34.2711
29.27467681535305 34.1194
29.29768837335608 34.2058
29.320880931312562 34.342
29.34389491580634 34.2345
29.366910110507334 34.2607
29.38992651653503 34.2092
29.41312396492981 34.1371
29.436142806456754 34.0078
29.45916286268059 33.926
29.48236399319994 33.7922
29.50538649169417 33.6971
29.528410208259935 33.5664
29.55143514402014 33.413000000000004
29.574641196749695 33.1959
29.597668583816574 33.1262
29.6206971934585 33.0613
29.64372702680042 33.1738
29.666938019934474 32.9562
29.689970313635285 32.9274
29.713003834422636 32.9088
29.73603858342347 32.8963
29.759254535188578 32.836999999999996
29.78229175361658 32.8019
29.80533020365064 32.8673
29.82836988641968 32.7465
29.85159081507472 32.7195
29.874632976355343 32.6753
29.89767637376955 32.7768
29.920721008448314 32.5458
29.9439469322847 32.5007
29.96699405457564 32.4511
29.9900424175358 32.4778
30.013092022298157 32.4816
30.03632295963995 32.3488
30.059375061131373 32.4403
30.08242840783577 32.4288
30.105483000888153 32.4093
30.128718970092244 32.3422
30.151776069006917 32.4313
30.17483441768648 32.3935
30.198074175317235 32.2251
30.221135036724256 32.2597
30.24419715131772 32.2549
30.267260520236203 32.289
30.290505341942243 32.2463
30.313571232750228 32.2971
30.336638381310948 32.2479
30.35970678876503 32.196
30.38295669299435 32.1384
30.40602763151657 32.0847
30.429099832366074 32.0935
30.452173296685572 32.0618
30.47542830191959 32.0063
30.498504306502497 31.9731
30.521581577995562 32.1258
30.544660117543582 32.1726
30.56792024229725 32.1392
30.59100133132069 32.0308
30.614083691845494 32.0571
30.637167325018545 32.1789
30.660432587840603 32.1892
30.683518779717886 32.1466
30.70660624769615 32.2337
30.729694992924372 32.2008
30.75296541239743 32.239000000000004
30.77605672557558 32.0508
30.799149319462742 31.9643
30.8224236211637 31.8543
30.845518789950724 31.833000000000002
30.868615242910597 31.8958
30.891712981195973 31.6412
30.91499247215866 31.5702
30.938092794619365 31.4617
30.96119440587579 31.4632
30.984297307082752 31.2557
31.00758200598383 31.2032
31.030687500658694 31.1417
31.053794288760695 31.143
31.076902371446767 30.9835
31.100192296997445 31.0559
31.12330298246119 31.0581
31.14641496599209 30.8532
31.169528248749216 30.8244
31.19282341969534 30.8906
31.215939314557186 30.9072
31.239056512134788 30.9102
31.262175013589378 30.8454
31.28547544871168 30.8292
31.30859657161541 30.8
31.331719001892175 30.6976
31.35484274070538 30.9339
31.378148458819545 30.8597
31.401274828443725 30.7972
31.424402510106933 30.8262
31.447712205419993 30.8852
31.470842524931633 30.7615
31.493974159989783 30.7522
31.51710711176168 30.6597
31.54042212308802 30.6684
31.563557722100917 30.7056
31.586694641341655 30.5324
31.609832881979628 30.4462
31.63315322823208 30.3008
31.656294125521327 30.2147
31.679436347728515 30.1836
31.70257989602529 30.1376
31.725905596152327 30.1195
31.74905181052835 30.0539
31.772199354521323 30.2041
31.79534822930507 30.1424
31.818679302290967 30.0891
31.84183085259981 30.0153
31.864983737233473 30.1461
31.88813795736804 30.0862
31.911474422233013 29.9166
31.934631327356435 30.0596
31.9577895715215 30.0635
31.980949155906522 29.9826
32.004291031706956 29.9162
32.027453310562606 29.8359
32.05061693318573 29.7564
32.07396288236386 29.7073
32.09712920658542 29.6238
32.12029687812702 29.4721
32.14346589817093 29.503
32.166817291729984 29.5099
32.18998902288583 29.4165
32.21316210610336 29.4336
32.23633654256711 29.2922
32.259693399663725 29.1191
32.282870556771144 29.0245
32.30604907069099 29.0936
32.329228942610065 29.0339
32.35259128243769 28.9311
32.375773884550505 28.989
32.398957848235646 28.8698
32.422143174682176 28.7512
32.445511016471215 28.7531
32.468699082679954 28.7087
32.49188851523011 28.671
32.51507931531304 28.5687
32.538452678331 28.6087
32.56164622776311 28.4829
32.58484114831493 28.3801
32.60803744118015 28.5428
32.631416344731896 28.4558
32.654615396551876 28.3417
32.67781582427913 28.3747
32.701198898634416 28.2081
32.72440209253756 28.1583
32.747606665947124 28.3477
32.77081262006088 28.1543
32.79420126883317 28.1476
32.81740999876112 28.1341
32.840620112999424 28.0185
32.86383161274818 27.9746
32.88722585534586 27.9021
32.91044014056596 28.0439
32.933655814909734 28.0495
32.95687287957963 27.9483
32.98027273544904 27.8545
33.00349259526636 27.8358
33.026713849030116 27.8179
33.04993649794511 27.8415
33.073341986570746 27.7656
33.09656744032826 27.7768
33.11979429286444 27.6778
33.14302254538647 27.7324
33.166433686291185 27.6612
33.18966475336992 27.6272
33.212897224069096 27.5531
33.23613109959831 27.5987
33.259547912343415 27.4843
33.2827846121627 27.5794
33.306022720453775 27.4741
33.32926223842861 27.3237
33.352684742614166 27.3708
33.37592709463173 27.2948
33.399170859982064 27.1937
33.422597648419426 27.1435
33.44584425514446 27.0124
33.46909227885668 26.9632
33.4923417207723 26.8701
33.51577423505344 26.9928
33.539026528130385 26.8739
33.56228024307245 26.8181
33.585535381098246 26.7259
33.60897364093058 26.7057
33.63223163992385 26.6921
33.6554910656699 26.5661
33.678751919389796 26.6517
33.702195944520106 26.5409
33.72545966903325 26.5656
33.74872482519663 26.3923
33.771991414233746 26.4631
33.79544122444841 26.4787
33.81871069412428 26.3645
33.84198160035767 26.3074
33.86525394437455 26.284000000000002
33.88870955949969 26.2581
33.911984794020626 26.194000000000003
33.93526147001624 26.1882
33.958539588715006 26.1606
33.98200102861669 26.1416
34.0052820477047 25.9874
34.02856451319451 26.0507
34.05203033759056 25.9036
34.07531571090147 25.9686
34.09860253431845 25.9908
34.121890809074316 25.8631
34.145362493118924 25.8376
34.16865368561615 25.7822
34.191946333164054 25.7793
34.21524043699793 25.7337
34.23871800066799 25.6765
34.26201503218366 25.565
34.28531352370466 25.5732
34.30861347646881 25.5184
34.33209693978188 25.522
34.3553998301885 25.4679
34.378704185565205 25.4912
34.402010007152356 25.4022
34.42549939016683 25.2856
34.44880815937748 25.2585
34.472118398533134 25.1686
34.49543010887669 25.1898
34.51892543169198 25.0398
34.54224009966052 25.1341
34.56555624255917 25.0917
34.58887386163339 25.0469
34.61237514439016 24.9793
34.6356957311114 24.9132
34.65901779775809 24.9049
34.68252356662995 24.8986
34.705848608458616 24.906
34.72917513396849 24.7813
34.75250314440949 24.7333
34.77601490857862 24.6203
34.799345904259795 24.5064
34.82267838863559 24.6561
34.846012362958525 24.6639
34.869530142679984 24.6019
34.89286711232212 24.5742
34.91620557568269 24.5987
34.93954553401677 24.5583
34.9630693495876 24.3466
34.986412313340814 24.4003
35.00975677584668 24.4082
35.033102738362956 24.4039
35.05663261012228 24.3186
35.0799815881786 24.233
35.10333207003229 24.1365
35.12668405694369 24.2805
35.150220005273056 24.2446
35.17357501786656 24.2185
35.19693153931268 24.1648
35.220289570874385 24.1391
35.24383161619786 24.0948
35.267192683604904 24.122
35.290555264930376 24.0284
35.314101899412165 24.0653
35.33746752422433 24.0666
35.36083466676374 24.0042
35.38420332829803 23.897
35.407756095629054 23.9603
35.43112781085063 23.9635
35.45450104888391 23.8792
35.477875810999194 23.8151
35.50143473172161 23.8386
35.52481255774625 23.8551
35.54819191167777 23.7789
35.57157279478914 23.7124
35.595137889488406 23.726999999999997
35.61852184675279 23.6234
35.641907337029984 23.6114
35.665294361595684 23.6457
35.68886565090076 23.511
35.7122557598848 23.5197
35.73564740699838 23.3939
35.759040593519934 23.3223
35.78261809810353 23.3359
35.80601437933051 23.2805
35.829412203814705 23.2562
35.85281157283719 23.1466
35.876395313415884 23.212
35.8997977874528 23.1187
35.92320180988546 23.1018
35.946790244133936 23.1128
35.97019737933222 23.0405
35.993606066789866 23.0474
36.01701630779276 23.018
36.04061101440684 22.9022
36.06402437852291 23.0216
36.08743930005611 22.9292
36.1108557802951 22.8324
36.13445678011326 22.8543
36.15787639383515 22.7955
36.18129757014299 22.8197
36.20472031032821 22.6721
36.22832762423364 22.659000000000002
36.25175350829375 22.7071
36.275180960119776 22.5858
36.298609981005924 22.522
36.32222362992669 22.6084
36.34565580510207 22.5047
36.36908955323448 22.4451
36.39252487562093 22.3405
36.416144880530226 22.3438
36.43958336764275 22.4277
36.463023432914625 22.3177
36.486465077645676 22.2284
36.51009145956204 22.3899
36.53353627947859 22.2787
36.55698268276811 22.26
36.58043067073321 22.1891
36.60406345072071 22.1326
36.62751462435344 22.1752
36.65096738658405 22.1705
36.67460498210655 22.0804
36.69806093788647 22.0107
36.72151848619297 22.0268
36.744977628333636 22.0181
36.76862165890998 21.9077
36.79208400512205 21.8817
36.81554794910557 21.8727
36.83901349217101 21.8146
36.862663978991606 21.8098
36.88613273667352 21.7976
36.90960309738324 21.7893
36.933075062434064 21.718000000000004
36.95673202673572 21.6564
36.98020721697122 21.5691
37.003684015502365 21.5881
37.027162423645365 21.5538
37.050825886711465 21.445
37.07430753063053 21.3958
37.09779078812467 21.4768
37.121275660513014 21.4385
37.144945643673694 21.3278
37.16843376245278 21.3559
37.19192350009803 21.3645
37.215414857931435 21.2687
37.239091382563885 21.2365
37.262585997426164 21.2047
37.28608223645736 21.1771
37.309763684451696 21.1351
37.33326318851098 21.0967
37.356764320726555 21.054000000000002
37.380267082425526 21.0406
37.40395510942588 21.0808
37.42746114683234 20.9646
37.45096881771841 20.9664
37.474478123414166 20.9427
37.49817275092816 20.8884
37.52168534303452 20.8543
37.54519957395567 20.7597
37.568715445024665 20.746
37.592416694607714 20.758000000000003
37.61593586281424 20.7609
37.63945667518264 20.7603
37.66297913304891 20.6629
37.68668702630454 20.6653
37.710212792059274 20.5259
37.733740207334854 20.6147
37.757269273470364 20.5653
37.780983832050374 20.4509
37.80451621684926 20.4386
37.82805025654007 20.4176
37.851585952464795 20.3593
37.8753071980695 20.3734
37.89884622345676 20.2759
37.92238690911902 20.2912
37.94611318753442 20.267
37.969657210779765 20.2082
37.99320289834801 20.1533
38.016750251586465 20.1285
38.04048325513017 20.0959
38.06403395679343 20.0919
38.087586328183946 20.0563
38.11114037065203 19.9974
38.13488012115898 20.0823
38.1584375229181 19.9412
38.181996599821 19.9453
38.205557353221124 19.869
38.229303872575656 19.8948
38.2528679961576 19.7923
38.27643380031219 19.8285
38.30000128639589 19.7685
38.32375459653193 19.8006
38.34732546371299 19.7197
38.37089801690786 19.6681
38.39447225747609 19.6574
38.418232380377425 19.6693
38.441810012983396 19.6062
38.46538933705673 19.5457
38.488970353960084 19.5367
38.51273731166058 19.4796
38.536321731567014 19.44
38.55990784840681 19.4325
38.58367995004091 19.3921
38.60726947812959 19.317999999999998
38.63086070726198 19.4043
38.654453638806274 19.368
38.678232613930824 19.2765
38.70182896773327 19.2435
38.72542702806741 19.1699
38.7490267963045 19.1549
38.77281266709232 19.1246
38.79641586862214 19.1377
38.8200207821842 19.0396
38.843627409152944 19.1038
38.86742019782782 19.0767
38.891030269149255 19.0172
38.914642058016156 19.0495
38.938255565806124 19.0057
38.96205529464307 18.9213
38.98567225787121 18.9288
39.00929094417078 18.8531
39.03291135492255 18.864
39.05671804624804 18.8533
39.080341923549106 18.7798
39.103967529460334 18.7075
39.127594865365744 18.6292
39.15140854155791 18.5695
39.17503935514948 18.6309
39.19867190290282 18.6347
39.22249083587951 18.6039
39.24612686969409 18.545
39.269764641845306 18.5224
39.293404153722804 18.5049
39.317230110864074 18.3872
39.34087311998506 18.3751
39.36451787301696 18.4247
39.388164371352595 18.3853
39.41199737518003 18.3421
39.43564738196752 18.3147
39.45929913825317 18.2452
39.48295264543308 18.2294
39.506792718520884 18.2365
39.530449745387216 18.2075
39.55410852735203 18.2193
39.57776906581474 18.149
39.60161623079 18.1238
39.625280300200025 18.0672
39.64894613032202 18.0347
39.67261372255866 18.0771
39.6964680021016 18.1039
39.72013913657293 18.0552
39.74381203738292 17.9812
39.76748670593756 17.8929
39.79134812278169 17.8759
39.81502634488497 17.8284
39.83870633896685 17.8347
39.862388106436654 17.8091
39.88625668336918 17.7962
39.90994201572829 17.8407
39.933629125719285 17.7515
39.957503091207826 17.6448
39.9811937746168 17.6715
40.00488623990914 17.6439
40.02858048850006 17.547
40.05246165409549 17.5813
40.076159487492085 17.5735
40.099859108448875 17.6136
40.123560518384345 17.5867
40.1474489070226 17.4588
40.171153913178564 17.3739
40.194860712584955 17.4052
40.2185693066637 17.4086
40.242464941335314 17.3863
40.26617714307655 17.3818
40.289891143772046 17.3128
40.3136069448471 17.3094
40.33750984859743 17.2603
40.3612292688043 17.1953
40.3849504936829 17.2417
40.40867352466194 17.2573
40.43258372059144 17.1249
40.45631038219906 17.1121
40.48003885420956 17.072
40.503769138055105 17.0458
40.52768664931955 17.0299
40.55142057531802 17.043
40.57515631746428 16.9508
40.599079334038514 16.94
40.62281872700477 16.8867
40.64655994043941 16.9095
40.67030297578061 16.8711
40.69423334835778 16.8696
40.71798004609188 16.8376
40.74172857006355 16.7567
40.76547892171441 16.7834
40.7894166736039 16.7285
40.813170699248566 16.7184
40.83692655691388 16.6993
40.86068424804498 16.7086
40.884629402612525 16.6508
40.908390779366385 16.6375
40.932153993938 16.5505
40.95591904777605 16.5772
40.979871628443995 16.5664
41.003640379561936 16.4464
41.02741097430883 16.4507
41.05118341413683 16.4744
41.075143444384416 16.4778
41.098919593177826 16.4747
41.1226975914255 16.4146
41.14647744058318 16.37
41.170444943946755 16.3142
41.19422851378379 16.2712
41.218013938914645 16.2115
41.24198706625173 16.2028
41.26577622087193 16.1995
41.289567235177785 16.1831
41.31336011063129 16.1129
41.337340752422875 16.0658
41.361137369129835 16.0978
41.38493585138705 16.0751
41.40873620066004 16.0232
41.43272438060107 16.0222
41.45652848292052 15.9838
41.48033445666918 15.9305
41.50414230331616 15.9328
41.528138045159764 15.9873
41.551949656675205 15.8514
41.575763145513235 15.8637
41.59957851314666 15.8311
41.62358184070442 15.804
41.64740098505737 15.7827
41.6712220126409 15.7339
41.69504492493139 15.7449
41.71905586207357 15.6283
41.74288256296395 15.6247
41.766711153007456 15.6176
41.79054163368412 15.6681
41.814560204340054 15.5689
41.838394485526365 15.5616
41.86223066180303 15.4971
41.88625497706819 15.5356
41.910094962812 15.5416
41.93393684811168 15.4538
41.95778063445365 15.4544
41.981812625263366 15.4182
42.00566023303407 15.3829
42.029509746323676 15.3315
42.05336116662236 15.3003
42.077400857069705 15.3123
42.10125611078846 15.2731
42.12511327600405 15.2352
42.14897235421036 15.2136
42.173019768448455 15.2047
42.19688269209613 15.2002
42.22074753323349 15.209000000000001
42.24461429335818 15.1435
42.268669455600495 15.1561
42.292540073217886 15.1505
42.31641261433284 15.0455
42.34028708044675 15.0288
42.36435001496739 14.9997
42.38822835065557 14.9763
42.41210861586426 14.9756
42.4359908120986 14.936
42.46006154323262 14.8825
42.48394762115317 14.8997
42.507835634632315 14.8323
42.531912233047436 14.7747
42.55580413732265 14.7113
42.579697981698 14.7624
42.60359376768525 14.7687
42.62767820545945 14.7359
42.65157789440821 14.626
42.67547952952185 14.6576
42.699383112316 14.6629
42.72347541395347 14.6007
42.74738291190531 14.5693
42.771292362102166 14.5469
42.795203766063516 14.574000000000002
42.819303956130405 14.4829
42.843219287476536 14.47
42.86713657716324 14.4627
42.89105582671383 14.472999999999999
42.91516392983864 14.4381
42.939087119032166 14.4448
42.963012272677304 14.3837
42.98693939230129 14.3644
43.01105543317513 14.3449
43.034986504731386 14.2966
43.05891954686589 14.2879
43.08285456110972 14.2557
43.10697856448665 14.1859
43.130917542983475 14.1794
43.15485849820081 14.2012
43.17880143167367 14.1181
43.20293342237094 14.0925
43.226880332449 14.1274
43.25082922540554 14.1103
43.27496722682525 14.0771
43.29892010567796 13.9998
43.32287497204102 14.0472
43.34683182745632 13.9744
43.370977859791836 13.9609
43.39493871351105 13.937999999999999
43.41890156092628 13.9136
43.44286640358341 13.8748
43.46702049182749 13.8786
43.49098934522816 13.8307
43.51496019852649 13.8219
43.5389330532723 13.7748
43.56309522248204 13.7362
43.58707210044314 13.7184
43.61105098451946 13.7393
43.63503187626491 13.7133
43.659202151562134 13.6759
43.68318707902681 13.6669
43.70717401884041 13.6193
43.731162972560874 13.5658
43.75534137913236 13.5378
43.779334381108384 13.5453
43.803329401683186 13.5359
43.82732644241872 13.4931
43.8515130055166 13.5122
43.87551410707659 13.4524
43.89951723350145 13.4435
43.923709934595614 13.4561
43.94771713129917 13.4238
43.97172635758096 13.3876
43.99573761501002 13.3498
44.0199385169922 13.294
44.04395385732619 13.2773
44.067971233533086 13.2591
44.09199064718605 13.232999999999999
44.11619977548961 13.242
44.14022328470671 13.203
44.16424883610785 13.2097
44.18827643127035 13.1581
44.21249381139513 13.1739
44.236525514814076 13.136
44.26055926674478 13.1384
44.28459506876863 13.133
44.3088207262813 13.0677
44.33286064928722 13.0666
44.35690262714919 12.9936
44.38094666145278 12.9909
44.4051806219871 12.9805
44.42922879003185 12.9186
44.45327901929361 12.8721
44.477331311362136 12.8938
44.501573600619416 12.8314
44.525630039221795 12.8107
44.54968854541895 12.8018
44.573937102200176 12.8304
44.5979997645541 12.7924
44.622064499300315 12.7476
44.64613130803592 12.719000000000001
44.67038823869318 12.7115
44.69445921643748 12.6789
44.718532272981385 12.6709
44.742607409926194 12.6659
44.76687274034801 12.6322
44.79095205918753 12.5893
44.81503346325094 12.5722
44.839116954143876 12.6337
44.86339071028742 12.5792
44.88747839599524 12.5099
44.91156817336837 12.4975
44.93566004401666 12.4721
44.959942251908146 12.436
44.984038330325966 12.4336
45.00813650686762 12.3727
45.03223678314731 12.3859
45.05652746888232 12.3282
45.08063196592069 12.3679
45.104738567558705 12.3345
45.128847275414856 12.2342
45.15314646515866 12.2554
45.17725940679741 12.2513
45.20137445952892 12.2146
45.22568004865265 12.1989
45.24979934496396 12.2052
45.27392075725247 12.2224
45.29804428714431 12.1254
45.322358426247604 12.1266
45.346486212804315 12.085999999999999
45.370616121861914 12.0898
45.39474815505086 12.008
45.41907087049246 12.0623
45.4432071734666 12.0211
45.46734560548283 11.9773
45.49148616817604 11.998
45.51581748638564 11.9835
45.5399623320197 11.9438
45.56410931325473 11.8817
45.58825843173002 11.8998
45.61259837920865 11.8625
45.636751793816 11.8585
45.66090735060093 11.789000000000001
45.68506505120716 11.7671
45.7094136545275 11.7675
45.73357566449271 11.7632
45.75773982322992 11.6924
45.78190613238733 11.7169
45.806263418194064 11.6728
45.83043404997326 11.6995
45.85460683713677 11.6439
45.87897065658495 11.6138
45.90314777634752 11.5921
45.92732705646868 11.6065
45.9515084986045 11.613
45.97588104735473 11.5721
46.00006683541565 11.5154
46.02425479047904 11.4798
46.04844491420549 11.4634
46.0728262191024 11.4874
46.09702070211635 11.4653
46.12121735879483 11.4273
46.14541619080294 11.4379
46.169806278764455 11.3648
46.194009483459034 11.3889
46.21821486849841 11.3727
46.24242243555223 11.3637
46.266821333570014 11.3056
46.29103328674601 11.2674
46.31524742696538 11.3042
46.33946375590237 11.2568
46.36387149104216 11.1812
46.38809221957392 11.1916
46.41231514186606 11.2031
46.436540259597464 11.1519
46.460956858999374 11.1525
46.48518638983522 11.145999999999999
46.509418121166966 11.105
46.533652054678114 11.0561
46.55807754555709 11.0586
46.58231590571962 11.0767
46.60655647313217 11.0253
46.630988654873654 11.0003
46.655233659129024 11.0141
46.67948087571551 10.9744
46.70373030632484 10.9234
46.72817142736393 10.9446
46.752425308428684 10.9389
46.77668140861147 10.8967
46.80093972960865 10.8756
46.82538981736788 10.8389
46.849652602470904 10.7823
46.87391761349769 10.7965
46.8981848521493 10.7751
46.9226439341274 10.777999999999999
46.946915650573224 10.7089
46.97118959976749 10.7108
46.99546578341598 10.6982
47.019933887188216 10.6834
47.04421456235744 10.6626
47.06849747711879 10.6041
47.09278263318286 10.6193
47.11725978640143 10.5942
47.14154944775105 10.5616
47.165841355555656 10.5584
47.1901355115306 10.5366
47.214621741924994 10.5258
47.23892041698887 10.5294
47.26322134538975 10.4873
47.28771440635075 10.4486
47.31201986422527 10.4452
47.33632758061436 10.4266
47.360637557241866 10.4308
47.38513974410611 10.3561
47.40945426407847 10.34
47.43377104948137 10.345999999999998
47.45809010204344 10.31
47.48260144275502 10.3144
47.506925052572285 10.2757
47.53125093475548 10.261
47.55557909103813 10.2272
47.58009961361992 10.2327
47.60443234110732 10.2161
47.62876734791564 10.1906
47.65310463578333 10.1915
47.6776343683373 10.1935
47.7019762413987 10.1088
47.72632040075572 10.0745
47.75066684815169 10.0678
47.77520581885936 10.0644
47.799556865477655 10.0856
47.823910205386 10.0496
47.84826584033272 10.0302
47.87281407745551 9.967989999999999
47.89717432569297 10.0308
47.92153687423484 9.98894
47.94609208429692 9.93982
47.97045925671401 9.94873
47.99482873471275 9.92042
48.01920052005013 9.8985
48.04376504619224 9.91663
48.068141469543484 9.92048
48.09252020552573 9.86801
48.11690125590099 9.84103
48.1414751266064 9.83426
48.16586082917454 9.78089
48.19024885144316 9.74318
48.2146391951793 9.77272
48.239222439012764 9.72982
48.26361744916137 9.701189999999999
48.28801478610016 9.693810000000001
48.31241445160131 9.71532
48.337007097209366 9.67107
48.36141144338331 9.64894
48.38581812345755 9.60223
48.41022713920929 9.64153
48.434829215320704 9.592139999999999
48.45924292604658 9.57543
48.48365897780325 9.595880000000001
48.50807737237308 9.57105
48.532688907799276 9.540239999999999
48.55711201168574 9.50376
48.581537463754074 9.4984
48.60615611725119 9.50335
48.63058628942721 9.44041
48.65501881516546 9.46603
48.6794536962573 9.4402
48.70408185970339 9.39508
48.72852147531801 9.33102
48.75296345168211 9.37301
48.77740779059232 9.3657
48.80204549302823 9.33029
48.82649458091802 9.30905
48.85094603676547 9.31702
48.87539986237231 9.28603
48.90004713292306 9.240960000000001
48.92450572200832 9.2465
48.94896668628025 9.235710000000001
48.97343002754588 9.2602
48.99808689542115 9.236360000000001
49.02255501470614 9.19864
49.04702551642794 9.16842
49.0714984023988 9.15507
49.096164896893235 9.1384
49.120642575466796 9.13453
49.145122643748394 9.088980000000001
49.16960510355558 9.08041
49.19428125404938 9.05265
49.2187685210852 9.05285
49.243258185121555 9.026860000000001
49.26794160167084 9.006689999999999
49.2924360839405 8.99899
49.31693296869764 8.97555
49.34143225776915 8.96378
49.36612538195438 8.9293
49.39062950396021 8.92362
49.41513603578346 8.91785
49.4396449792564 8.92099
49.46434784069503 8.87203
49.488861631846454 8.851230000000001
49.513377840166804 8.84876
49.537896467493745 8.82548
49.56260909589029 8.78347
49.587132585683285 8.80102
49.611658500018365 8.78046
49.636186840738596 8.76275
49.66090926588511 8.74986
49.685442483902584 8.760810000000001
49.70997813385706 8.68799
49.734516217597076 8.71382
49.75924846937352 8.66194
49.7837914452858 8.647789999999999
49.80833686055187 8.60847
49.83288471702571 8.60294
49.85762682540054 8.613999999999999
49.882179588965734 8.57399
49.9067347993235 8.54964
49.93129245833333 8.541789999999999
49.95604445336378 8.52205
49.98060703442832 8.52506
50.005172069746266 8.49249
50.02993150438364 8.4945
50.05450147301533 8.47994
50.07907390151433 8.453339999999999
50.10364879174981 8.44197
50.12841816587289 8.41905
50.1529980044635 8.40778
50.17758031042124 8.37883
50.20216508562089 8.3898
50.22694442953363 8.35542
50.25153416817468 8.36332
50.27612638170508 8.31424
50.300721072005196 8.2842
50.325510416102105 8.28357
50.350110084975064 8.24843
50.37471223628208 8.241439999999999
50.39931687190919 8.24232
50.424116246675766 8.266010000000001
50.44872587605249 8.2305
50.47333799543065 8.183069999999999
50.49795260670191 8.225060000000001
50.52276204271512 8.18265
50.54738166295838 8.17797
50.57200378079314 8.14392
50.596628398116835 8.129769999999999
50.62144792604559 8.111419999999999
50.646077567609396 8.09419
50.670709714377715 8.08447
50.69553683636198 8.06069
50.72017401885922 7.9869
50.7448137122895 8.02786
50.76945591856022 8.03566
50.79429318636823 7.97688
50.818940443716784 7.98855
50.84359021965163 7.9604800000000004
50.868242516085964 7.93325
50.893089960641895 7.95746
50.917747323549435 7.91625
50.94240721271973 7.9195
50.96706963007175 7.891889999999999
50.99192728239342 7.847860000000001
51.01659478166073 7.866510000000001
51.04126481489051 7.85208
51.06593738400761 7.83968
51.090805275207074 7.81642
51.11548294172845 7.74712
51.14016314993547 7.808669999999999
51.164845901758845 7.7694399999999995
51.18972406304274 7.7542100000000005
51.21441192780656 7.768089999999999
51.23910234200271 7.70397
51.2637953075678 7.70835
51.288683770237945 7.679819999999999
51.31338186432707 7.65113
51.33808251561888 7.62132
51.362978729967345 7.636710000000001
51.387684521509755 7.66183
51.41239287610203 7.61895
51.437103795691165 7.57217
51.46201036644977 7.56539
51.486726441956634 7.56343
51.51144508832545 7.53229
51.536166307509156 7.5483199999999995
51.56108326624387 7.5379
51.58580965706056 7.5015
51.61053862657523 7.49748
51.635270176746864 7.46255
51.66019755512065 7.475110000000001
51.68493429268881 7.46501
51.70967361681515 7.45558
51.73441552946465 7.4093
51.759353359237934 7.40338
51.7841004750961 7.3727800000000006
51.80885018539685 7.37867
51.833602492111254 7.36307
51.8585508051424 7.311780000000001
51.883308330926425 7.304180000000001
51.90806845906181 7.30483
51.932831191525715 7.254
51.95779001977161 7.25237
51.98255798721516 7.23734
52.00732856494335 7.24344
52.03229530577543 7.20834
52.057071130455945 7.18933
52.081849571391054 7.2106
52.106630630568695 7.21621
52.13160794279417 7.153519999999999
52.15639426492067 7.15008
52.18118321127822 7.132219999999999
52.205974783860896 7.09704
52.23096269971011 7.0667
52.255759551287994 7.137989999999999
52.280559035098186 7.07826
52.30536115314103 7.02889
52.33035970494467 7.04413
52.35516711807904 7.03285
52.37997717147198 6.996580000000001
52.40478986713005 7.01386
52.42979908731974 6.99895
52.454617094216 7.0055
52.47943774942214 6.974469999999999
52.50426105495102 6.949910000000001
52.529280976059844 6.926089999999999
52.554109609024096 6.927389999999999
52.57894089837482 6.90072
52.60377484613117 6.87643
52.62880550079408 6.896
52.65364479223379 6.856789999999999
52.67848674816189 6.84888
52.70352547971946 6.83383
52.72837279155837 6.82838
52.753222773982785 6.79327
52.778075429022984 6.77382
52.80312495150885 6.802860000000001
52.827982978797436 6.78317
52.85284368481815 6.7723
52.87770707160767 6.76308
52.90276741793998 6.71965
52.92763619336701 6.68505
52.952507655698504 6.66758
52.977381806977576 6.65976
53.00245301017842 6.682810000000001
53.02733256653592 6.6783
53.052214817996074 6.636010000000001
53.077099766608484 6.64755
53.102181859804446 6.6097600000000005
53.127072229988265 6.59645
53.15196530349892 6.57857
53.17686108239249 6.554069999999999
53.20195409881522 6.575989999999999
53.22685531582556 6.56118
53.25175924441303 6.54849
53.27666588664027 6.50699
53.30176985962693 6.48118
53.3266819565689 6.4748
53.35159677336455 6.4516
53.376514312083096 6.46133
53.40162927507703 6.43086
53.42655228516116 6.42858
53.45147802340193 6.42922
53.47660125628886 6.41681
53.50153247842639 6.394340000000001
53.52646643496923 6.36118
53.55140312799818 6.35201
53.576537409691696 6.3516
53.60147960336152 6.29972
53.626424539786164 6.30206
53.65137222105307 6.25769
53.67651758529126 6.27163
53.70147078399681 6.2740800000000005
53.72642673383343 6.27463
53.75138543689533 6.25713
53.776541917524526 6.2538
53.801506154876755 6.2194400000000005
53.826473151763246 6.16796
53.851442910284916 6.1391599999999995
53.87661054126026 6.16461
53.9015858509782 6.120830000000001
53.92656392866066 6.15736
53.95154477641532 6.16024
53.976723591801296 6.1211400000000005
54.00171000771266 6.11147
54.02669920004598 6.13416
54.051691170915745 6.0885
54.076881204886796 6.06067
54.101878760928514 6.0821
54.12687910187696 6.06844
54.152077577768296 5.99258
54.1770835166946 5.98172
54.20209224691339 5.98839
54.22710377055121 5.93644
54.25231352511594 5.94246
54.27733066384342 5.93572
54.30235060239643 5.96391
54.32737334290836 5.92862
54.35259441062629 5.883430000000001
54.377622783395324 5.89319
54.40265396455061 5.9404
54.42768795623251 5.884519999999999
54.45292037169559 5.82146
54.477960012857906 5.8513
54.50300247099511 5.778630000000001
54.52804774825457 5.77975
54.55329154616743 5.7369
54.57834249018678 5.70844
54.6033962597977 5.73537
54.6284528571545 5.70061
54.653708072335164 5.64576
54.67877035378786 5.63497
54.70383546947698 5.63962
54.72890342156389 5.6306199999999995
54.7541700889442 5.58331
54.77924374251975 5.56645
54.8043202390049 5.60342
54.82959552413022 5.527909999999999
54.8546777351945 5.53735
54.87976279569621 5.48785
54.90485070780914 5.49504
54.930137506558005 5.46129
54.95523115074295 5.46782
54.98032765308844 5.4359
55.005427015775496 5.389480000000001
55.03072536339621 5.40391
55.05583047570572 5.41445
55.080938454927676 5.371
55.10604930325027 5.3689599999999995
55.131359235107396 5.32775
55.15647585066083 5.2739
55.181595341907496 5.27695
55.20671771104285 5.25368
55.232039262617704 5.22577
55.25716741665048 5.23591
55.28229845518636 5.23343
55.30743238042802 5.17261
55.33276558731939 5.157019999999999
55.357905315183636 5.11632
55.383047936390035 5.04399
55.40819345314859 5.06314
55.433538351073295 5.0294
55.458689688238415 5.07189
55.483843927614096 5.02939
55.509197623043605 5.0163199999999994
55.53435769621134 5.00976
55.55952067826466 4.935
55.5846865714265 4.90674
55.61005202069737 4.87688
55.63522376553902 4.88699
55.66039842818645 4.87865
55.68557601087004 4.90561
55.7109532500271 4.78678
55.73613670233794 4.82184
