TT I
1.2716486653135266 7.76135
1.2939594142134223 7.68127
1.3162702121660406 6.5027099999999995
1.3385810600174564 6.6095
1.3608919586137629 6.85117
1.383202908801069 6.30042
1.405513911425503 6.11659
1.4278249673332093 6.43492
1.4501343378461518 6.53564
1.4724455028545926 6.17401
1.4947567236847858 6.46279
1.517068001182951 6.19635
1.5393793361953272 6.24956
1.5616907295681737 6.634110000000001
1.5840021821477681 5.97906
1.60631369478041 5.17166
1.6286252683124185 5.458019999999999
1.6509369035901333 5.378430000000001
1.6732468618895553 5.39085
1.695558623192809 5.37231
1.7178704487808514 5.16978
1.7401823395001077 5.16801
1.7625012545597203 5.06531
1.7848028405262486 5.02684
1.8071218901122095 5.498130000000001
1.8294236121921872 5.61794
1.8517427996910911 4.79775
1.8740620574440425 5.14866
1.8963639900671978 5.3421199999999995
1.9186833908139995 5.3
1.9409854680117449 5.14317
1.9633050151394713 4.99615
1.9856246367570705 4.95823
2.0079269371922672 4.53179
2.03024671027244 5.34551
2.0525491637446027 5.2142800000000005
2.074869091674931 4.91725
2.097171701569106 4.89665
2.1194917877373847 5.03561
2.141811954326636 4.8494
2.164114805233074 5.14699
2.186435135143035 6.41916
2.208738150935709 17.0544
2.231058647554722 36.7127
2.2533792288321184 28.3832
2.275682498336085 11.7125
2.298003251406138 5.68101
2.3203066942619714 5.53189
2.3426276225136022 4.511080000000001
2.3649486396617507 4.98376
2.387252348930071 5.20397
2.4095735463442893 5.07176
2.4318774374315884 5.0921
2.4541988185014043 5.58397
2.476502894794693 5.7268
2.498824462909887 6.46427
2.521146125856138 6.50565
2.5434504863470337 6.915310000000001
2.5657723414244717 6.67996
2.588076895590662 7.551889999999999
2.610398946189713 7.12827
2.6327210958598384 6.91297
2.6550259469304716 7.28245
2.6773482972090137 7.4432
2.6996533504259 7.76545
2.7219759047039602 7.51231
2.744298562293959 7.58817
2.7666039251246595 7.121639999999999
2.7889267918020164 7.336360000000001
2.8112323652516555 8.13205
2.833555444408179 8.61201
2.8558786311183852 7.7074300000000004
2.8781845268938557 8.201939999999999
2.9005079311721484 9.351360000000001
2.9228140460410397 8.80879
2.9451376712799635 9.13793
2.967444008632326 9.77833
2.9897678582247247 9.72966
3.0120918213106695 10.581
3.0343984987899373 11.173
3.0567226913198637 11.6939
3.079029599759726 12.0541
3.101354025127254 12.5518
3.123678568232338 12.7681
3.145985829517914 12.8119
3.16831061055229 13.515
3.1906181112775593 14.0516
3.212943133635653 15.1959
3.2352682779763207 15.1584
3.2575761442691227 15.4925
3.2799015350264273 16.2464
3.302209649240067 17.0013
3.3245352898092655 17.5226
3.3468436553365257 17.7563
3.369169549113219 17.8428
3.3914955708171384 18.7736
3.413804319727358 19.2775
3.4361305997334863 19.3751
3.4584396084414553 20.0939
3.4807661501462652 20.6281
3.503092824025881 21.4686
3.5254022288463154 21.6219
3.5477291695206588 22.0831
3.5700388426251948 23.1289
3.5923660534916446 25.0094
3.6146934007816114 44.2817
3.637003482731501 114.964
3.6593311053109985 129.541
3.681641464033634 70.9151
3.7039693653009733 33.6436
3.726297407241705 27.4344
3.7486081875460804 26.9429
3.7709365132734978 26.8957
3.793247578841633 27.2212
3.8155761917550093 27.8134
3.8378875459837216 27.4602
3.8602164494827234 28.076999999999998
3.882545499606844 28.4791
3.9048572932539183 29.4774
3.9271866390645718 29.5546
3.9494987298666713 30.5543
3.971828374764527 31.1348
3.9941581705403255 31.4926
4.016470713506008 32.3495
4.038800813471445 33.4048
4.061113662089144 33.8781
4.0834440696459176 34.5838
4.105774632334751 35.1753
4.128087945865126 36.3025
4.150418821249301 36.9081
4.172732448931298 38.3492
4.195063640413578 40.6773
4.2173775856475215 45.6962
4.239709096631102 87.4162
4.262040768704612 313.056
4.284355196706267 436.917
4.306687193387355 274.595
4.329001947444346 98.0085
4.35133427213731 51.3569
4.373666762177566 46.23
4.395982011761091 45.7477
4.418314834921175 47.151
4.44063041906622 57.18600000000001
4.4629635787515625 72.7057
4.4852969080429785 72.499
4.5076130004776225 57.301
4.529946671403969 52.4208
4.552263106909177 51.7734
4.574597122877047 52.405
4.596931312711224 53.4532
4.619248269273446 54.3239
4.6415828092605835 55.1568
4.663900117405352 56.0727
4.686235010953232 57.4309
4.708552674085913 59.1153
4.730887924602802 60.4009
4.753223354952695 61.8347
4.775541557023902 63.4239
4.797877349456786 65.0772
4.820195915032126 67.083
4.842532072957498 68.3203
4.864868414979744 70.5644
4.88718753227192 72.2407
4.909524244902505 74.4092
4.931843734218147 76.6129
4.954180820867835 78.8726
4.976518095879839 82.399
4.998838149695359 85.3106
5.021175803844231 88.8673
5.043496238205739 91.9928
5.065834274903528 97.3133
5.088172504230693 102.588
5.1104935158799565 109.98299999999999
5.132832132875765 139.116
5.155153533596801 199.356
5.1774925416746225 243.27200000000002
5.199814334878411 426.725
5.2221537374521505 1169.24
5.244493338631803 2908.38
5.266815727034316 6739.6
5.289155727832427 11446.8
5.311478517248165 9353.22
5.333818921080011 3586.41
5.356159527788849 763.078
5.3784829252032536 224.06400000000002
5.400823940070432 160.347
5.423147747031976 137.759
5.445489173474152 125.26299999999999
5.467830807066149 118.946
5.490155234831516 114.064
5.512497285125229 109.54700000000001
5.534822130975162 107.4
5.557164601388673 104.697
5.579489868738879 101.97399999999999
5.601832762690846 101.134
5.6241758697774475 101.101
5.646501775867269 99.5293
5.668845311622074 97.6982
5.691171647754637 96.5176
5.713515615597765 94.9074
5.735859800852677 94.3088
5.758186788542988 93.7233
5.780531411018185 93.9865
5.802858837297399 93.3883
5.825203900414495 93.7898
5.8475491852224 94.62100000000001
5.869877275883075 94.5329
5.892223006467101 95.5446
5.914551544266608 97.3816
5.936897724049891 100.29299999999999
5.959244129804903 106.09700000000001
5.981573344815301 127.84700000000001
6.0039202049061 231.142
6.026249875609095 502.702
6.04859719346037 1026.32
6.070927323278297 2068.92
6.093275102315365 3879.25
6.115623113320588 4973.85
6.137953938319995 3463.94
6.160302415650845 1246.49
6.182633708324452 307.03
6.2049826554078376 129.439
6.227331838745022 100.16
6.249663839443684 90.4516
6.27201349767565 86.9913
6.294345974611799 96.0296
6.316696111167083 113.553
6.339046488263839 106.34899999999999
6.361379686074702 85.786
6.383730546639482 74.8818
6.406064229255215 71.2484
6.428415576718203 70.6352
6.450749747566656 68.8419
6.47310158535871 67.7618
6.495453669698332 67.1215
6.517788579421056 66.7021
6.540141159237969 65.5212
6.562476565766648 64.9979
6.5848296444934045 64.6661
6.607182974060425 64.6727
6.6295191323281015 64.8593
6.651872965955752 69.1913
6.6742096296068985 105.205
6.6965639707294615 171.19799999999998
6.71891856698715 172.697
6.741255995248479 110.209
6.763611104154477 73.1118
6.785949046381137 62.7387
6.808304671371482 60.085
6.8306605557940046 59.9659
6.852999275508618 58.7377
6.875355681171544 58.6199
6.897694923437771 58.2981
6.92005185377892 58.0424
6.9423916220322655 58.1035
6.964749080490181 57.3799
6.987106804399774 57.108000000000004
7.009447368180821 57.238
7.031805625367033 57.0603
7.054146723727803 57.0337
7.076505517631004 56.7504
7.098864581288365 56.6951
7.121206488070854 56.7826
7.143566093607822 56.7992
7.165908543567245 57.2449
7.188268694426048 57.0875
7.2106291193438095 57.1089
7.232972390625943 59.4662
7.255333366030969 75.6973
7.277677189091925 151.502
7.300038718428332 220.26
7.322400526130865 184.584
7.344745183422596 104.916
7.367107550224791 66.0894
7.389452767901992 58.4038
7.411815697249891 57.3399
7.434161478756298 56.2579
7.456524974096713 55.9769
7.478888753837185 55.8972
7.501235387657368 56.2001
7.523599738562711 56.016000000000005
7.545946944825532 56.2083
7.568311870344528 56.8693
7.5906770845765665 56.8914
7.613025156078678 58.6558
7.635390950099687 60.6607
7.657739602662809 59.2964
7.680105979923558 57.4206
7.702472650212829 57.3063
7.724822180948224 57.5429
7.747189439655568 57.806000000000004
7.769539560075357 57.5993
7.791907410653562 58.1787
7.81425812420825 58.2277
7.836626570110925 58.1923
7.858995315087906 58.8821
7.881346924933401 58.9445
7.903716270417482 59.6304
7.926068482028405 59.9443
7.948438431475253 60.7102
7.9708086843180235 60.8783
7.993161805171116 61.744
8.015532667162402 62.3136
8.037886398416653 63.3784
8.060257873014221 63.5922
8.082629655331942 64.2572
8.104984308787587 65.3446
8.127356708900503 69.6579
8.149711981398308 77.3014
8.172085002766314 80.584
8.194458336181368 75.7041
8.216814543847752 71.6875
8.23918850371002 71.1536
8.26154533906492 71.6132
8.283919928836452 73.2457
8.306277395339652 74.2239
8.328652618483376 76.0656
8.351028159736202 78.0198
8.373386579575245 79.9278
8.395762759396959 82.0368
8.418121819038275 88.0576
8.440498640894003 105.236
8.462875785192262 124.163
8.485235811156207 137.336
8.507613602688501 177.877
8.529974277114228 270.878
8.552352719347912 407.33099999999996
8.574731488360351 642.274
8.59709314210385 1068.38
8.619472567021075 1655.08
8.64183487789147 2096.1
8.664214962183097 1888.56
8.686577933647762 1137.65
8.708958680784317 470.57199999999995
8.731339760774953 195.53799999999998
8.753703729764451 121.428
8.77608547780821 104.677
8.798450116065078 99.175
8.820832535634787 95.8574
8.843215292401656 94.0079
8.865580941199045 92.2175
8.887964374703538 90.9302
8.910330701447199 92.87799999999999
8.932714815164482 95.919
8.955099270424924 95.0569
8.977466620733543 90.9304
8.999851761421976 87.4985
9.022219798361645 85.6304
9.04460562795561 84.7936
9.066991803441677 84.6229
9.089360876979615 84.5989
9.111747746589993 84.0998
9.13411751544971 83.4337
9.156505082664324 83.3826
9.178875550323522 83.617
9.20126381862328 84.3838
9.223652438908596 84.7834
9.246023961427412 84.6438
9.26841328802173 83.6164
9.290785518039224 83.4266
9.313175554425882 84.2965
9.335565947154315 84.2535
9.357939245086508 84.6648
9.380330352834827 84.6678
9.40270436697103 84.6088
9.425096193225055 84.2704
9.447488380180165 85.9073
9.469863475295412 85.8591
9.492256385987508 86.0933
9.514632206018318 86.9255
9.537025843935714 87.432
9.559402392368193 88.1391
9.581796761000229 89.2442
9.604191496441521 90.6009
9.626569144158516 94.7717
9.648964615551032 100.884
9.671343000390081 103.40100000000001
9.693739211225699 99.8351
9.716135793237463 96.2056
9.738515290448102 95.3603
9.760912617143402 95.7039
9.783292860202891 96.7908
9.805690935076182 98.501
9.828089385495742 99.4878
9.850470754023561 102.31700000000001
9.872869957865444 112.10799999999999
9.89525208097539 132.982
9.917652041736662 149.887
9.940052382417589 147.95600000000002
9.962435644102392 150.946
9.984836746950979 186.396
10.007220771957746 255.93599999999998
10.029622640473708 361.189
10.052007432299963 521.211
10.074410069984072 763.88
10.096813093716005 1133.44
10.119199042482517 1593.53
10.141602840636468 1919.59
10.163989564971628 1752.68
10.186394141051062 1106.3
10.208799107559706 507.12699999999995
10.231187001965623 235.753
10.253592751657669 141.208
10.275981430388155 119.855
10.298387966769793 119.45100000000001
10.320794897965431 122.588
10.343184759907361 121.434
10.36559248305461 113.98299999999999
10.387983138083852 108.37
10.410391656691655 110.911
10.432800574501677 122.50399999999999
10.455192425893369 140.093
10.47760214443012 164.68200000000002
10.499994797678786 202.105
10.522405320453982 266.12
10.54479877906917 358.79400000000004
10.567210109595656 472.458
10.5896218454736 550.139
10.612016518879773 533.155
10.634429067781074 390.962
10.656824555333241 231.21200000000002
10.679237920773568 140.6
10.701651695961992 102.49700000000001
10.724048411481384 92.5391
10.746463008485165 89.2305
10.768860546937125 87.1374
10.791275969274796 85.3349
10.81369180576079 83.9067
10.836090585366925 83.0515
10.858507252467449 81.859
10.88090686379991 80.8509
10.903324365036394 80.4094
10.925724811614439 80.4588
10.948143150509463 82.5208
10.970561909719066 81.9492
10.992963615930844 79.4817
11.015383218085756 76.9228
11.037785768347074 75.4285
11.06020621697282 74.7944
11.082627090322113 73.9963
11.105030913430326 73.5517
11.12745263854165 74.4543
11.149857314510728 79.7746
11.172279894912576 88.3703
11.194702904450653 89.9721
11.217108866490921 84.3565
11.239532736615194 77.8376
11.26193956033512 75.3262
11.284364294577085 73.1122
11.306789462371718 70.5073
11.329197585398376 68.979
11.351623622610898 68.5383
11.37403261614354 67.5258
11.396459526308487 67.921
11.418869393879497 67.2176
11.441297180532617 66.8939
11.463725406927658 66.3886
11.486136592353875 66.2099
11.508565700543707 67.2733
11.530977768845315 69.9808
11.553407762368774 71.5774
11.575838200059769 70.6654
11.598251599479612 67.7725
11.620682927815501 65.8486
11.64309721895548 64.8917
11.665529441478206 64.6616
11.687962112597958 64.3692
11.710377748130886 64.4804
11.732811318753434 64.5098
11.755227854859067 64.7178
11.777662328529495 64.5105
11.800079768750786 64.298
11.822515149015453 64.0699
11.844950984084935 64.0892
11.867369787303163 63.9317
11.889806534289491 63.7894
11.912226250487029 64.2369
11.934663912939751 64.3179
11.9571020346363 64.2584
11.979523127133968 64.5002
12.001962169624331 65.2633
12.024384183972964 66.5109
12.046824150809913 69.8047
12.069264581333726 75.2449
12.091687985297767 81.7405
12.11412934550045 90.4309
12.136553680195208 102.663
12.158995973632788 120.242
12.181438735204349 143.41
12.20386447284199 172.481
12.226308172985636 201.52700000000002
12.24873485024193 209.088
12.271179492516982 184.99599999999998
12.293607112949127 143.512
12.316052700916226 109.13600000000001
12.338498763250042 86.5406
12.360927805303868 74.6232
12.383374818673879 69.2892
12.405804812803074 66.6433
12.428252780773262 65.9907
12.45070122756722 66.0251
12.473132656675375 65.6027
12.49558206341869 65.9553
12.518014453510101 65.5934
12.540464823770117 66.1212
12.562915677315177 66.3208
12.58534951575545 67.1226
12.607801338171472 70.0898
12.630236146511358 77.3111
12.652688941369085 84.1818
12.675124723177234 84.4942
12.697578494048786 78.9453
12.720032754458185 72.6547
12.742470003354093 70.1427
12.764925245138771 69.3178
12.787363476431278 69.4134
12.809819703166806 69.8539
12.83227642391173 70.6668
12.854716135692716 71.2695
12.877173846755147 72.3375
12.899614549869717 72.6696
12.9220732548287 73.28699999999999
12.94453245827299 73.8575
12.966974655289818 74.85300000000001
12.989434858002571 75.6235
13.011878055298721 76.0267
13.034339260862497 77.0668
13.056800969391883 78.2674
13.079245674017244 80.5611
13.101708390774869 82.5463
13.12415410463411 90.2354
13.146617833206086 103.148
13.169064559883248 116.04899999999999
13.191529303857127 130.963
13.213994557076367 151.611
13.236442809902437 180.82
13.258909083908291 225.118
13.28135835851934 276.76099999999997
13.30382565690295 339.784
13.326293469022952 404.63800000000003
13.348744283242008 430.31199999999995
13.371213125129904 388.041
13.39366497011003 297.997
13.416134845360597 200.08900000000003
13.438605238843131 138.651
13.46105863690397 112.729
13.483530069144786 109.587
13.505984506951902 114.684
13.528456981549432 124.428
13.550929978879088 137.47899999999998
13.573385983253365 157.454
13.595860028340867 187.665
13.618317081455832 228.34599999999998
13.64079217790333 277.77
13.663250283359057 326.895
13.685726434770173 366.95
13.708203115221277 356.75300000000004
13.730662806148091 296.15
13.75314054697177 219.21599999999998
13.775601299246777 147.857
13.798080104050406 106.572
13.820559442405358 89.6984
13.843021793671388 84.4726
13.865502201420897 82.4495
13.887965623051947 81.8522
13.910447103807167 80.5751
13.932929122629764 78.7593
13.955394156785959 78.4556
13.977877254034569 77.5806
14.000343367582113 76.8683
14.022827546871707 75.9137
14.045294743423524 75.2004
14.06778000837062 74.6578
14.090265817715476 74.4133
14.112734645763819 74.2227
14.13522154619454 74.36
14.157691466286913 74.6989
14.180179461423874 74.1381
14.202668005486178 73.1449
14.22513957064374 72.4874
14.247629214846473 72.0578
14.270101881097517 71.8931
14.29259262906496 72.3606
14.315083930490205 73.279
14.337558255389705 73.7891
14.360050666019726 73.6283
14.382526101071944 72.2487
14.405019624534942 71.1671
14.427513705993134 70.3501
14.449990813291825 70.2489
14.47248601302899 69.9507
14.49496423954951 70.4316
14.517460561197822 70.5401
14.539939910570322 69.9525
14.562437357763558 70.5597
14.58493536931253 71.8963
14.607416409993311 73.2582
14.62991555254159 74.5562
14.652397725157423 74.229
14.674898002342799 73.1956
14.697398848433282 71.9518
14.719882725991326 72.4456
14.74238471217934 73.5976
14.764869730765593 76.9001
14.787372860692983 80.9928
14.809876564079925 85.5846
14.83236330125751 91.6211
14.854868153850365 99.0567
14.877356041159485 109.977
14.899862046604186 124.581
14.922351087688757 144.566
14.944858249632887 169.21400000000003
14.967365991421232 195.565
14.989856770231246 216.715
15.012365673994204 222.27
15.03485761569738 203.987
15.05736768508665 164.648
15.07987833888692 128.923
15.102372032001655 100.435
15.124883856909658 82.4669
15.14737872204565 75.22
15.169891721717274 72.6771
15.192405310371893 72.2581
15.214901940621196 73.1215
15.237416709527137 73.4982
15.259914520936249 73.8477
15.282430473753607 72.9053
15.304947020131227 71.0952
15.327446610371178 70.1161
15.349964346154254 69.0358
15.372465126703139 68.5718
15.394984055556009 68.1043
15.417486030076159 67.7722
15.44000615566487 67.3966
15.462526881230803 67.6439
15.485030653812652 67.9644
15.507552581617434 67.9883
15.530057557334603 68.0583
15.55258069104857 67.9429
15.575104429329837 67.63
15.597611216864632 67.3008
15.620136166564563 67.4975
15.6426441664095 68.4169
15.665170331202765 70.92
15.687697105158826 74.2966
15.710206930593545 77.9877
15.732734925158933 82.0857
15.755245972089478 87.6067
15.77777519094324 95.5309
15.800287463046663 105.932
15.822817909869592 120.469
15.84534897229804 138.28
15.867863089299354 159.221
15.890395385222186 178.265
15.912910736597423 193.31599999999997
15.935444269699861 190.912
15.957978423016485 170.8
15.980495633101265 138.441
16.003031029129367 107.561
16.02554948280019 84.2193
16.048086125229432 72.3255
16.070623392487107 68.5943
16.09314371869582 67.1672
16.11568223789321 66.1352
16.13820381691126 64.8697
16.160743591742527 63.7219
16.183283996022084 62.4042
16.205807461423195 61.0631
16.228349126881973 60.803999999999995
16.25087385432698 60.6263
16.27341678466365 59.8436
16.29594277784926 59.9083
16.31848697676433 60.4412
16.341031811604868 61.1591
16.36355971058487 61.3604
16.3861058195587 61.3441
16.40863499352978 59.8657
16.431182380342005 58.6256
16.453730407713202 57.5267
16.476261501364792 57.2185
16.498810812136167 56.9785
16.52134319004079 57.0365
16.54389378792203 57.0107
16.566445031001553 56.6701
16.588979342490088 56.6045
16.61153187824822 56.4118
16.634067483263312 56.1551
16.656621315414416 56.0813
16.679175797408888 55.938
16.701713349928728 55.9896
16.72426913389191 56.1073
16.74680798922351 56.4161
16.76936507887444 56.4675
16.791905240734874 56.3852
16.814463639794468 55.9762
16.837022695210294 56.1234
16.859564824093756 56.6733
16.882125194503903 57.6619
16.904668639217885 58.8249
16.927230328348003 58.9136
16.949792678493612 58.8767
16.972338104193863 58.1229
16.994901778652235 57.2979
17.017448529496576 56.9566
17.040013531998152 57.1512
17.06257920018044 57.5767
17.0851279459922 58.4175
17.107694947817667 59.2797
17.130245028099072 60.2564
17.15281336730298 61.535
17.17536478578733 62.9504
17.19793446610687 64.768
17.220504818648422 67.0508
17.243058251703697 69.5675
17.265629950971032 73.1555
17.288184731571736 77.4201
17.310757781306908 81.3167
17.33333150794385 83.5486
17.355888317140174 83.2994
17.37846339986244 79.8519
17.401021565958885 74.5562
17.42359800851343 68.9629
17.44617513265564 64.5738
17.468735341390783 61.9537
17.491261035594565 60.8421
17.51396340099364 60.2957
17.536490463869136 60.6212
17.559018209820174 60.7238
17.58154663977963 60.7589
17.604251766089718 60.8396
17.626781572227713 60.882
17.64931206518155 61.27
17.671843245885103 61.8588
17.69455114821572 62.1629
17.717083712612634 62.2812
17.739616967569667 62.4469
17.762150914021706 62.6031
17.78486160749854 62.6311
17.807396945166804 63.0397
17.829932977143503 63.9715
17.85246970436452 65.5168
17.875183204129467 67.5522
17.897721330097664 69.956
17.920260154126645 72.6364
17.942799677153296 75.455
17.9655159983646 78.5866
17.988056927677544 82.9911
18.010598558807683 88.9762
18.033140892692916 96.7281
18.05586005052525 105.19
18.07840379824407 115.755
18.10094825154059 127.05
18.12366954819864 137.351
18.146215420998306 141.72899999999998
18.16876200220057 138.215
18.191309292745153 126.16
18.214033452627167 112.083
18.236582170236648 97.9123
18.259131600016456 89.5114
18.281681742907335 87.1373
18.304408781233683 89.6399
18.32696035875955 93.0934
18.349512652227624 97.7073
18.372065662579683 103.335
18.394795594587553 106.48700000000001
18.41735004715306 106.20700000000001
18.43990521943684 101.289
18.46246111238171 92.7168
18.485193953325208 82.5372
18.507751296070428 74.225
18.530309362314178 68.7682
18.552868153000343 65.8067
18.57560391815056 63.788999999999994
18.59816416623245 63.3325
18.620725141597372 62.8953
18.643286845190268 62.4163
18.666025549835414 61.9697
18.688588718427933 61.1888
18.711152618092243 61.0551
18.73389353884365 60.7941
18.75645890921984 60.5533
18.77902501351406 60.0275
18.801591852673102 59.8077
18.824335739722738 59.3483
18.846904057212626 59.3952
18.8694731124168 59.0591
18.89204290628315 59.19
18.914789774966803 59.0384
18.937361054791623 58.5842
18.959933076131318 58.5157
18.982505839934877 58.6089
19.00525570560582 58.5157
19.027829963004184 58.2874
19.05040496572238 58.283
19.072980714710468 58.3439
19.095733592739563 58.457
19.11831084296757 58.9698
19.140888842324735 59.486000000000004
19.16346759176222 59.7707
19.18622349753803 60.3841
19.208803755869358 61.0412
19.231384767143577 61.7176
19.253966532312948 62.8239
19.276725481241822 64.7258
19.29930876296784 66.6072
19.3218928014549 68.9359
19.34465404436217 72.3841
19.36723960516257 75.7345
19.389825925592426 77.6244
19.412413006605938 77.7302
19.43517731967805 75.4547
19.457765930683355 71.4095
19.48035530514408 66.6463
19.50294544401556 62.2262
19.525712842708348 58.9857
19.54830451925909 57.0988
19.570896963095727 55.8723
19.593490175174704 55.1546
19.616260674962184 55.18899999999999
19.638855432416964 54.8894
19.661450960992624 55.2699
19.68404726164677 54.7906
19.706820878021247 54.5366
19.729418731756834 54.788999999999994
19.752017360452857 54.5315
19.77461676506804 54.6544
19.797393513540218 54.8561
19.819994478951667 55.1505
19.84259622316767 55.7
19.8651987471481 56.313
19.887978643247177 56.4985
19.91058273574792 56.7862
19.933187610901943 57.4968
19.955969879466828 58.4153
19.97857632894404 59.4541
20.00118356396599 60.547
20.023791585494575 62.5386
20.046577028914875 64.8787
20.069186632506966 66.9298
20.091797025500632 69.0241
20.114408208858933 70.7292
20.137196842715273 71.3805
20.159809615886765 70.5978
20.18242318232135 68.0809
20.20503754298326 65.8898
20.227829382875154 64.0205
20.250445341109344 63.0954
20.27306209647285 63.1142
20.29567964993108 63.9576
20.31847471147704 65.1062
20.34109387027612 66.2785
20.363713830075454 66.7659
20.386334591841646 66.1484
20.409132890679302 64.1725
20.431755265564437 60.9505
20.454378445325528 57.9935
20.477002430930366 55.7788
20.499803982716553 54.4951
20.522429589228004 53.2689
20.54505600449589 52.6661
20.567683229489194 52.3398
20.590488049900088 51.9647
20.61311690359731 51.7196
20.63574656993626 51.2395
20.658553853717297 50.8832
20.681185154618298 50.9692
20.703817271080066 50.8081
20.72645020407368 50.5801
20.749260783967177 50.2528
20.771895359337133 50.1824
20.794530754161617 50.2156
20.817166969412938 50.1208
20.83998086114876 49.8513
20.86261872660049 49.8863
20.885257415405402 49.8643
20.90789692853701 49.7745
20.930714147864748 49.7383
20.953355319030678 49.7252
20.97599731745334 49.8264
20.99864014410749 49.6186
21.021460706796564 49.6921
21.044105199328826 49.8595
21.06675052302631 49.9862
21.089396678865015 50.2708
21.112220600704806 50.7027
21.134868430275347 50.8755
21.15751709492456 51.0801
21.180166595629693 51.1738
21.202993892429635 51.6405
21.22564507473034 51.9585
21.24829709602816 52.4047
21.27112693608965 52.6875
21.293780644891275 52.7789
21.316435195634053 52.4263
21.339090589297417 51.4209
21.361923832041875 50.9887
21.384580921090404 50.2334
21.407238856007325 49.7785
21.429897637773326 49.6622
21.45273429906592 49.6676
21.475394784108598 49.5683
21.498056118951983 49.3682
21.520718304578022 49.5682
21.543558400304388 49.7556
21.566222297108816 49.9019
21.58888704765135 49.9711
21.61155265291521 50.2545
21.63439619898156 50.7589
21.657063523335786 51.0557
21.67973170537063 51.3682
21.7024007460706 51.993
21.72524775840385 52.6707
21.747918526116475 53.4366
21.770590155457388 54.471000000000004
21.79326264741238 55.7921
21.816113141960237 57.3972
21.838787368860547 59.1705
21.861462461341976 60.7904
21.884315579735777 62.6131
21.90699241312273 64.294
21.92967011506078 65.6959
21.95234868653799 66.3205
21.9752053151131 65.7646
21.997885635446785 64.0107
22.020566828293532 61.9259
22.04324889464272 59.9422
22.066109049404666 58.0319
22.088792872571794 57.3122
22.111477572219204 57.1268
22.1341631493376 57.1376
22.157026846313123 57.285
22.179714188221507 56.9084
22.202402410582668 56.1873
22.22509151438863 54.7578
22.24795876962584 53.3682
22.270649646204486 52.2056
22.293341407213727 51.324
22.316034053646906 50.725
22.338904883215342 50.4358
22.36159931041458 50.4449
22.38429462602756 50.1841
22.40699083104897 50.1178
22.429865251039757 50.2135
22.452563244831367 50.2983
22.47526213102522 50.1278
22.49813925616515 49.8703
22.520839937143307 49.8031
22.543541513520587 49.7915
22.56624398629403 49.5605
22.589124730075895 49.5375
22.611829005656723 49.8638
22.63453418063466 49.9345
22.657240256008077 50.0253
22.680124634582935 50.2144
22.70283252079775 50.3265
22.725541310413075 50.6841
22.74825100442868 50.7413
22.771139033969575 51.2792
22.79385054687155 51.4438
22.81656296718292 52.0054
22.83927629590484 52.6532
22.862167992606945 53.519
22.88488314827121 54.3432
22.907599215359284 55.4367
22.93031619487366 56.5012
22.953211574954405 57.2862
22.975930389478226 58.3653
22.998650119445763 59.1722
23.02137076586092 58.9663
23.044269845560063 58.1217
23.06699233506288 56.6373
23.089715744034912 54.801
23.112617610931565 52.9426
23.135342869061212 51.4522
23.158069049684816 50.6595
23.1807961538087 50.1592
23.20370174880544 50.0722
23.226430710184808 50.1284
23.249160598093425 49.8819
23.271891413539002 50.1208
23.294800752937697 49.9686
23.31753343374794 50.2487
23.340267045128353 50.2795
23.36300158808808 50.5608
23.38591468821339 50.8344
23.408651104658304 51.097
23.431388455719986 51.7462
23.454126742409 52.3728
23.4770436196085 53.1516
23.499783787914662 54.1394
23.522524894889884 55.013000000000005
23.54526694154616 56.0672
23.56818761219047 57.2811
23.59093154860734 58.125
23.613676427751283 58.8923
23.636422250635754 58.8591
23.659346731118656 57.7825
23.68209445191868 56.0173
23.704843119509587 53.8325
23.72759273490623 51.6755
23.750521041644767 50.1013
23.77327256312355 48.7141
23.796025035462787 47.8859
23.818956224555475 47.3982
23.841710609113413 47.3409
23.86446594758979 47.0579
23.887222241002014 46.8085
23.910157285144578 46.4801
23.932915498962537 46.2579
23.955674670778713 46.0217
23.978434801611975 45.8915
24.001373717286125 45.8174
24.024135776723917 45.7198
24.046898798245582 45.5362
24.06966278287146 45.5478
24.092605586582614 45.4314
24.115371508023642 45.2154
24.1381383956401 45.1372
24.16090625045381 45.2146
24.183852958731244 45.2217
24.206622758582608 45.1061
24.229393528706886 44.8247
24.252165270127392 44.8824
24.27511589952438 44.7432
24.297889594216997 44.6087
24.32066426328598 44.2923
24.34343990775613 44.3993
24.36639447485003 44.3122
24.38917208083877 44.1729
24.41195066531332 44.1658
24.43490819850244 44.1844
24.457688750692377 43.8993
24.48047028445616 43.8576
24.503252800821233 44.0793
24.526214300784112 44.0979
24.548998793132213 43.9584
24.57178427117417 43.8245
24.59457073593893 44.0725
24.617536219319863 44.0311
24.64032466834748 44.0333
24.663114107195035 43.95
24.685904536893013 43.7407
24.708874020360852 43.6868
24.731666442613744 43.4838
24.754459858818787 43.6074
24.777254270007962 43.498000000000005
24.80022777025625 43.2476
24.82302418230472 43.299
24.845821592443674 43.3096
24.86862000170663 43.2151
24.891597535453727 43.0985
24.914397953892728 43.2711
24.93719937456671 43.1272
24.96000179851076 43.3698
24.98298338249997 43.3789
25.00578782394922 43.6423
25.028593271784167 43.7893
25.05157790644186 43.9464
25.07438537804115 44.1168
25.097193859145293 44.375
25.120003350792075 44.6548
25.142992065061257 44.8474
25.165803588823465 45.1951
25.18861612625217 45.4442
25.211429678386736 45.68
25.234422489079968 45.6785
25.257238081693636 45.7541
25.280054692141732 45.7607
25.3028723214652 45.6119
25.325869245420463 45.84
25.348688923599397 45.8624
25.371509623787006 45.9463
25.394331347025812 45.7696
25.41733240110666 45.4368
25.440156181590016 44.8267
25.46298098826268 44.4225
25.48580682216873 43.9647
25.50881202326435 43.0281
25.53163992281684 42.5355
25.55446885274561 42.2288
25.577298814096377 41.9814
25.600308179121807 41.9389
25.623140214533745 42.0437
25.64597328451537 41.7168
25.66898578564376 41.4965
25.691820936010206 41.6603
25.714657124097695 41.5332
25.737494350954734 41.4666
25.760511045684957 41.3953
25.783350361364224 41.4161
25.806190718969255 41.4649
25.82903211955018 41.5504
25.852053024868923 41.703
25.874896522722523 41.6587
25.897741066713106 41.6048
25.920586657892454 41.7747
25.943611790812668 41.733000000000004
25.966459487728237 41.7085
25.989308234998564 41.7749
26.01215803367705 42.1689
26.03518741123814 42.4297
26.05803932412957 42.4467
26.080892291600094 42.4273
26.10374631470478 42.4803
26.12677995397268 42.6258
26.14963609978026 42.6439
26.172493304397875 42.3758
26.19535156888223 42.3065
26.218389486949604 41.9718
26.241249882640123 41.7229
26.26411134137826 41.4702
26.28715248187403 41.3278
26.31001607820869 41.1377
26.3328807407756 40.9955
26.35574647063438 41.1073
26.37879191991473 41.0564
26.401659795896734 41.1624
26.424528742360263 41.2596
26.447398760366614 41.2871
26.470448535598294 41.4373
26.49332070826805 41.5597
26.516193955675355 41.8152
26.53906827888316 42.0678
26.562122397260108 42.1299
26.584998883685063 42.3164
26.607876449110325 42.7531
26.63075509460056 42.8731
26.65381357334404 43.1252
26.67669439061878 43.0717
26.699576291163382 43.0421
26.722459276044212 43.0606
26.745522132402975 42.7347
26.768407297649354 42.5776
26.791293550442003 42.06100000000001
26.814180891848974 41.966
26.837248143099337 41.6216
26.860137673466657 41.5789
26.88302829566349 41.2572
26.90592001075963 41.1849
26.92899167420566 40.9525
26.951885586870763 40.4941
26.974780595655517 40.3562
26.99785558178161 40.2258
27.020752794605112 40.0452
27.043651106772522 39.8118
27.06655051935668 39.7322
27.089629948036183 39.6704
27.112531573292053 39.6365
27.135434302194138 39.6777
27.158338135817015 39.4808
27.181422024430987 39.5118
27.204328079372566 39.4074
27.22723524226965 39.4299
27.250143514198573 39.6616
27.273231880156334 39.5276
27.296142382065014 39.3466
27.319053996245536 39.2865
27.341966723775965 39.3996
27.365059584515222 39.4514
27.38797455070062 39.3817
27.410890633481237 39.2113
27.433807833936918 39.2007
27.456905206923906 39.3954
27.47982465472398 39.2869
27.502745223449743 39.3887
27.525666914182825 39.5108
27.548768816912457 39.3362
27.571692763693633 39.4074
27.59461783573812 39.3571
27.617723149491244 39.1792
27.640650484125285 39.079
27.66357894728264 39.1387
27.686508540048052 39.1432
27.709618414237887 39.0247
27.732550278321757 38.7075
27.755483275279115 38.687
27.778417406196485 38.7592
27.801531858397514 38.7584
27.824468269376716 38.7393
27.847405817586786 38.6329
27.870344504116094 38.8139
27.893463551932008 38.928000000000004
27.916404527281053 39.1029
27.93934664422563 39.1686
27.962289903855886 39.1663
27.98541356491974 39.2619
28.00835912214229 39.4081
28.03130582533231 39.6871
28.054253675581805 39.8567
28.077381967556104 39.9216
28.100332124185126 39.9133
28.123283431160893 39.9632
28.146235889577238 39.7349
28.169368830154156 39.5467
28.192323603752033 39.4243
28.215279532083304 39.2146
28.238415973016764 38.806
28.261374223145094 38.8396
28.284333631303806 38.6044
28.307294198589954 38.4631
28.330435319167677 38.1124
28.353398217078915 37.88
28.376362277420153 37.7585
28.39932750129032 37.5625
28.422473319286713 37.3529
28.44544088262495 37.2753
28.468409612800283 37.1687
28.491379510913497 36.9864
28.51453004413313 36.955999999999996
28.53750229057244 36.8669
28.56047570826344 36.7306
28.583450298308804 36.7782
28.606605564586562 36.4903
28.629582511831156 36.6399
28.65256063474956 36.4912
28.675539934446338 36.5284
28.698699951647605 36.5515
28.72168161743193 36.3459
28.74466446331978 36.2831
28.767648490417624 36.2448
28.790813276438353 36.2878
28.813799678527303 36.3219
28.836787265157085 36.3086
28.859955641890075 36.2823
28.882945610203045 36.2522
28.905936766392035 36.1036
28.928929111566863 36.256
28.952102288520145 36.0867
28.975097024308607 35.989000000000004
28.998092952423807 35.9378
29.021090073977508 35.8456
29.04426806913204 35.6579
29.067267590245258 35.5501
29.090268308143695 35.5103
29.11327022394099 35.4599
29.13645305530891 35.2588
29.159457379627167 35.135999999999996
29.18246290519685 35.0832
29.20546963313352 35.1216
29.22865731875826 35.1625
29.25166646419296 35.1153
29.27467681535305 35.0534
29.29768837335608 34.9908
29.320880931312562 35.0324
29.34389491580634 35.0114
29.366910110507334 34.9888
29.38992651653503 34.948
29.41312396492981 35.04
29.436142806456754 35.0226
29.45916286268059 34.7995
29.48236399319994 34.8418
29.50538649169417 34.7217
29.528410208259935 34.6687
29.55143514402014 34.4616
29.574641196749695 34.3293
29.597668583816574 34.1285
29.6206971934585 33.9431
29.64372702680042 33.9668
29.666938019934474 33.7465
29.689970313635285 33.8246
29.713003834422636 33.7704
29.73603858342347 33.6715
29.759254535188578 33.6234
29.78229175361658 33.6737
29.80533020365064 33.6858
29.82836988641968 33.6238
29.85159081507472 33.5051
29.874632976355343 33.5007
29.89767637376955 33.5686
29.920721008448314 33.4001
29.9439469322847 33.4307
29.96699405457564 33.3713
29.9900424175358 33.3515
30.013092022298157 33.2515
30.03632295963995 33.166
30.059375061131373 33.2375
30.08242840783577 33.3174
30.105483000888153 33.22
30.128718970092244 33.2054
30.151776069006917 33.0979
30.17483441768648 33.224000000000004
30.198074175317235 33.179
30.221135036724256 33.1979
30.24419715131772 33.0595
30.267260520236203 33.0175
30.290505341942243 33.1316
30.313571232750228 33.199
30.336638381310948 33.2015
30.35970678876503 33.093
30.38295669299435 32.9845
30.40602763151657 32.9087
30.429099832366074 32.873000000000005
30.452173296685572 32.7486
30.47542830191959 32.8498
30.498504306502497 32.7361
30.521581577995562 32.7872
30.544660117543582 32.8775
30.56792024229725 32.8075
30.59100133132069 32.775999999999996
30.614083691845494 32.9785
30.637167325018545 32.88
30.660432587840603 32.8767
30.683518779717886 32.9983
30.70660624769615 32.9553
30.729694992924372 32.9029
30.75296541239743 33.0051
30.77605672557558 32.8889
30.799149319462742 32.8778
30.8224236211637 32.775999999999996
30.845518789950724 32.6427
30.868615242910597 32.6289
30.891712981195973 32.4282
30.91499247215866 32.3873
30.938092794619365 32.2572
30.96119440587579 32.3178
30.984297307082752 32.1411
31.00758200598383 32.0978
31.030687500658694 31.9313
31.053794288760695 31.8542
31.076902371446767 31.8007
31.100192296997445 31.8881
31.12330298246119 31.8948
31.14641496599209 31.6495
31.169528248749216 31.7207
31.19282341969534 31.6779
31.215939314557186 31.7782
31.239056512134788 31.8074
31.262175013589378 31.6548
31.28547544871168 31.4836
31.30859657161541 31.4815
31.331719001892175 31.5873
31.35484274070538 31.6583
31.378148458819545 31.6459
31.401274828443725 31.5304
31.424402510106933 31.4661
31.447712205419993 31.6543
31.470842524931633 31.5196
31.493974159989783 31.5255
31.51710711176168 31.4426
31.54042212308802 31.4869
31.563557722100917 31.4878
31.586694641341655 31.365
31.609832881979628 31.287
31.63315322823208 31.1038
31.656294125521327 31.0646
31.679436347728515 31.0479
31.70257989602529 30.9965
31.725905596152327 30.9076
31.74905181052835 30.7758
31.772199354521323 30.8218
31.79534822930507 30.9116
31.818679302290967 30.9043
31.84183085259981 30.7684
31.864983737233473 30.7717
31.88813795736804 30.8001
31.911474422233013 30.7712
31.934631327356435 30.8619
31.9577895715215 30.6587
31.980949155906522 30.8006
32.004291031706956 30.7802
32.027453310562606 30.5566
32.05061693318573 30.3937
32.07396288236386 30.5131
32.09712920658542 30.4676
32.12029687812702 30.3917
32.14346589817093 30.335
32.166817291729984 30.1743
32.18998902288583 30.0953
32.21316210610336 30.0981
32.23633654256711 30.0796
32.259693399663725 30.0168
32.282870556771144 29.9411
32.30604907069099 29.9655
32.329228942610065 29.772
32.35259128243769 29.6138
32.375773884550505 29.6569
32.398957848235646 29.6751
32.422143174682176 29.57
32.445511016471215 29.4958
32.468699082679954 29.4488
32.49188851523011 29.3976
32.51507931531304 29.4123
32.538452678331 29.2956
32.56164622776311 29.237
32.58484114831493 29.0881
32.60803744118015 29.1026
32.631416344731896 29.2069
32.654615396551876 29.1506
32.67781582427913 29.1103
32.701198898634416 29.0093
32.72440209253756 28.9508
32.747606665947124 28.9949
32.77081262006088 28.8037
32.79420126883317 28.8812
32.81740999876112 28.8965
32.840620112999424 28.6832
32.86383161274818 28.6562
32.88722585534586 28.6959
32.91044014056596 28.7139
32.933655814909734 28.6437
32.95687287957963 28.6512
32.98027273544904 28.4553
33.00349259526636 28.4975
33.026713849030116 28.5852
33.04993649794511 28.4878
33.073341986570746 28.4625
33.09656744032826 28.4644
33.11979429286444 28.4715
33.14302254538647 28.4453
33.166433686291185 28.4076
33.18966475336992 28.3676
33.212897224069096 28.2055
33.23613109959831 28.2908
33.259547912343415 28.2363
33.2827846121627 28.2709
33.306022720453775 28.1041
33.32926223842861 28.0814
33.352684742614166 28.0059
33.37592709463173 28.0386
33.399170859982064 28.0262
33.422597648419426 27.8726
33.44584425514446 27.7546
33.46909227885668 27.7406
33.4923417207723 27.5286
33.51577423505344 27.6976
33.539026528130385 27.6546
33.56228024307245 27.5614
33.585535381098246 27.389
33.60897364093058 27.4102
33.63223163992385 27.4339
33.6554910656699 27.2489
33.678751919389796 27.3401
33.702195944520106 27.2739
33.72545966903325 27.2354
33.74872482519663 27.0743
33.771991414233746 27.1366
33.79544122444841 27.1277
33.81871069412428 26.9706
33.84198160035767 27.0003
33.86525394437455 27.0197
33.88870955949969 26.9374
33.911984794020626 26.8939
33.93526147001624 26.9149
33.958539588715006 26.8501
33.98200102861669 26.7811
34.0052820477047 26.7206
34.02856451319451 26.6554
34.05203033759056 26.5982
34.07531571090147 26.615
34.09860253431845 26.6218
34.121890809074316 26.5049
34.145362493118924 26.4748
34.16865368561615 26.4542
34.191946333164054 26.3848
34.21524043699793 26.3651
34.23871800066799 26.3393
34.26201503218366 26.318
34.28531352370466 26.3022
34.30861347646881 26.1256
34.33209693978188 26.1764
34.3553998301885 26.163
34.378704185565205 26.0515
34.402010007152356 26.0165
34.42549939016683 26.0715
34.44880815937748 26.0097
34.472118398533134 25.9137
34.49543010887669 25.8649
34.51892543169198 25.7753
34.54224009966052 25.7771
34.56555624255917 25.868000000000002
34.58887386163339 25.6852
34.61237514439016 25.5619
34.6356957311114 25.6328
34.65901779775809 25.4892
34.68252356662995 25.4864
34.705848608458616 25.4763
34.72917513396849 25.4544
34.75250314440949 25.3958
34.77601490857862 25.3426
34.799345904259795 25.289
34.82267838863559 25.2986
34.846012362958525 25.3146
34.869530142679984 25.2763
34.89286711232212 25.1892
34.91620557568269 25.1923
34.93954553401677 25.1298
34.9630693495876 24.976999999999997
34.986412313340814 25.0621
35.00975677584668 25.1041
35.033102738362956 24.9428
35.05663261012228 24.9324
35.0799815881786 24.9697
35.10333207003229 24.8272
35.12668405694369 24.8606
35.150220005273056 24.875
35.17357501786656 24.8033
35.19693153931268 24.761
35.220289570874385 24.714000000000002
35.24383161619786 24.6867
35.267192683604904 24.7065
35.290555264930376 24.6482
35.314101899412165 24.6499
35.33746752422433 24.5948
35.36083466676374 24.5899
35.38420332829803 24.462
35.407756095629054 24.4935
35.43112781085063 24.5524
35.45450104888391 24.4787
35.477875810999194 24.5282
35.50143473172161 24.4756
35.52481255774625 24.47
35.54819191167777 24.41
35.57157279478914 24.3678
35.595137889488406 24.3624
35.61852184675279 24.1596
35.641907337029984 24.2077
35.665294361595684 24.1814
35.68886565090076 24.1175
35.7122557598848 24.1034
35.73564740699838 24.1009
35.759040593519934 24.0066
35.78261809810353 23.9908
35.80601437933051 23.904
35.829412203814705 23.803
35.85281157283719 23.7075
35.876395313415884 23.8072
35.8997977874528 23.7364
35.92320180988546 23.772
35.946790244133936 23.6026
35.97019737933222 23.7159
35.993606066789866 23.5754
36.01701630779276 23.6051
36.04061101440684 23.56
36.06402437852291 23.5578
36.08743930005611 23.4391
36.1108557802951 23.329
36.13445678011326 23.4264
36.15787639383515 23.4589
36.18129757014299 23.3455
36.20472031032821 23.3243
36.22832762423364 23.2216
36.25175350829375 23.2032
36.275180960119776 23.188000000000002
36.298609981005924 23.2077
36.32222362992669 23.1659
36.34565580510207 23.1089
36.36908955323448 23.1064
36.39252487562093 22.9677
36.416144880530226 22.9481
36.43958336764275 22.9212
36.463023432914625 22.9471
36.486465077645676 22.896
36.51009145956204 22.9293
36.53353627947859 22.9306
36.55698268276811 22.9035
36.58043067073321 22.7613
36.60406345072071 22.6416
36.62751462435344 22.7214
36.65096738658405 22.7897
36.67460498210655 22.6848
36.69806093788647 22.7079
36.72151848619297 22.558000000000003
36.744977628333636 22.5449
36.76862165890998 22.4789
36.79208400512205 22.5592
36.81554794910557 22.5044
36.83901349217101 22.3516
36.862663978991606 22.3206
36.88613273667352 22.3222
36.90960309738324 22.2729
36.933075062434064 22.2783
36.95673202673572 22.1848
36.98020721697122 22.1395
37.003684015502365 22.0897
37.027162423645365 22.0953
37.050825886711465 22.1094
37.07430753063053 21.9884
37.09779078812467 21.9978
37.121275660513014 21.9212
37.144945643673694 21.9376
37.16843376245278 21.9217
37.19192350009803 21.9921
37.215414857931435 21.905
37.239091382563885 21.7941
37.262585997426164 21.8378
37.28608223645736 21.7341
37.309763684451696 21.6478
37.33326318851098 21.6658
37.356764320726555 21.6586
37.380267082425526 21.6772
37.40395510942588 21.6374
37.42746114683234 21.5321
37.45096881771841 21.4711
37.474478123414166 21.463
37.49817275092816 21.3803
37.52168534303452 21.3585
37.54519957395567 21.3568
37.568715445024665 21.3727
37.592416694607714 21.204
37.61593586281424 21.3598
37.63945667518264 21.333000000000002
37.66297913304891 21.1747
37.68668702630454 21.1297
37.710212792059274 21.0991
37.733740207334854 21.1162
37.757269273470364 21.0696
37.780983832050374 21.0338
37.80451621684926 21.0371
37.82805025654007 20.9969
37.851585952464795 20.896
37.8753071980695 20.8182
37.89884622345676 20.796
37.92238690911902 20.796
37.94611318753442 20.8009
37.969657210779765 20.7434
37.99320289834801 20.6995
38.016750251586465 20.6577
38.04048325513017 20.658
38.06403395679343 20.6533
38.087586328183946 20.6321
38.11114037065203 20.5502
38.13488012115898 20.6442
38.1584375229181 20.51
38.181996599821 20.4731
38.205557353221124 20.4308
38.229303872575656 20.4453
38.2528679961576 20.3769
38.27643380031219 20.3217
38.30000128639589 20.2908
38.32375459653193 20.2551
38.34732546371299 20.2758
38.37089801690786 20.1342
38.39447225747609 20.1456
38.418232380377425 20.1041
38.441810012983396 20.1114
38.46538933705673 20.0322
38.488970353960084 20.0827
38.51273731166058 20.0863
38.536321731567014 19.9436
38.55990784840681 19.938
38.58367995004091 19.8853
38.60726947812959 19.8972
38.63086070726198 19.8494
38.654453638806274 19.8571
38.678232613930824 19.8229
38.70182896773327 19.7125
38.72542702806741 19.7323
38.7490267963045 19.744
38.77281266709232 19.6841
38.79641586862214 19.6082
38.8200207821842 19.6485
38.843627409152944 19.5944
38.86742019782782 19.5516
38.891030269149255 19.4764
38.914642058016156 19.4614
38.938255565806124 19.5155
38.96205529464307 19.3792
38.98567225787121 19.3997
39.00929094417078 19.3519
39.03291135492255 19.3614
39.05671804624804 19.2408
39.080341923549106 19.1997
39.103967529460334 19.2336
39.127594865365744 19.1514
39.15140854155791 19.1298
39.17503935514948 19.0871
39.19867190290282 19.0693
39.22249083587951 19.0911
39.24612686969409 19.0296
39.269764641845306 19.0304
39.293404153722804 19.0357
39.317230110864074 18.9186
39.34087311998506 18.9087
39.36451787301696 18.8827
39.388164371352595 18.8662
39.41199737518003 18.8079
39.43564738196752 18.8055
39.45929913825317 18.761
39.48295264543308 18.7221
39.506792718520884 18.7341
39.530449745387216 18.6984
39.55410852735203 18.6632
39.57776906581474 18.6384
39.60161623079 18.5666
39.625280300200025 18.5946
39.64894613032202 18.5323
39.67261372255866 18.518
39.6964680021016 18.4944
39.72013913657293 18.3914
39.74381203738292 18.3487
39.76748670593756 18.3731
39.79134812278169 18.3731
39.81502634488497 18.4259
39.83870633896685 18.3235
39.862388106436654 18.3276
39.88625668336918 18.3097
39.90994201572829 18.3205
39.933629125719285 18.2002
39.957503091207826 18.1196
39.9811937746168 18.1874
40.00488623990914 18.1319
40.02858048850006 18.0718
40.05246165409549 18.0632
40.076159487492085 18.0411
40.099859108448875 18.0673
40.123560518384345 17.991
40.1474489070226 17.968
40.171153913178564 17.8836
40.194860712584955 17.8436
40.2185693066637 17.8564
40.242464941335314 17.8327
40.26617714307655 17.8487
40.289891143772046 17.8003
40.3136069448471 17.7325
40.33750984859743 17.7311
40.3612292688043 17.7342
40.3849504936829 17.6276
40.40867352466194 17.6433
40.43258372059144 17.6599
40.45631038219906 17.6477
40.48003885420956 17.5093
40.503769138055105 17.4677
40.52768664931955 17.4735
40.55142057531802 17.4374
40.57515631746428 17.4
40.599079334038514 17.4213
40.62281872700477 17.3739
40.64655994043941 17.3428
40.67030297578061 17.3032
40.69423334835778 17.3338
40.71798004609188 17.2722
40.74172857006355 17.2099
40.76547892171441 17.2193
40.7894166736039 17.1867
40.813170699248566 17.1816
40.83692655691388 17.1431
40.86068424804498 17.1427
40.884629402612525 17.0749
40.908390779366385 17.0878
40.932153993938 17.0329
40.95591904777605 16.9971
40.979871628443995 17.0427
41.003640379561936 16.9973
41.02741097430883 16.9944
41.05118341413683 16.9096
41.075143444384416 16.8261
41.098919593177826 16.8546
41.1226975914255 16.8165
41.14647744058318 16.7724
41.170444943946755 16.7383
41.19422851378379 16.7461
41.218013938914645 16.6769
41.24198706625173 16.6186
41.26577622087193 16.623
41.289567235177785 16.6359
41.31336011063129 16.6098
41.337340752422875 16.5732
41.361137369129835 16.5478
41.38493585138705 16.492
41.40873620066004 16.5116
41.43272438060107 16.4633
41.45652848292052 16.3703
41.48033445666918 16.3294
41.50414230331616 16.3242
41.528138045159764 16.355
41.551949656675205 16.2781
41.575763145513235 16.2472
41.59957851314666 16.2889
41.62358184070442 16.2243
41.64740098505737 16.1955
41.6712220126409 16.1897
41.69504492493139 16.1488
41.71905586207357 16.1213
41.74288256296395 16.0467
41.766711153007456 16.0575
41.79054163368412 16.012999999999998
41.814560204340054 15.9906
41.838394485526365 15.9752
41.86223066180303 15.9495
41.88625497706819 15.9577
41.910094962812 15.8829
41.93393684811168 15.8384
41.95778063445365 15.769
41.981812625263366 15.7802
42.00566023303407 15.780999999999999
42.029509746323676 15.7359
42.05336116662236 15.6908
42.077400857069705 15.7748
42.10125611078846 15.7007
42.12511327600405 15.6923
42.14897235421036 15.6188
42.173019768448455 15.6158
42.19688269209613 15.5596
42.22074753323349 15.5246
42.24461429335818 15.474
42.268669455600495 15.5379
42.292540073217886 15.4696
42.31641261433284 15.5127
42.34028708044675 15.4207
42.36435001496739 15.3905
42.38822835065557 15.3686
42.41210861586426 15.3452
42.4359908120986 15.3048
42.46006154323262 15.3245
42.48394762115317 15.2525
42.507835634632315 15.2935
42.531912233047436 15.2076
42.55580413732265 15.171
42.579697981698 15.1315
42.60359376768525 15.1223
42.62767820545945 15.0532
42.65157789440821 15.0675
42.67547952952185 15.0526
42.699383112316 15.0446
42.72347541395347 15.0071
42.74738291190531 14.9719
42.771292362102166 14.932
42.795203766063516 14.9074
42.819303956130405 14.9256
42.843219287476536 14.8896
42.86713657716324 14.8574
42.89105582671383 14.8097
42.91516392983864 14.8312
42.939087119032166 14.7643
42.963012272677304 14.8436
42.98693939230129 14.7627
43.01105543317513 14.7075
43.034986504731386 14.6333
43.05891954686589 14.6291
43.08285456110972 14.5906
43.10697856448665 14.5688
43.130917542983475 14.5192
43.15485849820081 14.5348
43.17880143167367 14.4884
43.20293342237094 14.5034
43.226880332449 14.4696
43.25082922540554 14.4726
43.27496722682525 14.442
43.29892010567796 14.4014
43.32287497204102 14.3704
43.34683182745632 14.3749
43.370977859791836 14.3045
43.39493871351105 14.3395
43.41890156092628 14.3312
43.44286640358341 14.2267
43.46702049182749 14.2348
43.49098934522816 14.2053
43.51496019852649 14.1916
43.5389330532723 14.1674
43.56309522248204 14.137
43.58707210044314 14.1597
43.61105098451946 14.0788
43.63503187626491 14.015999999999998
43.659202151562134 14.0078
43.68318707902681 14.0694
43.70717401884041 14.0305
43.731162972560874 13.9417
43.75534137913236 13.8974
43.779334381108384 13.8948
43.803329401683186 13.8623
43.82732644241872 13.9216
43.8515130055166 13.8166
43.87551410707659 13.7716
43.89951723350145 13.854000000000001
43.923709934595614 13.8128
43.94771713129917 13.7864
43.97172635758096 13.7556
43.99573761501002 13.7178
44.0199385169922 13.6788
44.04395385732619 13.6644
44.067971233533086 13.6607
44.09199064718605 13.6403
44.11619977548961 13.595999999999998
44.14022328470671 13.5777
44.16424883610785 13.550999999999998
44.18827643127035 13.5714
44.21249381139513 13.5117
44.236525514814076 13.4655
44.26055926674478 13.4161
44.28459506876863 13.5171
44.3088207262813 13.405
44.33286064928722 13.3875
44.35690262714919 13.3105
44.38094666145278 13.3422
44.4051806219871 13.3475
44.42922879003185 13.3013
44.45327901929361 13.2624
44.477331311362136 13.2265
44.501573600619416 13.1776
44.525630039221795 13.1714
44.54968854541895 13.1384
44.573937102200176 13.1706
44.5979997645541 13.1264
44.622064499300315 13.1313
44.64613130803592 13.1238
44.67038823869318 13.0817
44.69445921643748 13.0705
44.718532272981385 12.9884
44.742607409926194 12.9821
44.76687274034801 12.9695
44.79095205918753 12.9323
44.81503346325094 12.9198
44.839116954143876 12.9414
44.86339071028742 12.9072
44.88747839599524 12.8407
44.91156817336837 12.8415
44.93566004401666 12.777999999999999
44.959942251908146 12.7882
44.984038330325966 12.7135
45.00813650686762 12.7257
45.03223678314731 12.7417
45.05652746888232 12.6813
45.08063196592069 12.7056
45.104738567558705 12.6284
45.128847275414856 12.5927
45.15314646515866 12.5317
45.17725940679741 12.5187
45.20137445952892 12.5283
45.22568004865265 12.5256
45.24979934496396 12.5044
45.27392075725247 12.5134
45.29804428714431 12.4871
45.322358426247604 12.4408
45.346486212804315 12.3906
45.370616121861914 12.4092
45.39474815505086 12.3612
45.41907087049246 12.3256
45.4432071734666 12.3064
45.46734560548283 12.3157
45.49148616817604 12.2783
45.51581748638564 12.2306
45.5399623320197 12.242
45.56410931325473 12.2491
45.58825843173002 12.2272
45.61259837920865 12.2228
45.636751793816 12.1976
45.66090735060093 12.1371
45.68506505120716 12.1222
45.7094136545275 12.0945
45.73357566449271 12.0347
45.75773982322992 12.0568
45.78190613238733 12.0782
45.806263418194064 11.9843
45.83043404997326 11.9728
45.85460683713677 11.9723
45.87897065658495 11.9303
45.90314777634752 11.9158
45.92732705646868 11.9193
45.9515084986045 11.8809
45.97588104735473 11.8687
46.00006683541565 11.8262
46.02425479047904 11.8347
46.04844491420549 11.8199
46.0728262191024 11.7831
46.09702070211635 11.7542
46.12121735879483 11.7318
46.14541619080294 11.7206
46.169806278764455 11.6724
46.194009483459034 11.6824
46.21821486849841 11.6567
46.24242243555223 11.636
46.266821333570014 11.6357
46.29103328674601 11.6085
46.31524742696538 11.5883
46.33946375590237 11.5703
46.36387149104216 11.5731
46.38809221957392 11.4828
46.41231514186606 11.5223
46.436540259597464 11.4466
46.460956858999374 11.418
46.48518638983522 11.4575
46.509418121166966 11.3964
46.533652054678114 11.3616
46.55807754555709 11.3391
46.58231590571962 11.3261
46.60655647313217 11.296
46.630988654873654 11.3047
46.655233659129024 11.3185
46.67948087571551 11.2951
46.70373030632484 11.2281
46.72817142736393 11.2146
46.752425308428684 11.1574
46.77668140861147 11.1759
46.80093972960865 11.1514
46.82538981736788 11.1067
46.849652602470904 11.1136
46.87391761349769 11.068
46.8981848521493 11.0587
46.9226439341274 11.0104
46.946915650573224 11.0027
46.97118959976749 10.9888
46.99546578341598 10.9677
47.019933887188216 10.9147
47.04421456235744 10.9209
47.06849747711879 10.9079
47.09278263318286 10.8609
47.11725978640143 10.8518
47.14154944775105 10.8495
47.165841355555656 10.8188
47.1901355115306 10.8155
47.214621741924994 10.7984
47.23892041698887 10.7658
47.26322134538975 10.7449
47.28771440635075 10.7284
47.31201986422527 10.7581
47.33632758061436 10.6797
47.360637557241866 10.7033
47.38513974410611 10.684000000000001
47.40945426407847 10.6615
47.43377104948137 10.6468
47.45809010204344 10.6399
47.48260144275502 10.5759
47.506925052572285 10.5292
47.53125093475548 10.5172
47.55557909103813 10.5381
47.58009961361992 10.4735
47.60443234110732 10.4561
47.62876734791564 10.4847
47.65310463578333 10.4904
47.6776343683373 10.4241
47.7019762413987 10.4043
47.72632040075572 10.3731
47.75066684815169 10.3749
47.77520581885936 10.3459
47.799556865477655 10.3115
47.823910205386 10.3019
47.84826584033272 10.2636
47.87281407745551 10.2401
47.89717432569297 10.2405
47.92153687423484 10.2697
47.94609208429692 10.2381
47.97045925671401 10.2278
47.99482873471275 10.166
48.01920052005013 10.1555
48.04376504619224 10.1649
48.068141469543484 10.1354
48.09252020552573 10.1488
48.11690125590099 10.1038
48.1414751266064 10.0996
48.16586082917454 10.0564
48.19024885144316 10.0123
48.2146391951793 10.0152
48.239222439012764 10.0081
48.26361744916137 9.99118
48.28801478610016 9.989230000000001
48.31241445160131 9.95543
48.337007097209366 9.93176
48.36141144338331 9.94747
48.38581812345755 9.89197
48.41022713920929 9.91427
48.434829215320704 9.87048
48.45924292604658 9.85012
48.48365897780325 9.85953
48.50807737237308 9.81168
48.532688907799276 9.8153
48.55711201168574 9.77703
48.581537463754074 9.77115
48.60615611725119 9.76896
48.63058628942721 9.709760000000001
48.65501881516546 9.715819999999999
48.6794536962573 9.65652
48.70408185970339 9.65317
48.72852147531801 9.6234
48.75296345168211 9.58998
48.77740779059232 9.61351
48.80204549302823 9.59469
48.82649458091802 9.58244
48.85094603676547 9.54455
48.87539986237231 9.52802
48.90004713292306 9.52096
48.92450572200832 9.525730000000001
48.94896668628025 9.453330000000001
48.97343002754588 9.46579
48.99808689542115 9.4803
49.02255501470614 9.428230000000001
49.04702551642794 9.38623
49.0714984023988 9.3761
49.096164896893235 9.3977
49.120642575466796 9.36725
49.145122643748394 9.33104
49.16960510355558 9.29697
49.19428125404938 9.2937
49.2187685210852 9.299489999999999
49.243258185121555 9.27542
49.26794160167084 9.2237
49.2924360839405 9.23585
49.31693296869764 9.22189
49.34143225776915 9.21262
49.36612538195438 9.190710000000001
49.39062950396021 9.15976
49.41513603578346 9.17565
49.4396449792564 9.14586
49.46434784069503 9.10229
49.488861631846454 9.087660000000001
49.513377840166804 9.10339
49.537896467493745 9.0781
49.56260909589029 9.02655
49.587132585683285 9.03383
49.611658500018365 8.99801
49.636186840738596 8.993780000000001
49.66090926588511 9.00205
49.685442483902584 8.96792
49.70997813385706 8.94974
49.734516217597076 8.92115
49.75924846937352 8.91531
49.7837914452858 8.86858
49.80833686055187 8.86715
49.83288471702571 8.85026
49.85762682540054 8.85693
49.882179588965734 8.812330000000001
49.9067347993235 8.79154
49.93129245833333 8.76252
49.95604445336378 8.78144
49.98060703442832 8.74212
50.005172069746266 8.72607
50.02993150438364 8.71541
50.05450147301533 8.69998
50.07907390151433 8.690539999999999
50.10364879174981 8.67842
50.12841816587289 8.66612
50.1529980044635 8.64635
50.17758031042124 8.611130000000001
50.20216508562089 8.61026
50.22694442953363 8.56542
50.25153416817468 8.54551
50.27612638170508 8.55863
50.300721072005196 8.53481
50.325510416102105 8.46746
50.350110084975064 8.47763
50.37471223628208 8.516810000000001
50.39931687190919 8.46598
50.424116246675766 8.46332
50.44872587605249 8.4296
50.47333799543065 8.42181
50.49795260670191 8.4444
50.52276204271512 8.38833
50.54738166295838 8.37916
50.57200378079314 8.3326
50.596628398116835 8.32828
50.62144792604559 8.32709
50.646077567609396 8.30722
50.670709714377715 8.322339999999999
50.69553683636198 8.30268
50.72017401885922 8.28012
50.7448137122895 8.25662
50.76945591856022 8.2587
50.79429318636823 8.20855
50.818940443716784 8.20305
50.84359021965163 8.18703
50.868242516085964 8.14681
50.893089960641895 8.16842
50.917747323549435 8.13946
50.94240721271973 8.112910000000001
50.96706963007175 8.0827
50.99192728239342 8.069189999999999
51.01659478166073 8.058010000000001
51.04126481489051 8.0595
51.06593738400761 8.018839999999999
51.090805275207074 7.97795
51.11548294172845 8.01036
51.14016314993547 8.038689999999999
51.164845901758845 7.984089999999999
51.18972406304274 7.97098
51.21441192780656 7.93934
51.23910234200271 7.954280000000001
51.2637953075678 7.90344
51.288683770237945 7.87263
51.31338186432707 7.832330000000001
51.33808251561888 7.8449
51.362978729967345 7.87021
51.387684521509755 7.83184
51.41239287610203 7.75298
51.437103795691165 7.77893
51.46201036644977 7.752000000000001
51.486726441956634 7.78452
51.51144508832545 7.7594199999999995
51.536166307509156 7.73093
51.56108326624387 7.72605
51.58580965706056 7.70061
51.61053862657523 7.659619999999999
51.635270176746864 7.661410000000001
51.66019755512065 7.64456
51.68493429268881 7.613980000000001
51.70967361681515 7.6109800000000005
51.73441552946465 7.5867
51.759353359237934 7.5800399999999994
51.7841004750961 7.57057
51.80885018539685 7.551639999999999
51.833602492111254 7.562819999999999
51.8585508051424 7.531280000000001
51.883308330926425 7.4912
51.90806845906181 7.5224899999999995
51.932831191525715 7.489380000000001
51.95779001977161 7.45701
51.98255798721516 7.45415
52.00732856494335 7.44682
52.03229530577543 7.41259
52.057071130455945 7.40659
52.081849571391054 7.392519999999999
52.106630630568695 7.3696600000000005
52.13160794279417 7.34192
52.15639426492067 7.343189999999999
52.18118321127822 7.3509
52.205974783860896 7.32345
52.23096269971011 7.30997
52.255759551287994 7.281960000000001
52.280559035098186 7.24748
52.30536115314103 7.20892
52.33035970494467 7.24183
52.35516711807904 7.24132
52.37997717147198 7.20378
52.40478986713005 7.22398
52.42979908731974 7.1711100000000005
52.454617094216 7.149089999999999
52.47943774942214 7.13496
52.50426105495102 7.12753
52.529280976059844 7.069210000000001
52.554109609024096 7.128830000000001
52.57894089837482 7.0953800000000005
52.60377484613117 7.0884
52.62880550079408 7.053999999999999
52.65364479223379 7.021439999999999
52.67848674816189 6.9901800000000005
52.70352547971946 7.00559
52.72837279155837 6.98953
52.753222773982785 6.97659
52.778075429022984 7.0026399999999995
52.80312495150885 6.980910000000001
52.827982978797436 6.9425
52.85284368481815 6.928210000000001
52.87770707160767 6.92364
52.90276741793998 6.8997
52.92763619336701 6.89912
52.952507655698504 6.86534
52.977381806977576 6.8273600000000005
53.00245301017842 6.8570199999999994
53.02733256653592 6.839760000000001
53.052214817996074 6.82187
53.077099766608484 6.75772
53.102181859804446 6.73725
53.127072229988265 6.78863
53.15196530349892 6.774260000000001
53.17686108239249 6.76443
53.20195409881522 6.712330000000001
53.22685531582556 6.73227
53.25175924441303 6.66828
53.27666588664027 6.67369
53.30176985962693 6.662610000000001
53.3266819565689 6.671130000000001
53.35159677336455 6.6298699999999995
53.376514312083096 6.664560000000001
53.40162927507703 6.63313
53.42655228516116 6.60122
53.45147802340193 6.61689
53.47660125628886 6.5769
53.50153247842639 6.57666
53.52646643496923 6.49935
53.55140312799818 6.51973
53.576537409691696 6.48977
53.60147960336152 6.49456
53.626424539786164 6.49636
53.65137222105307 6.44265
53.67651758529126 6.45067
53.70147078399681 6.46401
53.72642673383343 6.46735
53.75138543689533 6.41364
53.776541917524526 6.4186
53.801506154876755 6.37969
53.826473151763246 6.3711400000000005
53.851442910284916 6.31805
53.87661054126026 6.32779
53.9015858509782 6.29979
53.92656392866066 6.26291
53.95154477641532 6.26799
53.976723591801296 6.27323
54.00171000771266 6.26035
54.02669920004598 6.25254
54.051691170915745 6.20357
54.076881204886796 6.21729
54.101878760928514 6.21868
54.12687910187696 6.2182699999999995
54.152077577768296 6.13554
54.1770835166946 6.13264
54.20209224691339 6.21468
54.22710377055121 6.15316
54.25231352511594 6.14731
54.27733066384342 6.12561
54.30235060239643 6.1329
54.32737334290836 6.07545
54.35259441062629 6.01044
54.377622783395324 6.0218
54.40265396455061 6.039680000000001
54.42768795623251 6.02425
54.45292037169559 5.97567
54.477960012857906 5.964180000000001
54.50300247099511 5.926
54.52804774825457 5.94747
54.55329154616743 5.89079
54.57834249018678 5.92192
54.6033962597977 5.88201
54.6284528571545 5.85186
54.653708072335164 5.85556
54.67877035378786 5.80278
54.70383546947698 5.80156
54.72890342156389 5.80189
54.7541700889442 5.76764
54.77924374251975 5.72893
54.8043202390049 5.6938699999999995
54.82959552413022 5.67496
54.8546777351945 5.63582
54.87976279569621 5.59515
54.90485070780914 5.61015
54.930137506558005 5.59126
54.95523115074295 5.62695
54.98032765308844 5.56416
55.005427015775496 5.58922
55.03072536339621 5.57636
55.05583047570572 5.5188
55.080938454927676 5.500369999999999
55.10604930325027 5.41045
55.131359235107396 5.51424
55.15647585066083 5.40837
55.181595341907496 5.4286900000000005
55.20671771104285 5.393619999999999
55.232039262617704 5.36994
55.25716741665048 5.33012
55.28229845518636 5.358169999999999
55.30743238042802 5.28765
55.33276558731939 5.28231
55.357905315183636 5.25904
55.383047936390035 5.18773
55.40819345314859 5.17211
55.433538351073295 5.18605
55.458689688238415 5.131
55.483843927614096 5.10118
55.509197623043605 5.1235
55.53435769621134 5.09514
55.55952067826466 5.068230000000001
55.5846865714265 5.036630000000001
55.61005202069737 4.9903900000000005
55.63522376553902 5.01633
55.66039842818645 4.97915
55.68557601087004 4.97345
55.7109532500271 4.87001
55.73613670233794 4.90521
