TT I
1.2716486653135266 7.82265
1.2939594142134223 6.55281
1.3162702121660406 6.2899400000000005
1.3385810600174564 6.8325
1.3608919586137629 6.79006
1.383202908801069 6.37138
1.405513911425503 5.96548
1.4278249673332093 6.269480000000001
1.4501343378461518 6.44601
1.4724455028545926 6.24554
1.4947567236847858 6.54226
1.517068001182951 6.070119999999999
1.5393793361953272 6.02072
1.5616907295681737 5.78613
1.5840021821477681 5.4798800000000005
1.60631369478041 4.900469999999999
1.6286252683124185 5.45501
1.6509369035901333 5.29829
1.6732468618895553 4.353940000000001
1.695558623192809 4.8815800000000005
1.7178704487808514 4.70704
1.7401823395001077 4.8774
1.7625012545597203 5.0613
1.7848028405262486 4.9929
1.8071218901122095 4.779730000000001
1.8294236121921872 4.535
1.8517427996910911 4.46062
1.8740620574440425 4.23951
1.8963639900671978 4.8647599999999995
1.9186833908139995 5.06738
1.9409854680117449 4.85409
1.9633050151394713 5.07437
1.9856246367570705 4.701630000000001
2.0079269371922672 4.92035
2.03024671027244 5.1939400000000004
2.0525491637446027 4.53495
2.074869091674931 4.56466
2.097171701569106 4.61672
2.1194917877373847 4.6745
2.141811954326636 5.09025
2.164114805233074 4.5978900000000005
2.186435135143035 5.96951
2.208738150935709 12.5259
2.231058647554722 26.4402
2.2533792288321184 20.0815
2.275682498336085 9.7304
2.298003251406138 6.1093
2.3203066942619714 5.59072
2.3426276225136022 5.72807
2.3649486396617507 5.77519
2.387252348930071 5.71011
2.4095735463442893 5.98643
2.4318774374315884 5.84203
2.4541988185014043 5.9412
2.476502894794693 7.041289999999999
2.498824462909887 6.52062
2.521146125856138 7.0399899999999995
2.5434504863470337 7.09503
2.5657723414244717 7.93399
2.588076895590662 8.18174
2.610398946189713 8.395539999999999
2.6327210958598384 8.69357
2.6550259469304716 7.730360000000001
2.6773482972090137 7.8631899999999995
2.6996533504259 8.74506
2.7219759047039602 8.147730000000001
2.744298562293959 8.14965
2.7666039251246595 8.317919999999999
2.7889267918020164 8.68781
2.8112323652516555 8.3134
2.833555444408179 8.404819999999999
2.8558786311183852 8.33918
2.8781845268938557 8.89467
2.9005079311721484 9.06368
2.9228140460410397 9.06369
2.9451376712799635 9.43758
2.967444008632326 9.605739999999999
2.9897678582247247 10.0451
3.0120918213106695 10.1922
3.0343984987899373 10.6483
3.0567226913198637 11.0722
3.079029599759726 11.6952
3.101354025127254 12.3245
3.123678568232338 13.2954
3.145985829517914 12.9274
3.16831061055229 13.1336
3.1906181112775593 14.2692
3.212943133635653 14.797
3.2352682779763207 15.0152
3.2575761442691227 15.2142
3.2799015350264273 15.7007
3.302209649240067 16.4264
3.3245352898092655 16.4408
3.3468436553365257 17.1519
3.369169549113219 17.8703
3.3914955708171384 18.6188
3.413804319727358 18.6376
3.4361305997334863 18.7813
3.4584396084414553 19.3358
3.4807661501462652 20.2438
3.503092824025881 20.7615
3.5254022288463154 21.0465
3.5477291695206588 22.0187
3.5700388426251948 22.3356
3.5923660534916446 23.7919
3.6146934007816114 38.3448
3.637003482731501 85.7724
3.6593311053109985 93.2102
3.681641464033634 53.9879
3.7039693653009733 30.1467
3.726297407241705 26.279
3.7486081875460804 25.3379
3.7709365132734978 26.174
3.793247578841633 26.4665
3.8155761917550093 27.0298
3.8378875459837216 27.3428
3.8602164494827234 27.4932
3.882545499606844 28.2826
3.9048572932539183 28.9499
3.9271866390645718 29.5176
3.9494987298666713 29.9988
3.971828374764527 30.6511
3.9941581705403255 30.7553
4.016470713506008 31.4227
4.038800813471445 32.4067
4.061113662089144 32.7972
4.0834440696459176 33.5441
4.105774632334751 33.7042
4.128087945865126 34.2894
4.150418821249301 35.7202
4.172732448931298 37.0534
4.195063640413578 38.5759
4.2173775856475215 42.3377
4.239709096631102 72.0835
4.262040768704612 227.076
4.284355196706267 301.539
4.306687193387355 194.64
4.329001947444346 78.361
4.35133427213731 48.0339
4.373666762177566 44.6543
4.395982011761091 44.1472
4.418314834921175 45.6228
4.44063041906622 53.331
4.4629635787515625 62.912
4.4852969080429785 63.3724
4.5076130004776225 53.5257
4.529946671403969 50.1359
4.552263106909177 50.2409
4.574597122877047 51.1931
4.596931312711224 52.3496
4.619248269273446 53.4931
4.6415828092605835 54.5982
4.663900117405352 55.4141
4.686235010953232 56.8819
4.708552674085913 57.979
4.730887924602802 59.5777
4.753223354952695 60.7926
4.775541557023902 62.3183
4.797877349456786 63.7746
4.820195915032126 65.8929
4.842532072957498 67.5958
4.864868414979744 69.4841
4.88718753227192 71.6211
4.909524244902505 73.3636
4.931843734218147 74.9272
4.954180820867835 77.4576
4.976518095879839 81.1836
4.998838149695359 83.7949
5.021175803844231 87.2633
5.043496238205739 89.7905
5.065834274903528 94.7708
5.088172504230693 99.4501
5.1104935158799565 106.37899999999999
5.132832132875765 127.665
5.155153533596801 169.17700000000002
5.1774925416746225 201.692
5.199814334878411 350.19199999999995
5.2221537374521505 1005.11
5.244493338631803 2887.53
5.266815727034316 7727.87
5.289155727832427 12555.1
5.311478517248165 8872.58
5.333818921080011 2795.36
5.356159527788849 531.512
5.3784829252032536 182.41
5.400823940070432 142.815
5.423147747031976 127.67299999999999
5.445489173474152 118.321
5.467830807066149 112.436
5.490155234831516 108.32700000000001
5.512497285125229 105.397
5.534822130975162 103.566
5.557164601388673 101.8
5.579489868738879 98.9425
5.601832762690846 98.1703
5.6241758697774475 97.6708
5.646501775867269 96.3946
5.668845311622074 94.3615
5.691171647754637 93.9914
5.713515615597765 92.6796
5.735859800852677 92.0239
5.758186788542988 91.4356
5.780531411018185 91.6862
5.802858837297399 90.8024
5.825203900414495 91.1246
5.8475491852224 91.494
5.869877275883075 91.4765
5.892223006467101 92.9628
5.914551544266608 94.5118
5.936897724049891 97.2948
5.959244129804903 103.079
5.981573344815301 121.007
6.0039202049061 206.024
6.026249875609095 455.54699999999997
6.04859719346037 976.9630000000001
6.070927323278297 2208.03
6.093275102315365 4525.98
6.115623113320588 5416.57
6.137953938319995 3262.38
6.160302415650845 948.623
6.182633708324452 222.791
6.2049826554078376 111.81200000000001
6.227331838745022 92.0867
6.249663839443684 85.1549
6.27201349767565 82.1021
6.294345974611799 88.2918
6.316696111167083 98.6345
6.339046488263839 93.1142
6.361379686074702 79.0774
6.383730546639482 71.5654
6.406064229255215 68.6513
6.428415576718203 67.7815
6.450749747566656 66.8289
6.47310158535871 65.697
6.495453669698332 64.9908
6.517788579421056 64.7448
6.540141159237969 63.7457
6.562476565766648 63.2094
6.5848296444934045 62.7555
6.607182974060425 62.6142
6.6295191323281015 62.7898
6.651872965955752 65.6145
6.6742096296068985 90.1013
6.6965639707294615 132.499
6.71891856698715 133.31799999999998
6.741255995248479 92.3025
6.763611104154477 67.156
6.785949046381137 59.948
6.808304671371482 58.0948
6.8306605557940046 58.0981
6.852999275508618 57.3015
6.875355681171544 57.2776
6.897694923437771 57.0309
6.92005185377892 56.8187
6.9423916220322655 56.5812
6.964749080490181 56.3053
6.987106804399774 56.0278
7.009447368180821 55.9028
7.031805625367033 55.4988
7.054146723727803 55.6509
7.076505517631004 55.1596
7.098864581288365 55.5008
7.121206488070854 54.9284
7.143566093607822 54.9344
7.165908543567245 55.0247
7.188268694426048 55.4159
7.2106291193438095 55.2372
7.232972390625943 56.4244
7.255333366030969 69.388
7.277677189091925 120.54299999999999
7.300038718428332 164.567
7.322400526130865 140.53799999999998
7.344745183422596 87.6282
7.367107550224791 61.6673
7.389452767901992 56.3525
7.411815697249891 55.3176
7.434161478756298 54.3671
7.456524974096713 54.297
7.478888753837185 54.146
7.501235387657368 54.5505
7.523599738562711 54.5412
7.545946944825532 54.8777
7.568311870344528 55.4696
7.5906770845765665 55.3354
7.613025156078678 56.693999999999996
7.635390950099687 57.6955
7.657739602662809 57.1722
7.680105979923558 55.7985
7.702472650212829 56.0594
7.724822180948224 55.9069
7.747189439655568 55.9947
7.769539560075357 56.208
7.791907410653562 56.8652
7.81425812420825 56.8055
7.836626570110925 56.8002
7.858995315087906 57.6775
7.881346924933401 57.8429
7.903716270417482 58.2117
7.926068482028405 58.6177
7.948438431475253 58.9875
7.9708086843180235 59.8282
7.993161805171116 60.3527
8.015532667162402 60.7825
8.037886398416653 61.5281
8.060257873014221 61.8388
8.082629655331942 62.5892
8.104984308787587 63.891000000000005
8.127356708900503 67.1128
8.149711981398308 72.4106
8.172085002766314 74.399
8.194458336181368 71.2765
8.216814543847752 69.4787
8.23918850371002 69.4807
8.26154533906492 70.12
8.283919928836452 71.8868
8.306277395339652 72.7417
8.328652618483376 74.0575
8.351028159736202 75.9244
8.373386579575245 77.9869
8.395762759396959 79.8859
8.418121819038275 85.1845
8.440498640894003 97.8277
8.462875785192262 111.156
8.485235811156207 123.527
8.507613602688501 165.726
8.529974277114228 254.805
8.552352719347912 394.30800000000005
8.574731488360351 656.676
8.59709314210385 1202.35
8.619472567021075 1917.95
8.64183487789147 2216.05
8.664214962183097 1787.49
8.686577933647762 918.673
8.708958680784317 353.37800000000004
8.731339760774953 155.45
8.753703729764451 108.99600000000001
8.77608547780821 98.6826
8.798450116065078 94.9412
8.820832535634787 92.06299999999999
8.843215292401656 90.507
8.865580941199045 89.319
8.887964374703538 88.3532
8.910330701447199 89.535
8.932714815164482 91.5784
8.955099270424924 90.1716
8.977466620733543 87.4949
8.999851761421976 84.7773
9.022219798361645 83.3372
9.04460562795561 82.8061
9.066991803441677 82.9312
9.089360876979615 82.8748
9.111747746589993 82.25200000000001
9.13411751544971 81.472
9.156505082664324 81.4091
9.178875550323522 82.0929
9.20126381862328 82.208
9.223652438908596 82.7786
9.246023961427412 82.7802
9.26841328802173 81.94200000000001
9.290785518039224 81.6329
9.313175554425882 82.1716
9.335565947154315 82.1764
9.357939245086508 82.4921
9.380330352834827 82.531
9.40270436697103 82.9112
9.425096193225055 82.8288
9.447488380180165 83.8385
9.469863475295412 84.2485
9.492256385987508 84.46600000000001
9.514632206018318 84.8722
9.537025843935714 85.5345
9.559402392368193 86.2665
9.581796761000229 87.2485
9.604191496441521 88.0184
9.626569144158516 91.3064
9.648964615551032 95.5375
9.671343000390081 97.3843
9.693739211225699 95.1305
9.716135793237463 92.8118
9.738515290448102 92.6139
9.760912617143402 93.7374
9.783292860202891 94.9887
9.805690935076182 96.5394
9.828089385495742 97.4721
9.850470754023561 99.6042
9.872869957865444 107.338
9.89525208097539 121.845
9.917652041736662 133.506
9.940052382417589 134.422
9.962435644102392 141.283
9.984836746950979 176.59599999999998
10.007220771957746 242.798
10.029622640473708 347.51199999999994
10.052007432299963 526.937
10.074410069984072 822.645
10.096813093716005 1281.94
10.119199042482517 1781.13
10.141602840636468 2010.93
10.163989564971628 1587.32
10.186394141051062 874.873
10.208799107559706 375.917
10.231187001965623 178.89
10.253592751657669 124.141
10.275981430388155 112.265
10.298387966769793 111.9
10.320794897965431 114.31299999999999
10.343184759907361 113.134
10.36559248305461 108.11399999999999
10.387983138083852 104.255
10.410391656691655 106.71799999999999
10.432800574501677 118.008
10.455192425893369 135.084
10.47760214443012 160.71200000000002
10.499994797678786 204.33700000000002
10.522405320453982 282.536
10.54479877906917 400.971
10.567210109595656 516.369
10.5896218454736 582.529
10.612016518879773 502.546
10.634429067781074 343.522
10.656824555333241 190.65900000000002
10.679237920773568 119.219
10.701651695961992 94.7779
10.724048411481384 88.7275
10.746463008485165 86.2147
10.768860546937125 84.6971
10.791275969274796 82.8943
10.81369180576079 81.7703
10.836090585366925 80.4388
10.858507252467449 79.5201
10.88090686379991 78.7183
10.903324365036394 78.367
10.925724811614439 78.1954
10.948143150509463 79.0887
10.970561909719066 78.3479
10.992963615930844 76.3142
11.015383218085756 74.4591
11.037785768347074 73.1842
11.06020621697282 72.6452
11.082627090322113 71.9425
11.105030913430326 71.7989
11.12745263854165 72.2078
11.149857314510728 75.5865
11.172279894912576 81.0112
11.194702904450653 81.4736
11.217108866490921 77.3875
11.239532736615194 73.4369
11.26193956033512 71.5676
11.284364294577085 69.6804
11.306789462371718 68.2046
11.329197585398376 67.1818
11.351623622610898 66.8663
11.37403261614354 65.7689
11.396459526308487 65.7708
11.418869393879497 65.5349
11.441297180532617 65.0887
11.463725406927658 64.6425
11.486136592353875 64.6103
11.508565700543707 65.285
11.530977768845315 67.01100000000001
11.553407762368774 67.6744
11.575838200059769 67.2668
11.598251599479612 65.1728
11.620682927815501 64.043
11.64309721895548 63.4317
11.665529441478206 62.9506
11.687962112597958 62.8498
11.710377748130886 62.8411
11.732811318753434 62.8155
11.755227854859067 62.7002
11.777662328529495 62.6947
11.800079768750786 62.437
11.822515149015453 62.6224
11.844950984084935 62.8128
11.867369787303163 62.2061
11.889806534289491 62.3738
11.912226250487029 62.6735
11.934663912939751 62.8712
11.9571020346363 62.7246
11.979523127133968 62.9267
12.001962169624331 63.5399
12.024384183972964 64.6423
12.046824150809913 67.5447
12.069264581333726 72.9468
12.091687985297767 78.9749
12.11412934550045 88.1558
12.136553680195208 103.331
12.158995973632788 125.484
12.181438735204349 153.602
12.20386447284199 183.732
12.226308172985636 207.735
12.24873485024193 201.835
12.271179492516982 163.855
12.293607112949127 123.164
12.316052700916226 92.1106
12.338498763250042 77.39399999999999
12.360927805303868 69.5863
12.383374818673879 66.2233
12.405804812803074 64.5182
12.428252780773262 64.2035
12.45070122756722 64.0763
12.473132656675375 63.9384
12.49558206341869 64.1699
12.518014453510101 64.3324
12.540464823770117 64.3136
12.562915677315177 64.5602
12.58534951575545 65.1668
12.607801338171472 66.9869
12.630236146511358 72.1749
12.652688941369085 76.7172
12.675124723177234 77.1032
12.697578494048786 73.7473
12.720032754458185 69.4538
12.742470003354093 67.8171
12.764925245138771 67.8593
12.787363476431278 67.9313
12.809819703166806 68.2345
12.83227642391173 68.9436
12.854716135692716 69.5616
12.877173846755147 70.6002
12.899614549869717 70.5228
12.9220732548287 71.5363
12.94453245827299 72.0505
12.966974655289818 72.9709
12.989434858002571 73.7692
13.011878055298721 74.5129
13.034339260862497 75.5623
13.056800969391883 77.0638
13.079245674017244 79.0088
13.101708390774869 80.805
13.12415410463411 87.9193
13.146617833206086 99.7877
13.169064559883248 112.557
13.191529303857127 126.637
13.213994557076367 150.18
13.236442809902437 186.06
13.258909083908291 242.523
13.28135835851934 311.073
13.30382565690295 382.051
13.326293469022952 438.741
13.348744283242008 428.534
13.371213125129904 353.795
13.39366497011003 253.885
13.416134845360597 168.014
13.438605238843131 120.99
13.46105863690397 103.98100000000001
13.483530069144786 104.78
13.505984506951902 111.098
13.528456981549432 120.844
13.550929978879088 136.075
13.573385983253365 159.091
13.595860028340867 198.66400000000002
13.618317081455832 251.755
13.64079217790333 309.171
13.663250283359057 359.85400000000004
13.685726434770173 375.51099999999997
13.708203115221277 335.409
13.730662806148091 255.058
13.75314054697177 176.578
13.775601299246777 122.678
13.798080104050406 94.7109
13.820559442405358 84.5533
13.843021793671388 81.2329
13.865502201420897 79.8606
13.887965623051947 79.1559
13.910447103807167 78.1935
13.932929122629764 76.9976
13.955394156785959 76.68
13.977877254034569 75.7196
14.000343367582113 75.0261
14.022827546871707 74.242
14.045294743423524 73.4515
14.06778000837062 73.1255
14.090265817715476 72.5867
14.112734645763819 72.4983
14.13522154619454 72.2389
14.157691466286913 72.0277
14.180179461423874 71.9099
14.202668005486178 71.4395
14.22513957064374 70.747
14.247629214846473 70.2315
14.270101881097517 70.3037
14.29259262906496 70.3187
14.315083930490205 70.8449
14.337558255389705 71.1986
14.360050666019726 70.8885
14.382526101071944 70.0111
14.405019624534942 69.0412
14.427513705993134 68.8629
14.449990813291825 68.9783
14.47248601302899 68.6124
14.49496423954951 68.5399
14.517460561197822 68.8488
14.539939910570322 68.5971
14.562437357763558 68.829
14.58493536931253 70.1165
14.607416409993311 70.69
14.62991555254159 71.3205
14.652397725157423 71.4231
14.674898002342799 70.8618
14.697398848433282 70.3493
14.719882725991326 70.8688
14.74238471217934 71.7436
14.764869730765593 74.9575
14.787372860692983 78.847
14.809876564079925 83.3077
14.83236330125751 88.7099
14.854868153850365 97.5462
14.877356041159485 110.619
14.899862046604186 129.861
14.922351087688757 155.80700000000002
14.944858249632887 185.61
14.967365991421232 211.785
14.989856770231246 226.299
15.012365673994204 218.11900000000003
15.03485761569738 184.523
15.05736768508665 143.431
15.07987833888692 110.15100000000001
15.102372032001655 87.5554
15.124883856909658 75.7254
15.14737872204565 71.6749
15.169891721717274 70.3517
15.192405310371893 70.2321
15.214901940621196 70.524
15.237416709527137 70.6037
15.259914520936249 70.8179
15.282430473753607 70.085
15.304947020131227 68.8841
15.327446610371178 67.8204
15.349964346154254 67.1955
15.372465126703139 66.8593
15.394984055556009 66.598
15.417486030076159 66.3153
15.44000615566487 65.8182
15.462526881230803 65.9308
15.485030653812652 66.1698
15.507552581617434 66.021
15.530057557334603 66.2097
15.55258069104857 66.0243
15.575104429329837 66.0151
15.597611216864632 65.6782
15.620136166564563 66.0365
15.6426441664095 66.5366
15.665170331202765 68.654
15.687697105158826 72.1323
15.710206930593545 75.6528
15.732734925158933 79.9263
15.755245972089478 86.0424
15.77777519094324 94.7737
15.800287463046663 107.899
15.822817909869592 127.35600000000001
15.84534897229804 148.914
15.867863089299354 173.59
15.890395385222186 190.614
15.912910736597423 195.205
15.935444269699861 182.071
15.957978423016485 153.767
15.980495633101265 120.45100000000001
16.003031029129367 94.5787
16.02554948280019 75.1267
16.048086125229432 66.9462
16.070623392487107 64.7688
16.09314371869582 64.23899999999999
16.11568223789321 63.4861
16.13820381691126 62.3699
16.160743591742527 61.1985
16.183283996022084 60.3572
16.205807461423195 59.5129
16.228349126881973 58.6698
16.25087385432698 58.8542
16.27341678466365 58.1981
16.29594277784926 58.1905
16.31848697676433 58.2619
16.341031811604868 58.7732
16.36355971058487 58.792
16.3861058195587 58.7466
16.40863499352978 57.6157
16.431182380342005 56.7526
16.453730407713202 56.0586
16.476261501364792 55.6931
16.498810812136167 55.3747
16.52134319004079 55.6879
16.54389378792203 55.2485
16.566445031001553 55.0364
16.588979342490088 55.0657
16.61153187824822 54.9517
16.634067483263312 54.8466
16.656621315414416 54.7028
16.679175797408888 54.5152
16.701713349928728 54.6397
16.72426913389191 54.731
16.74680798922351 54.7093
16.76936507887444 54.9113
16.791905240734874 54.8649
16.814463639794468 54.8256
16.837022695210294 54.6505
16.859564824093756 54.9575
16.882125194503903 55.7785
16.904668639217885 56.5915
16.927230328348003 56.6488
16.949792678493612 56.6306
16.972338104193863 56.2902
16.994901778652235 55.6186
17.017448529496576 55.6043
17.040013531998152 55.5381
17.06257920018044 56.1861
17.0851279459922 56.9388
17.107694947817667 57.8454
17.130245028099072 58.7358
17.15281336730298 60.0426
17.17536478578733 61.5028
17.19793446610687 63.7277
17.220504818648422 66.7018
17.243058251703697 69.8339
17.265629950971032 74.7529
17.288184731571736 79.2283
17.310757781306908 83.5761
17.33333150794385 84.509
17.355888317140174 82.2733
17.37846339986244 76.5287
17.401021565958885 70.2468
17.42359800851343 65.013
17.44617513265564 61.4291
17.468735341390783 59.8806
17.491261035594565 58.924
17.51396340099364 58.7247
17.536490463869136 59.0565
17.559018209820174 58.9619
17.58154663977963 59.1825
17.604251766089718 59.2028
17.626781572227713 59.2525
17.64931206518155 59.5767
17.671843245885103 60.2647
17.69455114821572 60.4138
17.717083712612634 60.7195
17.739616967569667 60.8524
17.762150914021706 61.1152
17.78486160749854 61.1664
17.807396945166804 62.0538
17.829932977143503 62.7186
17.85246970436452 64.1263
17.875183204129467 66.07300000000001
17.897721330097664 68.4284
17.920260154126645 70.815
17.942799677153296 73.768
17.9655159983646 77.3046
17.988056927677544 82.5909
18.010598558807683 90.5319
18.033140892692916 100.516
18.05586005052525 112.14399999999999
18.07840379824407 123.97
18.10094825154059 135.031
18.12366954819864 142.405
18.146215420998306 141.282
18.16876200220057 130.576
18.191309292745153 115.815
18.214033452627167 101.17
18.236582170236648 90.6678
18.259131600016456 85.8499
18.281681742907335 86.281
18.304408781233683 90.8426
18.32696035875955 96.0402
18.349512652227624 101.363
18.372065662579683 105.525
18.394795594587553 106.459
18.41735004715306 102.094
18.43990521943684 94.898
18.46246111238171 85.3397
18.485193953325208 75.9384
18.507751296070428 69.2715
18.530309362314178 65.5504
18.552868153000343 63.4246
18.57560391815056 62.1351
18.59816416623245 61.7479
18.620725141597372 61.0994
18.643286845190268 60.641000000000005
18.666025549835414 60.3563
18.688588718427933 59.6849
18.711152618092243 59.5638
18.73389353884365 59.2863
18.75645890921984 58.9499
18.77902501351406 58.5484
18.801591852673102 58.5224
18.824335739722738 57.9433
18.846904057212626 57.8531
18.8694731124168 57.519
18.89204290628315 57.5487
18.914789774966803 57.2813
18.937361054791623 57.2497
18.959933076131318 56.8616
18.982505839934877 57.0913
19.00525570560582 57.0946
19.027829963004184 57.0389
19.05040496572238 56.8655
19.072980714710468 56.9752
19.095733592739563 56.9026
19.11831084296757 57.5164
19.140888842324735 57.6433
19.16346759176222 58.0632
19.18622349753803 58.6338
19.208803755869358 59.4058
19.231384767143577 60.6562
19.253966532312948 62.1711
19.276725481241822 64.2235
19.29930876296784 67.1317
19.3218928014549 70.2142
19.34465404436217 73.7025
19.36723960516257 76.3643
19.389825925592426 77.1091
19.412413006605938 75.84100000000001
19.43517731967805 71.8397
19.457765930683355 66.9919
19.48035530514408 62.5265
19.50294544401556 58.7873
19.525712842708348 56.2552
19.54830451925909 55.0875
19.570896963095727 54.0746
19.593490175174704 53.6463
19.616260674962184 53.6959
19.638855432416964 53.4462
19.661450960992624 53.6242
19.68404726164677 53.4796
19.706820878021247 53.2482
19.729418731756834 53.4088
19.752017360452857 53.3039
19.77461676506804 53.2967
19.797393513540218 53.3944
19.819994478951667 53.7424
19.84259622316767 54.458
19.8651987471481 54.691
19.887978643247177 55.0852
19.91058273574792 55.381
19.933187610901943 56.1311
19.955969879466828 57.1694
19.97857632894404 58.8769
20.00118356396599 60.6059
20.023791585494575 62.538000000000004
20.046577028914875 65.2308
20.069186632506966 67.7517
20.091797025500632 69.5531
20.114408208858933 69.8435
20.137196842715273 69.3923
20.159809615886765 67.7816
20.18242318232135 64.9127
20.20503754298326 62.9555
20.227829382875154 61.9101
20.250445341109344 62.0761
20.27306209647285 63.0125
20.29567964993108 64.0843
20.31847471147704 65.0813
20.34109387027612 65.328
20.363713830075454 65.1375
20.386334591841646 63.4505
20.409132890679302 60.9148
20.431755265564437 57.7998
20.454378445325528 55.0514
20.477002430930366 53.2052
20.499803982716553 52.1457
20.522429589228004 51.2155
20.54505600449589 50.9943
20.567683229489194 50.8391
20.590488049900088 50.4936
20.61311690359731 50.1736
20.63574656993626 49.8844
20.658553853717297 49.6244
20.681185154618298 49.5134
20.703817271080066 49.4657
20.72645020407368 49.0981
20.749260783967177 49.0967
20.771895359337133 48.9165
20.794530754161617 48.8501
20.817166969412938 48.8472
20.83998086114876 48.6636
20.86261872660049 48.4973
20.885257415405402 48.6272
20.90789692853701 48.4633
20.930714147864748 48.3703
20.953355319030678 48.4599
20.97599731745334 48.5129
20.99864014410749 48.4397
21.021460706796564 48.4814
21.044105199328826 48.6949
21.06675052302631 48.86
21.089396678865015 49.2135
21.112220600704806 49.2701
21.134868430275347 49.653
21.15751709492456 49.8566
21.180166595629693 50.3132
21.202993892429635 50.9005
21.22564507473034 51.143
21.24829709602816 51.5326
21.27112693608965 51.5089
21.293780644891275 51.2437
21.316435195634053 50.4755
21.339090589297417 49.8752
21.361923832041875 49.4033
21.384580921090404 48.7507
21.407238856007325 48.3868
21.429897637773326 48.4595
21.45273429906592 48.5106
21.475394784108598 48.5039
21.498056118951983 48.3016
21.520718304578022 48.4852
21.543558400304388 48.6476
21.566222297108816 48.653999999999996
21.58888704765135 48.7679
21.61155265291521 49.1218
21.63439619898156 49.6556
21.657063523335786 49.7719
21.67973170537063 50.3307
21.7024007460706 50.8246
21.72524775840385 51.7002
21.747918526116475 52.6609
21.770590155457388 53.8692
21.79326264741238 55.4299
21.816113141960237 57.3515
21.838787368860547 59.2886
21.861462461341976 61.178000000000004
21.884315579735777 63.1828
21.90699241312273 64.2296
21.92967011506078 64.9502
21.95234868653799 64.4914
21.9752053151131 63.0718
21.997885635446785 60.9486
22.020566828293532 59.025
22.04324889464272 57.4428
22.066109049404666 56.4458
22.088792872571794 56.0006
22.111477572219204 55.9976
22.1341631493376 56.1232
22.157026846313123 55.9424
22.179714188221507 55.059
22.202402410582668 54.0595
22.22509151438863 52.6404
22.24795876962584 51.2146
22.270649646204486 50.273
22.293341407213727 49.6293
22.316034053646906 49.1276
22.338904883215342 49.0087
22.36159931041458 48.9258
22.38429462602756 48.8724
22.40699083104897 48.7028
22.429865251039757 48.9538
22.452563244831367 48.7221
22.47526213102522 48.7576
22.49813925616515 48.7746
22.520839937143307 48.5261
22.543541513520587 48.5517
22.56624398629403 48.408
22.589124730075895 48.3853
22.611829005656723 48.5428
22.63453418063466 48.6408
22.657240256008077 48.7669
22.680124634582935 49.0185
22.70283252079775 49.2718
22.725541310413075 49.5197
22.74825100442868 49.8626
22.771139033969575 50.1189
22.79385054687155 50.3313
22.81656296718292 51.1627
22.83927629590484 51.8827
22.862167992606945 52.9648
22.88488314827121 54.2537
22.907599215359284 55.1293
22.93031619487366 56.4784
22.953211574954405 57.3461
22.975930389478226 58.041000000000004
22.998650119445763 58.0426
23.02137076586092 57.167
23.044269845560063 55.7976
23.06699233506288 54.3212
23.089715744034912 52.4114
23.112617610931565 50.8403
23.135342869061212 49.8574
23.158069049684816 48.9279
23.1807961538087 48.8673
23.20370174880544 48.8156
23.226430710184808 48.7141
23.249160598093425 48.7231
23.271891413539002 48.7366
23.294800752937697 48.8549
23.31753343374794 49.0829
23.340267045128353 49.0576
23.36300158808808 49.3583
23.38591468821339 49.5267
23.408651104658304 50.129
23.431388455719986 50.8163
23.454126742409 51.552
23.4770436196085 52.8087
23.499783787914662 54.0141
23.522524894889884 55.1697
23.54526694154616 56.0675
23.56818761219047 57.3357
23.59093154860734 57.9578
23.613676427751283 57.9398
23.636422250635754 56.888000000000005
23.659346731118656 55.2214
23.68209445191868 53.2357
23.704843119509587 51.1769
23.72759273490623 49.3245
23.750521041644767 47.9659
23.77327256312355 46.958999999999996
23.796025035462787 46.5819
23.818956224555475 46.0288
23.841710609113413 45.8424
23.86446594758979 45.6763
23.887222241002014 45.4424
23.910157285144578 45.1078
23.932915498962537 45.0908
23.955674670778713 45.0041
23.978434801611975 44.8472
24.001373717286125 44.7188
24.024135776723917 44.5164
24.046898798245582 44.4901
24.06966278287146 44.4621
24.092605586582614 44.1829
24.115371508023642 44.0541
24.1381383956401 44.0877
24.16090625045381 44.03
24.183852958731244 43.9789
24.206622758582608 43.7419
24.229393528706886 43.5295
24.252165270127392 43.5045
24.27511589952438 43.5675
24.297889594216997 43.3773
24.32066426328598 43.1781
24.34343990775613 43.0836
24.36639447485003 43.1268
24.38917208083877 43.1135
24.41195066531332 43.0238
24.43490819850244 43.0269
24.457688750692377 42.903
24.48047028445616 42.9943
24.503252800821233 43.0163
24.526214300784112 43.0396
24.548998793132213 43.0153
24.57178427117417 43.0231
24.59457073593893 43.1204
24.617536219319863 42.8898
24.64032466834748 42.7852
24.663114107195035 42.757
24.685904536893013 42.4102
24.708874020360852 42.4333
24.731666442613744 42.4008
24.754459858818787 42.3359
24.777254270007962 42.3004
24.80022777025625 42.3553
24.82302418230472 42.2478
24.845821592443674 42.2442
24.86862000170663 42.1503
24.891597535453727 42.0709
24.914397953892728 42.1602
24.93719937456671 42.0553
24.96000179851076 42.2576
24.98298338249997 42.4955
25.00578782394922 42.6282
25.028593271784167 42.6802
25.05157790644186 43.1284
25.07438537804115 43.4533
25.097193859145293 43.6299
25.120003350792075 43.7624
25.142992065061257 43.9829
25.165803588823465 44.2882
25.18861612625217 44.6824
25.211429678386736 44.6878
25.234422489079968 44.6848
25.257238081693636 44.7163
25.280054692141732 44.8004
25.3028723214652 44.7836
25.325869245420463 44.9969
25.348688923599397 44.9886
25.371509623787006 44.9349
25.394331347025812 44.5601
25.41733240110666 43.9279
25.440156181590016 43.3092
25.46298098826268 42.801
25.48580682216873 42.1923
25.50881202326435 41.548
25.53163992281684 41.3508
25.55446885274561 41.0514
25.577298814096377 40.8993
25.600308179121807 40.857
25.623140214533745 40.7654
25.64597328451537 40.6135
25.66898578564376 40.4354
25.691820936010206 40.5765
25.714657124097695 40.415
25.737494350954734 40.6698
25.760511045684957 40.5121
25.783350361364224 40.4448
25.806190718969255 40.5151
25.82903211955018 40.6708
25.852053024868923 40.7146
25.874896522722523 40.6859
25.897741066713106 40.6727
25.920586657892454 40.6846
25.943611790812668 40.7682
25.966459487728237 40.9656
25.989308234998564 41.0278
26.01215803367705 41.2094
26.03518741123814 41.4918
26.05803932412957 41.6352
26.080892291600094 41.5492
26.10374631470478 41.6811
26.12677995397268 41.738
26.14963609978026 41.5437
26.172493304397875 41.3581
26.19535156888223 41.0042
26.218389486949604 40.5502
26.241249882640123 40.4686
26.26411134137826 40.2737
26.28715248187403 40.3081
26.31001607820869 40.0067
26.3328807407756 39.8479
26.35574647063438 40.0927
26.37879191991473 40.1425
26.401659795896734 40.0929
26.424528742360263 40.1918
26.447398760366614 40.3969
26.470448535598294 40.4159
26.49332070826805 40.7903
26.516193955675355 41.0169
26.53906827888316 41.3161
26.562122397260108 41.5126
26.584998883685063 41.6735
26.607876449110325 42.013000000000005
26.63075509460056 42.1233
26.65381357334404 42.1937
26.67669439061878 42.1315
26.699576291163382 41.998999999999995
26.722459276044212 41.8463
26.745522132402975 41.4923
26.768407297649354 41.3536
26.791293550442003 41.0399
26.814180891848974 40.715
26.837248143099337 40.5127
26.860137673466657 40.439
26.88302829566349 40.1696
26.90592001075963 39.9019
26.92899167420566 39.8093
26.951885586870763 39.4552
26.974780595655517 39.2694
26.99785558178161 39.1029
27.020752794605112 39.0458
27.043651106772522 38.8175
27.06655051935668 38.7651
27.089629948036183 38.5643
27.112531573292053 38.6817
27.135434302194138 38.7012
27.158338135817015 38.5656
27.181422024430987 38.4899
27.204328079372566 38.2959
27.22723524226965 38.4896
27.250143514198573 38.6336
27.273231880156334 38.4782
27.296142382065014 38.3208
27.319053996245536 38.2772
27.341966723775965 38.4148
27.365059584515222 38.4732
27.38797455070062 38.5837
27.410890633481237 38.4338
27.433807833936918 38.4363
27.456905206923906 38.4421
27.47982465472398 38.4644
27.502745223449743 38.5817
27.525666914182825 38.6922
27.548768816912457 38.6437
27.571692763693633 38.5202
27.59461783573812 38.4335
27.617723149491244 38.1812
27.640650484125285 37.9947
27.66357894728264 38.0859
27.686508540048052 38.0087
27.709618414237887 37.905
27.732550278321757 37.6501
27.755483275279115 37.8046
27.778417406196485 37.8037
27.801531858397514 37.8398
27.824468269376716 37.702
27.847405817586786 37.6432
27.870344504116094 37.926
27.893463551932008 38.0218
27.916404527281053 38.2546
27.93934664422563 38.2545
27.962289903855886 38.5932
27.98541356491974 38.7124
28.00835912214229 38.836999999999996
28.03130582533231 39.0115
28.054253675581805 39.0668
28.077381967556104 39.0698
28.100332124185126 38.8805
28.123283431160893 38.9322
28.146235889577238 38.8111
28.169368830154156 38.6007
28.192323603752033 38.4494
28.215279532083304 38.1445
28.238415973016764 37.966
28.261374223145094 37.9028
28.284333631303806 37.5103
28.307294198589954 37.4756
28.330435319167677 37.171
28.353398217078915 36.8617
28.376362277420153 36.6202
28.39932750129032 36.4823
28.422473319286713 36.3574
28.44544088262495 36.2699
28.468409612800283 36.2472
28.491379510913497 35.9766
28.51453004413313 35.9205
28.53750229057244 35.8984
28.56047570826344 35.8181
28.583450298308804 35.9449
28.606605564586562 35.6855
28.629582511831156 35.7001
28.65256063474956 35.6651
28.675539934446338 35.6927
28.698699951647605 35.5164
28.72168161743193 35.3906
28.74466446331978 35.4958
28.767648490417624 35.4121
28.790813276438353 35.3421
28.813799678527303 35.3606
28.836787265157085 35.4726
28.859955641890075 35.4077
28.882945610203045 35.4893
28.905936766392035 35.2629
28.928929111566863 35.2408
28.952102288520145 35.1152
28.975097024308607 35.1154
28.998092952423807 34.9144
29.021090073977508 34.9339
29.04426806913204 34.7384
29.067267590245258 34.6798
29.090268308143695 34.6157
29.11327022394099 34.5657
29.13645305530891 34.4635
29.159457379627167 34.2391
29.18246290519685 34.2421
29.20546963313352 34.2868
29.22865731875826 34.2579
29.25166646419296 34.3076
29.27467681535305 34.1722
29.29768837335608 34.2565
29.320880931312562 34.3349
29.34389491580634 34.3022
29.366910110507334 34.2357
29.38992651653503 34.150999999999996
29.41312396492981 34.2888
29.436142806456754 34.161
29.45916286268059 33.9749
29.48236399319994 33.9606
29.50538649169417 33.6272
29.528410208259935 33.6466
29.55143514402014 33.4393
29.574641196749695 33.4125
29.597668583816574 33.2695
29.6206971934585 33.0932
29.64372702680042 33.139
29.666938019934474 33.0097
29.689970313635285 32.9076
29.713003834422636 32.9811
29.73603858342347 32.887
29.759254535188578 32.938
29.78229175361658 32.8172
29.80533020365064 32.8784
29.82836988641968 32.9161
29.85159081507472 32.7655
29.874632976355343 32.6775
29.89767637376955 32.8635
29.920721008448314 32.7512
29.9439469322847 32.5654
29.96699405457564 32.5414
29.9900424175358 32.5467
30.013092022298157 32.4744
30.03632295963995 32.4458
30.059375061131373 32.4723
30.08242840783577 32.4519
30.105483000888153 32.5397
30.128718970092244 32.4157
30.151776069006917 32.3744
30.17483441768648 32.4399
30.198074175317235 32.409
30.221135036724256 32.3786
30.24419715131772 32.3396
30.267260520236203 32.2555
30.290505341942243 32.3363
30.313571232750228 32.3123
30.336638381310948 32.2777
30.35970678876503 32.1942
30.38295669299435 32.1453
30.40602763151657 32.0894
30.429099832366074 32.0625
30.452173296685572 31.9968
30.47542830191959 31.9651
30.498504306502497 31.9962
30.521581577995562 32.0766
30.544660117543582 32.1103
30.56792024229725 32.1638
30.59100133132069 32.0227
30.614083691845494 32.0817
30.637167325018545 32.1544
30.660432587840603 32.2164
30.683518779717886 32.1672
30.70660624769615 32.2312
30.729694992924372 32.2551
30.75296541239743 32.2959
30.77605672557558 32.1586
30.799149319462742 32.0654
30.8224236211637 31.9972
30.845518789950724 31.9121
30.868615242910597 31.859
30.891712981195973 31.7186
30.91499247215866 31.6344
30.938092794619365 31.5475
30.96119440587579 31.44
30.984297307082752 31.2901
31.00758200598383 31.2364
31.030687500658694 31.1857
31.053794288760695 31.105999999999998
31.076902371446767 31.1097
31.100192296997445 31.0961
31.12330298246119 31.0287
31.14641496599209 30.8213
31.169528248749216 31.0285
31.19282341969534 30.9069
31.215939314557186 30.9079
31.239056512134788 30.8936
31.262175013589378 30.8441
31.28547544871168 30.8391
31.30859657161541 30.8213
31.331719001892175 30.8908
31.35484274070538 30.9426
31.378148458819545 30.9435
31.401274828443725 30.9454
31.424402510106933 30.8761
31.447712205419993 30.8963
31.470842524931633 30.8366
31.493974159989783 30.7731
31.51710711176168 30.7964
31.54042212308802 30.8046
31.563557722100917 30.7363
31.586694641341655 30.5559
31.609832881979628 30.4644
31.63315322823208 30.4624
31.656294125521327 30.3735
31.679436347728515 30.2845
31.70257989602529 30.2164
31.725905596152327 30.0977
31.74905181052835 30.0564
31.772199354521323 30.2433
31.79534822930507 30.2304
31.818679302290967 30.2366
31.84183085259981 30.131999999999998
31.864983737233473 30.0903
31.88813795736804 30.1204
31.911474422233013 29.9428
31.934631327356435 30.0026
31.9577895715215 30.0682
31.980949155906522 30.1011
32.004291031706956 30.0093
32.027453310562606 29.8501
32.05061693318573 29.7342
32.07396288236386 29.736
32.09712920658542 29.7684
32.12029687812702 29.6318
32.14346589817093 29.5641
32.166817291729984 29.5726
32.18998902288583 29.5296
32.21316210610336 29.3228
32.23633654256711 29.2379
32.259693399663725 29.2593
32.282870556771144 29.2226
32.30604907069099 29.1336
32.329228942610065 29.1212
32.35259128243769 28.8921
32.375773884550505 28.906
32.398957848235646 28.8969
32.422143174682176 28.8456
32.445511016471215 28.7086
32.468699082679954 28.7282
32.49188851523011 28.6866
32.51507931531304 28.6801
32.538452678331 28.5934
32.56164622776311 28.5927
32.58484114831493 28.4964
32.60803744118015 28.5433
32.631416344731896 28.5125
32.654615396551876 28.3532
32.67781582427913 28.4406
32.701198898634416 28.3708
32.72440209253756 28.3444
32.747606665947124 28.2212
32.77081262006088 28.0436
32.79420126883317 28.1124
32.81740999876112 28.1465
32.840620112999424 28.0527
32.86383161274818 28.0373
32.88722585534586 28.0239
32.91044014056596 28.0354
32.933655814909734 27.9499
32.95687287957963 27.9183
32.98027273544904 27.9661
33.00349259526636 27.8995
33.026713849030116 27.8281
33.04993649794511 27.7403
33.073341986570746 27.77
33.09656744032826 27.7285
33.11979429286444 27.7254
33.14302254538647 27.7793
33.166433686291185 27.6293
33.18966475336992 27.6057
33.212897224069096 27.5205
33.23613109959831 27.6039
33.259547912343415 27.5382
33.2827846121627 27.6326
33.306022720453775 27.4909
33.32926223842861 27.4074
33.352684742614166 27.4146
33.37592709463173 27.3903
33.399170859982064 27.3045
33.422597648419426 27.1733
33.44584425514446 27.0648
33.46909227885668 27.0932
33.4923417207723 26.9849
33.51577423505344 27.0369
33.539026528130385 26.8934
33.56228024307245 26.9233
33.585535381098246 26.7972
33.60897364093058 26.7981
33.63223163992385 26.749000000000002
33.6554910656699 26.6742
33.678751919389796 26.6512
33.702195944520106 26.555999999999997
33.72545966903325 26.4393
33.74872482519663 26.4495
33.771991414233746 26.4919
33.79544122444841 26.4223
33.81871069412428 26.4036
33.84198160035767 26.378
33.86525394437455 26.3604
33.88870955949969 26.3644
33.911984794020626 26.2866
33.93526147001624 26.2938
33.958539588715006 26.2556
33.98200102861669 26.0728
34.0052820477047 26.0175
34.02856451319451 26.0299
34.05203033759056 25.9802
34.07531571090147 25.9503
34.09860253431845 25.9339
34.121890809074316 25.8145
34.145362493118924 25.8327
34.16865368561615 25.816999999999997
34.191946333164054 25.7825
34.21524043699793 25.7075
34.23871800066799 25.7052
34.26201503218366 25.5365
34.28531352370466 25.6961
34.30861347646881 25.5815
34.33209693978188 25.6093
34.3553998301885 25.6246
34.378704185565205 25.5224
34.402010007152356 25.3241
34.42549939016683 25.3604
34.44880815937748 25.314
34.472118398533134 25.2644
34.49543010887669 25.1761
34.51892543169198 25.127
34.54224009966052 25.1435
34.56555624255917 25.1192
34.58887386163339 25.034000000000002
34.61237514439016 25.0146
34.6356957311114 24.9511
34.65901779775809 24.9237
34.68252356662995 24.8895
34.705848608458616 24.9072
34.72917513396849 24.8361
34.75250314440949 24.7869
34.77601490857862 24.7337
34.799345904259795 24.6796
34.82267838863559 24.6889
34.846012362958525 24.5481
34.869530142679984 24.5763
34.89286711232212 24.5271
34.91620557568269 24.5944
34.93954553401677 24.5639
34.9630693495876 24.4413
34.986412313340814 24.4421
35.00975677584668 24.4868
35.033102738362956 24.4555
35.05663261012228 24.385
35.0799815881786 24.3765
35.10333207003229 24.2414
35.12668405694369 24.3375
35.150220005273056 24.3186
35.17357501786656 24.188000000000002
35.19693153931268 24.2218
35.220289570874385 24.1239
35.24383161619786 24.1227
35.267192683604904 24.1355
35.290555264930376 24.0185
35.314101899412165 24.114
35.33746752422433 24.0545
35.36083466676374 23.9604
35.38420332829803 23.9855
35.407756095629054 24.0387
35.43112781085063 23.9331
35.45450104888391 23.9321
35.477875810999194 23.9584
35.50143473172161 23.789
35.52481255774625 23.853
35.54819191167777 23.8285
35.57157279478914 23.666
35.595137889488406 23.7082
35.61852184675279 23.6596
35.641907337029984 23.5666
35.665294361595684 23.5826
35.68886565090076 23.5351
35.7122557598848 23.465999999999998
35.73564740699838 23.46
35.759040593519934 23.4802
35.78261809810353 23.4555
35.80601437933051 23.3664
35.829412203814705 23.3878
35.85281157283719 23.2067
35.876395313415884 23.2941
35.8997977874528 23.2252
35.92320180988546 23.218000000000004
35.946790244133936 23.1291
35.97019737933222 23.1022
35.993606066789866 23.0793
36.01701630779276 23.031999999999996
36.04061101440684 22.9569
36.06402437852291 22.9594
36.08743930005611 22.9582
36.1108557802951 22.8601
36.13445678011326 22.8385
36.15787639383515 22.7964
36.18129757014299 22.8344
36.20472031032821 22.7847
36.22832762423364 22.7684
36.25175350829375 22.7094
36.275180960119776 22.671999999999997
36.298609981005924 22.6793
36.32222362992669 22.683000000000003
36.34565580510207 22.6079
36.36908955323448 22.529
36.39252487562093 22.4163
36.416144880530226 22.5018
36.43958336764275 22.4147
36.463023432914625 22.3908
36.486465077645676 22.3283
36.51009145956204 22.4203
36.53353627947859 22.3738
36.55698268276811 22.3353
36.58043067073321 22.3272
36.60406345072071 22.1834
36.62751462435344 22.1405
36.65096738658405 22.1522
36.67460498210655 22.1543
36.69806093788647 22.1626
36.72151848619297 22.0045
36.744977628333636 22.0798
36.76862165890998 22.0006
36.79208400512205 21.9559
36.81554794910557 21.9736
36.83901349217101 21.8893
36.862663978991606 21.8087
36.88613273667352 21.7078
36.90960309738324 21.7767
36.933075062434064 21.7858
36.95673202673572 21.7191
36.98020721697122 21.6594
37.003684015502365 21.5865
37.027162423645365 21.5834
37.050825886711465 21.5433
37.07430753063053 21.4568
37.09779078812467 21.528000000000002
37.121275660513014 21.4842
37.144945643673694 21.4127
37.16843376245278 21.4158
37.19192350009803 21.4497
37.215414857931435 21.3301
37.239091382563885 21.2686
37.262585997426164 21.241999999999997
37.28608223645736 21.2513
37.309763684451696 21.1505
37.33326318851098 21.1157
37.356764320726555 21.1263
37.380267082425526 21.178
37.40395510942588 21.0637
37.42746114683234 21.0318
37.45096881771841 20.9798
37.474478123414166 20.9483
37.49817275092816 20.9278
37.52168534303452 20.8948
37.54519957395567 20.8533
37.568715445024665 20.7913
37.592416694607714 20.7268
37.61593586281424 20.7772
37.63945667518264 20.8324
37.66297913304891 20.7975
37.68668702630454 20.7078
37.710212792059274 20.6175
37.733740207334854 20.6065
37.757269273470364 20.5638
37.780983832050374 20.5447
37.80451621684926 20.4062
37.82805025654007 20.491999999999997
37.851585952464795 20.4295
37.8753071980695 20.3666
37.89884622345676 20.3143
37.92238690911902 20.3389
37.94611318753442 20.2807
37.969657210779765 20.2278
37.99320289834801 20.2508
38.016750251586465 20.1396
38.04048325513017 20.1793
38.06403395679343 20.114
38.087586328183946 20.0924
38.11114037065203 20.0722
38.13488012115898 20.0943
38.1584375229181 20.0507
38.181996599821 19.9347
38.205557353221124 19.9351
38.229303872575656 19.9676
38.2528679961576 19.9423
38.27643380031219 19.8737
38.30000128639589 19.845
38.32375459653193 19.8084
38.34732546371299 19.772000000000002
38.37089801690786 19.6838
38.39447225747609 19.6611
38.418232380377425 19.6443
38.441810012983396 19.5892
38.46538933705673 19.5872
38.488970353960084 19.6466
38.51273731166058 19.553
38.536321731567014 19.4265
38.55990784840681 19.4506
38.58367995004091 19.4219
38.60726947812959 19.3989
38.63086070726198 19.4067
38.654453638806274 19.3769
38.678232613930824 19.3322
38.70182896773327 19.2787
38.72542702806741 19.3042
38.7490267963045 19.2075
38.77281266709232 19.217
38.79641586862214 19.1285
38.8200207821842 19.0675
38.843627409152944 19.1092
38.86742019782782 19.1432
38.891030269149255 19.0916
38.914642058016156 19.0578
38.938255565806124 19.0598
38.96205529464307 18.9635
38.98567225787121 18.9455
39.00929094417078 18.8806
39.03291135492255 18.8758
39.05671804624804 18.8547
39.080341923549106 18.8235
39.103967529460334 18.7437
39.127594865365744 18.734
39.15140854155791 18.7346
39.17503935514948 18.7331
39.19867190290282 18.7037
39.22249083587951 18.6068
39.24612686969409 18.6645
39.269764641845306 18.5793
39.293404153722804 18.5143
39.317230110864074 18.4563
39.34087311998506 18.4458
39.36451787301696 18.458
39.388164371352595 18.4174
39.41199737518003 18.3155
39.43564738196752 18.2647
39.45929913825317 18.3119
39.48295264543308 18.2887
39.506792718520884 18.2478
39.530449745387216 18.2327
39.55410852735203 18.2604
39.57776906581474 18.1851
39.60161623079 18.1274
39.625280300200025 18.0818
39.64894613032202 18.0637
39.67261372255866 18.0817
39.6964680021016 18.0923
39.72013913657293 18.0788
39.74381203738292 17.9976
39.76748670593756 18.0285
39.79134812278169 17.9858
39.81502634488497 17.8695
39.83870633896685 17.9184
39.862388106436654 17.8126
39.88625668336918 17.8374
39.90994201572829 17.7747
39.933629125719285 17.7537
39.957503091207826 17.7271
39.9811937746168 17.7173
40.00488623990914 17.7548
40.02858048850006 17.6886
40.05246165409549 17.6437
40.076159487492085 17.5667
40.099859108448875 17.6042
40.123560518384345 17.5585
40.1474489070226 17.5314
40.171153913178564 17.4355
40.194860712584955 17.4431
40.2185693066637 17.4152
40.242464941335314 17.3677
40.26617714307655 17.3552
40.289891143772046 17.3495
40.3136069448471 17.3181
40.33750984859743 17.2405
40.3612292688043 17.2693
40.3849504936829 17.2681
40.40867352466194 17.1932
40.43258372059144 17.194000000000003
40.45631038219906 17.191
40.48003885420956 17.115
40.503769138055105 17.0913
40.52768664931955 17.1106
40.55142057531802 17.0745
40.57515631746428 16.9779
40.599079334038514 16.9934
40.62281872700477 16.9561
40.64655994043941 16.9272
40.67030297578061 16.9021
40.69423334835778 16.8171
40.71798004609188 16.8251
40.74172857006355 16.8099
40.76547892171441 16.8398
40.7894166736039 16.7937
40.813170699248566 16.7515
40.83692655691388 16.7438
40.86068424804498 16.7378
40.884629402612525 16.6973
40.908390779366385 16.6618
40.932153993938 16.6299
40.95591904777605 16.608
40.979871628443995 16.5125
41.003640379561936 16.5184
41.02741097430883 16.4977
41.05118341413683 16.5115
41.075143444384416 16.4487
41.098919593177826 16.4588
41.1226975914255 16.4745
41.14647744058318 16.3989
41.170444943946755 16.293
41.19422851378379 16.3189
41.218013938914645 16.2573
41.24198706625173 16.2493
41.26577622087193 16.2532
41.289567235177785 16.2508
41.31336011063129 16.2104
41.337340752422875 16.1617
41.361137369129835 16.1489
41.38493585138705 16.1394
41.40873620066004 16.0968
41.43272438060107 16.077
41.45652848292052 16.0468
41.48033445666918 15.9822
41.50414230331616 15.9978
41.528138045159764 15.9837
41.551949656675205 15.9021
41.575763145513235 15.8567
41.59957851314666 15.8622
41.62358184070442 15.808
41.64740098505737 15.7866
41.6712220126409 15.8059
41.69504492493139 15.7297
41.71905586207357 15.7145
41.74288256296395 15.7172
41.766711153007456 15.7071
41.79054163368412 15.587
41.814560204340054 15.6532
41.838394485526365 15.6487
41.86223066180303 15.562000000000001
41.88625497706819 15.5159
41.910094962812 15.4833
41.93393684811168 15.5376
41.95778063445365 15.4642
41.981812625263366 15.4467
42.00566023303407 15.4352
42.029509746323676 15.4365
42.05336116662236 15.3701
42.077400857069705 15.3479
42.10125611078846 15.321
42.12511327600405 15.2848
42.14897235421036 15.2493
42.173019768448455 15.2111
42.19688269209613 15.1715
42.22074753323349 15.2285
42.24461429335818 15.1962
42.268669455600495 15.1348
42.292540073217886 15.1146
42.31641261433284 15.1272
42.34028708044675 15.0623
42.36435001496739 14.9948
42.38822835065557 15.0114
42.41210861586426 14.9967
42.4359908120986 14.9966
42.46006154323262 14.9424
42.48394762115317 14.9024
42.507835634632315 14.8849
42.531912233047436 14.8968
42.55580413732265 14.8209
42.579697981698 14.7967
42.60359376768525 14.8099
42.62767820545945 14.767000000000001
42.65157789440821 14.7955
42.67547952952185 14.719000000000001
42.699383112316 14.6767
42.72347541395347 14.6571
42.74738291190531 14.6003
42.771292362102166 14.6535
42.795203766063516 14.6003
42.819303956130405 14.5989
42.843219287476536 14.5258
42.86713657716324 14.4927
42.89105582671383 14.4583
42.91516392983864 14.4591
42.939087119032166 14.4084
42.963012272677304 14.3785
42.98693939230129 14.3553
43.01105543317513 14.3285
43.034986504731386 14.2994
43.05891954686589 14.3303
43.08285456110972 14.2637
43.10697856448665 14.2625
43.130917542983475 14.2299
43.15485849820081 14.2
43.17880143167367 14.1769
43.20293342237094 14.1634
43.226880332449 14.1293
43.25082922540554 14.1136
43.27496722682525 14.1039
43.29892010567796 14.0577
43.32287497204102 14.0522
43.34683182745632 14.0369
43.370977859791836 13.9924
43.39493871351105 13.9843
43.41890156092628 14.0133
43.44286640358341 13.9858
43.46702049182749 13.9381
43.49098934522816 13.8795
43.51496019852649 13.8557
43.5389330532723 13.8317
43.56309522248204 13.8341
43.58707210044314 13.76
43.61105098451946 13.7167
43.63503187626491 13.7033
43.659202151562134 13.7279
43.68318707902681 13.7211
43.70717401884041 13.6756
43.731162972560874 13.6339
43.75534137913236 13.6102
43.779334381108384 13.6341
43.803329401683186 13.5657
43.82732644241872 13.5874
43.8515130055166 13.5473
43.87551410707659 13.4748
43.89951723350145 13.4435
43.923709934595614 13.4251
43.94771713129917 13.4228
43.97172635758096 13.4629
43.99573761501002 13.4565
44.0199385169922 13.3815
44.04395385732619 13.3335
44.067971233533086 13.3008
44.09199064718605 13.2844
44.11619977548961 13.2291
44.14022328470671 13.2388
44.16424883610785 13.2849
44.18827643127035 13.261
44.21249381139513 13.2169
44.236525514814076 13.1312
44.26055926674478 13.0941
44.28459506876863 13.1261
44.3088207262813 13.0316
44.33286064928722 13.0401
44.35690262714919 13.0284
44.38094666145278 13.0066
44.4051806219871 12.9895
44.42922879003185 12.9703
44.45327901929361 12.9354
44.477331311362136 12.9573
44.501573600619416 12.9351
44.525630039221795 12.9089
44.54968854541895 12.9003
44.573937102200176 12.8742
44.5979997645541 12.8728
44.622064499300315 12.8375
44.64613130803592 12.7551
44.67038823869318 12.7964
44.69445921643748 12.7077
44.718532272981385 12.7006
44.742607409926194 12.7055
44.76687274034801 12.671
44.79095205918753 12.6402
44.81503346325094 12.6034
44.839116954143876 12.5826
44.86339071028742 12.5608
44.88747839599524 12.547
44.91156817336837 12.5018
44.93566004401666 12.4795
44.959942251908146 12.4732
44.984038330325966 12.4859
45.00813650686762 12.4311
45.03223678314731 12.4242
45.05652746888232 12.3575
45.08063196592069 12.343
45.104738567558705 12.3219
45.128847275414856 12.3326
45.15314646515866 12.2581
45.17725940679741 12.2914
45.20137445952892 12.2956
45.22568004865265 12.2485
45.24979934496396 12.2108
45.27392075725247 12.2054
45.29804428714431 12.1454
45.322358426247604 12.1447
45.346486212804315 12.1351
45.370616121861914 12.1683
45.39474815505086 12.1329
45.41907087049246 12.0871
45.4432071734666 12.0402
45.46734560548283 12.0552
45.49148616817604 12.0066
45.51581748638564 11.985
45.5399623320197 11.9287
45.56410931325473 11.9287
45.58825843173002 11.9152
45.61259837920865 11.9138
45.636751793816 11.8922
45.66090735060093 11.82
45.68506505120716 11.8155
45.7094136545275 11.8058
45.73357566449271 11.7787
45.75773982322992 11.761
45.78190613238733 11.7565
45.806263418194064 11.6824
45.83043404997326 11.7168
45.85460683713677 11.7316
45.87897065658495 11.6971
45.90314777634752 11.6621
45.92732705646868 11.632
45.9515084986045 11.6301
45.97588104735473 11.6224
46.00006683541565 11.594000000000001
46.02425479047904 11.5718
46.04844491420549 11.5492
46.0728262191024 11.5455
46.09702070211635 11.5167
46.12121735879483 11.4739
46.14541619080294 11.467
46.169806278764455 11.4088
46.194009483459034 11.3998
46.21821486849841 11.3835
46.24242243555223 11.3758
46.266821333570014 11.3129
46.29103328674601 11.2952
46.31524742696538 11.315999999999999
46.33946375590237 11.3005
46.36387149104216 11.2625
46.38809221957392 11.2067
46.41231514186606 11.2158
46.436540259597464 11.2208
46.460956858999374 11.1669
46.48518638983522 11.139000000000001
46.509418121166966 11.1231
46.533652054678114 11.1194
46.55807754555709 11.1136
46.58231590571962 11.0558
46.60655647313217 11.0367
46.630988654873654 11.0238
46.655233659129024 11.0033
46.67948087571551 10.982999999999999
46.70373030632484 10.9834
46.72817142736393 10.9583
46.752425308428684 10.9542
46.77668140861147 10.9126
46.80093972960865 10.8739
46.82538981736788 10.8772
46.849652602470904 10.860999999999999
46.87391761349769 10.8311
46.8981848521493 10.7999
46.9226439341274 10.7745
46.946915650573224 10.7248
46.97118959976749 10.7228
46.99546578341598 10.7128
47.019933887188216 10.6625
47.04421456235744 10.6981
47.06849747711879 10.7005
47.09278263318286 10.6244
47.11725978640143 10.595
47.14154944775105 10.6131
47.165841355555656 10.5999
47.1901355115306 10.5499
47.214621741924994 10.5535
47.23892041698887 10.5478
47.26322134538975 10.5217
47.28771440635075 10.4934
47.31201986422527 10.4784
47.33632758061436 10.4301
47.360637557241866 10.4306
47.38513974410611 10.3623
47.40945426407847 10.3978
47.43377104948137 10.4313
47.45809010204344 10.3744
47.48260144275502 10.3973
47.506925052572285 10.33
47.53125093475548 10.2446
47.55557909103813 10.2703
47.58009961361992 10.2383
47.60443234110732 10.2484
47.62876734791564 10.2617
47.65310463578333 10.2123
47.6776343683373 10.1666
47.7019762413987 10.1484
47.72632040075572 10.1536
47.75066684815169 10.1128
47.77520581885936 10.0967
47.799556865477655 10.0795
47.823910205386 10.0874
47.84826584033272 10.0739
47.87281407745551 10.0402
47.89717432569297 10.0329
47.92153687423484 10.0245
47.94609208429692 9.97365
47.97045925671401 9.998389999999999
47.99482873471275 9.959389999999999
48.01920052005013 9.960980000000001
48.04376504619224 9.91364
48.068141469543484 9.951139999999999
48.09252020552573 9.88658
48.11690125590099 9.85031
48.1414751266064 9.83165
48.16586082917454 9.82865
48.19024885144316 9.76914
48.2146391951793 9.79684
48.239222439012764 9.78204
48.26361744916137 9.74805
48.28801478610016 9.75216
48.31241445160131 9.730310000000001
48.337007097209366 9.69525
48.36141144338331 9.67949
48.38581812345755 9.659839999999999
48.41022713920929 9.656989999999999
48.434829215320704 9.640039999999999
48.45924292604658 9.60815
48.48365897780325 9.63331
48.50807737237308 9.58338
48.532688907799276 9.58084
48.55711201168574 9.538680000000001
48.581537463754074 9.52094
48.60615611725119 9.555060000000001
48.63058628942721 9.49569
48.65501881516546 9.48038
48.6794536962573 9.47446
48.70408185970339 9.43355
48.72852147531801 9.401689999999999
48.75296345168211 9.4058
48.77740779059232 9.3975
48.80204549302823 9.3651
48.82649458091802 9.34005
48.85094603676547 9.31252
48.87539986237231 9.31068
48.90004713292306 9.30154
48.92450572200832 9.31273
48.94896668628025 9.27614
48.97343002754588 9.24005
48.99808689542115 9.1946
49.02255501470614 9.225389999999999
49.04702551642794 9.21242
49.0714984023988 9.14738
49.096164896893235 9.16725
49.120642575466796 9.135689999999999
49.145122643748394 9.11694
49.16960510355558 9.089780000000001
49.19428125404938 9.07818
49.2187685210852 9.08262
49.243258185121555 9.063939999999999
49.26794160167084 9.046669999999999
49.2924360839405 8.99216
49.31693296869764 9.01816
49.34143225776915 8.983410000000001
49.36612538195438 8.92862
49.39062950396021 8.95495
49.41513603578346 8.90969
49.4396449792564 8.8868
49.46434784069503 8.89058
49.488861631846454 8.8864
49.513377840166804 8.865269999999999
49.537896467493745 8.85265
49.56260909589029 8.79686
49.587132585683285 8.81428
49.611658500018365 8.825
49.636186840738596 8.81018
49.66090926588511 8.74168
49.685442483902584 8.74279
49.70997813385706 8.75244
49.734516217597076 8.71372
49.75924846937352 8.667869999999999
49.7837914452858 8.7086
49.80833686055187 8.68447
49.83288471702571 8.67272
49.85762682540054 8.64197
49.882179588965734 8.62743
49.9067347993235 8.5844
49.93129245833333 8.60083
49.95604445336378 8.565339999999999
49.98060703442832 8.49376
50.005172069746266 8.5196
50.02993150438364 8.46884
50.05450147301533 8.48247
50.07907390151433 8.47977
50.10364879174981 8.4633
50.12841816587289 8.460239999999999
50.1529980044635 8.41517
50.17758031042124 8.40928
50.20216508562089 8.39368
50.22694442953363 8.395489999999999
50.25153416817468 8.373560000000001
50.27612638170508 8.37752
50.300721072005196 8.299619999999999
50.325510416102105 8.318810000000001
50.350110084975064 8.29502
50.37471223628208 8.28017
50.39931687190919 8.27106
50.424116246675766 8.26212
50.44872587605249 8.2256
50.47333799543065 8.22344
50.49795260670191 8.1799
50.52276204271512 8.15558
50.54738166295838 8.19855
50.57200378079314 8.1869
50.596628398116835 8.10678
50.62144792604559 8.12476
50.646077567609396 8.10783
50.670709714377715 8.12031
50.69553683636198 8.08409
50.72017401885922 8.08084
50.7448137122895 8.04423
50.76945591856022 8.06385
50.79429318636823 8.10909
50.818940443716784 8.00816
50.84359021965163 7.994160000000001
50.868242516085964 7.93967
50.893089960641895 7.97198
50.917747323549435 7.94042
50.94240721271973 7.93792
50.96706963007175 7.904560000000001
50.99192728239342 7.88457
51.01659478166073 7.922630000000001
51.04126481489051 7.88765
51.06593738400761 7.83775
51.090805275207074 7.82597
51.11548294172845 7.80575
51.14016314993547 7.81234
51.164845901758845 7.810160000000001
51.18972406304274 7.77917
51.21441192780656 7.75358
51.23910234200271 7.733439999999999
51.2637953075678 7.71254
51.288683770237945 7.68808
51.31338186432707 7.66568
51.33808251561888 7.68122
51.362978729967345 7.66017
51.387684521509755 7.67363
51.41239287610203 7.63916
51.437103795691165 7.59408
51.46201036644977 7.55032
51.486726441956634 7.54135
51.51144508832545 7.56451
51.536166307509156 7.54005
51.56108326624387 7.55333
51.58580965706056 7.52453
51.61053862657523 7.503439999999999
51.635270176746864 7.46753
51.66019755512065 7.44562
51.68493429268881 7.44782
51.70967361681515 7.434589999999999
51.73441552946465 7.39417
51.759353359237934 7.4047600000000005
51.7841004750961 7.401960000000001
51.80885018539685 7.391039999999999
51.833602492111254 7.34802
51.8585508051424 7.30932
51.883308330926425 7.31216
51.90806845906181 7.3350100000000005
51.932831191525715 7.282789999999999
51.95779001977161 7.2948
51.98255798721516 7.270239999999999
52.00732856494335 7.2454
52.03229530577543 7.232710000000001
52.057071130455945 7.22465
52.081849571391054 7.1714199999999995
52.106630630568695 7.208589999999999
52.13160794279417 7.151960000000001
52.15639426492067 7.13103
52.18118321127822 7.16984
52.205974783860896 7.1228
52.23096269971011 7.12109
52.255759551287994 7.11119
52.280559035098186 7.0864899999999995
52.30536115314103 7.081239999999999
52.33035970494467 7.0612
52.35516711807904 7.054810000000001
52.37997717147198 7.04397
52.40478986713005 7.02915
52.42979908731974 7.00501
52.454617094216 6.975960000000001
52.47943774942214 6.96281
52.50426105495102 6.94273
52.529280976059844 6.9429
52.554109609024096 6.91625
52.57894089837482 6.90337
52.60377484613117 6.93584
52.62880550079408 6.89884
52.65364479223379 6.86044
52.67848674816189 6.83827
52.70352547971946 6.8369800000000005
52.72837279155837 6.85965
52.753222773982785 6.81885
52.778075429022984 6.80435
52.80312495150885 6.784269999999999
52.827982978797436 6.7933
52.85284368481815 6.75816
52.87770707160767 6.74459
52.90276741793998 6.743239999999999
52.92763619336701 6.68398
52.952507655698504 6.722989999999999
52.977381806977576 6.6985600000000005
53.00245301017842 6.692139999999999
53.02733256653592 6.688269999999999
53.052214817996074 6.6721699999999995
53.077099766608484 6.628830000000001
53.102181859804446 6.61088
53.127072229988265 6.59875
53.15196530349892 6.58828
53.17686108239249 6.58585
53.20195409881522 6.559939999999999
53.22685531582556 6.5583
53.25175924441303 6.5028
53.27666588664027 6.51676
53.30176985962693 6.50825
53.3266819565689 6.486759999999999
53.35159677336455 6.45979
53.376514312083096 6.489669999999999
53.40162927507703 6.44039
53.42655228516116 6.41938
53.45147802340193 6.41509
53.47660125628886 6.40302
53.50153247842639 6.4293
53.52646643496923 6.38544
53.55140312799818 6.39915
53.576537409691696 6.37172
53.60147960336152 6.33824
53.626424539786164 6.3127
53.65137222105307 6.26954
53.67651758529126 6.27455
53.70147078399681 6.2373
53.72642673383343 6.26014
53.75138543689533 6.29171
53.776541917524526 6.2851099999999995
53.801506154876755 6.23602
53.826473151763246 6.19448
53.851442910284916 6.18666
53.87661054126026 6.18345
53.9015858509782 6.1847
53.92656392866066 6.17384
53.95154477641532 6.18895
53.976723591801296 6.13584
54.00171000771266 6.12309
54.02669920004598 6.092630000000001
54.051691170915745 6.05675
54.076881204886796 6.0597
54.101878760928514 6.08064
54.12687910187696 6.0532699999999995
54.152077577768296 6.06613
54.1770835166946 5.99049
54.20209224691339 5.97286
54.22710377055121 5.98316
54.25231352511594 5.98682
54.27733066384342 5.8966
54.30235060239643 5.88241
54.32737334290836 5.96431
54.35259441062629 5.895519999999999
54.377622783395324 5.8886199999999995
54.40265396455061 5.86648
54.42768795623251 5.869730000000001
54.45292037169559 5.85649
54.477960012857906 5.8446
54.50300247099511 5.83365
54.52804774825457 5.78229
54.55329154616743 5.72677
54.57834249018678 5.76093
54.6033962597977 5.75323
54.6284528571545 5.74645
54.653708072335164 5.71116
54.67877035378786 5.69268
54.70383546947698 5.65529
54.72890342156389 5.6361300000000005
54.7541700889442 5.618180000000001
54.77924374251975 5.64055
54.8043202390049 5.57376
54.82959552413022 5.57163
54.8546777351945 5.55034
54.87976279569621 5.47664
54.90485070780914 5.52407
54.930137506558005 5.50141
54.95523115074295 5.458480000000001
54.98032765308844 5.4863
55.005427015775496 5.39348
55.03072536339621 5.390219999999999
55.05583047570572 5.37134
55.080938454927676 5.31747
55.10604930325027 5.3240300000000005
55.131359235107396 5.318980000000001
55.15647585066083 5.27022
55.181595341907496 5.31041
55.20671771104285 5.241230000000001
55.232039262617704 5.21903
55.25716741665048 5.20589
55.28229845518636 5.20742
55.30743238042802 5.15498
55.33276558731939 5.15449
55.357905315183636 5.1645900000000005
55.383047936390035 5.11794
55.40819345314859 5.07111
55.433538351073295 5.0756
55.458689688238415 5.05598
55.483843927614096 4.996569999999999
55.509197623043605 4.97757
55.53435769621134 4.92004
55.55952067826466 4.9021099999999995
55.5846865714265 4.8963
55.61005202069737 4.90939
55.63522376553902 4.90105
55.66039842818645 4.82229
55.68557601087004 4.84434
55.7109532500271 4.80269
55.73613670233794 4.84018
