TT I
1.2716486653135266 7.449260000000001
1.2939594142134223 7.8445800000000006
1.3162702121660406 6.66948
1.3385810600174564 6.13703
1.3608919586137629 6.57148
1.383202908801069 6.66067
1.405513911425503 5.80391
1.4278249673332093 6.589589999999999
1.4501343378461518 6.11374
1.4724455028545926 5.52965
1.4947567236847858 5.837680000000001
1.517068001182951 5.75395
1.5393793361953272 5.6163300000000005
1.5616907295681737 5.669169999999999
1.5840021821477681 5.16239
1.60631369478041 5.0955900000000005
1.6286252683124185 5.389880000000001
1.6509369035901333 4.572080000000001
1.6732468618895553 4.714930000000001
1.695558623192809 5.16541
1.7178704487808514 4.79363
1.7401823395001077 4.54207
1.7625012545597203 4.79309
1.7848028405262486 5.42513
1.8071218901122095 4.33608
1.8294236121921872 4.6917599999999995
1.8517427996910911 4.6464
1.8740620574440425 4.66021
1.8963639900671978 4.87244
1.9186833908139995 4.52883
1.9409854680117449 5.00406
1.9633050151394713 5.249219999999999
1.9856246367570705 5.22623
2.0079269371922672 4.67005
2.03024671027244 4.4305
2.0525491637446027 4.104509999999999
2.074869091674931 4.4863800000000005
2.097171701569106 4.49737
2.1194917877373847 4.96054
2.141811954326636 4.98503
2.164114805233074 4.63745
2.186435135143035 5.51845
2.208738150935709 9.79914
2.231058647554722 17.5172
2.2533792288321184 13.5169
2.275682498336085 7.53644
2.298003251406138 5.55587
2.3203066942619714 4.9175699999999996
2.3426276225136022 5.53746
2.3649486396617507 5.52693
2.387252348930071 5.47457
2.4095735463442893 5.39198
2.4318774374315884 5.9252
2.4541988185014043 5.83839
2.476502894794693 6.771560000000001
2.498824462909887 7.01888
2.521146125856138 6.71857
2.5434504863470337 6.865410000000001
2.5657723414244717 7.855739999999999
2.588076895590662 7.77383
2.610398946189713 8.58986
2.6327210958598384 8.15663
2.6550259469304716 8.39423
2.6773482972090137 7.756289999999999
2.6996533504259 8.11402
2.7219759047039602 8.13547
2.744298562293959 8.35706
2.7666039251246595 8.249839999999999
2.7889267918020164 7.89405
2.8112323652516555 7.75563
2.833555444408179 8.14189
2.8558786311183852 8.07317
2.8781845268938557 8.86196
2.9005079311721484 8.96904
2.9228140460410397 9.131680000000001
2.9451376712799635 9.717789999999999
2.967444008632326 9.61006
2.9897678582247247 9.83571
3.0120918213106695 10.3266
3.0343984987899373 10.9098
3.0567226913198637 11.0096
3.079029599759726 11.7155
3.101354025127254 12.3091
3.123678568232338 12.533
3.145985829517914 12.8602
3.16831061055229 13.7319
3.1906181112775593 14.4467
3.212943133635653 15.0587
3.2352682779763207 14.8146
3.2575761442691227 15.0725
3.2799015350264273 15.4601
3.302209649240067 16.4691
3.3245352898092655 16.9064
3.3468436553365257 17.496
3.369169549113219 17.3195
3.3914955708171384 18.745
3.413804319727358 19.1137
3.4361305997334863 18.9171
3.4584396084414553 19.5465
3.4807661501462652 19.8607
3.503092824025881 20.2341
3.5254022288463154 20.8826
3.5477291695206588 21.3686
3.5700388426251948 21.9934
3.5923660534916446 23.3285
3.6146934007816114 31.2298
3.637003482731501 58.6737
3.6593311053109985 62.4249
3.681641464033634 40.5451
3.7039693653009733 27.1278
3.726297407241705 25.5164
3.7486081875460804 25.2605
3.7709365132734978 25.7194
3.793247578841633 25.8158
3.8155761917550093 26.0855
3.8378875459837216 26.5941
3.8602164494827234 27.2545
3.882545499606844 28.3662
3.9048572932539183 28.7167
3.9271866390645718 28.8937
3.9494987298666713 29.8542
3.971828374764527 30.369
3.9941581705403255 30.5977
4.016470713506008 31.1491
4.038800813471445 31.7568
4.061113662089144 32.1812
4.0834440696459176 33.385
4.105774632334751 33.6604
4.128087945865126 33.9103
4.150418821249301 34.808
4.172732448931298 36.1933
4.195063640413578 37.1395
4.2173775856475215 39.3428
4.239709096631102 56.6879
4.262040768704612 140.05200000000002
4.284355196706267 182.73
4.306687193387355 122.62899999999999
4.329001947444346 60.4111
4.35133427213731 44.6658
4.373666762177566 43.5587
4.395982011761091 43.8422
4.418314834921175 44.9061
4.44063041906622 49.6474
4.4629635787515625 55.2549
4.4852969080429785 55.9505
4.5076130004776225 52.5474
4.529946671403969 53.9802
4.552263106909177 56.3864
4.574597122877047 54.9799
4.596931312711224 53.7616
4.619248269273446 53.6379
4.6415828092605835 54.3891
4.663900117405352 55.8058
4.686235010953232 56.9113
4.708552674085913 58.0595
4.730887924602802 59.2332
4.753223354952695 61.365
4.775541557023902 64.2834
4.797877349456786 66.2931
4.820195915032126 67.6602
4.842532072957498 67.8979
4.864868414979744 70.516
4.88718753227192 74.3813
4.909524244902505 75.9651
4.931843734218147 76.2298
4.954180820867835 78.2995
4.976518095879839 81.1879
4.998838149695359 83.5344
5.021175803844231 87.3163
5.043496238205739 90.5842
5.065834274903528 95.6047
5.088172504230693 100.36200000000001
5.1104935158799565 106.605
5.132832132875765 126.679
5.155153533596801 158.844
5.1774925416746225 203.645
5.199814334878411 425.07199999999995
5.2221537374521505 1113.68
5.244493338631803 3030.87
5.266815727034316 7820.49
5.289155727832427 12735.3
5.311478517248165 8615.39
5.333818921080011 2655.89
5.356159527788849 522.263
5.3784829252032536 192.842
5.400823940070432 150.25799999999998
5.423147747031976 130.014
5.445489173474152 119.96799999999999
5.467830807066149 117.264
5.490155234831516 115.14
5.512497285125229 110.12100000000001
5.534822130975162 105.265
5.557164601388673 102.16
5.579489868738879 99.1424
5.601832762690846 98.3403
5.6241758697774475 97.46600000000001
5.646501775867269 95.8943
5.668845311622074 94.7466
5.691171647754637 94.291
5.713515615597765 93.1299
5.735859800852677 92.6789
5.758186788542988 93.3631
5.780531411018185 95.6548
5.802858837297399 95.7758
5.825203900414495 95.4994
5.8475491852224 97.5024
5.869877275883075 97.2209
5.892223006467101 95.7315
5.914551544266608 95.7186
5.936897724049891 98.4326
5.959244129804903 105.85799999999999
5.981573344815301 134.586
6.0039202049061 247.791
6.026249875609095 504.115
6.04859719346037 1035.03
6.070927323278297 2263.2
6.093275102315365 4576.16
6.115623113320588 5142.16
6.137953938319995 3127.99
6.160302415650845 926.0239999999999
6.182633708324452 218.32
6.2049826554078376 110.413
6.227331838745022 91.3209
6.249663839443684 83.9493
6.27201349767565 80.88600000000001
6.294345974611799 82.8724
6.316696111167083 87.5247
6.339046488263839 84.0085
6.361379686074702 75.3044
6.383730546639482 71.2106
6.406064229255215 69.4715
6.428415576718203 69.8249
6.450749747566656 68.2738
6.47310158535871 66.3665
6.495453669698332 65.47
6.517788579421056 64.7586
6.540141159237969 63.4754
6.562476565766648 62.8374
6.5848296444934045 62.8228
6.607182974060425 62.7617
6.6295191323281015 62.5789
6.651872965955752 63.5923
6.6742096296068985 76.2852
6.6965639707294615 99.8258
6.71891856698715 100.807
6.741255995248479 77.4237
6.763611104154477 63.1329
6.785949046381137 59.3497
6.808304671371482 58.5629
6.8306605557940046 59.8444
6.852999275508618 58.7465
6.875355681171544 57.7185
6.897694923437771 56.5883
6.92005185377892 56.2114
6.9423916220322655 56.3424
6.964749080490181 55.5023
6.987106804399774 55.5247
7.009447368180821 55.4918
7.031805625367033 55.2128
7.054146723727803 55.0124
7.076505517631004 54.7737
7.098864581288365 54.9731
7.121206488070854 54.8874
7.143566093607822 55.1301
7.165908543567245 55.335
7.188268694426048 55.5648
7.2106291193438095 54.9098
7.232972390625943 55.1871
7.255333366030969 62.1582
7.277677189091925 89.8576
7.300038718428332 113.449
7.322400526130865 99.6705
7.344745183422596 71.6938
7.367107550224791 57.8214
7.389452767901992 54.9208
7.411815697249891 54.7528
7.434161478756298 53.8607
7.456524974096713 53.5154
7.478888753837185 54.0952
7.501235387657368 54.3117
7.523599738562711 54.2596
7.545946944825532 54.343
7.568311870344528 54.8357
7.5906770845765665 55.174
7.613025156078678 55.758
7.635390950099687 56.7199
7.657739602662809 56.516999999999996
7.680105979923558 56.196000000000005
7.702472650212829 56.478
7.724822180948224 56.3067
7.747189439655568 55.8636
7.769539560075357 56.0046
7.791907410653562 56.1734
7.81425812420825 56.3589
7.836626570110925 56.8902
7.858995315087906 57.1598
7.881346924933401 57.7763
7.903716270417482 58.1685
7.926068482028405 58.4475
7.948438431475253 59.1184
7.9708086843180235 59.6157
7.993161805171116 60.2464
8.015532667162402 60.708
8.037886398416653 61.8073
8.060257873014221 62.3507
8.082629655331942 62.8485
8.104984308787587 63.9208
8.127356708900503 66.2392
8.149711981398308 70.598
8.172085002766314 72.6467
8.194458336181368 70.7656
8.216814543847752 69.0767
8.23918850371002 69.6595
8.26154533906492 70.2799
8.283919928836452 72.0158
8.306277395339652 72.8614
8.328652618483376 74.1307
8.351028159736202 76.0378
8.373386579575245 78.5791
8.395762759396959 80.6101
8.418121819038275 84.396
8.440498640894003 93.1315
8.462875785192262 106.001
8.485235811156207 130.57
8.507613602688501 186.25799999999998
8.529974277114228 273.198
8.552352719347912 409.79
8.574731488360351 682.815
8.59709314210385 1237.1
8.619472567021075 1916.17
8.64183487789147 2230.26
8.664214962183097 1753.53
8.686577933647762 871.704
8.708958680784317 350.842
8.731339760774953 155.391
8.753703729764451 108.226
8.77608547780821 98.5954
8.798450116065078 94.9271
8.820832535634787 92.029
8.843215292401656 91.6899
8.865580941199045 91.2662
8.887964374703538 90.3935
8.910330701447199 91.0346
8.932714815164482 91.5248
8.955099270424924 89.5335
8.977466620733543 87.07600000000001
8.999851761421976 85.2114
9.022219798361645 83.7187
9.04460562795561 83.8312
9.066991803441677 83.47399999999999
9.089360876979615 83.6342
9.111747746589993 83.5291
9.13411751544971 82.619
9.156505082664324 81.5657
9.178875550323522 81.9503
9.20126381862328 82.1331
9.223652438908596 82.06299999999999
9.246023961427412 82.348
9.26841328802173 81.8853
9.290785518039224 82.0307
9.313175554425882 83.7274
9.335565947154315 84.838
9.357939245086508 85.2551
9.380330352834827 84.9996
9.40270436697103 84.7052
9.425096193225055 84.5046
9.447488380180165 84.5172
9.469863475295412 84.2043
9.492256385987508 84.5971
9.514632206018318 85.3351
9.537025843935714 85.53299999999999
9.559402392368193 86.4927
9.581796761000229 88.3999
9.604191496441521 90.3016
9.626569144158516 93.3929
9.648964615551032 95.1369
9.671343000390081 95.4295
9.693739211225699 94.1092
9.716135793237463 93.1686
9.738515290448102 93.5125
9.760912617143402 94.7353
9.783292860202891 96.3806
9.805690935076182 98.0491
9.828089385495742 99.0299
9.850470754023561 100.946
9.872869957865444 105.40799999999999
9.89525208097539 114.075
9.917652041736662 123.13600000000001
9.940052382417589 130.094
9.962435644102392 153.51
9.984836746950979 198.87599999999998
10.007220771957746 259.665
10.029622640473708 365.274
10.052007432299963 549.239
10.074410069984072 851.122
10.096813093716005 1298.84
10.119199042482517 1792.55
10.141602840636468 1968.83
10.163989564971628 1568.3
10.186394141051062 838.946
10.208799107559706 360.639
10.231187001965623 175.972
10.253592751657669 123.117
10.275981430388155 111.74799999999999
10.298387966769793 110.05799999999999
10.320794897965431 110.669
10.343184759907361 109.67399999999999
10.36559248305461 106.166
10.387983138083852 105.41
10.410391656691655 111.86399999999999
10.432800574501677 124.36399999999999
10.455192425893369 140.917
10.47760214443012 166.15200000000002
10.499994797678786 213.59799999999998
10.522405320453982 291.98400000000004
10.54479877906917 411.346
10.567210109595656 514.741
10.5896218454736 576.018
10.612016518879773 496.375
10.634429067781074 330.051
10.656824555333241 192.451
10.679237920773568 119.447
10.701651695961992 94.2392
10.724048411481384 88.425
10.746463008485165 85.9899
10.768860546937125 84.5489
10.791275969274796 82.8635
10.81369180576079 81.6691
10.836090585366925 80.8754
10.858507252467449 79.4285
10.88090686379991 78.8632
10.903324365036394 78.0407
10.925724811614439 77.4694
10.948143150509463 78.1851
10.970561909719066 77.7637
10.992963615930844 76.5019
11.015383218085756 74.8234
11.037785768347074 73.439
11.06020621697282 72.7061
11.082627090322113 72.2264
11.105030913430326 71.4812
11.12745263854165 71.2888
11.149857314510728 72.7942
11.172279894912576 75.7829
11.194702904450653 76.1246
11.217108866490921 73.4719
11.239532736615194 71.14399999999999
11.26193956033512 69.9166
11.284364294577085 68.8103
11.306789462371718 67.494
11.329197585398376 66.9291
11.351623622610898 66.6495
11.37403261614354 65.7274
11.396459526308487 65.8178
11.418869393879497 65.5574
11.441297180532617 65.0752
11.463725406927658 64.5163
11.486136592353875 64.4065
11.508565700543707 64.563
11.530977768845315 65.622
11.553407762368774 65.7193
11.575838200059769 65.5521
11.598251599479612 64.1938
11.620682927815501 63.59
11.64309721895548 63.0351
11.665529441478206 62.926
11.687962112597958 62.494
11.710377748130886 62.8262
11.732811318753434 62.6985
11.755227854859067 62.6587
11.777662328529495 62.4803
11.800079768750786 62.5413
11.822515149015453 62.7348
11.844950984084935 62.8331
11.867369787303163 62.378
11.889806534289491 62.177
11.912226250487029 62.5749
11.934663912939751 62.632
11.9571020346363 62.6634
11.979523127133968 63.1713
12.001962169624331 64.2231
12.024384183972964 65.9532
12.046824150809913 69.3501
12.069264581333726 73.7527
12.091687985297767 79.8612
12.11412934550045 89.3852
12.136553680195208 105.041
12.158995973632788 128.173
12.181438735204349 155.47
12.20386447284199 184.208
12.226308172985636 204.27599999999998
12.24873485024193 196.618
12.271179492516982 156.955
12.293607112949127 120.012
12.316052700916226 88.03200000000001
12.338498763250042 73.7443
12.360927805303868 67.3196
12.383374818673879 64.9069
12.405804812803074 64.065
12.428252780773262 63.8927
12.45070122756722 63.8519
12.473132656675375 63.9676
12.49558206341869 64.5058
12.518014453510101 64.531
12.540464823770117 64.7433
12.562915677315177 64.7454
12.58534951575545 65.078
12.607801338171472 66.0903
12.630236146511358 68.9692
12.652688941369085 71.8264
12.675124723177234 72.2475
12.697578494048786 70.4688
12.720032754458185 68.3008
12.742470003354093 67.744
12.764925245138771 67.691
12.787363476431278 67.7568
12.809819703166806 68.2595
12.83227642391173 69.1187
12.854716135692716 69.751
12.877173846755147 70.7056
12.899614549869717 71.2469
12.9220732548287 72.3087
12.94453245827299 72.8677
12.966974655289818 73.77
12.989434858002571 74.3638
13.011878055298721 75.024
13.034339260862497 75.8818
13.056800969391883 77.452
13.079245674017244 80.0485
13.101708390774869 84.0186
13.12415410463411 93.101
13.146617833206086 103.823
13.169064559883248 114.541
13.191529303857127 129.334
13.213994557076367 153.447
13.236442809902437 192.919
13.258909083908291 247.705
13.28135835851934 315.378
13.30382565690295 380.01599999999996
13.326293469022952 426.884
13.348744283242008 419.05
13.371213125129904 340.05199999999996
13.39366497011003 249.97
13.416134845360597 163.589
13.438605238843131 120.024
13.46105863690397 107.25299999999999
13.483530069144786 108.611
13.505984506951902 113.148
13.528456981549432 123.101
13.550929978879088 138.656
13.573385983253365 164.387
13.595860028340867 204.606
13.618317081455832 257.145
13.64079217790333 314.594
13.663250283359057 355.68300000000005
13.685726434770173 371.027
13.708203115221277 327.113
13.730662806148091 249.03799999999998
13.75314054697177 171.236
13.775601299246777 119.64299999999999
13.798080104050406 93.7841
13.820559442405358 84.4231
13.843021793671388 81.3116
13.865502201420897 79.9017
13.887965623051947 79.5586
13.910447103807167 78.1742
13.932929122629764 77.0753
13.955394156785959 76.5092
13.977877254034569 75.8125
14.000343367582113 74.9022
14.022827546871707 74.0955
14.045294743423524 73.3685
14.06778000837062 72.7538
14.090265817715476 72.7244
14.112734645763819 72.2962
14.13522154619454 71.7386
14.157691466286913 71.7702
14.180179461423874 71.47800000000001
14.202668005486178 71.1634
14.22513957064374 70.514
14.247629214846473 70.0624
14.270101881097517 69.9434
14.29259262906496 70.0714
14.315083930490205 70.4257
14.337558255389705 70.4859
14.360050666019726 70.4363
14.382526101071944 69.5598
14.405019624534942 68.9417
14.427513705993134 68.8355
14.449990813291825 68.6149
14.47248601302899 68.6539
14.49496423954951 68.7697
14.517460561197822 68.8456
14.539939910570322 68.74
14.562437357763558 68.8128
14.58493536931253 69.5781
14.607416409993311 70.131
14.62991555254159 70.581
14.652397725157423 70.7061
14.674898002342799 70.398
14.697398848433282 70.6005
14.719882725991326 71.7664
14.74238471217934 73.8736
14.764869730765593 77.7092
14.787372860692983 80.6765
14.809876564079925 84.5538
14.83236330125751 90.4227
14.854868153850365 99.4306
14.877356041159485 113.69
14.899862046604186 133.158
14.922351087688757 158.763
14.944858249632887 187.68400000000003
14.967365991421232 212.24200000000002
14.989856770231246 227.02
15.012365673994204 216.24200000000002
15.03485761569738 182.44299999999998
15.05736768508665 140.306
15.07987833888692 108.471
15.102372032001655 87.1992
15.124883856909658 75.4318
15.14737872204565 71.7779
15.169891721717274 70.359
15.192405310371893 69.8662
15.214901940621196 69.7629
15.237416709527137 69.5708
15.259914520936249 69.5411
15.282430473753607 68.9283
15.304947020131227 68.2043
15.327446610371178 67.5831
15.349964346154254 67.038
15.372465126703139 66.667
15.394984055556009 66.4676
15.417486030076159 66.35600000000001
15.44000615566487 65.9748
15.462526881230803 65.8645
15.485030653812652 65.8104
15.507552581617434 65.7291
15.530057557334603 65.8727
15.55258069104857 65.8108
15.575104429329837 66.0719
15.597611216864632 65.9867
15.620136166564563 66.4818
15.6426441664095 68.2052
15.665170331202765 70.7368
15.687697105158826 73.4692
15.710206930593545 76.8056
15.732734925158933 80.8993
15.755245972089478 87.6714
15.77777519094324 96.9487
15.800287463046663 110.66
15.822817909869592 129.922
15.84534897229804 151.03799999999998
15.867863089299354 174.52700000000002
15.890395385222186 191.675
15.912910736597423 195.55900000000003
15.935444269699861 176.945
15.957978423016485 150.134
15.980495633101265 116.255
16.003031029129367 91.2437
16.02554948280019 74.0217
16.048086125229432 66.3164
16.070623392487107 64.0182
16.09314371869582 63.1944
16.11568223789321 62.24100000000001
16.13820381691126 61.4005
16.160743591742527 60.8402
16.183283996022084 60.0242
16.205807461423195 59.3686
16.228349126881973 58.8537
16.25087385432698 58.6839
16.27341678466365 57.8618
16.29594277784926 57.8005
16.31848697676433 57.9665
16.341031811604868 57.6722
16.36355971058487 57.9076
16.3861058195587 57.7508
16.40863499352978 56.8323
16.431182380342005 56.3223
16.453730407713202 56.1494
16.476261501364792 55.6128
16.498810812136167 55.2951
16.52134319004079 55.4084
16.54389378792203 55.1908
16.566445031001553 55.0645
16.588979342490088 54.8906
16.61153187824822 54.6919
16.634067483263312 54.7824
16.656621315414416 54.66
16.679175797408888 54.3743
16.701713349928728 54.3379
16.72426913389191 54.6039
16.74680798922351 54.6288
16.76936507887444 54.5826
16.791905240734874 54.928999999999995
16.814463639794468 54.7889
16.837022695210294 54.7054
16.859564824093756 54.8688
16.882125194503903 55.3344
16.904668639217885 55.7914
16.927230328348003 55.7909
16.949792678493612 56.0538
16.972338104193863 55.7255
16.994901778652235 55.5299
17.017448529496576 55.4017
17.040013531998152 56.1834
17.06257920018044 56.5814
17.0851279459922 57.1978
17.107694947817667 58.015
17.130245028099072 58.9061
17.15281336730298 60.0415
17.17536478578733 62.0048
17.19793446610687 64.1505
17.220504818648422 67.475
17.243058251703697 70.6716
17.265629950971032 75.3376
17.288184731571736 79.4363
17.310757781306908 83.0129
17.33333150794385 83.9447
17.355888317140174 81.189
17.37846339986244 75.9317
17.401021565958885 70.0763
17.42359800851343 64.7072
17.44617513265564 61.471000000000004
17.468735341390783 59.9736
17.491261035594565 59.1878
17.51396340099364 58.8889
17.536490463869136 59.0964
17.559018209820174 59.0583
17.58154663977963 59.1441
17.604251766089718 59.4553
17.626781572227713 59.5651
17.64931206518155 59.9203
17.671843245885103 60.34
17.69455114821572 60.2954
17.717083712612634 60.5839
17.739616967569667 60.7145
17.762150914021706 61.3101
17.78486160749854 61.5197
17.807396945166804 62.2569
17.829932977143503 63.8444
17.85246970436452 65.4583
17.875183204129467 67.0021
17.897721330097664 68.9317
17.920260154126645 71.1922
17.942799677153296 74.3613
17.9655159983646 78.5117
17.988056927677544 83.9139
18.010598558807683 91.9892
18.033140892692916 102.43299999999999
18.05586005052525 113.475
18.07840379824407 125.20100000000001
18.10094825154059 135.444
18.12366954819864 142.154
18.146215420998306 140.41899999999998
18.16876200220057 130.878
18.191309292745153 115.428
18.214033452627167 101.166
18.236582170236648 90.1798
18.259131600016456 86.148
18.281681742907335 86.7513
18.304408781233683 91.1474
18.32696035875955 96.5019
18.349512652227624 100.89
18.372065662579683 105.23899999999999
18.394795594587553 105.806
18.41735004715306 101.306
18.43990521943684 94.35799999999999
18.46246111238171 84.3904
18.485193953325208 75.4432
18.507751296070428 68.5955
18.530309362314178 64.8881
18.552868153000343 63.0771
18.57560391815056 62.0659
18.59816416623245 61.513000000000005
18.620725141597372 60.766999999999996
18.643286845190268 60.4689
18.666025549835414 60.1876
18.688588718427933 59.5558
18.711152618092243 59.5112
18.73389353884365 59.3061
18.75645890921984 58.8284
18.77902501351406 58.6039
18.801591852673102 58.5447
18.824335739722738 58.0712
18.846904057212626 58.0768
18.8694731124168 57.6712
18.89204290628315 57.6045
18.914789774966803 57.4414
18.937361054791623 57.0562
18.959933076131318 57.0838
18.982505839934877 56.7019
19.00525570560582 56.8579
19.027829963004184 56.7582
19.05040496572238 56.9458
19.072980714710468 57.0931
19.095733592739563 57.1381
19.11831084296757 57.3762
19.140888842324735 57.5203
19.16346759176222 57.8253
19.18622349753803 58.3774
19.208803755869358 59.3114
19.231384767143577 60.7752
19.253966532312948 62.4429
19.276725481241822 64.5465
19.29930876296784 67.2634
19.3218928014549 70.4624
19.34465404436217 73.2539
19.36723960516257 75.4058
19.389825925592426 76.1756
19.412413006605938 74.8688
19.43517731967805 71.2553
19.457765930683355 66.544
19.48035530514408 62.1181
19.50294544401556 58.5287
19.525712842708348 56.1713
19.54830451925909 54.9204
19.570896963095727 53.9607
19.593490175174704 53.6864
19.616260674962184 53.6489
19.638855432416964 53.4147
19.661450960992624 53.5115
19.68404726164677 53.3624
19.706820878021247 53.0875
19.729418731756834 53.4727
19.752017360452857 53.0999
19.77461676506804 53.5444
19.797393513540218 53.6774
19.819994478951667 53.9453
19.84259622316767 54.3946
19.8651987471481 54.9358
19.887978643247177 54.9258
19.91058273574792 55.3983
19.933187610901943 56.2985
19.955969879466828 57.6479
19.97857632894404 59.1854
20.00118356396599 60.9402
20.023791585494575 63.0659
20.046577028914875 65.6712
20.069186632506966 67.5388
20.091797025500632 69.1022
20.114408208858933 69.7086
20.137196842715273 69.1236
20.159809615886765 67.5626
20.18242318232135 64.9936
20.20503754298326 63.0886
20.227829382875154 62.2655
20.250445341109344 62.2591
20.27306209647285 62.9563
20.29567964993108 63.9763
20.31847471147704 64.9699
20.34109387027612 65.2824
20.363713830075454 64.7642
20.386334591841646 63.3198
20.409132890679302 60.5754
20.431755265564437 57.6626
20.454378445325528 54.7706
20.477002430930366 52.9302
20.499803982716553 51.7542
20.522429589228004 50.9858
20.54505600449589 50.7315
20.567683229489194 50.6561
20.590488049900088 50.2613
20.61311690359731 50.0333
20.63574656993626 49.8058
20.658553853717297 49.3798
20.681185154618298 49.5171
20.703817271080066 49.4518
20.72645020407368 49.0639
20.749260783967177 48.8564
20.771895359337133 48.8504
20.794530754161617 48.885
20.817166969412938 48.6995
20.83998086114876 48.6384
20.86261872660049 48.662
20.885257415405402 48.6263
20.90789692853701 48.6216
20.930714147864748 48.4132
20.953355319030678 48.5949
20.97599731745334 48.6287
20.99864014410749 48.4283
21.021460706796564 48.6477
21.044105199328826 48.6705
21.06675052302631 48.763999999999996
21.089396678865015 49.037
21.112220600704806 49.4559
21.134868430275347 49.6789
21.15751709492456 50.1798
21.180166595629693 50.571000000000005
21.202993892429635 50.8873
21.22564507473034 51.2456
21.24829709602816 51.4423
21.27112693608965 51.4243
21.293780644891275 51.3543
21.316435195634053 50.5573
21.339090589297417 49.6761
21.361923832041875 49.3482
21.384580921090404 48.8094
21.407238856007325 48.2869
21.429897637773326 48.3168
21.45273429906592 48.4334
21.475394784108598 48.3056
21.498056118951983 48.42100000000001
21.520718304578022 48.4589
21.543558400304388 48.7029
21.566222297108816 48.8776
21.58888704765135 49.0729
21.61155265291521 49.3588
21.63439619898156 49.8119
21.657063523335786 49.9514
21.67973170537063 50.5082
21.7024007460706 50.8854
21.72524775840385 51.7133
21.747918526116475 52.8375
21.770590155457388 54.1934
21.79326264741238 55.8246
21.816113141960237 57.7694
21.838787368860547 59.6539
21.861462461341976 61.3691
21.884315579735777 63.2351
21.90699241312273 64.4107
21.92967011506078 64.6933
21.95234868653799 64.3966
21.9752053151131 62.8765
21.997885635446785 60.6194
22.020566828293532 58.7442
22.04324889464272 57.1018
22.066109049404666 56.1153
22.088792872571794 55.9878
22.111477572219204 55.842
22.1341631493376 55.9526
22.157026846313123 55.7098
22.179714188221507 55.0791
22.202402410582668 53.8704
22.22509151438863 52.2846
22.24795876962584 51.0667
22.270649646204486 50.0588
22.293341407213727 49.527
22.316034053646906 49.1217
22.338904883215342 48.8643
22.36159931041458 48.8567
22.38429462602756 48.8928
22.40699083104897 48.5645
22.429865251039757 48.5602
22.452563244831367 48.7385
22.47526213102522 48.7373
22.49813925616515 48.6004
22.520839937143307 48.4939
22.543541513520587 48.6609
22.56624398629403 48.4799
22.589124730075895 48.4778
22.611829005656723 48.7469
22.63453418063466 48.6622
22.657240256008077 49.0336
22.680124634582935 49.0744
22.70283252079775 49.121
22.725541310413075 49.6152
22.74825100442868 49.8092
22.771139033969575 50.1893
22.79385054687155 50.3689
22.81656296718292 51.1553
22.83927629590484 52.1842
22.862167992606945 53.2106
22.88488314827121 54.5314
22.907599215359284 55.3013
22.93031619487366 56.3352
22.953211574954405 57.3554
22.975930389478226 57.938
22.998650119445763 57.8657
23.02137076586092 57.1739
23.044269845560063 55.6254
23.06699233506288 53.9514
23.089715744034912 52.1901
23.112617610931565 50.7481
23.135342869061212 49.7033
23.158069049684816 49.0211
23.1807961538087 48.8129
23.20370174880544 48.6986
23.226430710184808 48.8764
23.249160598093425 48.8384
23.271891413539002 48.9648
23.294800752937697 48.7803
23.31753343374794 49.0808
23.340267045128353 49.148
23.36300158808808 49.5847
23.38591468821339 49.9026
23.408651104658304 50.361999999999995
23.431388455719986 51.0378
23.454126742409 51.924
23.4770436196085 52.8046
23.499783787914662 54.0427
23.522524894889884 55.1889
23.54526694154616 56.1954
23.56818761219047 57.3732
23.59093154860734 57.7874
23.613676427751283 57.803999999999995
23.636422250635754 56.6989
23.659346731118656 55.071999999999996
23.68209445191868 53.166000000000004
23.704843119509587 51.0693
23.72759273490623 49.1617
23.750521041644767 47.8269
23.77327256312355 46.8814
23.796025035462787 46.343
23.818956224555475 45.9584
23.841710609113413 45.7638
23.86446594758979 45.6866
23.887222241002014 45.4521
23.910157285144578 45.2295
23.932915498962537 45.1473
23.955674670778713 45.0617
23.978434801611975 44.8712
24.001373717286125 44.6892
24.024135776723917 44.4329
24.046898798245582 44.3231
24.06966278287146 44.336000000000006
24.092605586582614 44.1581
24.115371508023642 43.9343
24.1381383956401 43.9489
24.16090625045381 43.7651
24.183852958731244 43.6921
24.206622758582608 43.7135
24.229393528706886 43.4715
24.252165270127392 43.7419
24.27511589952438 43.5126
24.297889594216997 43.3449
24.32066426328598 43.04600000000001
24.34343990775613 43.2119
24.36639447485003 43.1211
24.38917208083877 43.0286
24.41195066531332 42.9915
24.43490819850244 42.9892
24.457688750692377 42.8921
24.48047028445616 42.8404
24.503252800821233 42.9892
24.526214300784112 43.0244
24.548998793132213 43.0582
24.57178427117417 42.81100000000001
24.59457073593893 42.7858
24.617536219319863 42.8095
24.64032466834748 42.8497
24.663114107195035 42.6094
24.685904536893013 42.4231
24.708874020360852 42.3674
24.731666442613744 42.2571
24.754459858818787 42.2626
24.777254270007962 42.2861
24.80022777025625 42.0577
24.82302418230472 42.1768
24.845821592443674 42.2269
24.86862000170663 42.2464
24.891597535453727 42.0599
24.914397953892728 42.3355
24.93719937456671 42.1535
24.96000179851076 42.4205
24.98298338249997 42.6489
25.00578782394922 42.8967
25.028593271784167 42.9896
25.05157790644186 43.1329
25.07438537804115 43.2361
25.097193859145293 43.6041
25.120003350792075 43.8277
25.142992065061257 44.225
25.165803588823465 44.3489
25.18861612625217 44.6088
25.211429678386736 44.7221
25.234422489079968 44.6952
25.257238081693636 44.7282
25.280054692141732 44.8511
25.3028723214652 44.7246
25.325869245420463 44.8044
25.348688923599397 44.8225
25.371509623787006 44.8117
25.394331347025812 44.4744
25.41733240110666 43.97
25.440156181590016 43.2498
25.46298098826268 42.6871
25.48580682216873 42.2544
25.50881202326435 41.6897
25.53163992281684 41.4016
25.55446885274561 41.0952
25.577298814096377 40.7804
25.600308179121807 40.7278
25.623140214533745 40.8008
25.64597328451537 40.5644
25.66898578564376 40.423
25.691820936010206 40.4229
25.714657124097695 40.4732
25.737494350954734 40.4429
25.760511045684957 40.2559
25.783350361364224 40.4003
25.806190718969255 40.3121
25.82903211955018 40.3394
25.852053024868923 40.4691
25.874896522722523 40.6216
25.897741066713106 40.5059
25.920586657892454 40.5357
25.943611790812668 40.6983
25.966459487728237 40.966
25.989308234998564 40.893
26.01215803367705 41.4413
26.03518741123814 41.4173
26.05803932412957 41.4035
26.080892291600094 41.5992
26.10374631470478 41.6973
26.12677995397268 41.6104
26.14963609978026 41.7177
26.172493304397875 41.3571
26.19535156888223 40.9345
26.218389486949604 40.6552
26.241249882640123 40.3797
26.26411134137826 40.15
26.28715248187403 40.1636
26.31001607820869 40.0282
26.3328807407756 39.7239
26.35574647063438 39.9666
26.37879191991473 40.085
26.401659795896734 40.2351
26.424528742360263 40.3163
26.447398760366614 40.3637
26.470448535598294 40.5544
26.49332070826805 40.8595
26.516193955675355 41.1053
26.53906827888316 41.2998
26.562122397260108 41.3849
26.584998883685063 41.6679
26.607876449110325 41.9427
26.63075509460056 42.1254
26.65381357334404 42.2687
26.67669439061878 42.1861
26.699576291163382 41.8903
26.722459276044212 41.7226
26.745522132402975 41.5041
26.768407297649354 41.2433
26.791293550442003 40.9055
26.814180891848974 40.7834
26.837248143099337 40.4738
26.860137673466657 40.2935
26.88302829566349 39.8971
26.90592001075963 39.8172
26.92899167420566 39.8178
26.951885586870763 39.3863
26.974780595655517 39.1772
26.99785558178161 39.1248
27.020752794605112 38.9328
27.043651106772522 38.6859
27.06655051935668 38.7014
27.089629948036183 38.6134
27.112531573292053 38.6398
27.135434302194138 38.7172
27.158338135817015 38.4496
27.181422024430987 38.7111
27.204328079372566 38.5487
27.22723524226965 38.5742
27.250143514198573 38.5482
27.273231880156334 38.5326
27.296142382065014 38.4061
27.319053996245536 38.2665
27.341966723775965 38.3202
27.365059584515222 38.3573
27.38797455070062 38.5062
27.410890633481237 38.3778
27.433807833936918 38.4257
27.456905206923906 38.553000000000004
27.47982465472398 38.4784
27.502745223449743 38.4987
27.525666914182825 38.6411
27.548768816912457 38.5865
27.571692763693633 38.5234
27.59461783573812 38.4296
27.617723149491244 38.0936
27.640650484125285 38.0893
27.66357894728264 38.1392
27.686508540048052 38.0358
27.709618414237887 37.8649
27.732550278321757 37.7358
27.755483275279115 37.7658
27.778417406196485 37.7764
27.801531858397514 37.8577
27.824468269376716 37.78
27.847405817586786 37.7179
27.870344504116094 38.0587
27.893463551932008 38.084
27.916404527281053 38.3163
27.93934664422563 38.3744
27.962289903855886 38.4152
27.98541356491974 38.7243
28.00835912214229 38.6459
28.03130582533231 39.0035
28.054253675581805 39.1079
28.077381967556104 38.9652
28.100332124185126 38.8709
28.123283431160893 38.9502
28.146235889577238 38.7571
28.169368830154156 38.4792
28.192323603752033 38.2919
28.215279532083304 38.071
28.238415973016764 37.794000000000004
28.261374223145094 37.8133
28.284333631303806 37.489000000000004
28.307294198589954 37.3929
28.330435319167677 37.0084
28.353398217078915 36.7077
28.376362277420153 36.514
28.39932750129032 36.4032
28.422473319286713 36.3401
28.44544088262495 36.3525
28.468409612800283 36.1399
28.491379510913497 35.954
28.51453004413313 35.7406
28.53750229057244 35.9061
28.56047570826344 35.8009
28.583450298308804 35.8278
28.606605564586562 35.5032
28.629582511831156 35.6368
28.65256063474956 35.516
28.675539934446338 35.6593
28.698699951647605 35.615
28.72168161743193 35.3417
28.74466446331978 35.4965
28.767648490417624 35.403
28.790813276438353 35.4073
28.813799678527303 35.3444
28.836787265157085 35.3208
28.859955641890075 35.4345
28.882945610203045 35.3288
28.905936766392035 35.2057
28.928929111566863 35.1729
28.952102288520145 35.1316
28.975097024308607 35.004
28.998092952423807 34.8118
29.021090073977508 34.7812
29.04426806913204 34.7403
29.067267590245258 34.613
29.090268308143695 34.5448
29.11327022394099 34.4919
29.13645305530891 34.3652
29.159457379627167 34.3062
29.18246290519685 34.2092
29.20546963313352 34.2073
29.22865731875826 34.3305
29.25166646419296 34.2766
29.27467681535305 34.1177
29.29768837335608 34.1974
29.320880931312562 34.1081
29.34389491580634 34.1481
29.366910110507334 34.0729
29.38992651653503 34.2168
29.41312396492981 34.1487
29.436142806456754 34.1176
29.45916286268059 33.9585
29.48236399319994 33.7959
29.50538649169417 33.672
29.528410208259935 33.6238
29.55143514402014 33.3348
29.574641196749695 33.2437
29.597668583816574 33.2873
29.6206971934585 32.9961
29.64372702680042 33.0816
29.666938019934474 33.0006
29.689970313635285 33.056999999999995
29.713003834422636 32.9971
29.73603858342347 32.9642
29.759254535188578 32.7379
29.78229175361658 32.7469
29.80533020365064 32.7226
29.82836988641968 32.8077
29.85159081507472 32.7125
29.874632976355343 32.5997
29.89767637376955 32.6886
29.920721008448314 32.5779
29.9439469322847 32.5683
29.96699405457564 32.5874
29.9900424175358 32.5152
30.013092022298157 32.4109
30.03632295963995 32.3946
30.059375061131373 32.4114
30.08242840783577 32.372
30.105483000888153 32.3604
30.128718970092244 32.3612
30.151776069006917 32.3115
30.17483441768648 32.5011
30.198074175317235 32.3729
30.221135036724256 32.3716
30.24419715131772 32.2351
30.267260520236203 32.3297
30.290505341942243 32.2755
30.313571232750228 32.3101
30.336638381310948 32.398
30.35970678876503 32.2199
30.38295669299435 32.177
30.40602763151657 32.1731
30.429099832366074 32.1114
30.452173296685572 31.9518
30.47542830191959 32.0334
30.498504306502497 31.999000000000002
30.521581577995562 32.0695
30.544660117543582 32.115
30.56792024229725 32.1057
30.59100133132069 32.073
30.614083691845494 32.082
30.637167325018545 32.1152
30.660432587840603 32.1142
30.683518779717886 32.2078
30.70660624769615 32.1666
30.729694992924372 32.1339
30.75296541239743 32.1514
30.77605672557558 32.0722
30.799149319462742 32.019
30.8224236211637 31.9158
30.845518789950724 31.8306
30.868615242910597 31.7656
30.891712981195973 31.5879
30.91499247215866 31.508000000000003
30.938092794619365 31.4832
30.96119440587579 31.4386
30.984297307082752 31.2951
31.00758200598383 31.1883
31.030687500658694 31.135
31.053794288760695 31.0752
31.076902371446767 30.9761
31.100192296997445 31.1012
31.12330298246119 31.0258
31.14641496599209 30.7597
31.169528248749216 30.8488
31.19282341969534 30.9296
31.215939314557186 30.8489
31.239056512134788 30.9181
31.262175013589378 30.8143
31.28547544871168 30.8604
31.30859657161541 30.7782
31.331719001892175 30.8005
31.35484274070538 30.9089
31.378148458819545 30.9206
31.401274828443725 30.8639
31.424402510106933 30.8362
31.447712205419993 30.9264
31.470842524931633 30.7655
31.493974159989783 30.7792
31.51710711176168 30.724
31.54042212308802 30.7077
31.563557722100917 30.5749
31.586694641341655 30.5017
31.609832881979628 30.4489
31.63315322823208 30.4559
31.656294125521327 30.1774
31.679436347728515 30.2203
31.70257989602529 30.0905
31.725905596152327 30.2473
31.74905181052835 30.0398
31.772199354521323 30.0713
31.79534822930507 30.0332
31.818679302290967 30.1136
31.84183085259981 30.0263
31.864983737233473 29.9953
31.88813795736804 30.0624
31.911474422233013 30.0553
31.934631327356435 30.1816
31.9577895715215 30.0495
31.980949155906522 29.9404
32.004291031706956 30.0015
32.027453310562606 29.9731
32.05061693318573 29.779
32.07396288236386 29.7271
32.09712920658542 29.523000000000003
32.12029687812702 29.489
32.14346589817093 29.5103
32.166817291729984 29.4223
32.18998902288583 29.3503
32.21316210610336 29.2729
32.23633654256711 29.1873
32.259693399663725 29.2362
32.282870556771144 29.0689
32.30604907069099 29.0991
32.329228942610065 29.0127
32.35259128243769 28.8059
32.375773884550505 28.8972
32.398957848235646 28.8305
32.422143174682176 28.7887
32.445511016471215 28.6622
32.468699082679954 28.7347
32.49188851523011 28.6707
32.51507931531304 28.5204
32.538452678331 28.4994
32.56164622776311 28.3526
32.58484114831493 28.3457
32.60803744118015 28.4491
32.631416344731896 28.5004
32.654615396551876 28.435
32.67781582427913 28.3908
32.701198898634416 28.3111
32.72440209253756 28.2821
32.747606665947124 28.2373
32.77081262006088 28.1305
32.79420126883317 28.1176
32.81740999876112 28.0886
32.840620112999424 28.024
32.86383161274818 27.9712
32.88722585534586 27.9805
32.91044014056596 28.0073
32.933655814909734 27.8976
32.95687287957963 27.8807
32.98027273544904 27.9009
33.00349259526636 27.7682
33.026713849030116 27.8908
33.04993649794511 27.9092
33.073341986570746 27.8632
33.09656744032826 27.8285
33.11979429286444 27.7995
33.14302254538647 27.7378
33.166433686291185 27.7676
33.18966475336992 27.7157
33.212897224069096 27.6004
33.23613109959831 27.5548
33.259547912343415 27.4883
33.2827846121627 27.4938
33.306022720453775 27.4671
33.32926223842861 27.3583
33.352684742614166 27.4077
33.37592709463173 27.2866
33.399170859982064 27.3236
33.422597648419426 27.2096
33.44584425514446 27.0224
33.46909227885668 27.0617
33.4923417207723 26.9428
33.51577423505344 26.9317
33.539026528130385 26.8123
33.56228024307245 26.8529
33.585535381098246 26.7083
33.60897364093058 26.6678
33.63223163992385 26.7556
33.6554910656699 26.6074
33.678751919389796 26.6613
33.702195944520106 26.4849
33.72545966903325 26.5787
33.74872482519663 26.5025
33.771991414233746 26.4192
33.79544122444841 26.3931
33.81871069412428 26.3088
33.84198160035767 26.4401
33.86525394437455 26.3467
33.88870955949969 26.1975
33.911984794020626 26.1546
33.93526147001624 26.1788
33.958539588715006 26.1168
33.98200102861669 26.0612
34.0052820477047 25.9718
34.02856451319451 25.9121
34.05203033759056 25.8118
34.07531571090147 25.9097
34.09860253431845 25.9043
34.121890809074316 25.8575
34.145362493118924 25.8127
34.16865368561615 25.8294
34.191946333164054 25.8014
34.21524043699793 25.7347
34.23871800066799 25.7736
34.26201503218366 25.6787
34.28531352370466 25.5836
34.30861347646881 25.4719
34.33209693978188 25.4297
34.3553998301885 25.3955
34.378704185565205 25.3489
34.402010007152356 25.3488
34.42549939016683 25.3426
34.44880815937748 25.2154
34.472118398533134 25.180999999999997
34.49543010887669 25.1837
34.51892543169198 25.089000000000002
34.54224009966052 25.1946
34.56555624255917 25.1006
34.58887386163339 25.0316
34.61237514439016 24.9021
34.6356957311114 24.8924
34.65901779775809 24.883000000000003
34.68252356662995 24.8322
34.705848608458616 24.8799
34.72917513396849 24.766
34.75250314440949 24.7706
34.77601490857862 24.6072
34.799345904259795 24.6552
34.82267838863559 24.6553
34.846012362958525 24.6761
34.869530142679984 24.6266
34.89286711232212 24.5934
34.91620557568269 24.5334
34.93954553401677 24.4891
34.9630693495876 24.5167
34.986412313340814 24.4565
35.00975677584668 24.5509
35.033102738362956 24.3708
35.05663261012228 24.3375
35.0799815881786 24.3279
35.10333207003229 24.2056
35.12668405694369 24.1342
35.150220005273056 24.1492
35.17357501786656 24.206999999999997
35.19693153931268 24.1512
35.220289570874385 24.093000000000004
35.24383161619786 24.1247
35.267192683604904 24.0465
35.290555264930376 24.0226
35.314101899412165 24.0891
35.33746752422433 24.0401
35.36083466676374 24.0156
35.38420332829803 23.9111
35.407756095629054 23.9346
35.43112781085063 23.9125
35.45450104888391 23.8585
35.477875810999194 23.9329
35.50143473172161 23.7834
35.52481255774625 23.8941
35.54819191167777 23.7984
35.57157279478914 23.7017
35.595137889488406 23.6156
35.61852184675279 23.608
35.641907337029984 23.6054
35.665294361595684 23.5708
35.68886565090076 23.525
35.7122557598848 23.4135
35.73564740699838 23.5063
35.759040593519934 23.456
35.78261809810353 23.3624
35.80601437933051 23.3067
35.829412203814705 23.2706
35.85281157283719 23.2272
35.876395313415884 23.2681
35.8997977874528 23.1636
35.92320180988546 23.160999999999998
35.946790244133936 23.0931
35.97019737933222 23.1304
35.993606066789866 23.0457
36.01701630779276 22.9873
36.04061101440684 23.0143
36.06402437852291 22.9856
36.08743930005611 23.0157
36.1108557802951 22.8547
36.13445678011326 22.8821
36.15787639383515 22.8557
36.18129757014299 22.7137
36.20472031032821 22.7192
36.22832762423364 22.6714
36.25175350829375 22.6657
36.275180960119776 22.5561
36.298609981005924 22.6139
36.32222362992669 22.6558
36.34565580510207 22.5624
36.36908955323448 22.4863
36.39252487562093 22.3654
36.416144880530226 22.4028
36.43958336764275 22.401999999999997
36.463023432914625 22.427
36.486465077645676 22.3457
36.51009145956204 22.4323
36.53353627947859 22.3219
36.55698268276811 22.3373
36.58043067073321 22.2405
36.60406345072071 22.1245
36.62751462435344 22.1451
36.65096738658405 22.1463
36.67460498210655 22.1782
36.69806093788647 22.0935
36.72151848619297 22.0067
36.744977628333636 22.0203
36.76862165890998 22.0044
36.79208400512205 22.0434
36.81554794910557 21.9454
36.83901349217101 21.8231
36.862663978991606 21.7546
36.88613273667352 21.8261
36.90960309738324 21.794
36.933075062434064 21.7541
36.95673202673572 21.759
36.98020721697122 21.5896
37.003684015502365 21.564
37.027162423645365 21.5518
37.050825886711465 21.4852
37.07430753063053 21.5052
37.09779078812467 21.4476
37.121275660513014 21.4488
37.144945643673694 21.3989
37.16843376245278 21.3452
37.19192350009803 21.3139
37.215414857931435 21.2721
37.239091382563885 21.1722
37.262585997426164 21.2513
37.28608223645736 21.2572
37.309763684451696 21.1719
37.33326318851098 21.1351
37.356764320726555 21.1343
37.380267082425526 21.0851
37.40395510942588 21.1084
37.42746114683234 20.9897
37.45096881771841 20.9943
37.474478123414166 20.982
37.49817275092816 20.8493
37.52168534303452 20.8838
37.54519957395567 20.8155
37.568715445024665 20.8404
37.592416694607714 20.7828
37.61593586281424 20.7416
37.63945667518264 20.805999999999997
37.66297913304891 20.721999999999998
37.68668702630454 20.6299
37.710212792059274 20.5628
37.733740207334854 20.5469
37.757269273470364 20.5052
37.780983832050374 20.4931
37.80451621684926 20.5151
37.82805025654007 20.4031
37.851585952464795 20.3826
37.8753071980695 20.3614
37.89884622345676 20.3843
37.92238690911902 20.3432
37.94611318753442 20.2565
37.969657210779765 20.2375
37.99320289834801 20.1994
38.016750251586465 20.1852
38.04048325513017 20.1456
38.06403395679343 20.0953
38.087586328183946 20.0571
38.11114037065203 20.0492
38.13488012115898 20.0992
38.1584375229181 20.0674
38.181996599821 19.9845
38.205557353221124 19.9534
38.229303872575656 19.9146
38.2528679961576 19.8375
38.27643380031219 19.7738
38.30000128639589 19.7791
38.32375459653193 19.8211
38.34732546371299 19.8306
38.37089801690786 19.6899
38.39447225747609 19.6153
38.418232380377425 19.6652
38.441810012983396 19.6107
38.46538933705673 19.5746
38.488970353960084 19.5605
38.51273731166058 19.4766
38.536321731567014 19.4794
38.55990784840681 19.4255
38.58367995004091 19.393
38.60726947812959 19.3667
38.63086070726198 19.4066
38.654453638806274 19.4183
38.678232613930824 19.29
38.70182896773327 19.2214
38.72542702806741 19.2151
38.7490267963045 19.1802
38.77281266709232 19.1199
38.79641586862214 19.1677
38.8200207821842 19.0452
38.843627409152944 19.0957
38.86742019782782 19.0276
38.891030269149255 18.9571
38.914642058016156 18.9822
38.938255565806124 18.9972
38.96205529464307 18.9274
38.98567225787121 18.9236
39.00929094417078 18.9094
39.03291135492255 18.8914
39.05671804624804 18.798
39.080341923549106 18.7615
39.103967529460334 18.7738
39.127594865365744 18.655
39.15140854155791 18.667
39.17503935514948 18.6669
39.19867190290282 18.6317
39.22249083587951 18.585
39.24612686969409 18.5382
39.269764641845306 18.5534
39.293404153722804 18.4957
39.317230110864074 18.461
39.34087311998506 18.4344
39.36451787301696 18.4445
39.388164371352595 18.354
39.41199737518003 18.3619
39.43564738196752 18.2967
39.45929913825317 18.3595
39.48295264543308 18.322
39.506792718520884 18.1691
39.530449745387216 18.1992
39.55410852735203 18.2027
39.57776906581474 18.234
39.60161623079 18.127
39.625280300200025 18.0393
39.64894613032202 18.0431
39.67261372255866 18.0521
39.6964680021016 18.0157
39.72013913657293 17.9963
39.74381203738292 17.9911
39.76748670593756 17.8896
39.79134812278169 17.907
39.81502634488497 17.9105
39.83870633896685 17.8438
39.862388106436654 17.844
39.88625668336918 17.7728
39.90994201572829 17.8203
39.933629125719285 17.8158
39.957503091207826 17.7093
39.9811937746168 17.6926
40.00488623990914 17.6484
40.02858048850006 17.5839
40.05246165409549 17.5912
40.076159487492085 17.545
40.099859108448875 17.529
40.123560518384345 17.5711
40.1474489070226 17.5035
40.171153913178564 17.4526
40.194860712584955 17.451
40.2185693066637 17.4105
40.242464941335314 17.3132
40.26617714307655 17.3001
40.289891143772046 17.2929
40.3136069448471 17.2724
40.33750984859743 17.3072
40.3612292688043 17.2536
40.3849504936829 17.2303
40.40867352466194 17.1982
40.43258372059144 17.1589
40.45631038219906 17.1706
40.48003885420956 17.0349
40.503769138055105 17.0622
40.52768664931955 17.1103
40.55142057531802 16.9995
40.57515631746428 17.054000000000002
40.599079334038514 16.9572
40.62281872700477 16.9256
40.64655994043941 16.8909
40.67030297578061 16.9216
40.69423334835778 16.8214
40.71798004609188 16.8304
40.74172857006355 16.7655
40.76547892171441 16.8044
40.7894166736039 16.7646
40.813170699248566 16.7012
40.83692655691388 16.6827
40.86068424804498 16.673
40.884629402612525 16.6497
40.908390779366385 16.6336
40.932153993938 16.5693
40.95591904777605 16.508
40.979871628443995 16.6273
41.003640379561936 16.5517
41.02741097430883 16.499000000000002
41.05118341413683 16.4935
41.075143444384416 16.3651
41.098919593177826 16.4774
41.1226975914255 16.3869
41.14647744058318 16.3694
41.170444943946755 16.3682
41.19422851378379 16.3502
41.218013938914645 16.2395
41.24198706625173 16.2427
41.26577622087193 16.1792
41.289567235177785 16.1666
41.31336011063129 16.102999999999998
41.337340752422875 16.0858
41.361137369129835 16.0867
41.38493585138705 16.0744
41.40873620066004 16.0258
41.43272438060107 16.0297
41.45652848292052 16.0607
41.48033445666918 15.9081
41.50414230331616 15.9017
41.528138045159764 15.8956
41.551949656675205 15.8862
41.575763145513235 15.8353
41.59957851314666 15.8336
41.62358184070442 15.7748
41.64740098505737 15.7471
41.6712220126409 15.7285
41.69504492493139 15.745999999999999
41.71905586207357 15.6527
41.74288256296395 15.657
41.766711153007456 15.6303
41.79054163368412 15.6164
41.814560204340054 15.62
41.838394485526365 15.64
41.86223066180303 15.5284
41.88625497706819 15.5161
41.910094962812 15.4793
41.93393684811168 15.491
41.95778063445365 15.439
41.981812625263366 15.4291
42.00566023303407 15.4058
42.029509746323676 15.405
42.05336116662236 15.3486
42.077400857069705 15.3405
42.10125611078846 15.2847
42.12511327600405 15.2162
42.14897235421036 15.2149
42.173019768448455 15.2559
42.19688269209613 15.1275
42.22074753323349 15.1634
42.24461429335818 15.147
42.268669455600495 15.1276
42.292540073217886 15.1361
42.31641261433284 15.0725
42.34028708044675 15.0593
42.36435001496739 15.0107
42.38822835065557 14.9728
42.41210861586426 15.0013
42.4359908120986 14.9591
42.46006154323262 14.8989
42.48394762115317 14.8997
42.507835634632315 14.915
42.531912233047436 14.8435
42.55580413732265 14.8541
42.579697981698 14.7413
42.60359376768525 14.7454
42.62767820545945 14.7267
42.65157789440821 14.7475
42.67547952952185 14.6856
42.699383112316 14.6286
42.72347541395347 14.5716
42.74738291190531 14.6154
42.771292362102166 14.6712
42.795203766063516 14.5501
42.819303956130405 14.4966
42.843219287476536 14.4969
42.86713657716324 14.5036
42.89105582671383 14.4633
42.91516392983864 14.4151
42.939087119032166 14.4215
42.963012272677304 14.370999999999999
42.98693939230129 14.353
43.01105543317513 14.3108
43.034986504731386 14.3205
43.05891954686589 14.3211
43.08285456110972 14.2616
43.10697856448665 14.2383
43.130917542983475 14.1587
43.15485849820081 14.1584
43.17880143167367 14.1111
43.20293342237094 14.1363
43.226880332449 14.1357
43.25082922540554 14.1244
43.27496722682525 14.0797
43.29892010567796 14.0247
43.32287497204102 14.0487
43.34683182745632 14.0375
43.370977859791836 13.9739
43.39493871351105 13.9244
43.41890156092628 13.9026
43.44286640358341 13.865
43.46702049182749 13.8623
43.49098934522816 13.8565
43.51496019852649 13.8654
43.5389330532723 13.7951
43.56309522248204 13.8
43.58707210044314 13.7585
43.61105098451946 13.7245
43.63503187626491 13.7225
43.659202151562134 13.6733
43.68318707902681 13.6611
43.70717401884041 13.6421
43.731162972560874 13.5972
43.75534137913236 13.5778
43.779334381108384 13.5669
43.803329401683186 13.5548
43.82732644241872 13.5491
43.8515130055166 13.5262
43.87551410707659 13.4424
43.89951723350145 13.4467
43.923709934595614 13.4492
43.94771713129917 13.4129
43.97172635758096 13.3564
43.99573761501002 13.3507
44.0199385169922 13.3131
44.04395385732619 13.3396
44.067971233533086 13.2944
44.09199064718605 13.2156
44.11619977548961 13.2235
44.14022328470671 13.1947
44.16424883610785 13.2305
44.18827643127035 13.2171
44.21249381139513 13.149000000000001
44.236525514814076 13.0974
44.26055926674478 13.1231
44.28459506876863 13.1129
44.3088207262813 13.0425
44.33286064928722 13.0345
44.35690262714919 13.0103
44.38094666145278 12.9775
44.4051806219871 12.9813
44.42922879003185 12.9642
44.45327901929361 12.9162
44.477331311362136 12.8897
44.501573600619416 12.8778
44.525630039221795 12.8308
44.54968854541895 12.8187
44.573937102200176 12.7877
44.5979997645541 12.7772
44.622064499300315 12.7581
44.64613130803592 12.718
44.67038823869318 12.6831
44.69445921643748 12.6896
44.718532272981385 12.6587
44.742607409926194 12.6747
44.76687274034801 12.663
44.79095205918753 12.6037
44.81503346325094 12.5616
44.839116954143876 12.5289
44.86339071028742 12.5006
44.88747839599524 12.4999
44.91156817336837 12.5428
44.93566004401666 12.4993
44.959942251908146 12.4618
44.984038330325966 12.4441
45.00813650686762 12.3819
45.03223678314731 12.4096
45.05652746888232 12.3503
45.08063196592069 12.3249
45.104738567558705 12.3125
45.128847275414856 12.3391
45.15314646515866 12.2776
45.17725940679741 12.2188
45.20137445952892 12.2283
45.22568004865265 12.2384
45.24979934496396 12.2057
45.27392075725247 12.1671
45.29804428714431 12.1549
45.322358426247604 12.1127
45.346486212804315 12.1245
45.370616121861914 12.0828
45.39474815505086 12.0563
45.41907087049246 12.0487
45.4432071734666 11.9649
45.46734560548283 11.9836
45.49148616817604 12.0049
45.51581748638564 11.9812
45.5399623320197 11.9014
45.56410931325473 11.8967
45.58825843173002 11.9115
45.61259837920865 11.8381
45.636751793816 11.8425
45.66090735060093 11.7974
45.68506505120716 11.8347
45.7094136545275 11.7802
45.73357566449271 11.7354
45.75773982322992 11.7386
45.78190613238733 11.7228
45.806263418194064 11.652999999999999
45.83043404997326 11.7255
45.85460683713677 11.6766
45.87897065658495 11.6371
45.90314777634752 11.6291
45.92732705646868 11.642000000000001
45.9515084986045 11.591
45.97588104735473 11.5637
46.00006683541565 11.5502
46.02425479047904 11.4882
46.04844491420549 11.5239
46.0728262191024 11.4861
46.09702070211635 11.4659
46.12121735879483 11.4454
46.14541619080294 11.4431
46.169806278764455 11.4053
46.194009483459034 11.4317
46.21821486849841 11.3593
46.24242243555223 11.3435
46.266821333570014 11.3181
46.29103328674601 11.2943
46.31524742696538 11.2644
46.33946375590237 11.2513
46.36387149104216 11.2379
46.38809221957392 11.2097
46.41231514186606 11.2326
46.436540259597464 11.1762
46.460956858999374 11.1691
46.48518638983522 11.1257
46.509418121166966 11.1116
46.533652054678114 11.1206
46.55807754555709 11.1049
46.58231590571962 11.0514
46.60655647313217 11.0067
46.630988654873654 10.9807
46.655233659129024 10.9791
46.67948087571551 10.985999999999999
46.70373030632484 10.9386
46.72817142736393 10.9014
46.752425308428684 10.9632
46.77668140861147 10.8705
46.80093972960865 10.8418
46.82538981736788 10.8343
46.849652602470904 10.8001
46.87391761349769 10.7965
46.8981848521493 10.7641
46.9226439341274 10.7787
46.946915650573224 10.7737
46.97118959976749 10.7364
46.99546578341598 10.6922
47.019933887188216 10.6858
47.04421456235744 10.6663
47.06849747711879 10.6244
47.09278263318286 10.6243
47.11725978640143 10.5914
47.14154944775105 10.5945
47.165841355555656 10.5791
47.1901355115306 10.5595
47.214621741924994 10.5356
47.23892041698887 10.5216
47.26322134538975 10.5017
47.28771440635075 10.4819
47.31201986422527 10.4605
47.33632758061436 10.4202
47.360637557241866 10.425999999999998
47.38513974410611 10.414000000000001
47.40945426407847 10.3694
47.43377104948137 10.3488
47.45809010204344 10.3369
47.48260144275502 10.2922
47.506925052572285 10.2834
47.53125093475548 10.2812
47.55557909103813 10.2358
47.58009961361992 10.222999999999999
47.60443234110732 10.216000000000001
47.62876734791564 10.1981
47.65310463578333 10.1804
47.6776343683373 10.158999999999999
47.7019762413987 10.1557
47.72632040075572 10.1212
47.75066684815169 10.1114
47.77520581885936 10.056000000000001
47.799556865477655 10.0951
47.823910205386 10.066
47.84826584033272 10.0531
47.87281407745551 10.0034
47.89717432569297 10.0021
47.92153687423484 10.0018
47.94609208429692 9.97847
47.97045925671401 9.95042
47.99482873471275 9.93135
48.01920052005013 9.92183
48.04376504619224 9.88529
48.068141469543484 9.89875
48.09252020552573 9.86093
48.11690125590099 9.86228
48.1414751266064 9.8079
48.16586082917454 9.766960000000001
48.19024885144316 9.76769
48.2146391951793 9.79747
48.239222439012764 9.73621
48.26361744916137 9.727730000000001
48.28801478610016 9.71921
48.31241445160131 9.73104
48.337007097209366 9.69469
48.36141144338331 9.67602
48.38581812345755 9.65242
48.41022713920929 9.62566
48.434829215320704 9.60399
48.45924292604658 9.61412
48.48365897780325 9.61883
48.50807737237308 9.57744
48.532688907799276 9.55679
48.55711201168574 9.51339
48.581537463754074 9.52106
48.60615611725119 9.52251
48.63058628942721 9.47997
48.65501881516546 9.46455
48.6794536962573 9.44283
48.70408185970339 9.40996
48.72852147531801 9.401639999999999
48.75296345168211 9.39911
48.77740779059232 9.41164
48.80204549302823 9.37283
48.82649458091802 9.35778
48.85094603676547 9.31763
48.87539986237231 9.33203
48.90004713292306 9.24925
48.92450572200832 9.27303
48.94896668628025 9.236469999999999
48.97343002754588 9.226469999999999
48.99808689542115 9.209019999999999
49.02255501470614 9.22206
49.04702551642794 9.23017
49.0714984023988 9.13842
49.096164896893235 9.14435
49.120642575466796 9.15952
49.145122643748394 9.11701
49.16960510355558 9.07333
49.19428125404938 9.042069999999999
49.2187685210852 9.09282
49.243258185121555 9.030330000000001
49.26794160167084 8.98969
49.2924360839405 9.02342
49.31693296869764 8.985430000000001
49.34143225776915 8.96371
49.36612538195438 8.938830000000001
49.39062950396021 8.945210000000001
49.41513603578346 8.905610000000001
49.4396449792564 8.92078
49.46434784069503 8.89362
49.488861631846454 8.8509
49.513377840166804 8.846739999999999
49.537896467493745 8.83818
49.56260909589029 8.77185
49.587132585683285 8.82065
49.611658500018365 8.79073
49.636186840738596 8.75906
49.66090926588511 8.7635
49.685442483902584 8.75575
49.70997813385706 8.71368
49.734516217597076 8.66125
49.75924846937352 8.64494
49.7837914452858 8.63338
49.80833686055187 8.59564
49.83288471702571 8.60882
49.85762682540054 8.6295
49.882179588965734 8.58409
49.9067347993235 8.56782
49.93129245833333 8.55455
49.95604445336378 8.56586
49.98060703442832 8.53917
50.005172069746266 8.48681
50.02993150438364 8.52603
50.05450147301533 8.46745
50.07907390151433 8.45888
50.10364879174981 8.422460000000001
50.12841816587289 8.45379
50.1529980044635 8.41211
50.17758031042124 8.412889999999999
50.20216508562089 8.374039999999999
50.22694442953363 8.375010000000001
50.25153416817468 8.34672
50.27612638170508 8.32008
50.300721072005196 8.274
50.325510416102105 8.298060000000001
50.350110084975064 8.295
50.37471223628208 8.2986
50.39931687190919 8.27045
50.424116246675766 8.27903
50.44872587605249 8.19508
50.47333799543065 8.198889999999999
50.49795260670191 8.2005
50.52276204271512 8.14737
50.54738166295838 8.172260000000001
50.57200378079314 8.12865
50.596628398116835 8.114939999999999
50.62144792604559 8.14816
50.646077567609396 8.15654
50.670709714377715 8.087819999999999
50.69553683636198 8.0642
50.72017401885922 8.05079
50.7448137122895 8.05739
50.76945591856022 8.04687
50.79429318636823 8.015989999999999
50.818940443716784 7.9878
50.84359021965163 7.979769999999999
50.868242516085964 7.966810000000001
50.893089960641895 7.939080000000001
50.917747323549435 7.895910000000001
50.94240721271973 7.91649
50.96706963007175 7.876010000000001
50.99192728239342 7.87893
51.01659478166073 7.8739
51.04126481489051 7.83173
51.06593738400761 7.806769999999999
51.090805275207074 7.83063
51.11548294172845 7.79373
51.14016314993547 7.7869399999999995
51.164845901758845 7.73118
51.18972406304274 7.719360000000001
51.21441192780656 7.72138
51.23910234200271 7.72168
51.2637953075678 7.72479
51.288683770237945 7.701460000000001
51.31338186432707 7.66335
51.33808251561888 7.65448
51.362978729967345 7.64665
51.387684521509755 7.6543
51.41239287610203 7.5993
51.437103795691165 7.6197
51.46201036644977 7.560219999999999
51.486726441956634 7.54869
51.51144508832545 7.55365
51.536166307509156 7.53377
51.56108326624387 7.5050300000000005
51.58580965706056 7.547460000000001
51.61053862657523 7.490710000000001
51.635270176746864 7.45891
51.66019755512065 7.4299
51.68493429268881 7.43942
51.70967361681515 7.43947
51.73441552946465 7.42523
51.759353359237934 7.415939999999999
51.7841004750961 7.358619999999999
51.80885018539685 7.3476300000000005
51.833602492111254 7.36032
51.8585508051424 7.331869999999999
51.883308330926425 7.335889999999999
51.90806845906181 7.28817
51.932831191525715 7.28172
51.95779001977161 7.329089999999999
51.98255798721516 7.272139999999999
52.00732856494335 7.2164
52.03229530577543 7.199110000000001
52.057071130455945 7.19326
52.081849571391054 7.228610000000001
52.106630630568695 7.200189999999999
52.13160794279417 7.18336
52.15639426492067 7.174060000000001
52.18118321127822 7.17086
52.205974783860896 7.1265600000000004
52.23096269971011 7.10313
52.255759551287994 7.0817
52.280559035098186 7.0717
52.30536115314103 7.03994
52.33035970494467 7.062460000000001
52.35516711807904 7.03378
52.37997717147198 7.016139999999999
52.40478986713005 7.03835
52.42979908731974 7.02146
52.454617094216 6.987239999999999
52.47943774942214 6.979139999999999
52.50426105495102 6.93065
52.529280976059844 6.93394
52.554109609024096 6.92662
52.57894089837482 6.90873
52.60377484613117 6.88876
52.62880550079408 6.915939999999999
52.65364479223379 6.8841600000000005
52.67848674816189 6.86977
52.70352547971946 6.81482
52.72837279155837 6.83857
52.753222773982785 6.7858
52.778075429022984 6.774830000000001
52.80312495150885 6.7924
52.827982978797436 6.77245
52.85284368481815 6.73111
52.87770707160767 6.71325
52.90276741793998 6.7057
52.92763619336701 6.704269999999999
52.952507655698504 6.703119999999999
52.977381806977576 6.6768600000000005
53.00245301017842 6.661989999999999
53.02733256653592 6.6893899999999995
53.052214817996074 6.661460000000001
53.077099766608484 6.649369999999999
53.102181859804446 6.57822
53.127072229988265 6.62545
53.15196530349892 6.58605
53.17686108239249 6.58171
53.20195409881522 6.54973
53.22685531582556 6.51777
53.25175924441303 6.51199
53.27666588664027 6.52942
53.30176985962693 6.51666
53.3266819565689 6.49976
53.35159677336455 6.47192
53.376514312083096 6.4730300000000005
53.40162927507703 6.474880000000001
53.42655228516116 6.43839
53.45147802340193 6.433680000000001
53.47660125628886 6.41061
53.50153247842639 6.37971
53.52646643496923 6.343
53.55140312799818 6.3175
53.576537409691696 6.35121
53.60147960336152 6.38013
53.626424539786164 6.31325
53.65137222105307 6.27533
53.67651758529126 6.31048
53.70147078399681 6.24346
53.72642673383343 6.28279
53.75138543689533 6.20999
53.776541917524526 6.18801
53.801506154876755 6.25323
53.826473151763246 6.24146
53.851442910284916 6.16972
53.87661054126026 6.19571
53.9015858509782 6.16615
53.92656392866066 6.16604
53.95154477641532 6.15526
53.976723591801296 6.1275699999999995
54.00171000771266 6.13341
54.02669920004598 6.1489199999999995
54.051691170915745 6.1024199999999995
54.076881204886796 6.0925199999999995
54.101878760928514 6.06717
54.12687910187696 6.06348
54.152077577768296 6.05883
54.1770835166946 6.02878
54.20209224691339 6.03504
54.22710377055121 5.9907699999999995
54.25231352511594 5.954940000000001
54.27733066384342 5.93709
54.30235060239643 5.9503900000000005
54.32737334290836 5.95339
54.35259441062629 5.90265
54.377622783395324 5.8771
54.40265396455061 5.88354
54.42768795623251 5.90552
54.45292037169559 5.84781
54.477960012857906 5.86254
54.50300247099511 5.80494
54.52804774825457 5.78033
54.55329154616743 5.7781400000000005
54.57834249018678 5.7142599999999995
54.6033962597977 5.73763
54.6284528571545 5.72653
54.653708072335164 5.72276
54.67877035378786 5.67818
54.70383546947698 5.6305
54.72890342156389 5.62495
54.7541700889442 5.627269999999999
54.77924374251975 5.59521
54.8043202390049 5.5608900000000006
54.82959552413022 5.55893
54.8546777351945 5.503909999999999
54.87976279569621 5.4973
54.90485070780914 5.488230000000001
54.930137506558005 5.46749
54.95523115074295 5.51412
54.98032765308844 5.47839
55.005427015775496 5.43956
55.03072536339621 5.44956
55.05583047570572 5.42241
55.080938454927676 5.36372
55.10604930325027 5.335459999999999
55.131359235107396 5.34897
55.15647585066083 5.29668
55.181595341907496 5.256469999999999
55.20671771104285 5.2664800000000005
55.232039262617704 5.251530000000001
55.25716741665048 5.26529
55.28229845518636 5.24254
55.30743238042802 5.175619999999999
55.33276558731939 5.12017
55.357905315183636 5.11521
55.383047936390035 5.0783
55.40819345314859 5.06802
55.433538351073295 5.03199
55.458689688238415 5.02364
55.483843927614096 4.93459
55.509197623043605 5.01215
55.53435769621134 4.93449
55.55952067826466 4.96537
55.5846865714265 4.92612
55.61005202069737 4.85266
55.63522376553902 4.90192
55.66039842818645 4.80542
55.68557601087004 4.8478900000000005
55.7109532500271 4.73824
55.73613670233794 4.8014
