TT I
1.2716486653135266 6.9211800000000006
1.2939594142134223 7.62362
1.3162702121660406 7.445119999999999
1.3385810600174564 6.587560000000001
1.3608919586137629 7.13165
1.383202908801069 6.60095
1.405513911425503 7.00652
1.4278249673332093 6.97888
1.4501343378461518 6.40026
1.4724455028545926 6.54066
1.4947567236847858 5.69789
1.517068001182951 6.49184
1.5393793361953272 6.18609
1.5616907295681737 5.90572
1.5840021821477681 5.39663
1.60631369478041 5.165690000000001
1.6286252683124185 5.581169999999999
1.6509369035901333 5.44599
1.6732468618895553 4.77681
1.695558623192809 4.99432
1.7178704487808514 5.60765
1.7401823395001077 4.9909300000000005
1.7625012545597203 4.6925099999999995
1.7848028405262486 4.8228
1.8071218901122095 5.079
1.8294236121921872 5.1063
1.8517427996910911 5.0515099999999995
1.8740620574440425 4.94416
1.8963639900671978 5.06329
1.9186833908139995 4.42431
1.9409854680117449 5.12827
1.9633050151394713 5.01949
1.9856246367570705 4.69881
2.0079269371922672 4.77546
2.03024671027244 5.13162
2.0525491637446027 4.33259
2.074869091674931 4.8829199999999995
2.097171701569106 4.3882
2.1194917877373847 4.5563400000000005
2.141811954326636 4.8475
2.164114805233074 4.81579
2.186435135143035 5.312069999999999
2.208738150935709 8.65961
2.231058647554722 15.4989
2.2533792288321184 12.0909
2.275682498336085 6.74972
2.298003251406138 5.40569
2.3203066942619714 5.12513
2.3426276225136022 5.07049
2.3649486396617507 4.96726
2.387252348930071 5.28081
2.4095735463442893 5.5567400000000005
2.4318774374315884 5.58174
2.4541988185014043 6.03069
2.476502894794693 6.9652199999999995
2.498824462909887 6.642710000000001
2.521146125856138 6.940239999999999
2.5434504863470337 6.45714
2.5657723414244717 7.5707699999999996
2.588076895590662 7.509060000000001
2.610398946189713 7.70908
2.6327210958598384 7.054869999999999
2.6550259469304716 7.15465
2.6773482972090137 7.590269999999999
2.6996533504259 7.19146
2.7219759047039602 7.62057
2.744298562293959 7.48195
2.7666039251246595 7.5939
2.7889267918020164 7.1792300000000004
2.8112323652516555 7.62874
2.833555444408179 7.982010000000001
2.8558786311183852 7.76253
2.8781845268938557 8.17143
2.9005079311721484 8.46102
2.9228140460410397 8.70855
2.9451376712799635 9.723139999999999
2.967444008632326 9.5812
2.9897678582247247 10.2891
3.0120918213106695 10.6352
3.0343984987899373 10.6951
3.0567226913198637 11.3938
3.079029599759726 11.4961
3.101354025127254 12.3013
3.123678568232338 12.7441
3.145985829517914 12.9792
3.16831061055229 13.1553
3.1906181112775593 14.2297
3.212943133635653 14.3343
3.2352682779763207 15.073
3.2575761442691227 15.2477
3.2799015350264273 15.5404
3.302209649240067 16.217
3.3245352898092655 16.4458
3.3468436553365257 17.5061
3.369169549113219 17.8826
3.3914955708171384 18.5315
3.413804319727358 18.832
3.4361305997334863 19.2117
3.4584396084414553 19.590999999999998
3.4807661501462652 20.3893
3.503092824025881 21.0135
3.5254022288463154 20.9571
3.5477291695206588 21.6805
3.5700388426251948 21.9722
3.5923660534916446 23.4521
3.6146934007816114 31.1131
3.637003482731501 53.9477
3.6593311053109985 58.1614
3.681641464033634 38.8236
3.7039693653009733 27.2148
3.726297407241705 25.8216
3.7486081875460804 25.4854
3.7709365132734978 26.2491
3.793247578841633 26.4077
3.8155761917550093 26.1631
3.8378875459837216 26.8892
3.8602164494827234 27.4721
3.882545499606844 28.6234
3.9048572932539183 29.5753
3.9271866390645718 29.2926
3.9494987298666713 29.666999999999998
3.971828374764527 30.2612
3.9941581705403255 31.1392
4.016470713506008 31.4844
4.038800813471445 32.2918
4.061113662089144 33.0097
4.0834440696459176 33.5016
4.105774632334751 33.9878
4.128087945865126 34.4267
4.150418821249301 35.3205
4.172732448931298 36.6251
4.195063640413578 37.9252
4.2173775856475215 39.7879
4.239709096631102 56.9777
4.262040768704612 130.606
4.284355196706267 166.56599999999997
4.306687193387355 114.42299999999999
4.329001947444346 59.4106
4.35133427213731 45.4206
4.373666762177566 43.9344
4.395982011761091 44.0549
4.418314834921175 45.4672
4.44063041906622 49.2906
4.4629635787515625 54.8253
4.4852969080429785 55.5733
4.5076130004776225 52.7327
4.529946671403969 53.7822
4.552263106909177 55.6865
4.574597122877047 54.8038
4.596931312711224 54.3315
4.619248269273446 54.3288
4.6415828092605835 55.1131
4.663900117405352 56.053000000000004
4.686235010953232 57.8843
4.708552674085913 59.3763
4.730887924602802 60.5138
4.753223354952695 62.5056
4.775541557023902 65.0083
4.797877349456786 66.8437
4.820195915032126 68.9989
4.842532072957498 69.4095
4.864868414979744 71.7246
4.88718753227192 74.9526
4.909524244902505 76.6206
4.931843734218147 77.5733
4.954180820867835 80.0126
4.976518095879839 82.9054
4.998838149695359 86.0979
5.021175803844231 90.0778
5.043496238205739 93.7707
5.065834274903528 98.7249
5.088172504230693 104.464
5.1104935158799565 111.914
5.132832132875765 132.158
5.155153533596801 164.62
5.1774925416746225 226.9
5.199814334878411 539.284
5.2221537374521505 1428.57
5.244493338631803 3530.12
5.266815727034316 7829.24
5.289155727832427 11692.0
5.311478517248165 8491.21
5.333818921080011 2849.37
5.356159527788849 583.1709999999999
5.3784829252032536 206.051
5.400823940070432 157.066
5.423147747031976 135.233
5.445489173474152 123.863
5.467830807066149 120.51899999999999
5.490155234831516 117.321
5.512497285125229 111.75200000000001
5.534822130975162 107.95200000000001
5.557164601388673 104.887
5.579489868738879 101.844
5.601832762690846 100.711
5.6241758697774475 99.5662
5.646501775867269 98.6412
5.668845311622074 97.7579
5.691171647754637 96.7808
5.713515615597765 95.6662
5.735859800852677 95.1978
5.758186788542988 95.7287
5.780531411018185 97.3801
5.802858837297399 96.7397
5.825203900414495 97.1375
5.8475491852224 99.5666
5.869877275883075 98.8745
5.892223006467101 98.3305
5.914551544266608 99.3111
5.936897724049891 102.89200000000001
5.959244129804903 112.21600000000001
5.981573344815301 150.871
6.0039202049061 300.02099999999996
6.026249875609095 608.363
6.04859719346037 1188.99
6.070927323278297 2378.77
6.093275102315365 4247.95
6.115623113320588 5097.01
6.137953938319995 3281.75
6.160302415650845 1029.56
6.182633708324452 249.755
6.2049826554078376 119.262
6.227331838745022 96.0378
6.249663839443684 87.6587
6.27201349767565 83.2889
6.294345974611799 84.3645
6.316696111167083 88.2246
6.339046488263839 84.2963
6.361379686074702 76.2827
6.383730546639482 72.1226
6.406064229255215 70.7781
6.428415576718203 70.8048
6.450749747566656 68.8684
6.47310158535871 67.5021
6.495453669698332 66.5189
6.517788579421056 65.3424
6.540141159237969 65.0244
6.562476565766648 64.3244
6.5848296444934045 63.93
6.607182974060425 63.8458
6.6295191323281015 63.4016
6.651872965955752 64.1821
6.6742096296068985 75.4563
6.6965639707294615 96.5392
6.71891856698715 96.3061
6.741255995248479 75.8666
6.763611104154477 63.5202
6.785949046381137 60.1402
6.808304671371482 59.4073
6.8306605557940046 60.2306
6.852999275508618 59.0255
6.875355681171544 57.5972
6.897694923437771 57.2966
6.92005185377892 56.8171
6.9423916220322655 56.8967
6.964749080490181 56.0794
6.987106804399774 56.4364
7.009447368180821 56.6038
7.031805625367033 56.3796
7.054146723727803 56.0004
7.076505517631004 55.6944
7.098864581288365 55.5377
7.121206488070854 55.608000000000004
7.143566093607822 55.4104
7.165908543567245 56.1773
7.188268694426048 56.309
7.2106291193438095 55.5629
7.232972390625943 55.9977
7.255333366030969 61.8932
7.277677189091925 86.2051
7.300038718428332 107.57
7.322400526130865 95.4311
7.344745183422596 70.69800000000001
7.367107550224791 58.1045
7.389452767901992 55.8882
7.411815697249891 55.3054
7.434161478756298 54.4581
7.456524974096713 54.6188
7.478888753837185 54.6972
7.501235387657368 55.1823
7.523599738562711 55.282
7.545946944825532 55.2718
7.568311870344528 55.9501
7.5906770845765665 55.7983
7.613025156078678 56.1734
7.635390950099687 57.2343
7.657739602662809 56.7823
7.680105979923558 56.5828
7.702472650212829 56.9188
7.724822180948224 56.8485
7.747189439655568 56.8203
7.769539560075357 56.7634
7.791907410653562 57.0752
7.81425812420825 57.5711
7.836626570110925 57.7335
7.858995315087906 58.0863
7.881346924933401 58.5688
7.903716270417482 59.0194
7.926068482028405 59.4242
7.948438431475253 59.713
7.9708086843180235 60.2311
7.993161805171116 61.5021
8.015532667162402 61.4715
8.037886398416653 62.7776
8.060257873014221 63.583
8.082629655331942 64.0706
8.104984308787587 64.899
8.127356708900503 67.294
8.149711981398308 70.9283
8.172085002766314 72.7524
8.194458336181368 71.0304
8.216814543847752 70.1934
8.23918850371002 70.6459
8.26154533906492 72.0965
8.283919928836452 73.1253
8.306277395339652 74.1847
8.328652618483376 76.0363
8.351028159736202 77.7857
8.373386579575245 80.523
8.395762759396959 81.9444
8.418121819038275 86.2364
8.440498640894003 95.3315
8.462875785192262 109.06700000000001
8.485235811156207 141.467
8.507613602688501 211.577
8.529974277114228 316.681
8.552352719347912 467.333
8.574731488360351 750.193
8.59709314210385 1245.05
8.619472567021075 1837.96
8.64183487789147 2188.9
8.664214962183097 1788.13
8.686577933647762 954.3560000000001
8.708958680784317 368.755
8.731339760774953 164.727
8.753703729764451 113.309
8.77608547780821 101.23200000000001
8.798450116065078 97.5053
8.820832535634787 94.6941
8.843215292401656 93.2949
8.865580941199045 92.7442
8.887964374703538 91.676
8.910330701447199 91.8556
8.932714815164482 92.4397
8.955099270424924 90.5172
8.977466620733543 88.0753
8.999851761421976 87.0066
9.022219798361645 85.7217
9.04460562795561 85.2035
9.066991803441677 84.8561
9.089360876979615 84.8734
9.111747746589993 84.8008
9.13411751544971 84.2522
9.156505082664324 83.1714
9.178875550323522 83.6439
9.20126381862328 83.3453
9.223652438908596 83.9471
9.246023961427412 83.7786
9.26841328802173 83.7309
9.290785518039224 83.939
9.313175554425882 85.4244
9.335565947154315 85.7043
9.357939245086508 86.0466
9.380330352834827 85.71700000000001
9.40270436697103 86.1575
9.425096193225055 84.992
9.447488380180165 86.0887
9.469863475295412 85.7197
9.492256385987508 86.1045
9.514632206018318 86.8352
9.537025843935714 87.1702
9.559402392368193 88.4592
9.581796761000229 90.1885
9.604191496441521 91.6383
9.626569144158516 93.7067
9.648964615551032 95.6803
9.671343000390081 96.8397
9.693739211225699 95.7482
9.716135793237463 94.71700000000001
9.738515290448102 94.8108
9.760912617143402 96.5311
9.783292860202891 98.5047
9.805690935076182 100.366
9.828089385495742 101.01
9.850470754023561 102.82
9.872869957865444 107.447
9.89525208097539 115.325
9.917652041736662 124.12899999999999
9.940052382417589 134.601
9.962435644102392 167.68200000000002
9.984836746950979 223.801
10.007220771957746 296.68
10.029622640473708 412.325
10.052007432299963 605.363
10.074410069984072 890.2139999999999
10.096813093716005 1287.77
10.119199042482517 1702.19
10.141602840636468 1927.35
10.163989564971628 1614.11
10.186394141051062 926.99
10.208799107559706 401.24300000000005
10.231187001965623 191.12
10.253592751657669 129.553
10.275981430388155 115.41
10.298387966769793 112.54799999999999
10.320794897965431 112.62299999999999
10.343184759907361 111.507
10.36559248305461 107.97200000000001
10.387983138083852 108.57700000000001
10.410391656691655 117.396
10.432800574501677 132.359
10.455192425893369 151.216
10.47760214443012 180.095
10.499994797678786 225.09599999999998
10.522405320453982 303.306
10.54479877906917 404.231
10.567210109595656 500.81199999999995
10.5896218454736 561.436
10.612016518879773 492.29699999999997
10.634429067781074 343.06300000000005
10.656824555333241 199.25400000000002
10.679237920773568 123.86200000000001
10.701651695961992 97.3285
10.724048411481384 90.8355
10.746463008485165 87.9013
10.768860546937125 86.1075
10.791275969274796 84.4636
10.81369180576079 83.4018
10.836090585366925 82.4949
10.858507252467449 81.372
10.88090686379991 80.0217
10.903324365036394 79.691
10.925724811614439 78.7114
10.948143150509463 79.3878
10.970561909719066 78.8866
10.992963615930844 77.5292
11.015383218085756 75.9215
11.037785768347074 74.4853
11.06020621697282 73.658
11.082627090322113 73.2009
11.105030913430326 72.6006
11.12745263854165 72.3203
11.149857314510728 73.3308
11.172279894912576 76.4169
11.194702904450653 76.6492
11.217108866490921 73.8868
11.239532736615194 71.6205
11.26193956033512 70.4634
11.284364294577085 69.9816
11.306789462371718 68.5562
11.329197585398376 68.0408
11.351623622610898 67.9173
11.37403261614354 66.9713
11.396459526308487 66.688
11.418869393879497 66.5641
11.441297180532617 66.1915
11.463725406927658 66.0302
11.486136592353875 65.5165
11.508565700543707 65.7346
11.530977768845315 66.6324
11.553407762368774 66.7475
11.575838200059769 66.566
11.598251599479612 65.3321
11.620682927815501 64.5486
11.64309721895548 64.4364
11.665529441478206 63.8682
11.687962112597958 63.8464
11.710377748130886 64.0126
11.732811318753434 63.6572
11.755227854859067 63.4338
11.777662328529495 63.6477
11.800079768750786 63.5624
11.822515149015453 63.5555
11.844950984084935 63.6448
11.867369787303163 63.51
11.889806534289491 63.5821
11.912226250487029 63.8518
11.934663912939751 63.8138
11.9571020346363 64.139
11.979523127133968 64.2624
12.001962169624331 65.6816
12.024384183972964 68.2485
12.046824150809913 72.3896
12.069264581333726 77.9031
12.091687985297767 83.9868
12.11412934550045 94.4774
12.136553680195208 109.508
12.158995973632788 131.46
12.181438735204349 156.131
12.20386447284199 182.083
12.226308172985636 201.11599999999999
12.24873485024193 200.28099999999998
12.271179492516982 168.32299999999998
12.293607112949127 123.491
12.316052700916226 91.5827
12.338498763250042 75.4736
12.360927805303868 68.8081
12.383374818673879 66.3806
12.405804812803074 65.327
12.428252780773262 64.8392
12.45070122756722 65.1908
12.473132656675375 65.1919
12.49558206341869 65.7766
12.518014453510101 65.5482
12.540464823770117 65.6629
12.562915677315177 65.6174
12.58534951575545 66.2209
12.607801338171472 66.9336
12.630236146511358 69.7033
12.652688941369085 72.2579
12.675124723177234 72.6421
12.697578494048786 71.2941
12.720032754458185 69.4664
12.742470003354093 68.9125
12.764925245138771 68.9747
12.787363476431278 69.1689
12.809819703166806 69.6365
12.83227642391173 70.2295
12.854716135692716 70.9153
12.877173846755147 72.12899999999999
12.899614549869717 72.5946
12.9220732548287 73.3768
12.94453245827299 74.1258
12.966974655289818 74.8631
12.989434858002571 75.6952
13.011878055298721 76.4086
13.034339260862497 77.396
13.056800969391883 79.0454
13.079245674017244 82.4264
13.101708390774869 87.7463
13.12415410463411 98.1907
13.146617833206086 110.505
13.169064559883248 122.512
13.191529303857127 138.658
13.213994557076367 163.613
13.236442809902437 201.24099999999999
13.258909083908291 252.405
13.28135835851934 306.379
13.30382565690295 368.094
13.326293469022952 417.416
13.348744283242008 419.691
13.371213125129904 354.325
13.39366497011003 260.10900000000004
13.416134845360597 170.954
13.438605238843131 125.09
13.46105863690397 112.355
13.483530069144786 114.296
13.505984506951902 120.619
13.528456981549432 131.882
13.550929978879088 147.55100000000002
13.573385983253365 172.48
13.595860028340867 208.805
13.618317081455832 254.142
13.64079217790333 301.942
13.663250283359057 340.14
13.685726434770173 370.265
13.708203115221277 341.41900000000004
13.730662806148091 266.978
13.75314054697177 188.375
13.775601299246777 129.023
13.798080104050406 97.6209
13.820559442405358 86.6769
13.843021793671388 82.9652
13.865502201420897 81.3568
13.887965623051947 81.1571
13.910447103807167 79.8677
13.932929122629764 78.3697
13.955394156785959 78.1261
13.977877254034569 77.1426
14.000343367582113 76.2517
14.022827546871707 75.4816
14.045294743423524 74.8876
14.06778000837062 74.5601
14.090265817715476 74.2704
14.112734645763819 73.5829
14.13522154619454 73.1858
14.157691466286913 73.1276
14.180179461423874 73.1117
14.202668005486178 72.5365
14.22513957064374 72.0469
14.247629214846473 71.76100000000001
14.270101881097517 71.4574
14.29259262906496 71.3734
14.315083930490205 71.6238
14.337558255389705 71.7288
14.360050666019726 71.5917
14.382526101071944 70.8986
14.405019624534942 70.2602
14.427513705993134 70.0737
14.449990813291825 70.0279
14.47248601302899 69.8938
14.49496423954951 70.1451
14.517460561197822 70.3086
14.539939910570322 69.9575
14.562437357763558 70.227
14.58493536931253 70.9083
14.607416409993311 71.2635
14.62991555254159 71.8004
14.652397725157423 72.0317
14.674898002342799 71.7663
14.697398848433282 71.9762
14.719882725991326 73.5938
14.74238471217934 76.07
14.764869730765593 80.5539
14.787372860692983 84.2527
14.809876564079925 89.0735
14.83236330125751 95.3088
14.854868153850365 105.061
14.877356041159485 118.852
14.899862046604186 136.656
14.922351087688757 158.014
14.944858249632887 182.24
14.967365991421232 202.417
14.989856770231246 216.87900000000002
15.012365673994204 214.778
15.03485761569738 186.78799999999998
15.05736768508665 147.743
15.07987833888692 114.45100000000001
15.102372032001655 90.3635
15.124883856909658 77.5209
15.14737872204565 73.3602
15.169891721717274 71.8077
15.192405310371893 71.3687
15.214901940621196 71.2382
15.237416709527137 70.8917
15.259914520936249 70.7885
15.282430473753607 70.0931
15.304947020131227 69.3523
15.327446610371178 68.7203
15.349964346154254 68.1304
15.372465126703139 68.0786
15.394984055556009 67.5311
15.417486030076159 67.5782
15.44000615566487 67.1377
15.462526881230803 66.9757
15.485030653812652 67.0277
15.507552581617434 67.0596
15.530057557334603 67.2282
15.55258069104857 67.0453
15.575104429329837 67.1437
15.597611216864632 67.3446
15.620136166564563 68.1154
15.6426441664095 70.4541
15.665170331202765 73.7423
15.687697105158826 76.9127
15.710206930593545 80.4711
15.732734925158933 84.7875
15.755245972089478 91.8484
15.77777519094324 101.49600000000001
15.800287463046663 114.637
15.822817909869592 131.499
15.84534897229804 148.938
15.867863089299354 169.03099999999998
15.890395385222186 184.047
15.912910736597423 191.053
15.935444269699861 180.733
15.957978423016485 154.412
15.980495633101265 121.68700000000001
16.003031029129367 95.4312
16.02554948280019 76.6547
16.048086125229432 68.0358
16.070623392487107 65.1373
16.09314371869582 64.2221
16.11568223789321 63.2858
16.13820381691126 62.5057
16.160743591742527 61.9607
16.183283996022084 61.2276
16.205807461423195 60.1949
16.228349126881973 59.6786
16.25087385432698 59.8888
16.27341678466365 59.4001
16.29594277784926 58.8818
16.31848697676433 58.8613
16.341031811604868 58.9031
16.36355971058487 58.8124
16.3861058195587 58.7362
16.40863499352978 57.8438
16.431182380342005 57.1132
16.453730407713202 56.9113
16.476261501364792 56.5695
16.498810812136167 56.3189
16.52134319004079 56.3724
16.54389378792203 56.1543
16.566445031001553 56.07
16.588979342490088 56.0334
16.61153187824822 55.672
16.634067483263312 55.5913
16.656621315414416 55.8128
16.679175797408888 55.5429
16.701713349928728 55.6133
16.72426913389191 55.5435
16.74680798922351 55.6103
16.76936507887444 55.6026
16.791905240734874 55.7637
16.814463639794468 55.4734
16.837022695210294 55.6221
16.859564824093756 55.8835
16.882125194503903 56.2046
16.904668639217885 56.6285
16.927230328348003 56.6595
16.949792678493612 56.8264
16.972338104193863 56.5657
16.994901778652235 56.4511
17.017448529496576 56.8733
17.040013531998152 57.2079
17.06257920018044 58.0402
17.0851279459922 58.8034
17.107694947817667 59.6332
17.130245028099072 60.5323
17.15281336730298 62.0258
17.17536478578733 63.6045
17.19793446610687 66.0487
17.220504818648422 68.9869
17.243058251703697 71.5905
17.265629950971032 75.3332
17.288184731571736 78.7571
17.310757781306908 82.3182
17.33333150794385 83.3523
17.355888317140174 81.8084
17.37846339986244 77.6876
17.401021565958885 71.5805
17.42359800851343 66.34899999999999
17.44617513265564 63.0206
17.468735341390783 61.0718
17.491261035594565 60.0536
17.51396340099364 59.9859
17.536490463869136 60.1148
17.559018209820174 60.1579
17.58154663977963 60.2412
17.604251766089718 60.4515
17.626781572227713 60.8376
17.64931206518155 60.7969
17.671843245885103 61.3389
17.69455114821572 61.6441
17.717083712612634 62.1265
17.739616967569667 62.0336
17.762150914021706 62.4096
17.78486160749854 62.6904
17.807396945166804 63.7239
17.829932977143503 65.4332
17.85246970436452 67.439
17.875183204129467 69.4471
17.897721330097664 71.4285
17.920260154126645 73.9335
17.942799677153296 77.4002
17.9655159983646 81.39399999999999
17.988056927677544 86.9072
18.010598558807683 94.4203
18.033140892692916 103.258
18.05586005052525 112.309
18.07840379824407 121.89200000000001
18.10094825154059 132.774
18.12366954819864 140.142
18.146215420998306 139.849
18.16876200220057 132.719
18.191309292745153 119.541
18.214033452627167 105.64299999999999
18.236582170236648 94.0488
18.259131600016456 88.9263
18.281681742907335 88.8217
18.304408781233683 92.14200000000001
18.32696035875955 96.072
18.349512652227624 100.90299999999999
18.372065662579683 105.499
18.394795594587553 106.56200000000001
18.41735004715306 103.446
18.43990521943684 97.1347
18.46246111238171 87.4383
18.485193953325208 78.1663
18.507751296070428 70.8119
18.530309362314178 66.6113
18.552868153000343 64.2774
18.57560391815056 63.1082
18.59816416623245 62.6909
18.620725141597372 62.2347
18.643286845190268 61.6681
18.666025549835414 61.208
18.688588718427933 60.8086
18.711152618092243 60.8564
18.73389353884365 60.4042
18.75645890921984 60.0883
18.77902501351406 59.7489
18.801591852673102 59.7431
18.824335739722738 59.0128
18.846904057212626 58.9493
18.8694731124168 58.7467
18.89204290628315 58.7787
18.914789774966803 58.4039
18.937361054791623 58.1708
18.959933076131318 58.0133
18.982505839934877 57.7989
19.00525570560582 57.9212
19.027829963004184 57.9027
19.05040496572238 58.123999999999995
19.072980714710468 58.1436
19.095733592739563 58.3726
19.11831084296757 58.6898
19.140888842324735 59.0344
19.16346759176222 59.2248
19.18622349753803 59.7948
19.208803755869358 60.8828
19.231384767143577 62.0899
19.253966532312948 63.6692
19.276725481241822 65.7162
19.29930876296784 67.87899999999999
19.3218928014549 70.2678
19.34465404436217 72.7173
19.36723960516257 75.3241
19.389825925592426 76.2541
19.412413006605938 75.6974
19.43517731967805 72.7884
19.457765930683355 68.2222
19.48035530514408 63.918
19.50294544401556 59.8923
19.525712842708348 57.2832
19.54830451925909 55.946999999999996
19.570896963095727 55.0012
19.593490175174704 54.6623
19.616260674962184 54.7583
19.638855432416964 54.3421
19.661450960992624 54.6609
19.68404726164677 54.5425
19.706820878021247 54.1714
19.729418731756834 54.313
19.752017360452857 54.1696
19.77461676506804 54.5441
19.797393513540218 54.7823
19.819994478951667 55.2934
19.84259622316767 55.6208
19.8651987471481 55.8507
19.887978643247177 56.3422
19.91058273574792 56.7707
19.933187610901943 57.6549
19.955969879466828 58.9411
19.97857632894404 60.1727
20.00118356396599 61.766999999999996
20.023791585494575 63.8374
20.046577028914875 65.9747
20.069186632506966 67.97399999999999
20.091797025500632 69.7373
20.114408208858933 70.618
20.137196842715273 70.851
20.159809615886765 69.3052
20.18242318232135 66.7836
20.20503754298326 64.5868
20.227829382875154 63.3339
20.250445341109344 63.0748
20.27306209647285 63.2796
20.29567964993108 64.2046
20.31847471147704 65.3001
20.34109387027612 66.13600000000001
20.363713830075454 65.8706
20.386334591841646 64.667
20.409132890679302 61.8924
20.431755265564437 58.6079
20.454378445325528 55.8958
20.477002430930366 54.0521
20.499803982716553 52.9155
20.522429589228004 52.0484
20.54505600449589 51.5936
20.567683229489194 51.4356
20.590488049900088 51.1113
20.61311690359731 50.7795
20.63574656993626 50.881
20.658553853717297 50.5733
20.681185154618298 50.3496
20.703817271080066 50.3605
20.72645020407368 49.9311
20.749260783967177 49.9135
20.771895359337133 49.9751
20.794530754161617 50.0424
20.817166969412938 49.6627
20.83998086114876 49.7183
20.86261872660049 49.3712
20.885257415405402 49.4121
20.90789692853701 49.5335
20.930714147864748 49.4773
20.953355319030678 49.4142
20.97599731745334 49.6091
20.99864014410749 49.5298
21.021460706796564 49.5201
21.044105199328826 49.6226
21.06675052302631 49.8541
21.089396678865015 49.9967
21.112220600704806 50.3663
21.134868430275347 50.8603
21.15751709492456 50.9932
21.180166595629693 51.1203
21.202993892429635 51.5618
21.22564507473034 51.8769
21.24829709602816 52.0678
21.27112693608965 52.3948
21.293780644891275 52.3103
21.316435195634053 51.614
21.339090589297417 50.6872
21.361923832041875 50.2823
21.384580921090404 49.742
21.407238856007325 49.1589
21.429897637773326 49.1622
21.45273429906592 49.24
21.475394784108598 49.2321
21.498056118951983 49.2181
21.520718304578022 49.5087
21.543558400304388 49.5454
21.566222297108816 49.9994
21.58888704765135 50.1333
21.61155265291521 50.3619
21.63439619898156 51.0119
21.657063523335786 50.9798
21.67973170537063 51.6047
21.7024007460706 52.156000000000006
21.72524775840385 52.8529
21.747918526116475 53.8353
21.770590155457388 55.2586
21.79326264741238 56.5719
21.816113141960237 58.4738
21.838787368860547 59.9595
21.861462461341976 61.6039
21.884315579735777 63.2482
21.90699241312273 64.6425
21.92967011506078 65.4818
21.95234868653799 65.1086
21.9752053151131 64.0216
21.997885635446785 62.1922
22.020566828293532 60.0942
22.04324889464272 58.1408
22.066109049404666 56.8219
22.088792872571794 56.5378
22.111477572219204 56.6467
22.1341631493376 56.5646
22.157026846313123 56.621
22.179714188221507 56.0231
22.202402410582668 54.9406
22.22509151438863 53.7191
22.24795876962584 52.1822
22.270649646204486 51.2933
22.293341407213727 50.5231
22.316034053646906 50.0853
22.338904883215342 49.8215
22.36159931041458 49.8098
22.38429462602756 49.6546
22.40699083104897 49.4107
22.429865251039757 49.5067
22.452563244831367 49.4796
22.47526213102522 49.4046
22.49813925616515 49.5107
22.520839937143307 49.3198
22.543541513520587 49.4234
22.56624398629403 49.2777
22.589124730075895 49.2653
22.611829005656723 49.7735
22.63453418063466 49.6442
22.657240256008077 49.7252
22.680124634582935 49.8741
22.70283252079775 50.2
22.725541310413075 50.5557
22.74825100442868 50.8602
22.771139033969575 51.2641
22.79385054687155 51.4359
22.81656296718292 52.2278
22.83927629590484 52.8431
22.862167992606945 53.9205
22.88488314827121 55.0974
22.907599215359284 55.7754
22.93031619487366 56.6581
22.953211574954405 57.5539
22.975930389478226 58.3634
22.998650119445763 58.7052
23.02137076586092 57.8347
23.044269845560063 56.7198
23.06699233506288 55.1699
23.089715744034912 53.3274
23.112617610931565 51.7213
23.135342869061212 50.5726
23.158069049684816 49.9974
23.1807961538087 49.4892
23.20370174880544 49.6212
23.226430710184808 49.7551
23.249160598093425 49.8497
23.271891413539002 49.9572
23.294800752937697 49.9188
23.31753343374794 50.0541
23.340267045128353 50.202
23.36300158808808 50.5599
23.38591468821339 50.9197
23.408651104658304 51.45399999999999
23.431388455719986 51.9768
23.454126742409 52.7978
23.4770436196085 53.6349
23.499783787914662 54.6611
23.522524894889884 55.4513
23.54526694154616 56.299
23.56818761219047 57.4202
23.59093154860734 57.7496
23.613676427751283 58.2968
23.636422250635754 57.5397
23.659346731118656 56.0528
23.68209445191868 54.3594
23.704843119509587 52.2858
23.72759273490623 50.4023
23.750521041644767 48.9689
23.77327256312355 47.8435
23.796025035462787 47.2676
23.818956224555475 46.8487
23.841710609113413 46.6018
23.86446594758979 46.4206
23.887222241002014 46.3121
23.910157285144578 45.951
23.932915498962537 45.8754
23.955674670778713 45.7367
23.978434801611975 45.5305
24.001373717286125 45.4326
24.024135776723917 45.4305
24.046898798245582 45.1484
24.06966278287146 45.1722
24.092605586582614 44.9495
24.115371508023642 44.6787
24.1381383956401 44.6236
24.16090625045381 44.6672
24.183852958731244 44.5132
24.206622758582608 44.525
24.229393528706886 44.3238
24.252165270127392 44.266000000000005
24.27511589952438 44.35
24.297889594216997 44.0651
24.32066426328598 43.9184
24.34343990775613 43.9529
24.36639447485003 43.79600000000001
24.38917208083877 43.7163
24.41195066531332 43.7571
24.43490819850244 43.6244
24.457688750692377 43.5718
24.48047028445616 43.6601
24.503252800821233 43.6825
24.526214300784112 43.8075
24.548998793132213 43.7192
24.57178427117417 43.57899999999999
24.59457073593893 43.5649
24.617536219319863 43.6562
24.64032466834748 43.5985
24.663114107195035 43.471000000000004
24.685904536893013 43.128
24.708874020360852 43.1607
24.731666442613744 43.1136
24.754459858818787 42.9482
24.777254270007962 42.8678
24.80022777025625 42.9141
24.82302418230472 42.8644
24.845821592443674 42.993
24.86862000170663 43.0006
24.891597535453727 42.9456
24.914397953892728 43.0364
24.93719937456671 42.8774
24.96000179851076 43.1554
24.98298338249997 43.2284
25.00578782394922 43.5702
25.028593271784167 43.6123
25.05157790644186 43.9568
25.07438537804115 44.0579
25.097193859145293 44.2231
25.120003350792075 44.4947
25.142992065061257 44.8281
25.165803588823465 45.0255
25.18861612625217 45.29
25.211429678386736 45.354
25.234422489079968 45.5814
25.257238081693636 45.4173
25.280054692141732 45.3468
25.3028723214652 45.3218
25.325869245420463 45.3298
25.348688923599397 45.4728
25.371509623787006 45.431999999999995
25.394331347025812 45.1734
25.41733240110666 44.8472
25.440156181590016 44.1027
25.46298098826268 43.5224
25.48580682216873 43.1002
25.50881202326435 42.5319
25.53163992281684 42.1393
25.55446885274561 41.9498
25.577298814096377 41.4723
25.600308179121807 41.478
25.623140214533745 41.6074
25.64597328451537 41.4762
25.66898578564376 41.2102
25.691820936010206 41.2872
25.714657124097695 41.2416
25.737494350954734 41.2124
25.760511045684957 41.0783
25.783350361364224 41.2206
25.806190718969255 41.1728
25.82903211955018 41.3287
25.852053024868923 41.2284
25.874896522722523 41.4336
25.897741066713106 41.3874
25.920586657892454 41.3916
25.943611790812668 41.5173
25.966459487728237 41.6039
25.989308234998564 41.7021
26.01215803367705 42.0821
26.03518741123814 42.0634
26.05803932412957 42.2443
26.080892291600094 42.1174
26.10374631470478 42.2736
26.12677995397268 42.3365
26.14963609978026 42.3003
26.172493304397875 42.0174
26.19535156888223 41.7768
26.218389486949604 41.3545
26.241249882640123 41.1503
26.26411134137826 40.9088
26.28715248187403 40.9018
26.31001607820869 40.7879
26.3328807407756 40.5999
26.35574647063438 40.6392
26.37879191991473 40.7559
26.401659795896734 40.8481
26.424528742360263 41.0928
26.447398760366614 41.1491
26.470448535598294 41.3127
26.49332070826805 41.4466
26.516193955675355 41.6216
26.53906827888316 41.8584
26.562122397260108 41.9198
26.584998883685063 42.1688
26.607876449110325 42.4333
26.63075509460056 42.7009
26.65381357334404 42.7873
26.67669439061878 42.7689
26.699576291163382 42.6713
26.722459276044212 42.5123
26.745522132402975 42.203
26.768407297649354 42.06100000000001
26.791293550442003 41.6193
26.814180891848974 41.348
26.837248143099337 41.1602
26.860137673466657 41.0548
26.88302829566349 40.771
26.90592001075963 40.56
26.92899167420566 40.4023
26.951885586870763 40.0267
26.974780595655517 39.8363
26.99785558178161 39.775999999999996
27.020752794605112 39.6616
27.043651106772522 39.4619
27.06655051935668 39.4986
27.089629948036183 39.4173
27.112531573292053 39.3345
27.135434302194138 39.4772
27.158338135817015 39.2967
27.181422024430987 39.1711
27.204328079372566 39.0945
27.22723524226965 39.1128
27.250143514198573 39.1575
27.273231880156334 39.1963
27.296142382065014 39.1101
27.319053996245536 39.0613
27.341966723775965 39.0597
27.365059584515222 38.9983
27.38797455070062 39.1314
27.410890633481237 39.0885
27.433807833936918 38.9295
27.456905206923906 39.1384
27.47982465472398 39.1586
27.502745223449743 39.1595
27.525666914182825 39.2039
27.548768816912457 39.1935
27.571692763693633 39.1627
27.59461783573812 38.9078
27.617723149491244 38.8654
27.640650484125285 38.8705
27.66357894728264 38.7418
27.686508540048052 38.6364
27.709618414237887 38.6654
27.732550278321757 38.5485
27.755483275279115 38.4747
27.778417406196485 38.5701
27.801531858397514 38.4976
27.824468269376716 38.4264
27.847405817586786 38.4933
27.870344504116094 38.5776
27.893463551932008 38.7777
27.916404527281053 38.7407
27.93934664422563 38.8251
27.962289903855886 39.0217
27.98541356491974 39.0955
28.00835912214229 39.3104
28.03130582533231 39.5217
28.054253675581805 39.7433
28.077381967556104 39.5848
28.100332124185126 39.5871
28.123283431160893 39.5882
28.146235889577238 39.4186
28.169368830154156 39.2578
28.192323603752033 39.1067
28.215279532083304 38.7565
28.238415973016764 38.4524
28.261374223145094 38.3572
28.284333631303806 38.1985
28.307294198589954 37.8853
28.330435319167677 37.5138
28.353398217078915 37.419000000000004
28.376362277420153 37.1821
28.39932750129032 37.0678
28.422473319286713 36.8993
28.44544088262495 36.8222
28.468409612800283 36.7912
28.491379510913497 36.4631
28.51453004413313 36.5423
28.53750229057244 36.399
28.56047570826344 36.4474
28.583450298308804 36.3522
28.606605564586562 36.1044
28.629582511831156 36.3025
28.65256063474956 36.1652
28.675539934446338 36.1731
28.698699951647605 36.1814
28.72168161743193 36.1089
28.74466446331978 36.1375
28.767648490417624 35.9934
28.790813276438353 35.9236
28.813799678527303 35.8059
28.836787265157085 35.8376
28.859955641890075 35.8838
28.882945610203045 36.0031
28.905936766392035 35.806999999999995
28.928929111566863 35.818000000000005
28.952102288520145 35.7472
28.975097024308607 35.6842
28.998092952423807 35.5274
29.021090073977508 35.4052
29.04426806913204 35.3925
29.067267590245258 35.1464
29.090268308143695 35.0894
29.11327022394099 35.1036
29.13645305530891 34.9595
29.159457379627167 34.8129
29.18246290519685 34.812
29.20546963313352 34.8331
29.22865731875826 34.9704
29.25166646419296 34.9167
29.27467681535305 34.6481
29.29768837335608 34.7417
29.320880931312562 34.765
29.34389491580634 34.7745
29.366910110507334 34.729
29.38992651653503 34.6976
29.41312396492981 34.6712
29.436142806456754 34.6553
29.45916286268059 34.6532
29.48236399319994 34.4147
29.50538649169417 34.2554
29.528410208259935 34.0823
29.55143514402014 33.9593
29.574641196749695 33.9766
29.597668583816574 33.9202
29.6206971934585 33.6642
29.64372702680042 33.6854
29.666938019934474 33.5682
29.689970313635285 33.4697
29.713003834422636 33.5113
29.73603858342347 33.4306
29.759254535188578 33.48
29.78229175361658 33.2599
29.80533020365064 33.3937
29.82836988641968 33.2687
29.85159081507472 33.2745
29.874632976355343 33.2105
29.89767637376955 33.2457
29.920721008448314 33.0929
29.9439469322847 33.0944
29.96699405457564 33.0194
29.9900424175358 33.0417
30.013092022298157 33.056
30.03632295963995 32.9655
30.059375061131373 32.9776
30.08242840783577 33.0376
30.105483000888153 33.0417
30.128718970092244 32.9172
30.151776069006917 32.8417
30.17483441768648 32.9658
30.198074175317235 32.8409
30.221135036724256 32.8753
30.24419715131772 32.9451
30.267260520236203 32.8315
30.290505341942243 32.8779
30.313571232750228 32.9259
30.336638381310948 32.7683
30.35970678876503 32.6968
30.38295669299435 32.5881
30.40602763151657 32.6286
30.429099832366074 32.6356
30.452173296685572 32.5674
30.47542830191959 32.5687
30.498504306502497 32.4966
30.521581577995562 32.6511
30.544660117543582 32.7163
30.56792024229725 32.7808
30.59100133132069 32.6357
30.614083691845494 32.5816
30.637167325018545 32.6825
30.660432587840603 32.6808
30.683518779717886 32.5619
30.70660624769615 32.7454
30.729694992924372 32.8217
30.75296541239743 32.6846
30.77605672557558 32.5969
30.799149319462742 32.5503
30.8224236211637 32.4871
30.845518789950724 32.3481
30.868615242910597 32.3503
30.891712981195973 32.0986
30.91499247215866 32.0655
30.938092794619365 32.0306
30.96119440587579 32.0194
30.984297307082752 31.9133
31.00758200598383 31.726999999999997
31.030687500658694 31.6942
31.053794288760695 31.6547
31.076902371446767 31.5741
31.100192296997445 31.6343
31.12330298246119 31.5531
31.14641496599209 31.3707
31.169528248749216 31.4185
31.19282341969534 31.395
31.215939314557186 31.4498
31.239056512134788 31.3648
31.262175013589378 31.3592
31.28547544871168 31.33
31.30859657161541 31.265
31.331719001892175 31.233
31.35484274070538 31.3808
31.378148458819545 31.3534
31.401274828443725 31.3447
31.424402510106933 31.3548
31.447712205419993 31.3492
31.470842524931633 31.3167
31.493974159989783 31.2857
31.51710711176168 31.2018
31.54042212308802 31.2627
31.563557722100917 31.2834
31.586694641341655 31.1197
31.609832881979628 31.023000000000003
31.63315322823208 30.9745
31.656294125521327 30.7617
31.679436347728515 30.7943
31.70257989602529 30.6402
31.725905596152327 30.5968
31.74905181052835 30.5729
31.772199354521323 30.6919
31.79534822930507 30.663
31.818679302290967 30.5579
31.84183085259981 30.5596
31.864983737233473 30.5534
31.88813795736804 30.5747
31.911474422233013 30.503
31.934631327356435 30.5286
31.9577895715215 30.4582
31.980949155906522 30.4492
32.004291031706956 30.4569
32.027453310562606 30.3556
32.05061693318573 30.2736
32.07396288236386 30.2925
32.09712920658542 30.1807
32.12029687812702 30.0639
32.14346589817093 30.0479
32.166817291729984 30.0578
32.18998902288583 29.831
32.21316210610336 29.826
32.23633654256711 29.7226
32.259693399663725 29.5934
32.282870556771144 29.6371
32.30604907069099 29.6449
32.329228942610065 29.5794
32.35259128243769 29.478
32.375773884550505 29.372
32.398957848235646 29.4364
32.422143174682176 29.3867
32.445511016471215 29.2243
32.468699082679954 29.2213
32.49188851523011 29.1476
32.51507931531304 29.0276
32.538452678331 29.1139
32.56164622776311 28.9362
32.58484114831493 28.8364
32.60803744118015 28.9373
32.631416344731896 28.9412
32.654615396551876 28.8184
32.67781582427913 28.7498
32.701198898634416 28.78
32.72440209253756 28.6947
32.747606665947124 28.7326
32.77081262006088 28.6085
32.79420126883317 28.6247
32.81740999876112 28.6129
32.840620112999424 28.4715
32.86383161274818 28.5148
32.88722585534586 28.4793
32.91044014056596 28.4421
32.933655814909734 28.4058
32.95687287957963 28.434
32.98027273544904 28.3484
33.00349259526636 28.2984
33.026713849030116 28.3832
33.04993649794511 28.2495
33.073341986570746 28.2903
33.09656744032826 28.2347
33.11979429286444 28.1769
33.14302254538647 28.0961
33.166433686291185 28.1196
33.18966475336992 28.1523
33.212897224069096 28.0109
33.23613109959831 28.0004
33.259547912343415 27.8955
33.2827846121627 27.9174
33.306022720453775 27.8442
33.32926223842861 27.783
33.352684742614166 27.7509
33.37592709463173 27.7837
33.399170859982064 27.6356
33.422597648419426 27.6576
33.44584425514446 27.4635
33.46909227885668 27.5695
33.4923417207723 27.4142
33.51577423505344 27.4347
33.539026528130385 27.3755
33.56228024307245 27.2478
33.585535381098246 27.1624
33.60897364093058 27.1045
33.63223163992385 27.1669
33.6554910656699 27.0856
33.678751919389796 27.0839
33.702195944520106 27.006999999999998
33.72545966903325 27.0303
33.74872482519663 26.8853
33.771991414233746 26.9699
33.79544122444841 26.9646
33.81871069412428 26.7902
33.84198160035767 26.7719
33.86525394437455 26.8411
33.88870955949969 26.7051
33.911984794020626 26.6464
33.93526147001624 26.6165
33.958539588715006 26.5934
33.98200102861669 26.5616
34.0052820477047 26.4559
34.02856451319451 26.4166
34.05203033759056 26.3487
34.07531571090147 26.365
34.09860253431845 26.3282
34.121890809074316 26.4044
34.145362493118924 26.3218
34.16865368561615 26.2578
34.191946333164054 26.1454
34.21524043699793 26.1506
34.23871800066799 26.1986
34.26201503218366 26.0765
34.28531352370466 26.023000000000003
34.30861347646881 25.8593
34.33209693978188 25.9279
34.3553998301885 25.9322
34.378704185565205 25.8222
34.402010007152356 25.73
34.42549939016683 25.7204
34.44880815937748 25.6136
34.472118398533134 25.5508
34.49543010887669 25.5789
34.51892543169198 25.5358
34.54224009966052 25.5043
34.56555624255917 25.5696
34.58887386163339 25.3508
34.61237514439016 25.3268
34.6356957311114 25.3229
34.65901779775809 25.2393
34.68252356662995 25.3068
34.705848608458616 25.2579
34.72917513396849 25.2018
34.75250314440949 25.1819
34.77601490857862 25.1408
34.799345904259795 25.0538
34.82267838863559 24.941999999999997
34.846012362958525 25.0815
34.869530142679984 24.9949
34.89286711232212 24.9921
34.91620557568269 24.9165
34.93954553401677 24.91
34.9630693495876 24.9233
34.986412313340814 24.8741
35.00975677584668 24.9262
35.033102738362956 24.8104
35.05663261012228 24.7785
35.0799815881786 24.7577
35.10333207003229 24.6219
35.12668405694369 24.6458
35.150220005273056 24.6589
35.17357501786656 24.578000000000003
35.19693153931268 24.5502
35.220289570874385 24.4829
35.24383161619786 24.5399
35.267192683604904 24.5133
35.290555264930376 24.4289
35.314101899412165 24.3995
35.33746752422433 24.4314
35.36083466676374 24.4804
35.38420332829803 24.3232
35.407756095629054 24.3184
35.43112781085063 24.3357
35.45450104888391 24.2161
35.477875810999194 24.2409
35.50143473172161 24.1635
35.52481255774625 24.2455
35.54819191167777 24.1713
35.57157279478914 24.1404
35.595137889488406 24.1435
35.61852184675279 24.1091
35.641907337029984 24.0031
35.665294361595684 23.9882
35.68886565090076 23.9476
35.7122557598848 23.9172
35.73564740699838 23.8722
35.759040593519934 23.808000000000003
35.78261809810353 23.7293
35.80601437933051 23.778000000000002
35.829412203814705 23.6213
35.85281157283719 23.5974
35.876395313415884 23.6482
35.8997977874528 23.6401
35.92320180988546 23.5006
35.946790244133936 23.4066
35.97019737933222 23.5413
35.993606066789866 23.4484
36.01701630779276 23.3685
36.04061101440684 23.3302
36.06402437852291 23.2664
36.08743930005611 23.3421
36.1108557802951 23.1664
36.13445678011326 23.1931
36.15787639383515 23.236
36.18129757014299 23.1481
36.20472031032821 23.101999999999997
36.22832762423364 22.9826
36.25175350829375 22.9797
36.275180960119776 23.0002
36.298609981005924 23.0723
36.32222362992669 23.0277
36.34565580510207 22.9748
36.36908955323448 22.8768
36.39252487562093 22.7509
36.416144880530226 22.7549
36.43958336764275 22.7531
36.463023432914625 22.7158
36.486465077645676 22.655
36.51009145956204 22.6826
36.53353627947859 22.7074
36.55698268276811 22.7041
36.58043067073321 22.5778
36.60406345072071 22.5322
36.62751462435344 22.5034
36.65096738658405 22.4305
36.67460498210655 22.4251
36.69806093788647 22.459
36.72151848619297 22.3169
36.744977628333636 22.3634
36.76862165890998 22.279
36.79208400512205 22.3199
36.81554794910557 22.2766
36.83901349217101 22.159000000000002
36.862663978991606 22.128
36.88613273667352 22.1572
36.90960309738324 22.1851
36.933075062434064 22.0158
36.95673202673572 21.9538
36.98020721697122 21.9176
37.003684015502365 21.9201
37.027162423645365 21.8859
37.050825886711465 21.8455
37.07430753063053 21.8107
37.09779078812467 21.8557
37.121275660513014 21.7922
37.144945643673694 21.7586
37.16843376245278 21.6737
37.19192350009803 21.7318
37.215414857931435 21.6033
37.239091382563885 21.5893
37.262585997426164 21.5733
37.28608223645736 21.5088
37.309763684451696 21.5132
37.33326318851098 21.5459
37.356764320726555 21.4526
37.380267082425526 21.4205
37.40395510942588 21.4255
37.42746114683234 21.339000000000002
37.45096881771841 21.2769
37.474478123414166 21.2698
37.49817275092816 21.2224
37.52168534303452 21.2301
37.54519957395567 21.1664
37.568715445024665 21.113000000000003
37.592416694607714 21.0535
37.61593586281424 21.1182
37.63945667518264 21.0816
37.66297913304891 21.0003
37.68668702630454 21.0654
37.710212792059274 20.8748
37.733740207334854 20.8635
37.757269273470364 20.8163
37.780983832050374 20.835
37.80451621684926 20.9167
37.82805025654007 20.8355
37.851585952464795 20.7058
37.8753071980695 20.6829
37.89884622345676 20.631
37.92238690911902 20.5794
37.94611318753442 20.5745
37.969657210779765 20.583000000000002
37.99320289834801 20.5932
38.016750251586465 20.5386
38.04048325513017 20.5116
38.06403395679343 20.4459
38.087586328183946 20.3929
38.11114037065203 20.3763
38.13488012115898 20.3786
38.1584375229181 20.3189
38.181996599821 20.1833
38.205557353221124 20.2176
38.229303872575656 20.204
38.2528679961576 20.2222
38.27643380031219 20.1822
38.30000128639589 20.0517
38.32375459653193 20.1042
38.34732546371299 20.0975
38.37089801690786 20.0408
38.39447225747609 19.9748
38.418232380377425 19.9404
38.441810012983396 19.965
38.46538933705673 19.8922
38.488970353960084 19.9062
38.51273731166058 19.8853
38.536321731567014 19.8718
38.55990784840681 19.7811
38.58367995004091 19.7769
38.60726947812959 19.7125
38.63086070726198 19.7037
38.654453638806274 19.6764
38.678232613930824 19.5992
38.70182896773327 19.5643
38.72542702806741 19.4887
38.7490267963045 19.4845
38.77281266709232 19.5159
38.79641586862214 19.5335
38.8200207821842 19.4415
38.843627409152944 19.4119
38.86742019782782 19.3275
38.891030269149255 19.334
38.914642058016156 19.3326
38.938255565806124 19.2727
38.96205529464307 19.1938
38.98567225787121 19.2305
39.00929094417078 19.2049
39.03291135492255 19.1608
39.05671804624804 19.1233
39.080341923549106 19.1292
39.103967529460334 19.0827
39.127594865365744 18.9712
39.15140854155791 18.994
39.17503935514948 18.9717
39.19867190290282 18.8872
39.22249083587951 18.9056
39.24612686969409 18.9448
39.269764641845306 18.9108
39.293404153722804 18.8699
39.317230110864074 18.7906
39.34087311998506 18.7
39.36451787301696 18.7139
39.388164371352595 18.7043
39.41199737518003 18.6546
39.43564738196752 18.646
39.45929913825317 18.617
39.48295264543308 18.5579
39.506792718520884 18.5491
39.530449745387216 18.5283
39.55410852735203 18.4965
39.57776906581474 18.5221
39.60161623079 18.4698
39.625280300200025 18.4069
39.64894613032202 18.3596
39.67261372255866 18.3449
39.6964680021016 18.3368
39.72013913657293 18.3096
39.74381203738292 18.2516
39.76748670593756 18.2598
39.79134812278169 18.2894
39.81502634488497 18.2311
39.83870633896685 18.1857
39.862388106436654 18.0806
39.88625668336918 18.0627
39.90994201572829 18.0878
39.933629125719285 18.0128
39.957503091207826 18.0009
39.9811937746168 18.0662
40.00488623990914 17.8988
40.02858048850006 17.8956
40.05246165409549 17.9397
40.076159487492085 17.8417
40.099859108448875 17.7891
40.123560518384345 17.7632
40.1474489070226 17.792
40.171153913178564 17.7069
40.194860712584955 17.673
40.2185693066637 17.6339
40.242464941335314 17.5757
40.26617714307655 17.6351
40.289891143772046 17.57
40.3136069448471 17.5306
40.33750984859743 17.5658
40.3612292688043 17.5073
40.3849504936829 17.4833
40.40867352466194 17.4878
40.43258372059144 17.4873
40.45631038219906 17.4948
40.48003885420956 17.4028
40.503769138055105 17.3737
40.52768664931955 17.3871
40.55142057531802 17.3444
40.57515631746428 17.2887
40.599079334038514 17.2284
40.62281872700477 17.1528
40.64655994043941 17.1288
40.67030297578061 17.0951
40.69423334835778 17.1299
40.71798004609188 17.1234
40.74172857006355 17.0529
40.76547892171441 17.0396
40.7894166736039 17.0847
40.813170699248566 16.9779
40.83692655691388 16.9195
40.86068424804498 17.0435
40.884629402612525 16.9188
40.908390779366385 16.8756
40.932153993938 16.8652
40.95591904777605 16.8613
40.979871628443995 16.8459
41.003640379561936 16.83
41.02741097430883 16.7883
41.05118341413683 16.7754
41.075143444384416 16.7338
41.098919593177826 16.7278
41.1226975914255 16.6662
41.14647744058318 16.624000000000002
41.170444943946755 16.5311
41.19422851378379 16.5386
41.218013938914645 16.5188
41.24198706625173 16.4657
41.26577622087193 16.4349
41.289567235177785 16.438
41.31336011063129 16.3926
41.337340752422875 16.3987
41.361137369129835 16.3593
41.38493585138705 16.3485
41.40873620066004 16.3223
41.43272438060107 16.3111
41.45652848292052 16.2163
41.48033445666918 16.1747
41.50414230331616 16.2033
41.528138045159764 16.1936
41.551949656675205 16.108
41.575763145513235 16.1131
41.59957851314666 16.1582
41.62358184070442 16.0972
41.64740098505737 15.9918
41.6712220126409 15.9578
41.69504492493139 15.9323
41.71905586207357 15.9714
41.74288256296395 15.902999999999999
41.766711153007456 15.9276
41.79054163368412 15.8867
41.814560204340054 15.8812
41.838394485526365 15.8772
41.86223066180303 15.8166
41.88625497706819 15.7892
41.910094962812 15.7736
41.93393684811168 15.7459
41.95778063445365 15.6322
41.981812625263366 15.6444
42.00566023303407 15.6263
42.029509746323676 15.6346
42.05336116662236 15.5685
42.077400857069705 15.5626
42.10125611078846 15.5531
42.12511327600405 15.5651
42.14897235421036 15.4943
42.173019768448455 15.4716
42.19688269209613 15.4233
42.22074753323349 15.4057
42.24461429335818 15.3706
42.268669455600495 15.3674
42.292540073217886 15.3761
42.31641261433284 15.3211
42.34028708044675 15.2863
42.36435001496739 15.2011
42.38822835065557 15.2389
42.41210861586426 15.1743
42.4359908120986 15.1978
42.46006154323262 15.1249
42.48394762115317 15.1021
42.507835634632315 15.0833
42.531912233047436 15.0162
42.55580413732265 15.0297
42.579697981698 14.9562
42.60359376768525 14.9721
42.62767820545945 14.9566
42.65157789440821 15.0101
42.67547952952185 14.9761
42.699383112316 14.9126
42.72347541395347 14.8424
42.74738291190531 14.8251
42.771292362102166 14.7927
42.795203766063516 14.7655
42.819303956130405 14.7868
42.843219287476536 14.732000000000001
42.86713657716324 14.7612
42.89105582671383 14.6879
42.91516392983864 14.6673
42.939087119032166 14.6496
42.963012272677304 14.6278
42.98693939230129 14.6064
43.01105543317513 14.5824
43.034986504731386 14.5868
43.05891954686589 14.5257
43.08285456110972 14.4475
43.10697856448665 14.4379
43.130917542983475 14.3979
43.15485849820081 14.3982
43.17880143167367 14.4087
43.20293342237094 14.3999
43.226880332449 14.3364
43.25082922540554 14.318
43.27496722682525 14.2864
43.29892010567796 14.2479
43.32287497204102 14.2408
43.34683182745632 14.1858
43.370977859791836 14.1454
43.39493871351105 14.1744
43.41890156092628 14.1266
43.44286640358341 14.139000000000001
43.46702049182749 14.1382
43.49098934522816 14.0541
43.51496019852649 14.05
43.5389330532723 13.9905
43.56309522248204 13.9472
43.58707210044314 13.9949
43.61105098451946 13.9232
43.63503187626491 13.9457
43.659202151562134 13.8786
43.68318707902681 13.9291
43.70717401884041 13.8372
43.731162972560874 13.7926
43.75534137913236 13.7855
43.779334381108384 13.8004
43.803329401683186 13.7284
43.82732644241872 13.7726
43.8515130055166 13.6986
43.87551410707659 13.6381
43.89951723350145 13.6298
43.923709934595614 13.617
43.94771713129917 13.6489
43.97172635758096 13.5962
43.99573761501002 13.6137
44.0199385169922 13.5649
44.04395385732619 13.5266
44.067971233533086 13.5302
44.09199064718605 13.4463
44.11619977548961 13.4382
44.14022328470671 13.4591
44.16424883610785 13.4657
44.18827643127035 13.3731
44.21249381139513 13.3508
44.236525514814076 13.2711
44.26055926674478 13.277999999999999
44.28459506876863 13.2972
44.3088207262813 13.2333
44.33286064928722 13.2378
44.35690262714919 13.2194
44.38094666145278 13.1873
44.4051806219871 13.2095
44.42922879003185 13.1532
44.45327901929361 13.1315
44.477331311362136 13.1131
44.501573600619416 13.0959
44.525630039221795 13.0381
44.54968854541895 13.0452
44.573937102200176 13.0078
44.5979997645541 13.0063
44.622064499300315 12.9692
44.64613130803592 12.9075
44.67038823869318 12.9126
44.69445921643748 12.8686
44.718532272981385 12.8794
44.742607409926194 12.8617
44.76687274034801 12.8503
44.79095205918753 12.800999999999998
44.81503346325094 12.8095
44.839116954143876 12.7758
44.86339071028742 12.7611
44.88747839599524 12.7216
44.91156817336837 12.6691
44.93566004401666 12.6857
44.959942251908146 12.6482
44.984038330325966 12.6493
45.00813650686762 12.6074
45.03223678314731 12.5207
45.05652746888232 12.5295
45.08063196592069 12.5283
45.104738567558705 12.5151
45.128847275414856 12.5651
45.15314646515866 12.4065
45.17725940679741 12.4387
45.20137445952892 12.4362
45.22568004865265 12.4105
45.24979934496396 12.4013
45.27392075725247 12.3883
45.29804428714431 12.3263
45.322358426247604 12.2937
45.346486212804315 12.3037
45.370616121861914 12.2831
45.39474815505086 12.2465
45.41907087049246 12.2521
45.4432071734666 12.2281
45.46734560548283 12.1939
45.49148616817604 12.1708
45.51581748638564 12.1559
45.5399623320197 12.1242
45.56410931325473 12.0832
45.58825843173002 12.1197
45.61259837920865 12.0896
45.636751793816 12.0431
45.66090735060093 12.0099
45.68506505120716 11.9575
45.7094136545275 11.9919
45.73357566449271 11.8923
45.75773982322992 11.9173
45.78190613238733 11.9119
45.806263418194064 11.863
45.83043404997326 11.8759
45.85460683713677 11.8619
45.87897065658495 11.8159
45.90314777634752 11.7772
45.92732705646868 11.7978
45.9515084986045 11.7911
45.97588104735473 11.7267
46.00006683541565 11.7036
46.02425479047904 11.7124
46.04844491420549 11.6933
46.0728262191024 11.6151
46.09702070211635 11.6446
46.12121735879483 11.657
46.14541619080294 11.6531
46.169806278764455 11.5775
46.194009483459034 11.5768
46.21821486849841 11.5269
46.24242243555223 11.5062
46.266821333570014 11.4696
46.29103328674601 11.4918
46.31524742696538 11.4582
46.33946375590237 11.4136
46.36387149104216 11.437000000000001
46.38809221957392 11.3985
46.41231514186606 11.3718
46.436540259597464 11.3593
46.460956858999374 11.3277
46.48518638983522 11.2967
46.509418121166966 11.2903
46.533652054678114 11.2566
46.55807754555709 11.2641
46.58231590571962 11.2453
46.60655647313217 11.1664
46.630988654873654 11.1511
46.655233659129024 11.1039
46.67948087571551 11.1197
46.70373030632484 11.1244
46.72817142736393 11.059000000000001
46.752425308428684 11.0857
46.77668140861147 11.0603
46.80093972960865 11.0088
46.82538981736788 11.0214
46.849652602470904 10.9897
46.87391761349769 10.9524
46.8981848521493 10.9456
46.9226439341274 10.9279
46.946915650573224 10.9007
46.97118959976749 10.9069
46.99546578341598 10.8731
47.019933887188216 10.8609
47.04421456235744 10.8456
47.06849747711879 10.8084
47.09278263318286 10.8091
47.11725978640143 10.7973
47.14154944775105 10.7371
47.165841355555656 10.6986
47.1901355115306 10.664000000000001
47.214621741924994 10.7147
47.23892041698887 10.6875
47.26322134538975 10.6246
47.28771440635075 10.642999999999999
47.31201986422527 10.632
47.33632758061436 10.594000000000001
47.360637557241866 10.5747
47.38513974410611 10.5595
47.40945426407847 10.4973
47.43377104948137 10.5422
47.45809010204344 10.5294
47.48260144275502 10.5118
47.506925052572285 10.4524
47.53125093475548 10.41
47.55557909103813 10.4134
47.58009961361992 10.3734
47.60443234110732 10.3569
47.62876734791564 10.3696
47.65310463578333 10.3984
47.6776343683373 10.3304
47.7019762413987 10.2796
47.72632040075572 10.2399
47.75066684815169 10.2935
47.77520581885936 10.2335
47.799556865477655 10.1954
47.823910205386 10.2261
47.84826584033272 10.2114
47.87281407745551 10.1746
47.89717432569297 10.1585
47.92153687423484 10.1304
47.94609208429692 10.1149
47.97045925671401 10.0932
47.99482873471275 10.0952
48.01920052005013 10.0709
48.04376504619224 10.0455
48.068141469543484 9.997639999999999
48.09252020552573 10.0113
48.11690125590099 9.99765
48.1414751266064 10.0278
48.16586082917454 9.96855
48.19024885144316 9.91225
48.2146391951793 9.93958
48.239222439012764 9.94472
48.26361744916137 9.91756
48.28801478610016 9.85794
48.31241445160131 9.85789
48.337007097209366 9.840110000000001
48.36141144338331 9.7895
48.38581812345755 9.74342
48.41022713920929 9.7839
48.434829215320704 9.713
48.45924292604658 9.75175
48.48365897780325 9.73202
48.50807737237308 9.686739999999999
48.532688907799276 9.673210000000001
48.55711201168574 9.65521
48.581537463754074 9.68975
48.60615611725119 9.66145
48.63058628942721 9.61847
48.65501881516546 9.59654
48.6794536962573 9.65359
48.70408185970339 9.590580000000001
48.72852147531801 9.57236
48.75296345168211 9.546389999999999
48.77740779059232 9.52183
48.80204549302823 9.52427
48.82649458091802 9.50469
48.85094603676547 9.43946
48.87539986237231 9.43078
48.90004713292306 9.43379
48.92450572200832 9.39102
48.94896668628025 9.37645
48.97343002754588 9.37076
48.99808689542115 9.37202
49.02255501470614 9.38216
49.04702551642794 9.32807
49.0714984023988 9.29744
49.096164896893235 9.26459
49.120642575466796 9.27367
49.145122643748394 9.24736
49.16960510355558 9.23591
49.19428125404938 9.214160000000001
49.2187685210852 9.22655
49.243258185121555 9.18315
49.26794160167084 9.16607
49.2924360839405 9.14301
49.31693296869764 9.09218
49.34143225776915 9.13345
49.36612538195438 9.07898
49.39062950396021 9.0704
49.41513603578346 9.03477
49.4396449792564 8.99499
49.46434784069503 9.02383
49.488861631846454 9.01181
49.513377840166804 8.999139999999999
49.537896467493745 8.93667
49.56260909589029 8.897730000000001
49.587132585683285 8.91738
49.611658500018365 8.9122
49.636186840738596 8.91933
49.66090926588511 8.90832
49.685442483902584 8.90662
49.70997813385706 8.814960000000001
49.734516217597076 8.81565
49.75924846937352 8.81334
49.7837914452858 8.826189999999999
49.80833686055187 8.74956
49.83288471702571 8.72392
49.85762682540054 8.75416
49.882179588965734 8.718539999999999
49.9067347993235 8.69087
49.93129245833333 8.67825
49.95604445336378 8.70675
49.98060703442832 8.68489
50.005172069746266 8.65956
50.02993150438364 8.629480000000001
50.05450147301533 8.62016
50.07907390151433 8.57345
50.10364879174981 8.53657
50.12841816587289 8.55078
50.1529980044635 8.55194
50.17758031042124 8.52548
50.20216508562089 8.51551
50.22694442953363 8.5125
50.25153416817468 8.49864
50.27612638170508 8.48875
50.300721072005196 8.45309
50.325510416102105 8.473230000000001
50.350110084975064 8.42318
50.37471223628208 8.41647
50.39931687190919 8.40197
50.424116246675766 8.33287
50.44872587605249 8.363660000000001
50.47333799543065 8.3422
50.49795260670191 8.34675
50.52276204271512 8.27631
50.54738166295838 8.28575
50.57200378079314 8.28438
50.596628398116835 8.23757
50.62144792604559 8.25348
50.646077567609396 8.20485
50.670709714377715 8.16727
50.69553683636198 8.22458
50.72017401885922 8.19975
50.7448137122895 8.156
50.76945591856022 8.14378
50.79429318636823 8.10538
50.818940443716784 8.13579
50.84359021965163 8.089319999999999
50.868242516085964 8.08141
50.893089960641895 8.04278
50.917747323549435 8.03776
50.94240721271973 7.986839999999999
50.96706963007175 8.000760000000001
50.99192728239342 7.984439999999999
51.01659478166073 7.9924
51.04126481489051 7.96885
51.06593738400761 7.977519999999999
51.090805275207074 7.92392
51.11548294172845 7.89681
51.14016314993547 7.87962
51.164845901758845 7.88585
51.18972406304274 7.82326
51.21441192780656 7.84772
51.23910234200271 7.850239999999999
51.2637953075678 7.856089999999999
51.288683770237945 7.82132
51.31338186432707 7.7930399999999995
51.33808251561888 7.75988
51.362978729967345 7.755789999999999
51.387684521509755 7.765289999999999
51.41239287610203 7.76576
51.437103795691165 7.7242
51.46201036644977 7.7057899999999995
51.486726441956634 7.66977
51.51144508832545 7.65349
51.536166307509156 7.61953
51.56108326624387 7.64345
51.58580965706056 7.64158
51.61053862657523 7.60353
51.635270176746864 7.60535
51.66019755512065 7.593710000000001
51.68493429268881 7.58074
51.70967361681515 7.56435
51.73441552946465 7.51233
51.759353359237934 7.50259
51.7841004750961 7.5145
51.80885018539685 7.5089999999999995
51.833602492111254 7.4976
51.8585508051424 7.43848
51.883308330926425 7.40804
51.90806845906181 7.391939999999999
51.932831191525715 7.4016399999999996
51.95779001977161 7.38693
51.98255798721516 7.34162
52.00732856494335 7.370839999999999
52.03229530577543 7.35703
52.057071130455945 7.3531
52.081849571391054 7.31993
52.106630630568695 7.31768
52.13160794279417 7.25131
52.15639426492067 7.292160000000001
52.18118321127822 7.240460000000001
52.205974783860896 7.23796
52.23096269971011 7.21892
52.255759551287994 7.2356300000000005
52.280559035098186 7.212510000000001
52.30536115314103 7.15342
52.33035970494467 7.14522
52.35516711807904 7.14129
52.37997717147198 7.134810000000001
52.40478986713005 7.08148
52.42979908731974 7.104989999999999
52.454617094216 7.06371
52.47943774942214 7.04185
52.50426105495102 7.0532699999999995
52.529280976059844 7.02234
52.554109609024096 7.04042
52.57894089837482 7.04143
52.60377484613117 7.02557
52.62880550079408 6.99684
52.65364479223379 6.930630000000001
52.67848674816189 6.968030000000001
52.70352547971946 6.9489600000000005
52.72837279155837 6.96598
52.753222773982785 6.90955
52.778075429022984 6.87534
52.80312495150885 6.903760000000001
52.827982978797436 6.87293
52.85284368481815 6.892110000000001
52.87770707160767 6.8635600000000005
52.90276741793998 6.826460000000001
52.92763619336701 6.77168
52.952507655698504 6.752280000000001
52.977381806977576 6.81542
53.00245301017842 6.80985
53.02733256653592 6.76283
53.052214817996074 6.72732
53.077099766608484 6.73872
53.102181859804446 6.718489999999999
53.127072229988265 6.6863
53.15196530349892 6.6615
53.17686108239249 6.65877
53.20195409881522 6.6272899999999995
53.22685531582556 6.652310000000001
53.25175924441303 6.63329
53.27666588664027 6.61879
53.30176985962693 6.600460000000001
53.3266819565689 6.59398
53.35159677336455 6.578360000000001
53.376514312083096 6.6029800000000005
53.40162927507703 6.56381
53.42655228516116 6.54415
53.45147802340193 6.45765
53.47660125628886 6.49769
53.50153247842639 6.498880000000001
53.52646643496923 6.49112
53.55140312799818 6.4785900000000005
53.576537409691696 6.44948
53.60147960336152 6.439430000000001
53.626424539786164 6.42368
53.65137222105307 6.405869999999999
53.67651758529126 6.41844
53.70147078399681 6.366569999999999
53.72642673383343 6.3817699999999995
53.75138543689533 6.3754599999999995
53.776541917524526 6.30245
53.801506154876755 6.2903400000000005
53.826473151763246 6.334980000000001
53.851442910284916 6.29547
53.87661054126026 6.26369
53.9015858509782 6.2466
53.92656392866066 6.26158
53.95154477641532 6.258830000000001
53.976723591801296 6.23477
54.00171000771266 6.22032
54.02669920004598 6.21378
54.051691170915745 6.18821
54.076881204886796 6.19785
54.101878760928514 6.1708
54.12687910187696 6.12748
54.152077577768296 6.173109999999999
54.1770835166946 6.08599
54.20209224691339 6.09776
54.22710377055121 6.1205300000000005
54.25231352511594 6.04425
54.27733066384342 6.012569999999999
54.30235060239643 6.06827
54.32737334290836 6.0282
54.35259441062629 6.04418
54.377622783395324 5.98996
54.40265396455061 5.975169999999999
54.42768795623251 5.95616
54.45292037169559 5.889480000000001
54.477960012857906 5.90448
54.50300247099511 5.87444
54.52804774825457 5.89951
54.55329154616743 5.86103
54.57834249018678 5.85374
54.6033962597977 5.807519999999999
54.6284528571545 5.78926
54.653708072335164 5.79367
54.67877035378786 5.752759999999999
54.70383546947698 5.69287
54.72890342156389 5.72726
54.7541700889442 5.68351
54.77924374251975 5.66145
54.8043202390049 5.66028
54.82959552413022 5.62954
54.8546777351945 5.58097
54.87976279569621 5.6081199999999995
54.90485070780914 5.57291
54.930137506558005 5.52731
54.95523115074295 5.55884
54.98032765308844 5.521669999999999
55.005427015775496 5.5183599999999995
55.03072536339621 5.49883
55.05583047570572 5.496519999999999
55.080938454927676 5.45032
55.10604930325027 5.41365
55.131359235107396 5.46016
55.15647585066083 5.35058
55.181595341907496 5.3144599999999995
55.20671771104285 5.33743
55.232039262617704 5.33338
55.25716741665048 5.27209
55.28229845518636 5.30173
55.30743238042802 5.26041
55.33276558731939 5.211530000000001
55.357905315183636 5.2403900000000005
55.383047936390035 5.15794
55.40819345314859 5.16062
55.433538351073295 5.13065
55.458689688238415 5.10909
55.483843927614096 5.09537
55.509197623043605 5.06952
55.53435769621134 5.04427
55.55952067826466 4.990880000000001
55.5846865714265 4.98194
55.61005202069737 5.00695
55.63522376553902 4.9999400000000005
55.66039842818645 5.0105699999999995
55.68557601087004 4.90367
55.7109532500271 4.83979
55.73613670233794 4.86083
