TT I
1.2716486653135266 7.57838
1.2939594142134223 7.134060000000001
1.3162702121660406 6.75683
1.3385810600174564 6.86716
1.3608919586137629 7.178310000000001
1.383202908801069 6.50627
1.405513911425503 5.91144
1.4278249673332093 6.34513
1.4501343378461518 6.11298
1.4724455028545926 5.59101
1.4947567236847858 5.6871
1.517068001182951 5.7506900000000005
1.5393793361953272 5.6834
1.5616907295681737 6.1197
1.5840021821477681 5.04723
1.60631369478041 5.67708
1.6286252683124185 4.93053
1.6509369035901333 4.57468
1.6732468618895553 4.93582
1.695558623192809 4.6273
1.7178704487808514 4.68426
1.7401823395001077 4.95566
1.7625012545597203 5.01636
1.7848028405262486 5.50703
1.8071218901122095 5.04838
1.8294236121921872 4.60065
1.8517427996910911 4.61543
1.8740620574440425 4.86776
1.8963639900671978 5.12951
1.9186833908139995 4.96004
1.9409854680117449 5.11101
1.9633050151394713 4.72288
1.9856246367570705 4.68921
2.0079269371922672 4.91555
2.03024671027244 4.58595
2.0525491637446027 4.81302
2.074869091674931 4.77337
2.097171701569106 5.2721800000000005
2.1194917877373847 5.0511
2.141811954326636 5.01922
2.164114805233074 5.1048599999999995
2.186435135143035 6.14202
2.208738150935709 11.2741
2.231058647554722 21.1092
2.2533792288321184 16.2134
2.275682498336085 8.2819
2.298003251406138 5.89979
2.3203066942619714 5.88132
2.3426276225136022 5.00448
2.3649486396617507 5.76726
2.387252348930071 5.44923
2.4095735463442893 6.1096900000000005
2.4318774374315884 5.93192
2.4541988185014043 5.77684
2.476502894794693 6.736489999999999
2.498824462909887 7.08368
2.521146125856138 6.71178
2.5434504863470337 6.85635
2.5657723414244717 6.85279
2.588076895590662 7.142469999999999
2.610398946189713 7.8372399999999995
2.6327210958598384 7.39965
2.6550259469304716 7.295380000000001
2.6773482972090137 8.17783
2.6996533504259 8.24291
2.7219759047039602 7.774789999999999
2.744298562293959 7.704089999999999
2.7666039251246595 8.238380000000001
2.7889267918020164 8.33225
2.8112323652516555 7.3762
2.833555444408179 8.10125
2.8558786311183852 7.93169
2.8781845268938557 8.29733
2.9005079311721484 8.970139999999999
2.9228140460410397 9.134
2.9451376712799635 9.70255
2.967444008632326 9.5184
2.9897678582247247 9.655380000000001
3.0120918213106695 10.1548
3.0343984987899373 10.2737
3.0567226913198637 10.7553
3.079029599759726 11.2964
3.101354025127254 11.912
3.123678568232338 12.6823
3.145985829517914 13.2003
3.16831061055229 13.4679
3.1906181112775593 13.4935
3.212943133635653 14.8513
3.2352682779763207 14.8739
3.2575761442691227 14.933
3.2799015350264273 15.9724
3.302209649240067 16.404
3.3245352898092655 16.9176
3.3468436553365257 17.5866
3.369169549113219 18.0037
3.3914955708171384 18.557000000000002
3.413804319727358 18.8421
3.4361305997334863 19.2375
3.4584396084414553 19.4957
3.4807661501462652 20.6719
3.503092824025881 21.344
3.5254022288463154 21.4862
3.5477291695206588 21.9148
3.5700388426251948 22.1122
3.5923660534916446 23.1374
3.6146934007816114 35.0028
3.637003482731501 71.0784
3.6593311053109985 77.1536
3.681641464033634 47.1359
3.7039693653009733 28.9434
3.726297407241705 25.8549
3.7486081875460804 25.8113
3.7709365132734978 25.7252
3.793247578841633 26.014
3.8155761917550093 26.6335
3.8378875459837216 27.3478
3.8602164494827234 27.552
3.882545499606844 28.0183
3.9048572932539183 29.0227
3.9271866390645718 29.4675
3.9494987298666713 29.9874
3.971828374764527 30.1599
3.9941581705403255 31.1408
4.016470713506008 31.729
4.038800813471445 32.4246
4.061113662089144 32.3334
4.0834440696459176 33.5623
4.105774632334751 33.7794
4.128087945865126 34.9231
4.150418821249301 35.3562
4.172732448931298 36.9258
4.195063640413578 38.6244
4.2173775856475215 41.4185
4.239709096631102 66.2578
4.262040768704612 182.734
4.284355196706267 236.72799999999998
4.306687193387355 153.759
4.329001947444346 68.35300000000001
4.35133427213731 46.6751
4.373666762177566 44.2396
4.395982011761091 44.5729
4.418314834921175 45.5435
4.44063041906622 51.8072
4.4629635787515625 60.028
4.4852969080429785 59.4923
4.5076130004776225 52.9376
4.529946671403969 51.4978
4.552263106909177 51.2867
4.574597122877047 51.9268
4.596931312711224 53.3571
4.619248269273446 53.8323
4.6415828092605835 55.1495
4.663900117405352 56.3234
4.686235010953232 57.4951
4.708552674085913 58.516000000000005
4.730887924602802 60.2833
4.753223354952695 61.7054
4.775541557023902 63.2808
4.797877349456786 65.074
4.820195915032126 66.7181
4.842532072957498 67.9919
4.864868414979744 69.9382
4.88718753227192 72.396
4.909524244902505 74.8157
4.931843734218147 76.6509
4.954180820867835 78.8147
4.976518095879839 81.9341
4.998838149695359 84.6968
5.021175803844231 88.5812
5.043496238205739 92.1226
5.065834274903528 96.7878
5.088172504230693 102.315
5.1104935158799565 108.906
5.132832132875765 129.356
5.155153533596801 167.972
5.1774925416746225 210.558
5.199814334878411 431.20599999999996
5.2221537374521505 1220.14
5.244493338631803 3187.54
5.266815727034316 7810.81
5.289155727832427 12265.9
5.311478517248165 8572.62
5.333818921080011 2919.16
5.356159527788849 613.749
5.3784829252032536 197.78400000000002
5.400823940070432 148.09
5.423147747031976 130.833
5.445489173474152 120.66
5.467830807066149 115.48899999999999
5.490155234831516 111.294
5.512497285125229 108.03299999999999
5.534822130975162 105.57
5.557164601388673 103.404
5.579489868738879 100.796
5.601832762690846 99.3039
5.6241758697774475 98.5169
5.646501775867269 97.4576
5.668845311622074 95.9762
5.691171647754637 95.4709
5.713515615597765 94.1589
5.735859800852677 93.7937
5.758186788542988 92.6793
5.780531411018185 93.5391
5.802858837297399 93.3451
5.825203900414495 93.1532
5.8475491852224 93.8392
5.869877275883075 94.7079
5.892223006467101 95.5553
5.914551544266608 97.0856
5.936897724049891 100.054
5.959244129804903 107.06299999999999
5.981573344815301 133.33
6.0039202049061 250.987
6.026249875609095 536.39
6.04859719346037 1095.89
6.070927323278297 2320.8
6.093275102315365 4407.58
6.115623113320588 5380.09
6.137953938319995 3340.47
6.160302415650845 1050.07
6.182633708324452 246.785
6.2049826554078376 115.85799999999999
6.227331838745022 94.1508
6.249663839443684 86.0726
6.27201349767565 82.9985
6.294345974611799 86.6348
6.316696111167083 93.9646
6.339046488263839 89.26799999999999
6.361379686074702 77.6749
6.383730546639482 71.9034
6.406064229255215 69.248
6.428415576718203 68.8527
6.450749747566656 67.5077
6.47310158535871 66.3106
6.495453669698332 66.0035
6.517788579421056 65.1122
6.540141159237969 64.3057
6.562476565766648 63.5538
6.5848296444934045 63.2172
6.607182974060425 62.8232
6.6295191323281015 62.9122
6.651872965955752 64.9935
6.6742096296068985 84.4946
6.6965639707294615 117.256
6.71891856698715 116.041
6.741255995248479 84.1035
6.763611104154477 65.3652
6.785949046381137 60.0718
6.808304671371482 58.13399999999999
6.8306605557940046 58.4717
6.852999275508618 57.7022
6.875355681171544 57.6709
6.897694923437771 57.3895
6.92005185377892 57.1568
6.9423916220322655 56.8988
6.964749080490181 56.2909
6.987106804399774 55.7236
7.009447368180821 56.1651
7.031805625367033 55.9334
7.054146723727803 55.6655
7.076505517631004 55.1645
7.098864581288365 55.2859
7.121206488070854 55.2397
7.143566093607822 55.4334
7.165908543567245 55.7004
7.188268694426048 55.4296
7.2106291193438095 55.6238
7.232972390625943 56.3815
7.255333366030969 66.3542
7.277677189091925 105.902
7.300038718428332 139.567
7.322400526130865 119.898
7.344745183422596 79.3714
7.367107550224791 60.1119
7.389452767901992 56.3153
7.411815697249891 55.6617
7.434161478756298 54.5217
7.456524974096713 54.6703
7.478888753837185 54.6932
7.501235387657368 55.1068
7.523599738562711 54.7719
7.545946944825532 55.1203
7.568311870344528 55.455
7.5906770845765665 55.6086
7.613025156078678 56.6388
7.635390950099687 57.7418
7.657739602662809 56.8949
7.680105979923558 56.4539
7.702472650212829 56.4085
7.724822180948224 56.6068
7.747189439655568 56.8457
7.769539560075357 56.4752
7.791907410653562 57.0774
7.81425812420825 56.997
7.836626570110925 57.2772
7.858995315087906 57.9293
7.881346924933401 58.1609
7.903716270417482 58.9425
7.926068482028405 58.9975
7.948438431475253 60.0304
7.9708086843180235 60.2386
7.993161805171116 60.8662
8.015532667162402 61.4928
8.037886398416653 62.2267
8.060257873014221 62.8812
8.082629655331942 63.1782
8.104984308787587 64.0107
8.127356708900503 67.0761
8.149711981398308 71.5643
8.172085002766314 73.4889
8.194458336181368 71.1415
8.216814543847752 69.5489
8.23918850371002 70.1147
8.26154533906492 71.1049
8.283919928836452 72.4743
8.306277395339652 73.4599
8.328652618483376 75.0599
8.351028159736202 77.4571
8.373386579575245 79.3
8.395762759396959 81.3791
8.418121819038275 86.2858
8.440498640894003 97.5506
8.462875785192262 110.45
8.485235811156207 130.501
8.507613602688501 186.395
8.529974277114228 287.20799999999997
8.552352719347912 433.785
8.574731488360351 712.368
8.59709314210385 1230.48
8.619472567021075 1855.37
8.64183487789147 2177.48
8.664214962183097 1755.87
8.686577933647762 938.432
8.708958680784317 357.957
8.731339760774953 161.321
8.753703729764451 111.65899999999999
8.77608547780821 100.095
8.798450116065078 96.5404
8.820832535634787 93.5511
8.843215292401656 91.9713
8.865580941199045 90.4471
8.887964374703538 89.2344
8.910330701447199 90.1136
8.932714815164482 91.4874
8.955099270424924 90.7238
8.977466620733543 87.9458
8.999851761421976 85.7093
9.022219798361645 84.6174
9.04460562795561 84.3006
9.066991803441677 83.8278
9.089360876979615 83.3106
9.111747746589993 83.3109
9.13411751544971 82.6533
9.156505082664324 82.7957
9.178875550323522 82.9451
9.20126381862328 83.1087
9.223652438908596 83.2003
9.246023961427412 83.4101
9.26841328802173 82.8505
9.290785518039224 82.9526
9.313175554425882 83.0208
9.335565947154315 83.5156
9.357939245086508 83.6587
9.380330352834827 83.8948
9.40270436697103 83.9596
9.425096193225055 84.0045
9.447488380180165 84.9417
9.469863475295412 84.919
9.492256385987508 85.387
9.514632206018318 86.3829
9.537025843935714 86.4489
9.559402392368193 87.2984
9.581796761000229 88.4921
9.604191496441521 89.3408
9.626569144158516 92.1004
9.648964615551032 95.7425
9.671343000390081 97.0015
9.693739211225699 95.7899
9.716135793237463 94.1576
9.738515290448102 94.2767
9.760912617143402 95.0489
9.783292860202891 96.374
9.805690935076182 98.039
9.828089385495742 98.6399
9.850470754023561 101.193
9.872869957865444 107.62200000000001
9.89525208097539 119.646
9.917652041736662 129.917
9.940052382417589 134.02700000000002
9.962435644102392 152.608
9.984836746950979 199.88099999999997
10.007220771957746 269.975
10.029622640473708 378.086
10.052007432299963 567.331
10.074410069984072 856.6160000000001
10.096813093716005 1279.39
10.119199042482517 1711.43
10.141602840636468 1887.11
10.163989564971628 1512.64
10.186394141051062 857.855
10.208799107559706 378.033
10.231187001965623 181.74900000000002
10.253592751657669 125.512
10.275981430388155 113.65299999999999
10.298387966769793 112.47200000000001
10.320794897965431 113.613
10.343184759907361 112.476
10.36559248305461 108.16799999999999
10.387983138083852 106.09100000000001
10.410391656691655 111.71
10.432800574501677 125.545
10.455192425893369 143.809
10.47760214443012 170.233
10.499994797678786 215.49599999999998
10.522405320453982 297.01099999999997
10.54479877906917 414.961
10.567210109595656 520.575
10.5896218454736 566.066
10.612016518879773 504.865
10.634429067781074 337.671
10.656824555333241 192.77599999999998
10.679237920773568 119.74799999999999
10.701651695961992 95.6204
10.724048411481384 89.8007
10.746463008485165 87.088
10.768860546937125 85.6901
10.791275969274796 83.7372
10.81369180576079 82.6565
10.836090585366925 81.3378
10.858507252467449 80.0874
10.88090686379991 79.5123
10.903324365036394 78.6913
10.925724811614439 78.6471
10.948143150509463 79.3394
10.970561909719066 78.3573
10.992963615930844 76.8407
11.015383218085756 74.9694
11.037785768347074 73.3715
11.06020621697282 73.3664
11.082627090322113 72.7841
11.105030913430326 72.3497
11.12745263854165 72.7401
11.149857314510728 75.2801
11.172279894912576 79.3278
11.194702904450653 79.2877
11.217108866490921 76.0434
11.239532736615194 72.8566
11.26193956033512 71.0804
11.284364294577085 69.7101
11.306789462371718 68.6189
11.329197585398376 67.5177
11.351623622610898 67.4366
11.37403261614354 66.5927
11.396459526308487 66.6485
11.418869393879497 66.1173
11.441297180532617 65.783
11.463725406927658 65.5889
11.486136592353875 65.4749
11.508565700543707 65.6151
11.530977768845315 66.8726
11.553407762368774 67.2972
11.575838200059769 66.7399
11.598251599479612 65.4506
11.620682927815501 64.3434
11.64309721895548 63.9437
11.665529441478206 63.5199
11.687962112597958 63.4956
11.710377748130886 63.5142
11.732811318753434 63.2325
11.755227854859067 63.3133
11.777662328529495 63.3216
11.800079768750786 63.0506
11.822515149015453 62.6799
11.844950984084935 63.233999999999995
11.867369787303163 63.0203
11.889806534289491 62.8587
11.912226250487029 63.1219
11.934663912939751 63.5803
11.9571020346363 63.6238
11.979523127133968 63.735
12.001962169624331 64.5421
12.024384183972964 66.1291
12.046824150809913 69.9455
12.069264581333726 75.3217
12.091687985297767 81.6389
12.11412934550045 91.1297
12.136553680195208 106.32
12.158995973632788 128.109
12.181438735204349 155.814
12.20386447284199 185.338
12.226308172985636 201.426
12.24873485024193 197.763
12.271179492516982 159.049
12.293607112949127 120.411
12.316052700916226 91.3634
12.338498763250042 75.8995
12.360927805303868 68.8742
12.383374818673879 66.1017
12.405804812803074 64.8022
12.428252780773262 64.7975
12.45070122756722 64.5483
12.473132656675375 64.4796
12.49558206341869 64.9013
12.518014453510101 64.8201
12.540464823770117 64.8559
12.562915677315177 65.1646
12.58534951575545 65.89699999999999
12.607801338171472 67.2869
12.630236146511358 71.2296
12.652688941369085 74.6359
12.675124723177234 75.1127
12.697578494048786 72.6241
12.720032754458185 69.1901
12.742470003354093 68.1906
12.764925245138771 68.0897
12.787363476431278 68.4432
12.809819703166806 68.8863
12.83227642391173 69.889
12.854716135692716 70.3015
12.877173846755147 71.4009
12.899614549869717 71.5292
12.9220732548287 72.4478
12.94453245827299 72.8948
12.966974655289818 74.0656
12.989434858002571 74.8073
13.011878055298721 75.6409
13.034339260862497 76.8729
13.056800969391883 78.2041
13.079245674017244 80.4875
13.101708390774869 83.7513
13.12415410463411 92.6435
13.146617833206086 105.445
13.169064559883248 117.641
13.191529303857127 132.965
13.213994557076367 157.452
13.236442809902437 195.505
13.258909083908291 249.078
13.28135835851934 309.295
13.30382565690295 372.42400000000004
13.326293469022952 424.233
13.348744283242008 421.963
13.371213125129904 350.014
13.39366497011003 255.043
13.416134845360597 168.645
13.438605238843131 122.09299999999999
13.46105863690397 107.625
13.483530069144786 109.538
13.505984506951902 115.807
13.528456981549432 125.611
13.550929978879088 142.121
13.573385983253365 167.03099999999998
13.595860028340867 206.342
13.618317081455832 256.289
13.64079217790333 310.33099999999996
13.663250283359057 353.207
13.685726434770173 371.19199999999995
13.708203115221277 336.098
13.730662806148091 253.888
13.75314054697177 180.83900000000003
13.775601299246777 125.49600000000001
13.798080104050406 96.7936
13.820559442405358 85.5274
13.843021793671388 82.2795
13.865502201420897 80.2954
13.887965623051947 80.0952
13.910447103807167 78.9216
13.932929122629764 77.6572
13.955394156785959 77.0466
13.977877254034569 76.3256
14.000343367582113 75.711
14.022827546871707 75.078
14.045294743423524 74.3857
14.06778000837062 73.2542
14.090265817715476 73.3334
14.112734645763819 73.1363
14.13522154619454 73.1818
14.157691466286913 72.8154
14.180179461423874 72.7289
14.202668005486178 72.1433
14.22513957064374 71.3967
14.247629214846473 70.9755
14.270101881097517 70.9448
14.29259262906496 71.0286
14.315083930490205 71.5821
14.337558255389705 71.6357
14.360050666019726 71.083
14.382526101071944 70.6295
14.405019624534942 69.7471
14.427513705993134 69.4993
14.449990813291825 69.5379
14.47248601302899 69.1806
14.49496423954951 69.1791
14.517460561197822 69.4396
14.539939910570322 69.2219
14.562437357763558 69.5763
14.58493536931253 70.6328
14.607416409993311 71.1802
14.62991555254159 71.6678
14.652397725157423 71.8414
14.674898002342799 71.3366
14.697398848433282 71.2567
14.719882725991326 72.3098
14.74238471217934 73.8728
14.764869730765593 77.8831
14.787372860692983 81.6505
14.809876564079925 86.4915
14.83236330125751 92.5443
14.854868153850365 101.40100000000001
14.877356041159485 115.32799999999999
14.899862046604186 133.96200000000002
14.922351087688757 157.849
14.944858249632887 184.00400000000002
14.967365991421232 209.437
14.989856770231246 221.769
15.012365673994204 215.84
15.03485761569738 183.959
15.05736768508665 142.858
15.07987833888692 109.679
15.102372032001655 88.4687
15.124883856909658 76.5066
15.14737872204565 72.6119
15.169891721717274 70.8857
15.192405310371893 70.6583
15.214901940621196 70.8983
15.237416709527137 70.8733
15.259914520936249 71.0108
15.282430473753607 70.0328
15.304947020131227 69.3322
15.327446610371178 68.5536
15.349964346154254 67.7874
15.372465126703139 67.3277
15.394984055556009 67.1996
15.417486030076159 67.0282
15.44000615566487 66.6011
15.462526881230803 66.6165
15.485030653812652 66.7352
15.507552581617434 66.6512
15.530057557334603 66.744
15.55258069104857 66.571
15.575104429329837 66.7119
15.597611216864632 66.4963
15.620136166564563 66.7047
15.6426441664095 68.4261
15.665170331202765 71.3328
15.687697105158826 74.5803
15.710206930593545 77.8668
15.732734925158933 82.4392
15.755245972089478 89.1827
15.77777519094324 98.8383
15.800287463046663 112.198
15.822817909869592 131.1
15.84534897229804 150.417
15.867863089299354 172.329
15.890395385222186 189.75599999999997
15.912910736597423 194.565
15.935444269699861 180.6
15.957978423016485 151.893
15.980495633101265 119.28200000000001
16.003031029129367 94.0992
16.02554948280019 75.3048
16.048086125229432 67.3649
16.070623392487107 65.2452
16.09314371869582 64.4093
16.11568223789321 63.5285
16.13820381691126 62.5365
16.160743591742527 61.4896
16.183283996022084 60.7607
16.205807461423195 59.8165
16.228349126881973 59.3164
16.25087385432698 59.2437
16.27341678466365 58.7589
16.29594277784926 58.7432
16.31848697676433 58.8682
16.341031811604868 58.8623
16.36355971058487 58.9839
16.3861058195587 58.558
16.40863499352978 57.711000000000006
16.431182380342005 57.0752
16.453730407713202 56.6558
16.476261501364792 56.0348
16.498810812136167 55.9305
16.52134319004079 56.0672
16.54389378792203 55.8576
16.566445031001553 55.6571
16.588979342490088 55.5738
16.61153187824822 55.5799
16.634067483263312 55.3621
16.656621315414416 55.2762
16.679175797408888 54.9761
16.701713349928728 55.0146
16.72426913389191 55.2215
16.74680798922351 55.3401
16.76936507887444 55.2573
16.791905240734874 55.2564
16.814463639794468 55.3125
16.837022695210294 55.1562
16.859564824093756 55.4693
16.882125194503903 55.8722
16.904668639217885 56.6009
16.927230328348003 56.8516
16.949792678493612 56.858999999999995
16.972338104193863 56.5176
16.994901778652235 56.0743
17.017448529496576 56.3052
17.040013531998152 56.5245
17.06257920018044 57.083
17.0851279459922 57.8398
17.107694947817667 58.7447
17.130245028099072 59.744
17.15281336730298 60.8351
17.17536478578733 62.7432
17.19793446610687 64.8456
17.220504818648422 67.8175
17.243058251703697 71.0228
17.265629950971032 75.2746
17.288184731571736 79.0277
17.310757781306908 82.8976
17.33333150794385 83.8774
17.355888317140174 81.8419
17.37846339986244 77.5445
17.401021565958885 71.2065
17.42359800851343 65.4843
17.44617513265564 62.011
17.468735341390783 60.4792
17.491261035594565 59.8726
17.51396340099364 59.4154
17.536490463869136 59.4587
17.559018209820174 59.536
17.58154663977963 59.7385
17.604251766089718 59.9079
17.626781572227713 60.1309
17.64931206518155 60.4032
17.671843245885103 60.9051
17.69455114821572 61.0898
17.717083712612634 61.4363
17.739616967569667 61.5343
17.762150914021706 61.8152
17.78486160749854 62.0738
17.807396945166804 62.7053
17.829932977143503 63.9105
17.85246970436452 65.6258
17.875183204129467 67.794
17.897721330097664 70.0734
17.920260154126645 72.3614
17.942799677153296 75.6482
17.9655159983646 79.4637
17.988056927677544 85.2347
18.010598558807683 93.0266
18.033140892692916 102.465
18.05586005052525 112.839
18.07840379824407 124.016
18.10094825154059 135.06
18.12366954819864 141.489
18.146215420998306 141.664
18.16876200220057 131.915
18.191309292745153 116.696
18.214033452627167 102.561
18.236582170236648 91.512
18.259131600016456 87.3803
18.281681742907335 87.9163
18.304408781233683 91.87
18.32696035875955 96.4181
18.349512652227624 101.375
18.372065662579683 105.555
18.394795594587553 106.131
18.41735004715306 102.721
18.43990521943684 95.454
18.46246111238171 86.1871
18.485193953325208 76.873
18.507751296070428 69.8933
18.530309362314178 66.0197
18.552868153000343 63.7261
18.57560391815056 62.5272
18.59816416623245 62.2628
18.620725141597372 61.7089
18.643286845190268 61.3263
18.666025549835414 60.8924
18.688588718427933 60.13
18.711152618092243 60.1099
18.73389353884365 59.801
18.75645890921984 59.2295
18.77902501351406 58.9249
18.801591852673102 59.0493
18.824335739722738 58.5404
18.846904057212626 58.3927
18.8694731124168 58.0593
18.89204290628315 58.1503
18.914789774966803 57.8947
18.937361054791623 57.6056
18.959933076131318 57.4096
18.982505839934877 57.5313
19.00525570560582 57.4654
19.027829963004184 57.3447
19.05040496572238 57.3595
19.072980714710468 57.5019
19.095733592739563 57.9705
19.11831084296757 57.9033
19.140888842324735 58.2146
19.16346759176222 58.7713
19.18622349753803 59.3208
19.208803755869358 60.324
19.231384767143577 61.3029
19.253966532312948 63.0013
19.276725481241822 65.0264
19.29930876296784 67.5425
19.3218928014549 70.3252
19.34465404436217 73.0513
19.36723960516257 75.4779
19.389825925592426 76.3296
19.412413006605938 75.2019
19.43517731967805 72.0505
19.457765930683355 67.4902
19.48035530514408 62.8396
19.50294544401556 59.2968
19.525712842708348 56.9087
19.54830451925909 55.43600000000001
19.570896963095727 54.516000000000005
19.593490175174704 54.2683
19.616260674962184 54.2194
19.638855432416964 53.9463
19.661450960992624 54.0474
19.68404726164677 53.8102
19.706820878021247 53.8788
19.729418731756834 54.1127
19.752017360452857 53.8566
19.77461676506804 53.9614
19.797393513540218 54.0747
19.819994478951667 54.3865
19.84259622316767 54.9109
19.8651987471481 55.3782
19.887978643247177 55.5217
19.91058273574792 55.9939
19.933187610901943 56.979
19.955969879466828 58.1107
19.97857632894404 59.5744
20.00118356396599 61.004
20.023791585494575 63.3166
20.046577028914875 65.9582
20.069186632506966 67.7735
20.091797025500632 69.5338
20.114408208858933 70.437
20.137196842715273 69.7895
20.159809615886765 68.3117
20.18242318232135 65.8656
20.20503754298326 63.7994
20.227829382875154 62.7071
20.250445341109344 62.5607
20.27306209647285 63.2397
20.29567964993108 64.3715
20.31847471147704 65.1044
20.34109387027612 65.8405
20.363713830075454 65.7795
20.386334591841646 64.3679
20.409132890679302 61.5286
20.431755265564437 58.2716
20.454378445325528 55.4107
20.477002430930366 53.5508
20.499803982716553 52.4139
20.522429589228004 51.6135
20.54505600449589 51.2169
20.567683229489194 51.1782
20.590488049900088 50.7315
20.61311690359731 50.5713
20.63574656993626 50.3453
20.658553853717297 50.0902
20.681185154618298 50.1108
20.703817271080066 49.9622
20.72645020407368 49.5026
20.749260783967177 49.4664
20.771895359337133 49.4492
20.794530754161617 49.2461
20.817166969412938 49.2545
20.83998086114876 49.2041
20.86261872660049 49.1297
20.885257415405402 49.1561
20.90789692853701 48.9879
20.930714147864748 49.0001
20.953355319030678 49.1484
20.97599731745334 49.1384
20.99864014410749 48.8514
21.021460706796564 49.1816
21.044105199328826 49.3967
21.06675052302631 49.4679
21.089396678865015 49.6831
21.112220600704806 49.9829
21.134868430275347 50.5549
21.15751709492456 50.4421
21.180166595629693 50.7033
21.202993892429635 51.1009
21.22564507473034 51.2435
21.24829709602816 51.5876
21.27112693608965 51.6807
21.293780644891275 51.5782
21.316435195634053 50.9734
21.339090589297417 50.2929
21.361923832041875 49.9444
21.384580921090404 49.3899
21.407238856007325 48.8487
21.429897637773326 48.7629
21.45273429906592 48.8352
21.475394784108598 48.902
21.498056118951983 48.7349
21.520718304578022 49.0335
21.543558400304388 49.0474
21.566222297108816 49.22
21.58888704765135 49.342
21.61155265291521 49.8672
21.63439619898156 50.3686
21.657063523335786 50.5328
21.67973170537063 50.9539
21.7024007460706 51.4723
21.72524775840385 52.1063
21.747918526116475 53.263000000000005
21.770590155457388 54.5252
21.79326264741238 56.1256
21.816113141960237 57.933
21.838787368860547 59.446999999999996
21.861462461341976 61.3556
21.884315579735777 63.2904
21.90699241312273 64.4269
21.92967011506078 65.0586
21.95234868653799 64.788
21.9752053151131 63.4765
21.997885635446785 61.2146
22.020566828293532 59.6525
22.04324889464272 57.9245
22.066109049404666 56.8084
22.088792872571794 56.236999999999995
22.111477572219204 56.3687
22.1341631493376 56.415
22.157026846313123 56.113
22.179714188221507 55.4188
22.202402410582668 54.4903
22.22509151438863 52.9708
22.24795876962584 51.6105
22.270649646204486 50.7751
22.293341407213727 49.9819
22.316034053646906 49.5964
22.338904883215342 49.472
22.36159931041458 49.4594
22.38429462602756 49.2967
22.40699083104897 49.1613
22.429865251039757 49.0136
22.452563244831367 49.0901
22.47526213102522 49.1216
22.49813925616515 49.0184
22.520839937143307 48.8399
22.543541513520587 49.0028
22.56624398629403 48.6787
22.589124730075895 48.9097
22.611829005656723 49.1153
22.63453418063466 49.005
22.657240256008077 49.5012
22.680124634582935 49.5334
22.70283252079775 49.7264
22.725541310413075 50.1538
22.74825100442868 50.2608
22.771139033969575 50.6905
22.79385054687155 50.9395
22.81656296718292 51.5829
22.83927629590484 52.5762
22.862167992606945 53.5307
22.88488314827121 54.6181
22.907599215359284 55.4623
22.93031619487366 56.5935
22.953211574954405 57.4502
22.975930389478226 58.2355
22.998650119445763 58.2607
23.02137076586092 57.3604
23.044269845560063 55.9453
23.06699233506288 54.3692
23.089715744034912 52.821999999999996
23.112617610931565 51.0965
23.135342869061212 50.2113
23.158069049684816 49.4966
23.1807961538087 49.0891
23.20370174880544 49.101000000000006
23.226430710184808 49.3267
23.249160598093425 49.3916
23.271891413539002 49.2845
23.294800752937697 49.3662
23.31753343374794 49.5993
23.340267045128353 49.476000000000006
23.36300158808808 49.9723
23.38591468821339 50.3186
23.408651104658304 50.9512
23.431388455719986 51.5585
23.454126742409 52.3841
23.4770436196085 53.3825
23.499783787914662 54.5018
23.522524894889884 55.2837
23.54526694154616 56.2891
23.56818761219047 57.1706
23.59093154860734 57.6619
23.613676427751283 58.1218
23.636422250635754 57.2343
23.659346731118656 55.638999999999996
23.68209445191868 53.7331
23.704843119509587 51.5638
23.72759273490623 49.5885
23.750521041644767 48.5013
23.77327256312355 47.4757
23.796025035462787 46.8776
23.818956224555475 46.4203
23.841710609113413 46.3156
23.86446594758979 46.1343
23.887222241002014 45.8476
23.910157285144578 45.4429
23.932915498962537 45.4656
23.955674670778713 45.2982
23.978434801611975 45.1504
24.001373717286125 45.0308
24.024135776723917 45.0942
24.046898798245582 44.9915
24.06966278287146 44.7648
24.092605586582614 44.5471
24.115371508023642 44.4397
24.1381383956401 44.3458
24.16090625045381 44.2386
24.183852958731244 44.0754
24.206622758582608 44.0753
24.229393528706886 43.922
24.252165270127392 43.9452
24.27511589952438 43.8928
24.297889594216997 43.7008
24.32066426328598 43.6091
24.34343990775613 43.528
24.36639447485003 43.4308
24.38917208083877 43.5062
24.41195066531332 43.3084
24.43490819850244 43.2599
24.457688750692377 43.2623
24.48047028445616 43.214
24.503252800821233 43.332
24.526214300784112 43.3469
24.548998793132213 43.3626
24.57178427117417 43.1696
24.59457073593893 43.2333
24.617536219319863 43.0976
24.64032466834748 43.1694
24.663114107195035 43.0441
24.685904536893013 42.8543
24.708874020360852 42.8391
24.731666442613744 42.7375
24.754459858818787 42.7461
24.777254270007962 42.6173
24.80022777025625 42.5565
24.82302418230472 42.5117
24.845821592443674 42.5402
24.86862000170663 42.5657
24.891597535453727 42.3681
24.914397953892728 42.6604
24.93719937456671 42.6496
24.96000179851076 42.7775
24.98298338249997 42.8766
25.00578782394922 43.0318
25.028593271784167 43.2216
25.05157790644186 43.4435
25.07438537804115 43.6522
25.097193859145293 44.0954
25.120003350792075 44.1487
25.142992065061257 44.5301
25.165803588823465 44.7744
25.18861612625217 44.8912
25.211429678386736 45.0411
25.234422489079968 45.0287
25.257238081693636 45.1194
25.280054692141732 45.1063
25.3028723214652 45.0668
25.325869245420463 45.0452
25.348688923599397 45.21
25.371509623787006 45.0945
25.394331347025812 44.9039
25.41733240110666 44.4249
25.440156181590016 43.6778
25.46298098826268 43.1635
25.48580682216873 42.5554
25.50881202326435 42.0089
25.53163992281684 41.6562
25.55446885274561 41.4547
25.577298814096377 41.1405
25.600308179121807 41.0527
25.623140214533745 41.2784
25.64597328451537 41.1821
25.66898578564376 40.8519
25.691820936010206 40.8237
25.714657124097695 40.8487
25.737494350954734 40.7947
25.760511045684957 40.8561
25.783350361364224 40.8166
25.806190718969255 40.7936
25.82903211955018 40.9678
25.852053024868923 40.8885
25.874896522722523 40.9935
25.897741066713106 40.9197
25.920586657892454 40.9863
25.943611790812668 41.2068
25.966459487728237 41.358999999999995
25.989308234998564 41.4529
26.01215803367705 41.7879
26.03518741123814 41.8437
26.05803932412957 41.9082
26.080892291600094 41.865
26.10374631470478 41.8558
26.12677995397268 41.9421
26.14963609978026 42.0306
26.172493304397875 41.6498
26.19535156888223 41.4073
26.218389486949604 41.0371
26.241249882640123 40.7297
26.26411134137826 40.5795
26.28715248187403 40.7349
26.31001607820869 40.3871
26.3328807407756 40.188
26.35574647063438 40.4348
26.37879191991473 40.3629
26.401659795896734 40.3854
26.424528742360263 40.6521
26.447398760366614 40.8508
26.470448535598294 40.9132
26.49332070826805 41.0692
26.516193955675355 41.4126
26.53906827888316 41.7036
26.562122397260108 41.7209
26.584998883685063 42.0291
26.607876449110325 42.2462
26.63075509460056 42.4193
26.65381357334404 42.515
26.67669439061878 42.3971
26.699576291163382 42.3164
26.722459276044212 42.3199
26.745522132402975 41.8536
26.768407297649354 41.7148
26.791293550442003 41.2594
26.814180891848974 41.1403
26.837248143099337 40.7473
26.860137673466657 40.5681
26.88302829566349 40.4669
26.90592001075963 40.1109
26.92899167420566 40.1009
26.951885586870763 39.8027
26.974780595655517 39.4927
26.99785558178161 39.4848
27.020752794605112 39.2386
27.043651106772522 39.1652
27.06655051935668 39.0949
27.089629948036183 38.9942
27.112531573292053 38.921
27.135434302194138 39.0147
27.158338135817015 38.8672
27.181422024430987 38.9752
27.204328079372566 38.8279
27.22723524226965 38.7885
27.250143514198573 38.7878
27.273231880156334 38.7888
27.296142382065014 38.6941
27.319053996245536 38.6822
27.341966723775965 38.7581
27.365059584515222 38.7733
27.38797455070062 38.8475
27.410890633481237 38.6529
27.433807833936918 38.808
27.456905206923906 38.7859
27.47982465472398 38.7642
27.502745223449743 38.7684
27.525666914182825 38.7524
27.548768816912457 38.7619
27.571692763693633 38.7179
27.59461783573812 38.655
27.617723149491244 38.4735
27.640650484125285 38.3511
27.66357894728264 38.4431
27.686508540048052 38.2668
27.709618414237887 38.2456
27.732550278321757 38.1397
27.755483275279115 38.1195
27.778417406196485 38.0862
27.801531858397514 38.1917
27.824468269376716 38.0972
27.847405817586786 38.051
27.870344504116094 38.2478
27.893463551932008 38.2681
27.916404527281053 38.7049
27.93934664422563 38.6422
27.962289903855886 38.7125
27.98541356491974 38.9628
28.00835912214229 39.0118
28.03130582533231 39.1302
28.054253675581805 39.2032
28.077381967556104 39.2559
28.100332124185126 39.2243
28.123283431160893 39.2699
28.146235889577238 38.9951
28.169368830154156 38.8566
28.192323603752033 38.6593
28.215279532083304 38.4019
28.238415973016764 37.9988
28.261374223145094 37.9306
28.284333631303806 37.7705
28.307294198589954 37.6533
28.330435319167677 37.3588
28.353398217078915 37.1204
28.376362277420153 36.8782
28.39932750129032 36.7759
28.422473319286713 36.6305
28.44544088262495 36.6607
28.468409612800283 36.4725
28.491379510913497 36.2756
28.51453004413313 36.2076
28.53750229057244 36.1772
28.56047570826344 36.0136
28.583450298308804 36.1565
28.606605564586562 35.8606
28.629582511831156 35.9338
28.65256063474956 35.7388
28.675539934446338 35.8932
28.698699951647605 35.8679
28.72168161743193 35.7245
28.74466446331978 35.7728
28.767648490417624 35.743
28.790813276438353 35.7265
28.813799678527303 35.6972
28.836787265157085 35.7243
28.859955641890075 35.6975
28.882945610203045 35.7305
28.905936766392035 35.4546
28.928929111566863 35.6139
28.952102288520145 35.4757
28.975097024308607 35.3455
28.998092952423807 35.3111
29.021090073977508 35.1097
29.04426806913204 35.0565
29.067267590245258 34.8773
29.090268308143695 34.9835
29.11327022394099 34.9022
29.13645305530891 34.6775
29.159457379627167 34.5794
29.18246290519685 34.5081
29.20546963313352 34.5683
29.22865731875826 34.6547
29.25166646419296 34.5573
29.27467681535305 34.4023
29.29768837335608 34.5346
29.320880931312562 34.4832
29.34389491580634 34.4455
29.366910110507334 34.38
29.38992651653503 34.3784
29.41312396492981 34.3676
29.436142806456754 34.3597
29.45916286268059 34.256
29.48236399319994 34.1353
29.50538649169417 34.0016
29.528410208259935 33.8761
29.55143514402014 33.684
29.574641196749695 33.5213
29.597668583816574 33.4377
29.6206971934585 33.2987
29.64372702680042 33.3941
29.666938019934474 33.2339
29.689970313635285 33.1809
29.713003834422636 33.1789
29.73603858342347 33.1413
29.759254535188578 32.9857
29.78229175361658 32.9528
29.80533020365064 33.0757
29.82836988641968 33.233000000000004
29.85159081507472 33.1001
29.874632976355343 33.0035
29.89767637376955 32.9707
29.920721008448314 32.7987
29.9439469322847 32.7971
29.96699405457564 32.7579
29.9900424175358 32.9011
30.013092022298157 32.7352
30.03632295963995 32.7319
30.059375061131373 32.6918
30.08242840783577 32.7194
30.105483000888153 32.7264
30.128718970092244 32.6142
30.151776069006917 32.6487
30.17483441768648 32.7748
30.198074175317235 32.6602
30.221135036724256 32.6353
30.24419715131772 32.6379
30.267260520236203 32.6054
30.290505341942243 32.5259
30.313571232750228 32.6002
30.336638381310948 32.5403
30.35970678876503 32.455999999999996
30.38295669299435 32.4344
30.40602763151657 32.3274
30.429099832366074 32.3221
30.452173296685572 32.1832
30.47542830191959 32.3091
30.498504306502497 32.2993
30.521581577995562 32.4342
30.544660117543582 32.4449
30.56792024229725 32.4911
30.59100133132069 32.4166
30.614083691845494 32.354
30.637167325018545 32.3975
30.660432587840603 32.414
30.683518779717886 32.475
30.70660624769615 32.4253
30.729694992924372 32.5046
30.75296541239743 32.4016
30.77605672557558 32.3992
30.799149319462742 32.3146
30.8224236211637 32.2377
30.845518789950724 32.1032
30.868615242910597 32.1125
30.891712981195973 31.8413
30.91499247215866 31.7766
30.938092794619365 31.6945
30.96119440587579 31.6924
30.984297307082752 31.5502
31.00758200598383 31.5136
31.030687500658694 31.3735
31.053794288760695 31.3612
31.076902371446767 31.3097
31.100192296997445 31.3685
31.12330298246119 31.1942
31.14641496599209 31.1135
31.169528248749216 31.1536
31.19282341969534 31.1679
31.215939314557186 31.0986
31.239056512134788 31.2361
31.262175013589378 31.1997
31.28547544871168 31.1411
31.30859657161541 31.0744
31.331719001892175 30.9949
31.35484274070538 31.1471
31.378148458819545 31.1264
31.401274828443725 31.1735
31.424402510106933 31.2133
31.447712205419993 31.23
31.470842524931633 31.1644
31.493974159989783 31.1047
31.51710711176168 30.9648
31.54042212308802 30.9347
31.563557722100917 30.9585
31.586694641341655 30.733
31.609832881979628 30.7663
31.63315322823208 30.6818
31.656294125521327 30.4927
31.679436347728515 30.5084
31.70257989602529 30.4948
31.725905596152327 30.4366
31.74905181052835 30.2984
31.772199354521323 30.4502
31.79534822930507 30.3863
31.818679302290967 30.4692
31.84183085259981 30.3469
31.864983737233473 30.3371
31.88813795736804 30.3196
31.911474422233013 30.1399
31.934631327356435 30.2593
31.9577895715215 30.2372
31.980949155906522 30.2758
32.004291031706956 30.1941
32.027453310562606 30.0995
32.05061693318573 29.9048
32.07396288236386 30.0412
32.09712920658542 29.9078
32.12029687812702 29.7748
32.14346589817093 29.7564
32.166817291729984 29.6084
32.18998902288583 29.5855
32.21316210610336 29.5629
32.23633654256711 29.4024
32.259693399663725 29.3886
32.282870556771144 29.3517
32.30604907069099 29.3078
32.329228942610065 29.2652
32.35259128243769 29.1774
32.375773884550505 29.0841
32.398957848235646 29.0881
32.422143174682176 29.0441
32.445511016471215 29.0299
32.468699082679954 28.9683
32.49188851523011 28.9467
32.51507931531304 28.8197
32.538452678331 28.7827
32.56164622776311 28.6748
32.58484114831493 28.6916
32.60803744118015 28.7686
32.631416344731896 28.6753
32.654615396551876 28.6617
32.67781582427913 28.5606
32.701198898634416 28.5339
32.72440209253756 28.5146
32.747606665947124 28.4223
32.77081262006088 28.3316
32.79420126883317 28.3829
32.81740999876112 28.386
32.840620112999424 28.2538
32.86383161274818 28.0878
32.88722585534586 28.1987
32.91044014056596 28.2941
32.933655814909734 28.1818
32.95687287957963 28.2066
32.98027273544904 28.0909
33.00349259526636 28.0949
33.026713849030116 28.1054
33.04993649794511 28.0754
33.073341986570746 28.0391
33.09656744032826 27.9892
33.11979429286444 27.9585
33.14302254538647 27.959
33.166433686291185 27.9403
33.18966475336992 27.8602
33.212897224069096 27.8045
33.23613109959831 27.8542
33.259547912343415 27.7416
33.2827846121627 27.7723
33.306022720453775 27.706999999999997
33.32926223842861 27.5549
33.352684742614166 27.5916
33.37592709463173 27.5169
33.399170859982064 27.441
33.422597648419426 27.4931
33.44584425514446 27.29
33.46909227885668 27.2262
33.4923417207723 27.1861
33.51577423505344 27.2769
33.539026528130385 27.1138
33.56228024307245 27.0957
33.585535381098246 26.9347
33.60897364093058 26.9529
33.63223163992385 26.8858
33.6554910656699 26.8037
33.678751919389796 26.9255
33.702195944520106 26.8234
33.72545966903325 26.7985
33.74872482519663 26.7151
33.771991414233746 26.6557
33.79544122444841 26.5958
33.81871069412428 26.5039
33.84198160035767 26.5751
33.86525394437455 26.5555
33.88870955949969 26.4936
33.911984794020626 26.5088
33.93526147001624 26.4613
33.958539588715006 26.368000000000002
33.98200102861669 26.3139
34.0052820477047 26.1937
34.02856451319451 26.2802
34.05203033759056 26.160999999999998
34.07531571090147 26.1423
34.09860253431845 26.1975
34.121890809074316 26.1388
34.145362493118924 25.9866
34.16865368561615 25.9194
34.191946333164054 25.951999999999998
34.21524043699793 25.958000000000002
34.23871800066799 25.9754
34.26201503218366 25.7996
34.28531352370466 25.8711
34.30861347646881 25.6612
34.33209693978188 25.7166
34.3553998301885 25.6874
34.378704185565205 25.609
34.402010007152356 25.5251
34.42549939016683 25.5338
34.44880815937748 25.4538
34.472118398533134 25.3957
34.49543010887669 25.4571
34.51892543169198 25.3337
34.54224009966052 25.2761
34.56555624255917 25.2922
34.58887386163339 25.2046
34.61237514439016 25.171999999999997
34.6356957311114 25.1078
34.65901779775809 25.1069
34.68252356662995 25.1104
34.705848608458616 25.1571
34.72917513396849 25.0574
34.75250314440949 24.919
34.77601490857862 24.8752
34.799345904259795 24.7927
34.82267838863559 24.8732
34.846012362958525 24.8806
34.869530142679984 24.8319
34.89286711232212 24.7632
34.91620557568269 24.704
34.93954553401677 24.7096
34.9630693495876 24.6533
34.986412313340814 24.6405
35.00975677584668 24.6152
35.033102738362956 24.5432
35.05663261012228 24.5419
35.0799815881786 24.57
35.10333207003229 24.5024
35.12668405694369 24.4556
35.150220005273056 24.3663
35.17357501786656 24.3976
35.19693153931268 24.3514
35.220289570874385 24.2917
35.24383161619786 24.3519
35.267192683604904 24.3757
35.290555264930376 24.2714
35.314101899412165 24.2524
35.33746752422433 24.2387
35.36083466676374 24.215999999999998
35.38420332829803 24.0891
35.407756095629054 24.0923
35.43112781085063 24.0777
35.45450104888391 24.1219
35.477875810999194 24.1082
35.50143473172161 24.0159
35.52481255774625 24.0146
35.54819191167777 23.9545
35.57157279478914 23.9433
35.595137889488406 23.9571
35.61852184675279 23.8118
35.641907337029984 23.7463
35.665294361595684 23.7265
35.68886565090076 23.6315
35.7122557598848 23.6244
35.73564740699838 23.6729
35.759040593519934 23.628
35.78261809810353 23.6057
35.80601437933051 23.4923
35.829412203814705 23.4537
35.85281157283719 23.3597
35.876395313415884 23.4693
35.8997977874528 23.374000000000002
35.92320180988546 23.3561
35.946790244133936 23.2282
35.97019737933222 23.255
35.993606066789866 23.2053
36.01701630779276 23.1661
36.04061101440684 23.171999999999997
36.06402437852291 23.1455
36.08743930005611 23.2128
36.1108557802951 23.0317
36.13445678011326 23.0505
36.15787639383515 23.0062
36.18129757014299 22.9993
36.20472031032821 22.9387
36.22832762423364 22.871
36.25175350829375 22.8418
36.275180960119776 22.7907
36.298609981005924 22.8428
36.32222362992669 22.8259
36.34565580510207 22.8635
36.36908955323448 22.7039
36.39252487562093 22.6285
36.416144880530226 22.5885
36.43958336764275 22.6117
36.463023432914625 22.6008
36.486465077645676 22.5318
36.51009145956204 22.608
36.53353627947859 22.5814
36.55698268276811 22.4688
36.58043067073321 22.4405
36.60406345072071 22.3043
36.62751462435344 22.2765
36.65096738658405 22.29
36.67460498210655 22.2239
36.69806093788647 22.2112
36.72151848619297 22.1989
36.744977628333636 22.1775
36.76862165890998 22.1563
36.79208400512205 22.0842
36.81554794910557 22.158
36.83901349217101 22.0618
36.862663978991606 22.01
36.88613273667352 21.9373
36.90960309738324 21.9801
36.933075062434064 21.9237
36.95673202673572 21.8876
36.98020721697122 21.8381
37.003684015502365 21.796999999999997
37.027162423645365 21.7468
37.050825886711465 21.7309
37.07430753063053 21.6467
37.09779078812467 21.6238
37.121275660513014 21.6506
37.144945643673694 21.5889
37.16843376245278 21.5925
37.19192350009803 21.5297
37.215414857931435 21.4243
37.239091382563885 21.3678
37.262585997426164 21.3213
37.28608223645736 21.4038
37.309763684451696 21.3627
37.33326318851098 21.2816
37.356764320726555 21.2617
37.380267082425526 21.2816
37.40395510942588 21.2637
37.42746114683234 21.2011
37.45096881771841 21.1289
37.474478123414166 21.1653
37.49817275092816 21.0404
37.52168534303452 21.0578
37.54519957395567 20.9644
37.568715445024665 20.9295
37.592416694607714 20.916
37.61593586281424 21.0074
37.63945667518264 20.9487
37.66297913304891 20.8498
37.68668702630454 20.8043
37.710212792059274 20.7613
37.733740207334854 20.7778
37.757269273470364 20.6208
37.780983832050374 20.6304
37.80451621684926 20.6791
37.82805025654007 20.5497
37.851585952464795 20.576
37.8753071980695 20.5561
37.89884622345676 20.5343
37.92238690911902 20.4352
37.94611318753442 20.3883
37.969657210779765 20.4336
37.99320289834801 20.3991
38.016750251586465 20.3727
38.04048325513017 20.3048
38.06403395679343 20.2121
38.087586328183946 20.2457
38.11114037065203 20.2566
38.13488012115898 20.1805
38.1584375229181 20.1065
38.181996599821 20.1182
38.205557353221124 20.1398
38.229303872575656 20.0442
38.2528679961576 20.0523
38.27643380031219 20.0164
38.30000128639589 19.9503
38.32375459653193 19.8959
38.34732546371299 19.9572
38.37089801690786 19.8311
38.39447225747609 19.787
38.418232380377425 19.7388
38.441810012983396 19.7888
38.46538933705673 19.8045
38.488970353960084 19.7719
38.51273731166058 19.636
38.536321731567014 19.5896
38.55990784840681 19.637999999999998
38.58367995004091 19.5618
38.60726947812959 19.5143
38.63086070726198 19.5132
38.654453638806274 19.5332
38.678232613930824 19.4178
38.70182896773327 19.424
38.72542702806741 19.3739
38.7490267963045 19.4165
38.77281266709232 19.3045
38.79641586862214 19.262999999999998
38.8200207821842 19.2324
38.843627409152944 19.2912
38.86742019782782 19.2673
38.891030269149255 19.198
38.914642058016156 19.1681
38.938255565806124 19.1191
38.96205529464307 19.069000000000003
38.98567225787121 19.0363
39.00929094417078 19.0401
39.03291135492255 18.9884
39.05671804624804 18.9552
39.080341923549106 18.9237
39.103967529460334 18.8476
39.127594865365744 18.8756
39.15140854155791 18.8293
39.17503935514948 18.892
39.19867190290282 18.8279
39.22249083587951 18.7844
39.24612686969409 18.7844
39.269764641845306 18.7274
39.293404153722804 18.7213
39.317230110864074 18.6303
39.34087311998506 18.5648
39.36451787301696 18.6347
39.388164371352595 18.5865
39.41199737518003 18.494
39.43564738196752 18.5076
39.45929913825317 18.5124
39.48295264543308 18.4564
39.506792718520884 18.3972
39.530449745387216 18.3539
39.55410852735203 18.3343
39.57776906581474 18.3856
39.60161623079 18.2247
39.625280300200025 18.2564
39.64894613032202 18.1788
39.67261372255866 18.2643
39.6964680021016 18.1685
39.72013913657293 18.1813
39.74381203738292 18.1238
39.76748670593756 18.1049
39.79134812278169 18.0505
39.81502634488497 18.0544
39.83870633896685 18.0038
39.862388106436654 17.996
39.88625668336918 17.9538
39.90994201572829 17.9273
39.933629125719285 17.8667
39.957503091207826 17.8457
39.9811937746168 17.8726
40.00488623990914 17.8267
40.02858048850006 17.7477
40.05246165409549 17.7281
40.076159487492085 17.6494
40.099859108448875 17.6735
40.123560518384345 17.7144
40.1474489070226 17.6677
40.171153913178564 17.5546
40.194860712584955 17.5357
40.2185693066637 17.5819
40.242464941335314 17.5328
40.26617714307655 17.4496
40.289891143772046 17.4641
40.3136069448471 17.4652
40.33750984859743 17.3907
40.3612292688043 17.3922
40.3849504936829 17.3495
40.40867352466194 17.342
40.43258372059144 17.3396
40.45631038219906 17.2759
40.48003885420956 17.233
40.503769138055105 17.2061
40.52768664931955 17.2314
40.55142057531802 17.1782
40.57515631746428 17.131
40.599079334038514 17.0931
40.62281872700477 17.0865
40.64655994043941 17.0766
40.67030297578061 16.9649
40.69423334835778 17.0205
40.71798004609188 17.0059
40.74172857006355 16.9589
40.76547892171441 16.9398
40.7894166736039 16.8912
40.813170699248566 16.8516
40.83692655691388 16.8336
40.86068424804498 16.8589
40.884629402612525 16.8095
40.908390779366385 16.7668
40.932153993938 16.7633
40.95591904777605 16.7096
40.979871628443995 16.7577
41.003640379561936 16.7426
41.02741097430883 16.6439
41.05118341413683 16.6188
41.075143444384416 16.5805
41.098919593177826 16.5977
41.1226975914255 16.5016
41.14647744058318 16.5445
41.170444943946755 16.4833
41.19422851378379 16.4133
41.218013938914645 16.4148
41.24198706625173 16.3504
41.26577622087193 16.328
41.289567235177785 16.3395
41.31336011063129 16.2967
41.337340752422875 16.2926
41.361137369129835 16.3063
41.38493585138705 16.195999999999998
41.40873620066004 16.1871
41.43272438060107 16.174
41.45652848292052 16.1233
41.48033445666918 16.0101
41.50414230331616 16.0754
41.528138045159764 16.0449
41.551949656675205 16.0176
41.575763145513235 16.0029
41.59957851314666 15.8732
41.62358184070442 15.9643
41.64740098505737 15.9268
41.6712220126409 15.9204
41.69504492493139 15.8396
41.71905586207357 15.7898
41.74288256296395 15.7802
41.766711153007456 15.7767
41.79054163368412 15.7286
41.814560204340054 15.7372
41.838394485526365 15.7226
41.86223066180303 15.6073
41.88625497706819 15.6347
41.910094962812 15.6193
41.93393684811168 15.6002
41.95778063445365 15.5701
41.981812625263366 15.5515
42.00566023303407 15.526
42.029509746323676 15.469000000000001
42.05336116662236 15.4675
42.077400857069705 15.4354
42.10125611078846 15.454
42.12511327600405 15.3827
42.14897235421036 15.3115
42.173019768448455 15.3592
42.19688269209613 15.306
42.22074753323349 15.2767
42.24461429335818 15.2377
42.268669455600495 15.2066
42.292540073217886 15.1907
42.31641261433284 15.215
42.34028708044675 15.1587
42.36435001496739 15.1363
42.38822835065557 15.1493
42.41210861586426 15.1112
42.4359908120986 15.0676
42.46006154323262 15.0561
42.48394762115317 14.9651
42.507835634632315 14.9594
42.531912233047436 14.9732
42.55580413732265 14.9109
42.579697981698 14.9169
42.60359376768525 14.9102
42.62767820545945 14.8409
42.65157789440821 14.8844
42.67547952952185 14.8255
42.699383112316 14.7939
42.72347541395347 14.7651
42.74738291190531 14.7006
42.771292362102166 14.7324
42.795203766063516 14.6898
42.819303956130405 14.6559
42.843219287476536 14.6419
42.86713657716324 14.6287
42.89105582671383 14.5936
42.91516392983864 14.5654
42.939087119032166 14.5704
42.963012272677304 14.5138
42.98693939230129 14.4579
43.01105543317513 14.4419
43.034986504731386 14.4153
43.05891954686589 14.3774
43.08285456110972 14.3707
43.10697856448665 14.3617
43.130917542983475 14.2542
43.15485849820081 14.3421
43.17880143167367 14.2811
43.20293342237094 14.2925
43.226880332449 14.2643
43.25082922540554 14.2391
43.27496722682525 14.213
43.29892010567796 14.1576
43.32287497204102 14.1572
43.34683182745632 14.1084
43.370977859791836 14.0562
43.39493871351105 14.0715
43.41890156092628 14.0257
43.44286640358341 14.0424
43.46702049182749 14.0212
43.49098934522816 13.9875
43.51496019852649 13.9782
43.5389330532723 13.9169
43.56309522248204 13.8846
43.58707210044314 13.889000000000001
43.61105098451946 13.8485
43.63503187626491 13.8359
43.659202151562134 13.8013
43.68318707902681 13.786
43.70717401884041 13.7715
43.731162972560874 13.7009
43.75534137913236 13.7125
43.779334381108384 13.7006
43.803329401683186 13.7028
43.82732644241872 13.6159
43.8515130055166 13.6014
43.87551410707659 13.6066
43.89951723350145 13.6048
43.923709934595614 13.4816
43.94771713129917 13.5448
43.97172635758096 13.5149
43.99573761501002 13.4863
44.0199385169922 13.4568
44.04395385732619 13.4266
44.067971233533086 13.382
44.09199064718605 13.3852
44.11619977548961 13.370999999999999
44.14022328470671 13.3159
44.16424883610785 13.3261
44.18827643127035 13.3031
44.21249381139513 13.3184
44.236525514814076 13.2222
44.26055926674478 13.210999999999999
44.28459506876863 13.1948
44.3088207262813 13.1368
44.33286064928722 13.1594
44.35690262714919 13.1489
44.38094666145278 13.0832
44.4051806219871 13.1152
44.42922879003185 13.0608
44.45327901929361 13.0336
44.477331311362136 13.0323
44.501573600619416 12.9712
44.525630039221795 12.9785
44.54968854541895 12.9376
44.573937102200176 12.9299
44.5979997645541 12.9476
44.622064499300315 12.9059
44.64613130803592 12.8464
44.67038823869318 12.8534
44.69445921643748 12.7947
44.718532272981385 12.7512
44.742607409926194 12.7473
44.76687274034801 12.7847
44.79095205918753 12.6949
44.81503346325094 12.6791
44.839116954143876 12.7186
44.86339071028742 12.6762
44.88747839599524 12.6379
44.91156817336837 12.6001
44.93566004401666 12.6
44.959942251908146 12.6035
44.984038330325966 12.5618
45.00813650686762 12.5017
45.03223678314731 12.4677
45.05652746888232 12.4881
45.08063196592069 12.452
45.104738567558705 12.446
45.128847275414856 12.4506
45.15314646515866 12.3529
45.17725940679741 12.3759
45.20137445952892 12.3686
45.22568004865265 12.3591
45.24979934496396 12.2751
45.27392075725247 12.2612
45.29804428714431 12.2349
45.322358426247604 12.2409
45.346486212804315 12.1866
45.370616121861914 12.2081
45.39474815505086 12.1682
45.41907087049246 12.125
45.4432071734666 12.1132
45.46734560548283 12.0969
45.49148616817604 12.0993
45.51581748638564 12.0951
45.5399623320197 12.0734
45.56410931325473 12.0301
45.58825843173002 12.0199
45.61259837920865 11.9582
45.636751793816 11.9442
45.66090735060093 11.9104
45.68506505120716 11.9191
45.7094136545275 11.8429
45.73357566449271 11.8216
45.75773982322992 11.8442
45.78190613238733 11.8104
45.806263418194064 11.8079
45.83043404997326 11.7532
45.85460683713677 11.7549
45.87897065658495 11.7485
45.90314777634752 11.7624
45.92732705646868 11.7268
45.9515084986045 11.6688
45.97588104735473 11.6237
46.00006683541565 11.6528
46.02425479047904 11.5998
46.04844491420549 11.6127
46.0728262191024 11.6145
46.09702070211635 11.5749
46.12121735879483 11.5548
46.14541619080294 11.5093
46.169806278764455 11.5105
46.194009483459034 11.4666
46.21821486849841 11.4344
46.24242243555223 11.4274
46.266821333570014 11.4104
46.29103328674601 11.3695
46.31524742696538 11.3659
46.33946375590237 11.3674
46.36387149104216 11.4079
46.38809221957392 11.2824
46.41231514186606 11.2955
46.436540259597464 11.3055
46.460956858999374 11.2678
46.48518638983522 11.2255
46.509418121166966 11.1997
46.533652054678114 11.1807
46.55807754555709 11.1631
46.58231590571962 11.0993
46.60655647313217 11.110999999999999
46.630988654873654 11.1094
46.655233659129024 11.0536
46.67948087571551 11.0869
46.70373030632484 11.0865
46.72817142736393 11.0552
46.752425308428684 11.0534
46.77668140861147 11.0343
46.80093972960865 10.987
46.82538981736788 10.9518
46.849652602470904 10.9297
46.87391761349769 10.9203
46.8981848521493 10.9218
46.9226439341274 10.8412
46.946915650573224 10.8189
46.97118959976749 10.857999999999999
46.99546578341598 10.8117
47.019933887188216 10.8007
47.04421456235744 10.767999999999999
47.06849747711879 10.7952
47.09278263318286 10.752
47.11725978640143 10.6813
47.14154944775105 10.6974
47.165841355555656 10.6764
47.1901355115306 10.6284
47.214621741924994 10.6087
47.23892041698887 10.6487
47.26322134538975 10.5699
47.28771440635075 10.5154
47.31201986422527 10.5591
47.33632758061436 10.5459
47.360637557241866 10.4732
47.38513974410611 10.4649
47.40945426407847 10.4492
47.43377104948137 10.4629
47.45809010204344 10.4424
47.48260144275502 10.4021
47.506925052572285 10.3662
47.53125093475548 10.3546
47.55557909103813 10.2969
47.58009961361992 10.332
47.60443234110732 10.3142
47.62876734791564 10.2755
47.65310463578333 10.26
47.6776343683373 10.2524
47.7019762413987 10.2365
47.72632040075572 10.2003
47.75066684815169 10.1761
47.77520581885936 10.1806
47.799556865477655 10.1388
47.823910205386 10.1516
47.84826584033272 10.1331
47.87281407745551 10.075
47.89717432569297 10.0867
47.92153687423484 10.0783
47.94609208429692 10.1003
47.97045925671401 10.0347
47.99482873471275 10.038
48.01920052005013 9.9884
48.04376504619224 10.0074
48.068141469543484 9.985489999999999
48.09252020552573 9.957139999999999
48.11690125590099 9.94179
48.1414751266064 9.89131
48.16586082917454 9.85903
48.19024885144316 9.8524
48.2146391951793 9.840810000000001
48.239222439012764 9.86227
48.26361744916137 9.80275
48.28801478610016 9.805819999999999
48.31241445160131 9.78143
48.337007097209366 9.76216
48.36141144338331 9.76062
48.38581812345755 9.68881
48.41022713920929 9.72632
48.434829215320704 9.68785
48.45924292604658 9.65996
48.48365897780325 9.699639999999999
48.50807737237308 9.63514
48.532688907799276 9.62968
48.55711201168574 9.56364
48.581537463754074 9.556980000000001
48.60615611725119 9.57421
48.63058628942721 9.56756
48.65501881516546 9.57368
48.6794536962573 9.52421
48.70408185970339 9.49702
48.72852147531801 9.47843
48.75296345168211 9.44122
48.77740779059232 9.46875
48.80204549302823 9.43932
48.82649458091802 9.392539999999999
48.85094603676547 9.3666
48.87539986237231 9.334710000000001
48.90004713292306 9.321110000000001
48.92450572200832 9.34227
48.94896668628025 9.3151
48.97343002754588 9.29964
48.99808689542115 9.29085
49.02255501470614 9.31049
49.04702551642794 9.276539999999999
49.0714984023988 9.23058
49.096164896893235 9.19482
49.120642575466796 9.192089999999999
49.145122643748394 9.21021
49.16960510355558 9.18879
49.19428125404938 9.1667
49.2187685210852 9.12298
49.243258185121555 9.0932
49.26794160167084 9.071810000000001
49.2924360839405 9.05563
49.31693296869764 9.05218
49.34143225776915 9.04008
49.36612538195438 9.00995
49.39062950396021 9.00629
49.41513603578346 8.9991
49.4396449792564 8.983039999999999
49.46434784069503 8.9665
49.488861631846454 8.989189999999999
49.513377840166804 8.90992
49.537896467493745 8.894969999999999
49.56260909589029 8.874130000000001
49.587132585683285 8.86093
49.611658500018365 8.80948
49.636186840738596 8.85037
49.66090926588511 8.84676
49.685442483902584 8.7686
49.70997813385706 8.74036
49.734516217597076 8.764380000000001
49.75924846937352 8.74818
49.7837914452858 8.71686
49.80833686055187 8.7212
49.83288471702571 8.69869
49.85762682540054 8.6882
49.882179588965734 8.65926
49.9067347993235 8.63393
49.93129245833333 8.66408
49.95604445336378 8.64387
49.98060703442832 8.59174
50.005172069746266 8.59347
50.02993150438364 8.58521
50.05450147301533 8.53888
50.07907390151433 8.54031
50.10364879174981 8.48077
50.12841816587289 8.48069
50.1529980044635 8.49208
50.17758031042124 8.47565
50.20216508562089 8.45995
50.22694442953363 8.45647
50.25153416817468 8.39765
50.27612638170508 8.373610000000001
50.300721072005196 8.390460000000001
50.325510416102105 8.36123
50.350110084975064 8.34379
50.37471223628208 8.353010000000001
50.39931687190919 8.31134
50.424116246675766 8.31193
50.44872587605249 8.317089999999999
50.47333799543065 8.300419999999999
50.49795260670191 8.27384
50.52276204271512 8.2276
50.54738166295838 8.23062
50.57200378079314 8.218539999999999
50.596628398116835 8.19214
50.62144792604559 8.17479
50.646077567609396 8.1452
50.670709714377715 8.12191
50.69553683636198 8.1417
50.72017401885922 8.13946
50.7448137122895 8.0969
50.76945591856022 8.09108
50.79429318636823 8.089260000000001
50.818940443716784 8.071710000000001
50.84359021965163 8.03133
50.868242516085964 8.060880000000001
50.893089960641895 7.997210000000001
50.917747323549435 8.00273
50.94240721271973 8.021360000000001
50.96706963007175 7.9290199999999995
50.99192728239342 7.9584
51.01659478166073 7.979480000000001
51.04126481489051 7.92433
51.06593738400761 7.87732
51.090805275207074 7.88775
51.11548294172845 7.86379
51.14016314993547 7.8848199999999995
51.164845901758845 7.84771
51.18972406304274 7.825130000000001
51.21441192780656 7.8096
51.23910234200271 7.78004
51.2637953075678 7.74211
51.288683770237945 7.780189999999999
51.31338186432707 7.76738
51.33808251561888 7.687289999999999
51.362978729967345 7.7211300000000005
51.387684521509755 7.71523
51.41239287610203 7.668889999999999
51.437103795691165 7.6921100000000004
51.46201036644977 7.626989999999999
51.486726441956634 7.599889999999999
51.51144508832545 7.6664
51.536166307509156 7.6265
51.56108326624387 7.5607
51.58580965706056 7.540369999999999
51.61053862657523 7.55363
51.635270176746864 7.5381800000000005
51.66019755512065 7.5563
51.68493429268881 7.50815
51.70967361681515 7.483219999999999
51.73441552946465 7.470219999999999
51.759353359237934 7.41812
51.7841004750961 7.440919999999999
51.80885018539685 7.45786
51.833602492111254 7.43007
51.8585508051424 7.41533
51.883308330926425 7.3749
51.90806845906181 7.38399
51.932831191525715 7.34673
51.95779001977161 7.3099300000000005
51.98255798721516 7.33925
52.00732856494335 7.29505
52.03229530577543 7.30888
52.057071130455945 7.2594199999999995
52.081849571391054 7.241739999999999
52.106630630568695 7.20264
52.13160794279417 7.223330000000001
52.15639426492067 7.226310000000001
52.18118321127822 7.22863
52.205974783860896 7.21335
52.23096269971011 7.176260000000001
52.255759551287994 7.16405
52.280559035098186 7.131589999999999
52.30536115314103 7.10435
52.33035970494467 7.082739999999999
52.35516711807904 7.09773
52.37997717147198 7.08201
52.40478986713005 7.08971
52.42979908731974 7.03787
52.454617094216 7.048539999999999
52.47943774942214 7.01397
52.50426105495102 6.993510000000001
52.529280976059844 6.99883
52.554109609024096 6.9934199999999995
52.57894089837482 6.97998
52.60377484613117 6.9593
52.62880550079408 6.9588600000000005
52.65364479223379 6.87017
52.67848674816189 6.89392
52.70352547971946 6.87293
52.72837279155837 6.857260000000001
52.753222773982785 6.8162199999999995
52.778075429022984 6.83172
52.80312495150885 6.80273
52.827982978797436 6.79811
52.85284368481815 6.80492
52.87770707160767 6.80398
52.90276741793998 6.750260000000001
52.92763619336701 6.7555
52.952507655698504 6.74154
52.977381806977576 6.7281
53.00245301017842 6.7521
53.02733256653592 6.71127
53.052214817996074 6.708060000000001
53.077099766608484 6.655310000000001
53.102181859804446 6.59897
53.127072229988265 6.638260000000001
53.15196530349892 6.5891
53.17686108239249 6.617260000000001
53.20195409881522 6.60717
53.22685531582556 6.59444
53.25175924441303 6.55269
53.27666588664027 6.54587
53.30176985962693 6.54369
53.3266819565689 6.52115
53.35159677336455 6.5272
53.376514312083096 6.5061
53.40162927507703 6.52053
53.42655228516116 6.4808
53.45147802340193 6.4867
53.47660125628886 6.45362
53.50153247842639 6.4147099999999995
53.52646643496923 6.4292
53.55140312799818 6.42615
53.576537409691696 6.41632
53.60147960336152 6.37814
53.626424539786164 6.3772400000000005
53.65137222105307 6.34505
53.67651758529126 6.29635
53.70147078399681 6.28169
53.72642673383343 6.34678
53.75138543689533 6.2862599999999995
53.776541917524526 6.32555
53.801506154876755 6.2672300000000005
53.826473151763246 6.25933
53.851442910284916 6.21851
53.87661054126026 6.19416
53.9015858509782 6.19665
53.92656392866066 6.214180000000001
53.95154477641532 6.22727
53.976723591801296 6.17357
54.00171000771266 6.18849
54.02669920004598 6.18613
54.051691170915745 6.11762
54.076881204886796 6.10195
54.101878760928514 6.0954
54.12687910187696 6.07484
54.152077577768296 6.08709
54.1770835166946 6.0804599999999995
54.20209224691339 6.02735
54.22710377055121 6.0435300000000005
54.25231352511594 6.04134
54.27733066384342 6.0137
54.30235060239643 5.97255
54.32737334290836 5.94358
54.35259441062629 5.92214
54.377622783395324 5.9905
54.40265396455061 5.97917
54.42768795623251 5.93428
54.45292037169559 5.89722
54.477960012857906 5.8699699999999995
54.50300247099511 5.85728
54.52804774825457 5.85609
54.55329154616743 5.8373099999999996
54.57834249018678 5.78763
54.6033962597977 5.73674
54.6284528571545 5.7649
54.653708072335164 5.72382
54.67877035378786 5.71392
54.70383546947698 5.6777
54.72890342156389 5.70369
54.7541700889442 5.635730000000001
54.77924374251975 5.6155
54.8043202390049 5.60457
54.82959552413022 5.55725
54.8546777351945 5.55844
54.87976279569621 5.558269999999999
54.90485070780914 5.55192
54.930137506558005 5.51619
54.95523115074295 5.55106
54.98032765308844 5.50425
55.005427015775496 5.44833
55.03072536339621 5.45751
55.05583047570572 5.44612
55.080938454927676 5.4292300000000004
55.10604930325027 5.38136
55.131359235107396 5.38644
55.15647585066083 5.3566400000000005
55.181595341907496 5.32368
55.20671771104285 5.25864
55.232039262617704 5.2756300000000005
55.25716741665048 5.25293
55.28229845518636 5.2605900000000005
55.30743238042802 5.17122
55.33276558731939 5.14649
55.357905315183636 5.15205
55.383047936390035 5.10966
55.40819345314859 5.048019999999999
55.433538351073295 5.08473
55.458689688238415 5.0917
55.483843927614096 5.0607
55.509197623043605 5.0812
55.53435769621134 5.01898
55.55952067826466 4.940919999999999
55.5846865714265 4.94041
55.61005202069737 4.9343
55.63522376553902 4.91487
55.66039842818645 4.865
55.68557601087004 4.91528
55.7109532500271 4.81856
55.73613670233794 4.79494
