TT I
1.2716486653135266 8.1847
1.2939594142134223 7.84501
1.3162702121660406 7.283180000000001
1.3385810600174564 7.80018
1.3608919586137629 6.69773
1.383202908801069 7.05271
1.405513911425503 6.226
1.4278249673332093 6.81415
1.4501343378461518 6.598310000000001
1.4724455028545926 6.47001
1.4947567236847858 6.772810000000001
1.517068001182951 6.4351199999999995
1.5393793361953272 5.96652
1.5616907295681737 6.2377199999999995
1.5840021821477681 6.14239
1.60631369478041 5.70182
1.6286252683124185 5.0626
1.6509369035901333 5.37069
1.6732468618895553 5.57977
1.695558623192809 5.6341
1.7178704487808514 5.95872
1.7401823395001077 5.2128
1.7625012545597203 5.0884599999999995
1.7848028405262486 5.39185
1.8071218901122095 5.21802
1.8294236121921872 4.49096
1.8517427996910911 4.52712
1.8740620574440425 4.98701
1.8963639900671978 5.09347
1.9186833908139995 5.26903
1.9409854680117449 5.33424
1.9633050151394713 5.41014
1.9856246367570705 5.20378
2.0079269371922672 5.21512
2.03024671027244 4.65538
2.0525491637446027 4.61165
2.074869091674931 4.46034
2.097171701569106 5.319030000000001
2.1194917877373847 5.5597199999999996
2.141811954326636 4.8674800000000005
2.164114805233074 4.35109
2.186435135143035 4.74333
2.208738150935709 4.56503
2.231058647554722 4.46172
2.2533792288321184 5.02796
2.275682498336085 5.08646
2.298003251406138 4.83751
2.3203066942619714 5.12461
2.3426276225136022 4.78867
2.3649486396617507 4.46868
2.387252348930071 4.69195
2.4095735463442893 3.9025800000000004
2.4318774374315884 4.1243
2.4541988185014043 4.70803
2.476502894794693 4.3028699999999995
2.498824462909887 4.59313
2.521146125856138 4.56685
2.5434504863470337 5.054469999999999
2.5657723414244717 5.41167
2.588076895590662 5.73353
2.610398946189713 5.88384
2.6327210958598384 5.157830000000001
2.6550259469304716 5.47507
2.6773482972090137 5.488919999999999
2.6996533504259 5.08823
2.7219759047039602 6.1451
2.744298562293959 5.99709
2.7666039251246595 6.34299
2.7889267918020164 6.561789999999999
2.8112323652516555 6.35388
2.833555444408179 7.143330000000001
2.8558786311183852 6.71524
2.8781845268938557 7.93987
2.9005079311721484 8.77308
2.9228140460410397 8.86689
2.9451376712799635 8.806460000000001
2.967444008632326 9.05599
2.9897678582247247 9.56803
3.0120918213106695 10.1596
3.0343984987899373 10.9997
3.0567226913198637 11.1418
3.079029599759726 11.6556
3.101354025127254 12.4388
3.123678568232338 12.737
3.145985829517914 13.3742
3.16831061055229 13.6562
3.1906181112775593 14.2112
3.212943133635653 14.8451
3.2352682779763207 15.1911
3.2575761442691227 15.6596
3.2799015350264273 16.3342
3.302209649240067 16.5434
3.3245352898092655 16.6244
3.3468436553365257 16.8789
3.369169549113219 17.521
3.3914955708171384 18.7043
3.413804319727358 18.5454
3.4361305997334863 18.9059
3.4584396084414553 19.309
3.4807661501462652 19.7888
3.503092824025881 19.9683
3.5254022288463154 20.5462
3.5477291695206588 20.9195
3.5700388426251948 21.0231
3.5923660534916446 22.101999999999997
3.6146934007816114 22.344
3.637003482731501 22.4821
3.6593311053109985 22.8742
3.681641464033634 23.3083
3.7039693653009733 23.5823
3.726297407241705 24.52
3.7486081875460804 24.3102
3.7709365132734978 24.5144
3.793247578841633 25.1292
3.8155761917550093 26.0945
3.8378875459837216 26.3982
3.8602164494827234 26.2986
3.882545499606844 26.746
3.9048572932539183 27.8871
3.9271866390645718 28.3077
3.9494987298666713 28.6934
3.971828374764527 28.8493
3.9941581705403255 29.538
4.016470713506008 29.6516
4.038800813471445 30.886999999999997
4.061113662089144 31.2232
4.0834440696459176 31.8352
4.105774632334751 32.3413
4.128087945865126 32.5013
4.150418821249301 33.2886
4.172732448931298 34.1515
4.195063640413578 34.6034
4.2173775856475215 34.9414
4.239709096631102 35.8994
4.262040768704612 35.8651
4.284355196706267 36.5111
4.306687193387355 37.5007
4.329001947444346 39.1143
4.35133427213731 39.8246
4.373666762177566 40.3119
4.395982011761091 41.1914
4.418314834921175 42.1605
4.44063041906622 43.06100000000001
4.4629635787515625 43.5644
4.4852969080429785 44.5686
4.5076130004776225 46.3356
4.529946671403969 47.4891
4.552263106909177 47.7403
4.574597122877047 48.8804
4.596931312711224 50.358999999999995
4.619248269273446 51.3826
4.6415828092605835 52.4026
4.663900117405352 53.4434
4.686235010953232 54.675
4.708552674085913 56.4826
4.730887924602802 57.9007
4.753223354952695 59.2837
4.775541557023902 60.6798
4.797877349456786 62.3841
4.820195915032126 64.579
4.842532072957498 65.9083
4.864868414979744 67.8062
4.88718753227192 69.9091
4.909524244902505 72.7419
4.931843734218147 74.5364
4.954180820867835 78.3741
4.976518095879839 82.0516
4.998838149695359 86.0279
5.021175803844231 90.8112
5.043496238205739 95.303
5.065834274903528 101.197
5.088172504230693 108.306
5.1104935158799565 117.34700000000001
5.132832132875765 131.468
5.155153533596801 155.309
5.1774925416746225 211.65400000000002
5.199814334878411 555.3290000000001
5.2221537374521505 1958.29
5.244493338631803 3758.78
5.266815727034316 5283.86
5.289155727832427 8076.89
5.311478517248165 9508.37
5.333818921080011 6367.31
5.356159527788849 2045.37
5.3784829252032536 476.347
5.400823940070432 218.09400000000002
5.423147747031976 164.798
5.445489173474152 140.582
5.467830807066149 127.835
5.490155234831516 120.007
5.512497285125229 113.82799999999999
5.534822130975162 110.76700000000001
5.557164601388673 107.602
5.579489868738879 103.851
5.601832762690846 100.999
5.6241758697774475 99.304
5.646501775867269 98.3503
5.668845311622074 97.9285
5.691171647754637 97.5353
5.713515615597765 96.1298
5.735859800852677 94.9771
5.758186788542988 94.5129
5.780531411018185 95.1208
5.802858837297399 94.1815
5.825203900414495 94.9951
5.8475491852224 96.6962
5.869877275883075 98.4248
5.892223006467101 101.324
5.914551544266608 105.07
5.936897724049891 112.287
5.959244129804903 124.53200000000001
5.981573344815301 156.683
6.0039202049061 290.302
6.026249875609095 754.998
6.04859719346037 1381.28
6.070927323278297 1897.41
6.093275102315365 2647.06
6.115623113320588 3723.4
6.137953938319995 4059.91
6.160302415650845 2308.31
6.182633708324452 741.567
6.2049826554078376 227.512
6.227331838745022 124.63799999999999
6.249663839443684 100.042
6.27201349767565 89.184
6.294345974611799 83.2501
6.316696111167083 78.2487
6.339046488263839 75.2602
6.361379686074702 72.3638
6.383730546639482 70.5732
6.406064229255215 68.3003
6.428415576718203 67.2504
6.450749747566656 66.1397
6.47310158535871 64.8893
6.495453669698332 64.0468
6.517788579421056 62.9452
6.540141159237969 61.6792
6.562476565766648 61.2748
6.5848296444934045 60.5802
6.607182974060425 60.1134
6.6295191323281015 59.353
6.651872965955752 58.476000000000006
6.6742096296068985 58.108000000000004
6.6965639707294615 57.9481
6.71891856698715 56.9236
6.741255995248479 56.8418
6.763611104154477 56.1647
6.785949046381137 55.7694
6.808304671371482 55.3327
6.8306605557940046 55.0061
6.852999275508618 54.8133
6.875355681171544 54.6575
6.897694923437771 54.4361
6.92005185377892 54.2852
6.9423916220322655 53.9258
6.964749080490181 53.3562
6.987106804399774 53.2152
7.009447368180821 52.8784
7.031805625367033 52.5166
7.054146723727803 52.8001
7.076505517631004 52.8445
7.098864581288365 52.5351
7.121206488070854 52.1873
7.143566093607822 51.7815
7.165908543567245 51.9278
7.188268694426048 51.9055
7.2106291193438095 51.8946
7.232972390625943 51.7048
7.255333366030969 51.7373
7.277677189091925 51.4469
7.300038718428332 51.5198
7.322400526130865 51.5724
7.344745183422596 51.7433
7.367107550224791 51.8377
7.389452767901992 52.2942
7.411815697249891 51.9709
7.434161478756298 51.6342
7.456524974096713 51.7326
7.478888753837185 51.9077
7.501235387657368 52.6663
7.523599738562711 56.0001
7.545946944825532 62.2091
7.568311870344528 63.8712
7.5906770845765665 59.9198
7.613025156078678 55.3678
7.635390950099687 53.8394
7.657739602662809 53.262
7.680105979923558 52.9641
7.702472650212829 53.7068
7.724822180948224 53.3087
7.747189439655568 53.8396
7.769539560075357 54.2154
7.791907410653562 54.4241
7.81425812420825 54.738
7.836626570110925 54.6398
7.858995315087906 55.5604
7.881346924933401 55.725
7.903716270417482 56.3896
7.926068482028405 56.717
7.948438431475253 57.3937
7.9708086843180235 57.7611
7.993161805171116 58.3903
8.015532667162402 58.621
8.037886398416653 60.0073
8.060257873014221 60.2883
8.082629655331942 60.9028
8.104984308787587 61.4158
8.127356708900503 62.349
8.149711981398308 63.3011
8.172085002766314 64.0955
8.194458336181368 65.01100000000001
8.216814543847752 65.9027
8.23918850371002 67.2933
8.26154533906492 68.5339
8.283919928836452 70.4315
8.306277395339652 71.3098
8.328652618483376 72.7857
8.351028159736202 75.4571
8.373386579575245 77.7772
8.395762759396959 79.9879
8.418121819038275 83.0836
8.440498640894003 88.1042
8.462875785192262 95.1905
8.485235811156207 109.79700000000001
8.507613602688501 172.104
8.529974277114228 367.17
8.552352719347912 604.5980000000001
8.574731488360351 771.6610000000001
8.59709314210385 865.113
8.619472567021075 1064.9
8.64183487789147 1442.98
8.664214962183097 1841.01
8.686577933647762 1681.5
8.708958680784317 1035.07
8.731339760774953 449.30400000000003
8.753703729764451 186.24599999999998
8.77608547780821 118.13600000000001
8.798450116065078 103.62100000000001
8.820832535634787 97.105
8.843215292401656 93.5451
8.865580941199045 90.6799
8.887964374703538 88.6122
8.910330701447199 87.2307
8.932714815164482 86.1392
8.955099270424924 84.6211
8.977466620733543 84.0046
8.999851761421976 83.57
9.022219798361645 82.912
9.04460562795561 82.8035
9.066991803441677 81.865
9.089360876979615 81.9966
9.111747746589993 81.4026
9.13411751544971 81.1379
9.156505082664324 80.9111
9.178875550323522 81.1147
9.20126381862328 81.8437
9.223652438908596 86.7776
9.246023961427412 96.2792
9.26841328802173 99.009
9.290785518039224 93.4336
9.313175554425882 86.5855
9.335565947154315 82.676
9.357939245086508 81.9698
9.380330352834827 81.417
9.40270436697103 81.7872
9.425096193225055 81.6829
9.447488380180165 82.4129
9.469863475295412 82.5972
9.492256385987508 82.8075
9.514632206018318 83.7126
9.537025843935714 84.0015
9.559402392368193 84.8902
9.581796761000229 85.3827
9.604191496441521 86.2502
9.626569144158516 86.7366
9.648964615551032 87.3318
9.671343000390081 87.9972
9.693739211225699 89.1013
9.716135793237463 89.9795
9.738515290448102 90.7279
9.760912617143402 92.0664
9.783292860202891 93.5277
9.805690935076182 94.7406
9.828089385495742 95.9032
9.850470754023561 98.3213
9.872869957865444 100.524
9.89525208097539 103.21799999999999
9.917652041736662 106.929
9.940052382417589 113.465
9.962435644102392 129.957
9.984836746950979 184.032
10.007220771957746 340.85
10.029622640473708 547.143
10.052007432299963 679.1619999999999
10.074410069984072 728.36
10.096813093716005 803.633
10.119199042482517 992.2610000000001
10.141602840636468 1333.19
10.163989564971628 1627.69
10.186394141051062 1569.83
10.208799107559706 1027.65
10.231187001965623 504.30699999999996
10.253592751657669 225.61
10.275981430388155 137.21
10.298387966769793 116.615
10.320794897965431 110.973
10.343184759907361 107.76100000000001
10.36559248305461 105.351
10.387983138083852 103.971
10.410391656691655 105.984
10.432800574501677 120.281
10.455192425893369 163.088
10.47760214443012 214.857
10.499994797678786 248.326
10.522405320453982 259.932
10.54479877906917 276.779
10.567210109595656 321.535
10.5896218454736 398.329
10.612016518879773 485.05199999999996
10.634429067781074 492.772
10.656824555333241 386.781
10.679237920773568 233.69799999999998
10.701651695961992 136.934
10.724048411481384 101.336
10.746463008485165 90.919
10.768860546937125 86.4772
10.791275969274796 83.1393
10.81369180576079 81.4958
10.836090585366925 80.2306
10.858507252467449 78.8382
10.88090686379991 77.6835
10.903324365036394 76.6695
10.925724811614439 75.1832
10.948143150509463 74.8947
10.970561909719066 74.1355
10.992963615930844 73.3612
11.015383218085756 72.4249
11.037785768347074 71.2708
11.06020621697282 70.8224
11.082627090322113 70.403
11.105030913430326 69.7512
11.12745263854165 68.8519
11.149857314510728 68.0252
11.172279894912576 68.1417
11.194702904450653 67.3566
11.217108866490921 66.8324
11.239532736615194 66.2064
11.26193956033512 65.8443
11.284364294577085 65.6592
11.306789462371718 65.1874
11.329197585398376 65.0041
11.351623622610898 65.0458
11.37403261614354 64.2125
11.396459526308487 64.3845
11.418869393879497 63.6306
11.441297180532617 63.4441
11.463725406927658 62.9369
11.486136592353875 62.6422
11.508565700543707 62.3584
11.530977768845315 62.3978
11.553407762368774 62.1182
11.575838200059769 61.9697
11.598251599479612 61.7603
11.620682927815501 61.7342
11.64309721895548 61.8164
11.665529441478206 61.1844
11.687962112597958 61.1144
11.710377748130886 61.1153
11.732811318753434 61.4831
11.755227854859067 61.1145
11.777662328529495 60.8101
11.800079768750786 60.6148
11.822515149015453 60.7669
11.844950984084935 61.0436
11.867369787303163 60.9541
11.889806534289491 60.9182
11.912226250487029 61.9604
11.934663912939751 64.1715
11.9571020346363 65.5877
11.979523127133968 65.7891
12.001962169624331 65.5529
12.024384183972964 64.9844
12.046824150809913 67.5368
12.069264581333726 77.0902
12.091687985297767 90.1945
12.11412934550045 101.13799999999999
12.136553680195208 107.15799999999999
12.158995973632788 110.79299999999999
12.181438735204349 115.65700000000001
12.20386447284199 126.836
12.226308172985636 147.224
12.24873485024193 173.42700000000002
12.271179492516982 192.417
12.293607112949127 179.58599999999998
12.316052700916226 143.66299999999998
12.338498763250042 100.796
12.360927805303868 75.5664
12.383374818673879 66.5088
12.405804812803074 63.6775
12.428252780773262 62.9317
12.45070122756722 63.1682
12.473132656675375 62.6827
12.49558206341869 62.7943
12.518014453510101 62.6394
12.540464823770117 62.7257
12.562915677315177 62.4871
12.58534951575545 63.1177
12.607801338171472 62.7746
12.630236146511358 63.2866
12.652688941369085 63.9328
12.675124723177234 63.9674
12.697578494048786 64.6748
12.720032754458185 64.8501
12.742470003354093 65.2425
12.764925245138771 65.6727
12.787363476431278 66.1559
12.809819703166806 66.5931
12.83227642391173 67.3299
12.854716135692716 67.7252
12.877173846755147 68.736
12.899614549869717 69.003
12.9220732548287 70.1048
12.94453245827299 70.7476
12.966974655289818 71.7444
12.989434858002571 72.6022
13.011878055298721 73.7087
13.034339260862497 74.5657
13.056800969391883 76.2126
13.079245674017244 78.7927
13.101708390774869 80.7216
13.12415410463411 85.8499
13.146617833206086 102.101
13.169064559883248 132.267
13.191529303857127 164.08599999999998
13.213994557076367 187.188
13.236442809902437 196.498
13.258909083908291 201.78
13.28135835851934 213.245
13.30382565690295 238.565
13.326293469022952 282.775
13.348744283242008 341.57
13.371213125129904 390.048
13.39366497011003 386.077
13.416134845360597 314.436
13.438605238843131 219.43
13.46105863690397 148.47
13.483530069144786 120.79700000000001
13.505984506951902 130.005
13.528456981549432 154.534
13.550929978879088 173.671
13.573385983253365 182.315
13.595860028340867 183.449
13.618317081455832 189.454
13.64079217790333 203.963
13.663250283359057 231.097
13.685726434770173 272.85
13.708203115221277 324.29200000000003
13.730662806148091 339.714
13.75314054697177 309.086
13.775601299246777 234.487
13.798080104050406 157.465
13.820559442405358 108.70700000000001
13.843021793671388 88.4793
13.865502201420897 82.2058
13.887965623051947 80.6863
13.910447103807167 78.7575
13.932929122629764 76.8903
13.955394156785959 76.3174
13.977877254034569 75.4419
14.000343367582113 74.6856
14.022827546871707 73.7471
14.045294743423524 73.215
14.06778000837062 72.5862
14.090265817715476 72.2658
14.112734645763819 72.1738
14.13522154619454 73.0886
14.157691466286913 74.0797
14.180179461423874 73.3537
14.202668005486178 72.3451
14.22513957064374 71.1529
14.247629214846473 70.1754
14.270101881097517 69.5465
14.29259262906496 68.913
14.315083930490205 68.7273
14.337558255389705 68.4304
14.360050666019726 68.6569
14.382526101071944 68.3681
14.405019624534942 68.2594
14.427513705993134 68.094
14.449990813291825 67.9852
14.47248601302899 67.4627
14.49496423954951 67.7676
14.517460561197822 67.9489
14.539939910570322 67.7935
14.562437357763558 67.8811
14.58493536931253 68.2229
14.607416409993311 68.2738
14.62991555254159 68.7275
14.652397725157423 68.899
14.674898002342799 69.178
14.697398848433282 69.3457
14.719882725991326 70.0739
14.74238471217934 70.9371
14.764869730765593 73.6353
14.787372860692983 80.1692
14.809876564079925 93.3092
14.83236330125751 107.044
14.854868153850365 116.56700000000001
14.877356041159485 120.816
14.899862046604186 121.9
14.922351087688757 125.015
14.944858249632887 131.739
14.967365991421232 144.52700000000002
14.989856770231246 162.435
15.012365673994204 187.05200000000002
15.03485761569738 206.25
15.05736768508665 204.833
15.07987833888692 179.389
15.102372032001655 140.687
15.124883856909658 103.08
15.14737872204565 82.3464
15.169891721717274 73.6489
15.192405310371893 71.0777
15.214901940621196 69.8147
15.237416709527137 68.6065
15.259914520936249 68.1485
15.282430473753607 67.5059
15.304947020131227 66.8715
15.327446610371178 66.6559
15.349964346154254 66.4087
15.372465126703139 66.0776
15.394984055556009 65.7099
15.417486030076159 65.5333
15.44000615566487 65.438
15.462526881230803 65.571
15.485030653812652 65.2321
15.507552581617434 65.1533
15.530057557334603 65.0419
15.55258069104857 65.0594
15.575104429329837 65.3965
15.597611216864632 65.2965
15.620136166564563 65.5971
15.6426441664095 66.0975
15.665170331202765 67.8837
15.687697105158826 73.1981
15.710206930593545 83.6529
15.732734925158933 95.0097
15.755245972089478 102.96799999999999
15.77777519094324 107.397
15.800287463046663 108.072
15.822817909869592 109.28399999999999
15.84534897229804 113.13600000000001
15.867863089299354 121.712
15.890395385222186 133.547
15.912910736597423 150.582
15.935444269699861 171.91299999999998
15.957978423016485 184.456
15.980495633101265 178.571
16.003031029129367 155.122
16.02554948280019 120.536
16.048086125229432 90.6927
16.070623392487107 74.1477
16.09314371869582 66.6827
16.11568223789321 63.0596
16.13820381691126 61.5561
16.160743591742527 60.853
16.183283996022084 60.0665
16.205807461423195 59.233999999999995
16.228349126881973 58.448
16.25087385432698 58.2791
16.27341678466365 57.8204
16.29594277784926 57.4837
16.31848697676433 56.9108
16.341031811604868 56.3129
16.36355971058487 56.2557
16.3861058195587 56.0697
16.40863499352978 55.7411
16.431182380342005 55.5485
16.453730407713202 55.2382
16.476261501364792 55.0606
16.498810812136167 54.7979
16.52134319004079 54.7365
16.54389378792203 54.5462
16.566445031001553 54.4927
16.588979342490088 54.3703
16.61153187824822 54.38399999999999
16.634067483263312 54.1299
16.656621315414416 53.9771
16.679175797408888 53.6744
16.701713349928728 53.6299
16.72426913389191 53.8513
16.74680798922351 53.7757
16.76936507887444 53.8265
16.791905240734874 53.8739
16.814463639794468 53.7405
16.837022695210294 53.7343
16.859564824093756 54.0571
16.882125194503903 54.1002
16.904668639217885 54.335
16.927230328348003 54.5056
16.949792678493612 54.585
16.972338104193863 54.67100000000001
16.994901778652235 54.6525
17.017448529496576 54.7239
17.040013531998152 54.9462
17.06257920018044 55.162
17.0851279459922 56.376000000000005
17.107694947817667 58.3793
17.130245028099072 60.5861
17.15281336730298 62.7336
17.17536478578733 64.0132
17.19793446610687 64.4336
17.220504818648422 64.612
17.243058251703697 64.8081
17.265629950971032 66.279
17.288184731571736 68.1016
17.310757781306908 71.3516
17.33333150794385 74.5966
17.355888317140174 78.19800000000001
17.37846339986244 81.2194
17.401021565958885 81.0679
17.42359800851343 77.0743
17.44617513265564 71.5853
17.468735341390783 65.8546
17.491261035594565 61.6034
17.51396340099364 59.3323
17.536490463869136 58.9695
17.559018209820174 58.7442
17.58154663977963 58.7558
17.604251766089718 58.8258
17.626781572227713 58.9328
17.64931206518155 58.9317
17.671843245885103 59.4416
17.69455114821572 59.4876
17.717083712612634 59.8173
17.739616967569667 60.5058
17.762150914021706 60.9897
17.78486160749854 61.162
17.807396945166804 61.8757
17.829932977143503 62.4117
17.85246970436452 63.4882
17.875183204129467 66.2919
17.897721330097664 71.6016
17.920260154126645 78.2234
17.942799677153296 83.6867
17.9655159983646 87.0169
17.988056927677544 88.0903
18.010598558807683 88.7381
18.033140892692916 90.2539
18.05586005052525 92.3209
18.07840379824407 96.4703
18.10094825154059 103.00299999999999
18.12366954819864 112.45
18.146215420998306 125.588
18.16876200220057 138.889
18.191309292745153 146.56799999999998
18.214033452627167 143.444
18.236582170236648 130.194
18.259131600016456 112.588
18.281681742907335 96.7974
18.304408781233683 88.1069
18.32696035875955 85.1661
18.349512652227624 85.5914
18.372065662579683 89.0739
18.394795594587553 94.0549
18.41735004715306 99.1968
18.43990521943684 102.53
18.46246111238171 101.915
18.485193953325208 96.0643
18.507751296070428 85.9469
18.530309362314178 76.9031
18.552868153000343 69.6238
18.57560391815056 64.6884
18.59816416623245 63.1001
18.620725141597372 61.9654
18.643286845190268 61.2706
18.666025549835414 60.5898
18.688588718427933 60.0226
18.711152618092243 59.6712
18.73389353884365 59.3673
18.75645890921984 58.7878
18.77902501351406 58.5819
18.801591852673102 58.7091
18.824335739722738 58.1621
18.846904057212626 58.0693
18.8694731124168 57.456
18.89204290628315 57.5711
18.914789774966803 57.3747
18.937361054791623 56.9577
18.959933076131318 56.8688
18.982505839934877 56.7751
19.00525570560582 56.5635
19.027829963004184 56.5034
19.05040496572238 56.5148
19.072980714710468 56.2856
19.095733592739563 56.6283
19.11831084296757 56.857
19.140888842324735 58.0458
19.16346759176222 59.4613
19.18622349753803 60.5457
19.208803755869358 61.6641
19.231384767143577 62.0296
19.253966532312948 62.049
19.276725481241822 62.2097
19.29930876296784 62.5983
19.3218928014549 63.7109
19.34465404436217 64.8021
19.36723960516257 66.351
19.389825925592426 68.4394
19.412413006605938 70.9464
19.43517731967805 73.4077
19.457765930683355 74.2193
19.48035530514408 72.5765
19.50294544401556 69.0266
19.525712842708348 64.3777
19.54830451925909 59.9999
19.570896963095727 56.4468
19.593490175174704 54.7187
19.616260674962184 54.0116
19.638855432416964 53.5484
19.661450960992624 53.5222
19.68404726164677 53.4716
19.706820878021247 53.1701
19.729418731756834 53.2768
19.752017360452857 52.9182
19.77461676506804 53.1533
19.797393513540218 53.2409
19.819994478951667 53.4985
19.84259622316767 54.4035
19.8651987471481 55.5211
19.887978643247177 56.503
19.91058273574792 57.3591
19.933187610901943 57.9035
19.955969879466828 58.4095
19.97857632894404 58.5256
20.00118356396599 58.5791
20.023791585494575 58.7101
20.046577028914875 59.8137
20.069186632506966 61.2643
20.091797025500632 63.7138
20.114408208858933 66.3179
20.137196842715273 69.37100000000001
20.159809615886765 71.9771
20.18242318232135 72.1407
20.20503754298326 71.0717
20.227829382875154 68.5379
20.250445341109344 65.1725
20.27306209647285 62.4314
20.29567964993108 60.795
20.31847471147704 60.4425
20.34109387027612 61.0093
20.363713830075454 62.6172
20.386334591841646 64.1672
20.409132890679302 65.2022
20.431755265564437 64.5579
20.454378445325528 62.6399
20.477002430930366 59.4055
20.499803982716553 56.1299
20.522429589228004 53.3452
20.54505600449589 51.6258
20.567683229489194 50.8385
20.590488049900088 50.501999999999995
20.61311690359731 50.0067
20.63574656993626 49.9061
20.658553853717297 49.6896
20.681185154618298 49.5722
20.703817271080066 49.3326
20.72645020407368 49.0373
20.749260783967177 49.0443
20.771895359337133 49.0044
20.794530754161617 48.935
20.817166969412938 48.9893
20.83998086114876 48.8903
20.86261872660049 48.5862
20.885257415405402 48.5621
20.90789692853701 48.3388
20.930714147864748 48.3916
20.953355319030678 48.3175
20.97599731745334 48.4172
20.99864014410749 48.5728
21.021460706796564 48.8051
21.044105199328826 49.1592
21.06675052302631 49.1426
21.089396678865015 49.433
21.112220600704806 49.5178
21.134868430275347 49.3297
21.15751709492456 49.2879
21.180166595629693 49.0504
21.202993892429635 49.3869
21.22564507473034 49.7716
21.24829709602816 49.8849
21.27112693608965 50.3191
21.293780644891275 51.1672
21.316435195634053 51.3643
21.339090589297417 51.2324
21.361923832041875 51.06100000000001
21.384580921090404 50.3563
21.407238856007325 49.6159
21.429897637773326 49.3088
21.45273429906592 48.693000000000005
21.475394784108598 48.243
21.498056118951983 48.3016
21.520718304578022 48.604
21.543558400304388 48.5712
21.566222297108816 48.5492
21.58888704765135 48.617
21.61155265291521 49.2439
21.63439619898156 50.1629
21.657063523335786 51.0998
21.67973170537063 52.0798
21.7024007460706 52.9288
21.72524775840385 53.5715
21.747918526116475 53.8897
21.770590155457388 53.8402
21.79326264741238 54.2296
21.816113141960237 54.5338
21.838787368860547 55.3195
21.861462461341976 56.3602
21.884315579735777 58.0918
21.90699241312273 59.6998
21.92967011506078 61.5296
21.95234868653799 63.6678
21.9752053151131 65.3971
21.997885635446785 65.977
22.020566828293532 65.563
22.04324889464272 63.6661
22.066109049404666 60.8904
22.088792872571794 58.0755
22.111477572219204 56.2928
22.1341631493376 55.3621
22.157026846313123 55.3226
22.179714188221507 55.7035
22.202402410582668 56.1163
22.22509151438863 55.9784
22.24795876962584 55.2028
22.270649646204486 53.9897
22.293341407213727 52.5252
22.316034053646906 51.0821
22.338904883215342 49.8631
22.36159931041458 49.3111
22.38429462602756 49.0928
22.40699083104897 48.7609
22.429865251039757 48.5734
22.452563244831367 48.7094
22.47526213102522 48.7106
22.49813925616515 48.4954
22.520839937143307 48.4968
22.543541513520587 48.708999999999996
22.56624398629403 48.3947
22.589124730075895 48.4236
22.611829005656723 48.6077
22.63453418063466 48.6197
22.657240256008077 48.8643
22.680124634582935 49.326
22.70283252079775 50.0104
22.725541310413075 50.8047
22.74825100442868 51.1731
22.771139033969575 51.7951
22.79385054687155 51.7318
22.81656296718292 51.7368
22.83927629590484 51.9283
22.862167992606945 51.9275
22.88488314827121 52.2903
22.907599215359284 52.6954
22.93031619487366 53.06399999999999
22.953211574954405 53.6632
22.975930389478226 54.6403
22.998650119445763 55.7737
23.02137076586092 56.6869
23.044269845560063 57.7338
23.06699233506288 58.2461
23.089715744034912 57.5258
23.112617610931565 56.0692
23.135342869061212 54.2238
23.158069049684816 52.2623
23.1807961538087 50.7163
23.20370174880544 49.82899999999999
23.226430710184808 49.4353
23.249160598093425 49.1512
23.271891413539002 49.0956
23.294800752937697 49.545
23.31753343374794 50.3505
23.340267045128353 50.8317
23.36300158808808 51.2649
23.38591468821339 51.7313
23.408651104658304 51.7282
23.431388455719986 51.4041
23.454126742409 51.4243
23.4770436196085 51.4926
23.499783787914662 51.9452
23.522524894889884 52.0914
23.54526694154616 52.4526
23.56818761219047 53.0957
23.59093154860734 53.9419
23.613676427751283 55.4474
23.636422250635754 56.4691
23.659346731118656 57.3891
23.68209445191868 58.0096
23.704843119509587 57.1247
23.72759273490623 55.5549
23.750521041644767 53.2911
23.77327256312355 51.1484
23.796025035462787 49.1306
23.818956224555475 47.6333
23.841710609113413 46.8536
23.86446594758979 46.239
23.887222241002014 45.9062
23.910157285144578 45.5156
23.932915498962537 45.3549
23.955674670778713 45.3495
23.978434801611975 45.0169
24.001373717286125 44.8035
24.024135776723917 44.8157
24.046898798245582 44.7336
24.06966278287146 44.4863
24.092605586582614 44.4545
24.115371508023642 44.1445
24.1381383956401 44.1167
24.16090625045381 44.0182
24.183852958731244 43.926
24.206622758582608 43.831
24.229393528706886 43.5588
24.252165270127392 43.6026
24.27511589952438 43.666000000000004
24.297889594216997 43.3931
24.32066426328598 43.3056
24.34343990775613 43.1847
24.36639447485003 43.0899
24.38917208083877 43.225
24.41195066531332 43.0421
24.43490819850244 43.0407
24.457688750692377 42.9755
24.48047028445616 42.8125
24.503252800821233 42.8254
24.526214300784112 42.968999999999994
24.548998793132213 42.8567
24.57178427117417 42.7004
24.59457073593893 42.8516
24.617536219319863 42.8518
24.64032466834748 42.9409
24.663114107195035 43.1104
24.685904536893013 42.8402
24.708874020360852 42.7994
24.731666442613744 42.6322
24.754459858818787 42.5373
24.777254270007962 42.3036
24.80022777025625 42.3154
24.82302418230472 42.2277
24.845821592443674 42.2955
24.86862000170663 42.3274
24.891597535453727 42.2837
24.914397953892728 42.5214
24.93719937456671 42.4732
24.96000179851076 42.6146
24.98298338249997 42.8495
25.00578782394922 42.9151
25.028593271784167 42.8744
25.05157790644186 43.1496
25.07438537804115 43.4536
25.097193859145293 43.5474
25.120003350792075 43.6931
25.142992065061257 44.0423
25.165803588823465 44.0987
25.18861612625217 44.2948
25.211429678386736 44.4423
25.234422489079968 44.6545
25.257238081693636 44.761
25.280054692141732 45.0262
25.3028723214652 44.7547
25.325869245420463 44.8417
25.348688923599397 44.6184
25.371509623787006 44.6693
25.394331347025812 44.6597
25.41733240110666 44.8433
25.440156181590016 44.8237
25.46298098826268 44.7823
25.48580682216873 44.4849
25.50881202326435 43.8914
25.53163992281684 43.0467
25.55446885274561 42.3461
25.577298814096377 41.6905
25.600308179121807 41.2522
25.623140214533745 41.1756
25.64597328451537 40.9733
25.66898578564376 40.8026
25.691820936010206 40.7262
25.714657124097695 40.6129
25.737494350954734 40.7595
25.760511045684957 40.658
25.783350361364224 40.7394
25.806190718969255 40.8607
25.82903211955018 41.0381
25.852053024868923 41.0059
25.874896522722523 41.0188
25.897741066713106 40.9797
25.920586657892454 40.7635
25.943611790812668 40.73
25.966459487728237 40.8437
25.989308234998564 40.7854
26.01215803367705 41.0505
26.03518741123814 40.983999999999995
26.05803932412957 41.0805
26.080892291600094 40.9798
26.10374631470478 41.1751
26.12677995397268 41.4815
26.14963609978026 41.7822
26.172493304397875 41.8747
26.19535156888223 42.1963
26.218389486949604 41.8887
26.241249882640123 41.6608
26.26411134137826 41.4739
26.28715248187403 41.1439
26.31001607820869 40.8331
26.3328807407756 40.5177
26.35574647063438 40.7272
26.37879191991473 40.7012
26.401659795896734 40.696999999999996
26.424528742360263 40.7832
26.447398760366614 40.6887
26.470448535598294 40.8425
26.49332070826805 40.7279
26.516193955675355 40.9507
26.53906827888316 41.0749
26.562122397260108 41.0168
26.584998883685063 41.2258
26.607876449110325 41.4244
26.63075509460056 41.4503
26.65381357334404 41.6335
26.67669439061878 41.8386
26.699576291163382 42.2249
26.722459276044212 42.5474
26.745522132402975 42.636
26.768407297649354 42.4629
26.791293550442003 42.285
26.814180891848974 41.9745
26.837248143099337 41.4544
26.860137673466657 41.2655
26.88302829566349 40.9338
26.90592001075963 40.707
26.92899167420566 40.5903
26.951885586870763 40.2403
26.974780595655517 40.1158
26.99785558178161 39.9899
27.020752794605112 39.8037
27.043651106772522 39.4577
27.06655051935668 39.314
27.089629948036183 39.0151
27.112531573292053 39.006
27.135434302194138 38.9227
27.158338135817015 38.7797
27.181422024430987 38.8838
27.204328079372566 38.7117
27.22723524226965 38.7645
27.250143514198573 38.8455
27.273231880156334 38.773
27.296142382065014 38.8212
27.319053996245536 38.5914
27.341966723775965 38.648
27.365059584515222 38.6321
27.38797455070062 38.6938
27.410890633481237 38.5227
27.433807833936918 38.4627
27.456905206923906 38.4542
27.47982465472398 38.4285
27.502745223449743 38.5011
27.525666914182825 38.6642
27.548768816912457 38.6531
27.571692763693633 38.5575
27.59461783573812 38.606
27.617723149491244 38.498000000000005
27.640650484125285 38.6675
27.66357894728264 38.6602
27.686508540048052 38.6005
27.709618414237887 38.4909
27.732550278321757 38.4911
27.755483275279115 38.4991
27.778417406196485 38.3729
27.801531858397514 38.282
27.824468269376716 38.3185
27.847405817586786 38.0964
27.870344504116094 38.1093
27.893463551932008 38.3378
27.916404527281053 38.5294
27.93934664422563 38.4954
27.962289903855886 38.3713
27.98541356491974 38.5915
28.00835912214229 38.4865
28.03130582533231 38.7054
28.054253675581805 38.8948
28.077381967556104 38.8951
28.100332124185126 39.0743
28.123283431160893 39.1575
28.146235889577238 39.2239
28.169368830154156 39.3263
28.192323603752033 39.1659
28.215279532083304 38.9746
28.238415973016764 38.6953
28.261374223145094 38.5777
28.284333631303806 38.2752
28.307294198589954 38.1784
28.330435319167677 37.8979
28.353398217078915 37.7318
28.376362277420153 37.4894
28.39932750129032 37.3009
28.422473319286713 37.0986
28.44544088262495 37.0173
28.468409612800283 36.6597
28.491379510913497 36.3676
28.51453004413313 36.2232
28.53750229057244 36.214
28.56047570826344 36.0081
28.583450298308804 36.0156
28.606605564586562 35.8216
28.629582511831156 35.9547
28.65256063474956 35.9453
28.675539934446338 35.7764
28.698699951647605 35.773
28.72168161743193 35.7353
28.74466446331978 35.6102
28.767648490417624 35.5003
28.790813276438353 35.4469
28.813799678527303 35.4543
28.836787265157085 35.5585
28.859955641890075 35.4574
28.882945610203045 35.4355
28.905936766392035 35.2613
28.928929111566863 35.3704
28.952102288520145 35.3548
28.975097024308607 35.2916
28.998092952423807 35.1686
29.021090073977508 35.198
29.04426806913204 35.1978
29.067267590245258 34.9592
29.090268308143695 34.9419
29.11327022394099 34.9312
29.13645305530891 34.7124
29.159457379627167 34.7086
29.18246290519685 34.5289
29.20546963313352 34.4418
29.22865731875826 34.4846
29.25166646419296 34.4503
29.27467681535305 34.1903
29.29768837335608 34.3455
29.320880931312562 34.2313
29.34389491580634 34.1931
29.366910110507334 34.1546
29.38992651653503 34.2047
29.41312396492981 34.2614
29.436142806456754 34.2555
29.45916286268059 34.1329
29.48236399319994 34.1701
29.50538649169417 34.0282
29.528410208259935 34.0919
29.55143514402014 33.8981
29.574641196749695 33.6756
29.597668583816574 33.7109
29.6206971934585 33.4931
29.64372702680042 33.4413
29.666938019934474 33.2143
29.689970313635285 33.1045
29.713003834422636 33.0736
29.73603858342347 33.0633
29.759254535188578 32.9472
29.78229175361658 32.8674
29.80533020365064 32.9435
29.82836988641968 32.9614
29.85159081507472 32.8745
29.874632976355343 32.8329
29.89767637376955 32.9138
29.920721008448314 32.8002
29.9439469322847 32.662
29.96699405457564 32.6804
29.9900424175358 32.6581
30.013092022298157 32.6736
30.03632295963995 32.5697
30.059375061131373 32.6138
30.08242840783577 32.4676
30.105483000888153 32.4051
30.128718970092244 32.3628
30.151776069006917 32.3737
30.17483441768648 32.4019
30.198074175317235 32.3806
30.221135036724256 32.4712
30.24419715131772 32.2827
30.267260520236203 32.1895
30.290505341942243 32.4161
30.313571232750228 32.4661
30.336638381310948 32.5785
30.35970678876503 32.5103
30.38295669299435 32.4632
30.40602763151657 32.4379
30.429099832366074 32.4343
30.452173296685572 32.281
30.47542830191959 32.2968
30.498504306502497 32.2881
30.521581577995562 32.2472
30.544660117543582 32.3123
30.56792024229725 32.1753
30.59100133132069 32.1653
30.614083691845494 32.1923
30.637167325018545 32.1561
30.660432587840603 32.2022
30.683518779717886 32.0679
30.70660624769615 32.186
30.729694992924372 32.1822
30.75296541239743 32.2153
30.77605672557558 32.1825
30.799149319462742 32.2678
30.8224236211637 32.3206
30.845518789950724 32.3008
30.868615242910597 32.2259
30.891712981195973 32.0462
30.91499247215866 31.9159
30.938092794619365 31.9195
30.96119440587579 31.9364
30.984297307082752 31.7458
31.00758200598383 31.6729
31.030687500658694 31.5373
31.053794288760695 31.4027
31.076902371446767 31.3115
31.100192296997445 31.279
31.12330298246119 31.2641
31.14641496599209 31.1754
31.169528248749216 31.1539
31.19282341969534 31.0791
31.215939314557186 31.1296
31.239056512134788 31.1647
31.262175013589378 31.0982
31.28547544871168 31.0599
31.30859657161541 30.9502
31.331719001892175 30.9212
31.35484274070538 31.0747
31.378148458819545 30.9604
31.401274828443725 30.963
31.424402510106933 31.0154
31.447712205419993 31.0831
31.470842524931633 30.8505
31.493974159989783 30.9356
31.51710711176168 30.9002
31.54042212308802 30.9725
31.563557722100917 30.9389
31.586694641341655 30.9327
31.609832881979628 30.9395
31.63315322823208 30.8858
31.656294125521327 30.7405
31.679436347728515 30.645
31.70257989602529 30.6378
31.725905596152327 30.5195
31.74905181052835 30.4169
31.772199354521323 30.386999999999997
31.79534822930507 30.3738
31.818679302290967 30.281999999999996
31.84183085259981 30.2086
31.864983737233473 30.1842
31.88813795736804 30.2848
31.911474422233013 30.0921
31.934631327356435 30.1567
31.9577895715215 30.1491
31.980949155906522 30.048000000000002
32.004291031706956 30.0055
32.027453310562606 30.0422
32.05061693318573 29.9896
32.07396288236386 30.0611
32.09712920658542 30.0104
32.12029687812702 29.8556
32.14346589817093 29.8794
32.166817291729984 29.8436
32.18998902288583 29.7635
32.21316210610336 29.5914
32.23633654256711 29.5114
32.259693399663725 29.3677
32.282870556771144 29.3261
32.30604907069099 29.3646
32.329228942610065 29.2427
32.35259128243769 29.0905
32.375773884550505 29.0711
32.398957848235646 29.0688
32.422143174682176 29.063000000000002
32.445511016471215 28.8816
32.468699082679954 28.8985
32.49188851523011 28.816999999999997
32.51507931531304 28.6307
32.538452678331 28.7715
32.56164622776311 28.776
32.58484114831493 28.6333
32.60803744118015 28.6056
32.631416344731896 28.6437
32.654615396551876 28.5643
32.67781582427913 28.6252
32.701198898634416 28.435
32.72440209253756 28.4353
32.747606665947124 28.3484
32.77081262006088 28.2261
32.79420126883317 28.2623
32.81740999876112 28.2792
32.840620112999424 28.1811
32.86383161274818 28.125999999999998
32.88722585534586 28.2063
32.91044014056596 28.2373
32.933655814909734 28.0881
32.95687287957963 28.1056
32.98027273544904 28.0556
33.00349259526636 27.9945
33.026713849030116 28.0182
33.04993649794511 27.9456
33.073341986570746 27.9142
33.09656744032826 27.8316
33.11979429286444 27.8635
33.14302254538647 27.7641
33.166433686291185 27.7732
33.18966475336992 27.8125
33.212897224069096 27.6599
33.23613109959831 27.7674
33.259547912343415 27.6736
33.2827846121627 27.7579
33.306022720453775 27.6269
33.32926223842861 27.5661
33.352684742614166 27.5925
33.37592709463173 27.5217
33.399170859982064 27.5272
33.422597648419426 27.384
33.44584425514446 27.3738
33.46909227885668 27.2914
33.4923417207723 27.191
33.51577423505344 27.2343
33.539026528130385 27.1574
33.56228024307245 27.0954
33.585535381098246 26.9886
33.60897364093058 26.8327
33.63223163992385 26.8416
33.6554910656699 26.7393
33.678751919389796 26.824
33.702195944520106 26.669
33.72545966903325 26.7544
33.74872482519663 26.6626
33.771991414233746 26.6345
33.79544122444841 26.6019
33.81871069412428 26.4988
33.84198160035767 26.4752
33.86525394437455 26.4624
33.88870955949969 26.4856
33.911984794020626 26.4342
33.93526147001624 26.4031
33.958539588715006 26.2967
33.98200102861669 26.2819
34.0052820477047 26.0974
34.02856451319451 26.2219
34.05203033759056 26.0643
34.07531571090147 26.0964
34.09860253431845 26.0951
34.121890809074316 26.1005
34.145362493118924 26.0512
34.16865368561615 25.9328
34.191946333164054 25.8698
34.21524043699793 25.8257
34.23871800066799 25.8072
34.26201503218366 25.7527
34.28531352370466 25.7116
34.30861347646881 25.5642
34.33209693978188 25.6387
34.3553998301885 25.6648
34.378704185565205 25.5652
34.402010007152356 25.5448
34.42549939016683 25.5035
34.44880815937748 25.3457
34.472118398533134 25.3657
34.49543010887669 25.3201
34.51892543169198 25.2202
34.54224009966052 25.3004
34.56555624255917 25.2904
34.58887386163339 25.125999999999998
34.61237514439016 25.0392
34.6356957311114 25.0788
34.65901779775809 25.0297
34.68252356662995 24.9755
34.705848608458616 25.0438
34.72917513396849 24.9294
34.75250314440949 24.8831
34.77601490857862 24.8444
34.799345904259795 24.726
34.82267838863559 24.7268
34.846012362958525 24.6943
34.869530142679984 24.7304
34.89286711232212 24.6677
34.91620557568269 24.6396
34.93954553401677 24.5458
34.9630693495876 24.5564
34.986412313340814 24.6292
35.00975677584668 24.5744
35.033102738362956 24.5229
35.05663261012228 24.3711
35.0799815881786 24.4139
35.10333207003229 24.4213
35.12668405694369 24.3408
35.150220005273056 24.3227
35.17357501786656 24.3559
35.19693153931268 24.2939
35.220289570874385 24.2603
35.24383161619786 24.2365
35.267192683604904 24.2958
35.290555264930376 24.1397
35.314101899412165 24.1155
35.33746752422433 24.1232
35.36083466676374 24.0786
35.38420332829803 24.0554
35.407756095629054 24.1012
35.43112781085063 24.0063
35.45450104888391 23.9779
35.477875810999194 24.0472
35.50143473172161 23.8943
35.52481255774625 23.9218
35.54819191167777 23.8762
35.57157279478914 23.8916
35.595137889488406 23.8651
35.61852184675279 23.7974
35.641907337029984 23.7733
35.665294361595684 23.7521
35.68886565090076 23.6562
35.7122557598848 23.6862
35.73564740699838 23.6509
35.759040593519934 23.6374
35.78261809810353 23.5298
35.80601437933051 23.4398
35.829412203814705 23.371
35.85281157283719 23.369
35.876395313415884 23.3939
35.8997977874528 23.2827
35.92320180988546 23.2782
35.946790244133936 23.1967
35.97019737933222 23.1298
35.993606066789866 23.1169
36.01701630779276 23.1638
36.04061101440684 23.1481
36.06402437852291 23.1282
36.08743930005611 23.0182
36.1108557802951 23.0344
36.13445678011326 23.0541
36.15787639383515 22.9655
36.18129757014299 22.9153
36.20472031032821 22.8857
36.22832762423364 22.8436
36.25175350829375 22.8198
36.275180960119776 22.8207
36.298609981005924 22.7538
36.32222362992669 22.7008
36.34565580510207 22.7091
36.36908955323448 22.6794
36.39252487562093 22.5935
36.416144880530226 22.4828
36.43958336764275 22.5393
36.463023432914625 22.4912
36.486465077645676 22.4704
36.51009145956204 22.565
36.53353627947859 22.4407
36.55698268276811 22.4262
36.58043067073321 22.3671
36.60406345072071 22.2733
36.62751462435344 22.2376
36.65096738658405 22.2544
36.67460498210655 22.2421
36.69806093788647 22.2482
36.72151848619297 22.2183
36.744977628333636 22.1552
36.76862165890998 22.1338
36.79208400512205 22.0797
36.81554794910557 22.0961
36.83901349217101 21.9201
36.862663978991606 21.8576
36.88613273667352 21.8849
36.90960309738324 21.9725
36.933075062434064 21.8575
36.95673202673572 21.838
36.98020721697122 21.7663
37.003684015502365 21.6714
37.027162423645365 21.7378
37.050825886711465 21.6085
37.07430753063053 21.5306
37.09779078812467 21.5165
37.121275660513014 21.5196
37.144945643673694 21.4962
37.16843376245278 21.4617
37.19192350009803 21.559
37.215414857931435 21.5118
37.239091382563885 21.3667
37.262585997426164 21.3621
37.28608223645736 21.3215
37.309763684451696 21.3298
37.33326318851098 21.2331
37.356764320726555 21.2206
37.380267082425526 21.1345
37.40395510942588 21.163
37.42746114683234 21.0658
37.45096881771841 21.101999999999997
37.474478123414166 21.0758
37.49817275092816 20.9806
37.52168534303452 21.0064
37.54519957395567 20.9283
37.568715445024665 20.9464
37.592416694607714 20.9043
37.61593586281424 20.8815
37.63945667518264 20.9474
37.66297913304891 20.8019
37.68668702630454 20.7825
37.710212792059274 20.6965
37.733740207334854 20.7166
37.757269273470364 20.7139
37.780983832050374 20.6393
37.80451621684926 20.6694
37.82805025654007 20.647
37.851585952464795 20.5242
37.8753071980695 20.4997
37.89884622345676 20.4458
37.92238690911902 20.4188
37.94611318753442 20.3869
37.969657210779765 20.3275
37.99320289834801 20.3377
38.016750251586465 20.33
38.04048325513017 20.2637
38.06403395679343 20.2024
38.087586328183946 20.2042
38.11114037065203 20.152
38.13488012115898 20.198
38.1584375229181 20.1194
38.181996599821 20.0814
38.205557353221124 20.0089
38.229303872575656 19.9266
38.2528679961576 19.99
38.27643380031219 19.9719
38.30000128639589 19.8557
38.32375459653193 19.8512
38.34732546371299 19.8823
38.37089801690786 19.8033
38.39447225747609 19.744
38.418232380377425 19.7142
38.441810012983396 19.8246
38.46538933705673 19.7304
38.488970353960084 19.683
38.51273731166058 19.6548
38.536321731567014 19.6026
38.55990784840681 19.5577
38.58367995004091 19.4931
38.60726947812959 19.4502
38.63086070726198 19.452
38.654453638806274 19.4577
38.678232613930824 19.4562
38.70182896773327 19.4364
38.72542702806741 19.276
38.7490267963045 19.262999999999998
38.77281266709232 19.2597
38.79641586862214 19.3133
38.8200207821842 19.2541
38.843627409152944 19.1725
38.86742019782782 19.1795
38.891030269149255 19.1492
38.914642058016156 19.1178
38.938255565806124 19.0994
38.96205529464307 19.0453
38.98567225787121 19.0524
39.00929094417078 18.9598
39.03291135492255 18.9182
39.05671804624804 18.9155
39.080341923549106 18.8565
39.103967529460334 18.8542
39.127594865365744 18.7761
39.15140854155791 18.7051
39.17503935514948 18.7712
39.19867190290282 18.7032
39.22249083587951 18.6785
39.24612686969409 18.6971
39.269764641845306 18.6493
39.293404153722804 18.6893
39.317230110864074 18.5695
39.34087311998506 18.5865
39.36451787301696 18.5982
39.388164371352595 18.5003
39.41199737518003 18.4647
39.43564738196752 18.447
39.45929913825317 18.3725
39.48295264543308 18.3388
39.506792718520884 18.3511
39.530449745387216 18.3255
39.55410852735203 18.2246
39.57776906581474 18.2872
39.60161623079 18.235
39.625280300200025 18.2309
39.64894613032202 18.2075
39.67261372255866 18.1175
39.6964680021016 18.0561
39.72013913657293 18.0733
39.74381203738292 18.0203
39.76748670593756 18.0519
39.79134812278169 18.0508
39.81502634488497 17.9259
39.83870633896685 17.9416
39.862388106436654 17.9244
39.88625668336918 17.899
39.90994201572829 17.9438
39.933629125719285 17.8818
39.957503091207826 17.783
39.9811937746168 17.8178
40.00488623990914 17.7406
40.02858048850006 17.7223
40.05246165409549 17.6823
40.076159487492085 17.6919
40.099859108448875 17.6831
40.123560518384345 17.67
40.1474489070226 17.5927
40.171153913178564 17.5094
40.194860712584955 17.526
40.2185693066637 17.5035
40.242464941335314 17.5163
40.26617714307655 17.4229
40.289891143772046 17.3762
40.3136069448471 17.3634
40.33750984859743 17.3196
40.3612292688043 17.3264
40.3849504936829 17.2915
40.40867352466194 17.3335
40.43258372059144 17.2326
40.45631038219906 17.2038
40.48003885420956 17.1325
40.503769138055105 17.0967
40.52768664931955 17.1386
40.55142057531802 17.1754
40.57515631746428 17.0906
40.599079334038514 17.0642
40.62281872700477 16.9505
40.64655994043941 17.024
40.67030297578061 17.0017
40.69423334835778 16.9776
40.71798004609188 16.9563
40.74172857006355 16.8675
40.76547892171441 16.8875
40.7894166736039 16.8357
40.813170699248566 16.7508
40.83692655691388 16.7719
40.86068424804498 16.8093
40.884629402612525 16.7782
40.908390779366385 16.726
40.932153993938 16.6596
40.95591904777605 16.6441
40.979871628443995 16.6908
41.003640379561936 16.6269
41.02741097430883 16.6229
41.05118341413683 16.5855
41.075143444384416 16.5923
41.098919593177826 16.4925
41.1226975914255 16.5033
41.14647744058318 16.4643
41.170444943946755 16.4244
41.19422851378379 16.4359
41.218013938914645 16.3855
41.24198706625173 16.357
41.26577622087193 16.3444
41.289567235177785 16.2596
41.31336011063129 16.2602
41.337340752422875 16.1762
41.361137369129835 16.1856
41.38493585138705 16.2418
41.40873620066004 16.1552
41.43272438060107 16.1467
41.45652848292052 16.0436
41.48033445666918 16.049
41.50414230331616 16.0488
41.528138045159764 15.9704
41.551949656675205 15.9509
41.575763145513235 15.9391
41.59957851314666 15.8786
41.62358184070442 15.8864
41.64740098505737 15.8367
41.6712220126409 15.8062
41.69504492493139 15.8666
41.71905586207357 15.8624
41.74288256296395 15.7754
41.766711153007456 15.7657
41.79054163368412 15.6608
41.814560204340054 15.7621
41.838394485526365 15.6955
41.86223066180303 15.6377
41.88625497706819 15.5961
41.910094962812 15.5921
41.93393684811168 15.544
41.95778063445365 15.4677
41.981812625263366 15.5129
42.00566023303407 15.4907
42.029509746323676 15.4953
42.05336116662236 15.4261
42.077400857069705 15.3778
42.10125611078846 15.3511
42.12511327600405 15.3695
42.14897235421036 15.3008
42.173019768448455 15.2821
42.19688269209613 15.2241
42.22074753323349 15.2137
42.24461429335818 15.1977
42.268669455600495 15.179
42.292540073217886 15.142999999999999
42.31641261433284 15.0954
42.34028708044675 15.1292
42.36435001496739 15.133
42.38822835065557 15.0764
42.41210861586426 15.0719
42.4359908120986 15.0581
42.46006154323262 15.0108
42.48394762115317 14.9867
42.507835634632315 15.0226
42.531912233047436 14.9246
42.55580413732265 14.8879
42.579697981698 14.8723
42.60359376768525 14.8361
42.62767820545945 14.8307
42.65157789440821 14.8071
42.67547952952185 14.7794
42.699383112316 14.753
42.72347541395347 14.7121
42.74738291190531 14.6813
42.771292362102166 14.6863
42.795203766063516 14.6073
42.819303956130405 14.6012
42.843219287476536 14.5865
42.86713657716324 14.5687
42.89105582671383 14.536
42.91516392983864 14.4971
42.939087119032166 14.4713
42.963012272677304 14.4833
42.98693939230129 14.443
43.01105543317513 14.3889
43.034986504731386 14.3209
43.05891954686589 14.3577
43.08285456110972 14.3563
43.10697856448665 14.2796
43.130917542983475 14.2778
43.15485849820081 14.2742
43.17880143167367 14.2124
43.20293342237094 14.2295
43.226880332449 14.1879
43.25082922540554 14.2108
43.27496722682525 14.1412
43.29892010567796 14.1068
43.32287497204102 14.0875
43.34683182745632 14.0761
43.370977859791836 14.03
43.39493871351105 14.0371
43.41890156092628 14.0271
43.44286640358341 14.023
43.46702049182749 13.9216
43.49098934522816 13.9165
43.51496019852649 13.9525
43.5389330532723 13.8931
43.56309522248204 13.8893
43.58707210044314 13.8193
43.61105098451946 13.7796
43.63503187626491 13.7605
43.659202151562134 13.72
43.68318707902681 13.7279
43.70717401884041 13.7312
43.731162972560874 13.6961
43.75534137913236 13.6835
43.779334381108384 13.6678
43.803329401683186 13.6243
43.82732644241872 13.6208
43.8515130055166 13.582
43.87551410707659 13.5097
43.89951723350145 13.5034
43.923709934595614 13.4877
43.94771713129917 13.4836
43.97172635758096 13.4529
43.99573761501002 13.4511
44.0199385169922 13.4156
44.04395385732619 13.3696
44.067971233533086 13.3947
44.09199064718605 13.3688
44.11619977548961 13.3396
44.14022328470671 13.252
44.16424883610785 13.2897
44.18827643127035 13.2963
44.21249381139513 13.2505
44.236525514814076 13.1825
44.26055926674478 13.1974
44.28459506876863 13.2063
44.3088207262813 13.1335
44.33286064928722 13.0699
44.35690262714919 13.0476
44.38094666145278 13.003
44.4051806219871 13.0335
44.42922879003185 12.9934
44.45327901929361 13.0158
44.477331311362136 12.9591
44.501573600619416 12.9562
44.525630039221795 12.9261
44.54968854541895 12.911
44.573937102200176 12.847999999999999
44.5979997645541 12.8178
44.622064499300315 12.8152
44.64613130803592 12.8113
44.67038823869318 12.8079
44.69445921643748 12.7262
44.718532272981385 12.7528
44.742607409926194 12.7366
44.76687274034801 12.7322
44.79095205918753 12.7047
44.81503346325094 12.6606
44.839116954143876 12.6318
44.86339071028742 12.6358
44.88747839599524 12.5844
44.91156817336837 12.5655
44.93566004401666 12.5677
44.959942251908146 12.5175
44.984038330325966 12.4975
45.00813650686762 12.4585
45.03223678314731 12.4429
45.05652746888232 12.4253
45.08063196592069 12.4571
45.104738567558705 12.3863
45.128847275414856 12.3574
45.15314646515866 12.2926
45.17725940679741 12.3075
45.20137445952892 12.3024
45.22568004865265 12.2684
45.24979934496396 12.2448
45.27392075725247 12.2452
45.29804428714431 12.2121
45.322358426247604 12.2004
45.346486212804315 12.1933
45.370616121861914 12.1481
45.39474815505086 12.1531
45.41907087049246 12.0448
45.4432071734666 12.0862
45.46734560548283 12.0969
45.49148616817604 12.0647
45.51581748638564 12.0487
45.5399623320197 12.0129
45.56410931325473 11.9577
45.58825843173002 11.9689
45.61259837920865 11.9662
45.636751793816 11.9471
45.66090735060093 11.8823
45.68506505120716 11.8365
45.7094136545275 11.8189
45.73357566449271 11.7751
45.75773982322992 11.8193
45.78190613238733 11.7996
45.806263418194064 11.7189
45.83043404997326 11.7326
45.85460683713677 11.7358
45.87897065658495 11.682
45.90314777634752 11.6453
45.92732705646868 11.6648
45.9515084986045 11.6437
45.97588104735473 11.5919
46.00006683541565 11.6024
46.02425479047904 11.5553
46.04844491420549 11.5398
46.0728262191024 11.5427
46.09702070211635 11.5293
46.12121735879483 11.5122
46.14541619080294 11.477
46.169806278764455 11.5251
46.194009483459034 11.4555
46.21821486849841 11.404000000000002
46.24242243555223 11.3941
46.266821333570014 11.3693
46.29103328674601 11.332
46.31524742696538 11.3129
46.33946375590237 11.3132
46.36387149104216 11.2759
46.38809221957392 11.241
46.41231514186606 11.232000000000001
46.436540259597464 11.2416
46.460956858999374 11.2205
46.48518638983522 11.2038
46.509418121166966 11.1531
46.533652054678114 11.1288
46.55807754555709 11.1292
46.58231590571962 11.1276
46.60655647313217 11.0916
46.630988654873654 11.0564
46.655233659129024 11.0262
46.67948087571551 11.0049
46.70373030632484 11.0097
46.72817142736393 11.0112
46.752425308428684 10.9875
46.77668140861147 10.9357
46.80093972960865 10.8854
46.82538981736788 10.8686
46.849652602470904 10.902999999999999
46.87391761349769 10.8954
46.8981848521493 10.9003
46.9226439341274 10.7672
46.946915650573224 10.7661
46.97118959976749 10.7944
46.99546578341598 10.7343
47.019933887188216 10.7656
47.04421456235744 10.7128
47.06849747711879 10.6587
47.09278263318286 10.6488
47.11725978640143 10.652999999999999
47.14154944775105 10.648
47.165841355555656 10.5737
47.1901355115306 10.5335
47.214621741924994 10.5927
47.23892041698887 10.5592
47.26322134538975 10.5353
47.28771440635075 10.4849
47.31201986422527 10.4855
47.33632758061436 10.444
47.360637557241866 10.4581
47.38513974410611 10.4349
47.40945426407847 10.4421
47.43377104948137 10.4121
47.45809010204344 10.3939
47.48260144275502 10.3577
47.506925052572285 10.3228
47.53125093475548 10.3011
47.55557909103813 10.3051
47.58009961361992 10.3005
47.60443234110732 10.2344
47.62876734791564 10.2341
47.65310463578333 10.2077
47.6776343683373 10.1968
47.7019762413987 10.1884
47.72632040075572 10.1625
47.75066684815169 10.185
47.77520581885936 10.1391
47.799556865477655 10.1017
47.823910205386 10.1014
47.84826584033272 10.0805
47.87281407745551 10.0674
47.89717432569297 10.0595
47.92153687423484 10.0399
47.94609208429692 10.0041
47.97045925671401 9.97799
47.99482873471275 9.98691
48.01920052005013 9.98822
48.04376504619224 9.96993
48.068141469543484 9.92278
48.09252020552573 9.92532
48.11690125590099 9.89477
48.1414751266064 9.86534
48.16586082917454 9.89184
48.19024885144316 9.83491
48.2146391951793 9.804219999999999
48.239222439012764 9.79898
48.26361744916137 9.76413
48.28801478610016 9.73369
48.31241445160131 9.76037
48.337007097209366 9.764569999999999
48.36141144338331 9.69763
48.38581812345755 9.71681
48.41022713920929 9.698089999999999
48.434829215320704 9.68368
48.45924292604658 9.66305
48.48365897780325 9.6533
48.50807737237308 9.62069
48.532688907799276 9.606530000000001
48.55711201168574 9.59036
48.581537463754074 9.56348
48.60615611725119 9.55895
48.63058628942721 9.55274
48.65501881516546 9.50636
48.6794536962573 9.476189999999999
48.70408185970339 9.45693
48.72852147531801 9.43886
48.75296345168211 9.41093
48.77740779059232 9.42537
48.80204549302823 9.42264
48.82649458091802 9.40428
48.85094603676547 9.36016
48.87539986237231 9.34757
48.90004713292306 9.30199
48.92450572200832 9.312660000000001
48.94896668628025 9.31838
48.97343002754588 9.29026
48.99808689542115 9.29064
49.02255501470614 9.27549
49.04702551642794 9.226180000000001
49.0714984023988 9.20635
49.096164896893235 9.21707
49.120642575466796 9.21006
49.145122643748394 9.16916
49.16960510355558 9.15317
49.19428125404938 9.14815
49.2187685210852 9.11575
49.243258185121555 9.09131
49.26794160167084 9.086110000000001
49.2924360839405 9.05644
49.31693296869764 9.02229
49.34143225776915 8.96787
49.36612538195438 8.95464
49.39062950396021 8.99377
49.41513603578346 8.93705
49.4396449792564 8.9282
49.46434784069503 8.90975
49.488861631846454 8.90654
49.513377840166804 8.91186
49.537896467493745 8.88013
49.56260909589029 8.81734
49.587132585683285 8.83855
49.611658500018365 8.83122
49.636186840738596 8.83865
49.66090926588511 8.80441
49.685442483902584 8.782760000000001
49.70997813385706 8.75116
49.734516217597076 8.74232
49.75924846937352 8.74824
49.7837914452858 8.70322
49.80833686055187 8.694980000000001
49.83288471702571 8.635869999999999
49.85762682540054 8.66153
49.882179588965734 8.66276
49.9067347993235 8.63105
49.93129245833333 8.620989999999999
49.95604445336378 8.65179
49.98060703442832 8.60162
50.005172069746266 8.56741
50.02993150438364 8.58651
50.05450147301533 8.54355
50.07907390151433 8.51741
50.10364879174981 8.46752
50.12841816587289 8.47183
50.1529980044635 8.46193
50.17758031042124 8.412189999999999
50.20216508562089 8.4511
50.22694442953363 8.43548
50.25153416817468 8.399189999999999
50.27612638170508 8.3932
50.300721072005196 8.318489999999999
50.325510416102105 8.32043
50.350110084975064 8.34556
50.37471223628208 8.337489999999999
50.39931687190919 8.29181
50.424116246675766 8.26759
50.44872587605249 8.23423
50.47333799543065 8.2618
50.49795260670191 8.22557
50.52276204271512 8.199810000000001
50.54738166295838 8.20998
50.57200378079314 8.236239999999999
50.596628398116835 8.17755
50.62144792604559 8.14783
50.646077567609396 8.16175
50.670709714377715 8.13331
50.69553683636198 8.09634
50.72017401885922 8.130189999999999
50.7448137122895 8.10957
50.76945591856022 8.08377
50.79429318636823 8.04053
50.818940443716784 8.02571
50.84359021965163 8.03674
50.868242516085964 7.998810000000001
50.893089960641895 7.980230000000001
50.917747323549435 7.979839999999999
50.94240721271973 7.9709
50.96706963007175 7.940580000000001
50.99192728239342 7.91868
51.01659478166073 7.94025
51.04126481489051 7.8917399999999995
51.06593738400761 7.88134
51.090805275207074 7.8685
51.11548294172845 7.86698
51.14016314993547 7.848310000000001
51.164845901758845 7.8322899999999995
51.18972406304274 7.802410000000001
51.21441192780656 7.74792
51.23910234200271 7.777260000000001
51.2637953075678 7.7511399999999995
51.288683770237945 7.73795
51.31338186432707 7.722739999999999
51.33808251561888 7.6997100000000005
51.362978729967345 7.7175899999999995
51.387684521509755 7.6705
51.41239287610203 7.67294
51.437103795691165 7.6299399999999995
51.46201036644977 7.662710000000001
51.486726441956634 7.6233699999999995
51.51144508832545 7.597239999999999
51.536166307509156 7.5765899999999995
51.56108326624387 7.55881
51.58580965706056 7.560960000000001
51.61053862657523 7.54485
51.635270176746864 7.49805
51.66019755512065 7.52033
51.68493429268881 7.462389999999999
51.70967361681515 7.43925
51.73441552946465 7.46771
51.759353359237934 7.43629
51.7841004750961 7.4389899999999995
51.80885018539685 7.43613
51.833602492111254 7.3738
51.8585508051424 7.38215
51.883308330926425 7.356789999999999
51.90806845906181 7.34231
51.932831191525715 7.333760000000001
51.95779001977161 7.338939999999999
51.98255798721516 7.303719999999999
52.00732856494335 7.28247
52.03229530577543 7.29161
52.057071130455945 7.27243
52.081849571391054 7.2125
52.106630630568695 7.21163
52.13160794279417 7.2555
52.15639426492067 7.23521
52.18118321127822 7.2255899999999995
52.205974783860896 7.19382
52.23096269971011 7.15975
52.255759551287994 7.13005
52.280559035098186 7.131130000000001
52.30536115314103 7.1303
52.33035970494467 7.099819999999999
52.35516711807904 7.07941
52.37997717147198 7.032539999999999
52.40478986713005 7.025989999999999
52.42979908731974 7.0555699999999995
52.454617094216 7.01618
52.47943774942214 7.001289999999999
52.50426105495102 6.9718100000000005
52.529280976059844 6.96396
52.554109609024096 6.967689999999999
52.57894089837482 6.94901
52.60377484613117 6.95223
52.62880550079408 6.93365
52.65364479223379 6.8769800000000005
52.67848674816189 6.9024600000000005
52.70352547971946 6.90676
52.72837279155837 6.85945
52.753222773982785 6.82425
52.778075429022984 6.85077
52.80312495150885 6.825939999999999
52.827982978797436 6.7986
52.85284368481815 6.794969999999999
52.87770707160767 6.74719
52.90276741793998 6.78418
52.92763619336701 6.73735
52.952507655698504 6.7163699999999995
52.977381806977576 6.717239999999999
53.00245301017842 6.74073
53.02733256653592 6.70147
53.052214817996074 6.69695
53.077099766608484 6.66419
53.102181859804446 6.65976
53.127072229988265 6.676260000000001
53.15196530349892 6.6544
53.17686108239249 6.5815
53.20195409881522 6.59201
53.22685531582556 6.6173399999999996
53.25175924441303 6.54582
53.27666588664027 6.55385
53.30176985962693 6.584569999999999
53.3266819565689 6.56606
53.35159677336455 6.509519999999999
53.376514312083096 6.5109
53.40162927507703 6.5189900000000005
53.42655228516116 6.466469999999999
53.45147802340193 6.456180000000001
53.47660125628886 6.42111
53.50153247842639 6.408869999999999
53.52646643496923 6.41218
53.55140312799818 6.41191
53.576537409691696 6.38037
53.60147960336152 6.34291
53.626424539786164 6.391859999999999
53.65137222105307 6.37956
53.67651758529126 6.35416
53.70147078399681 6.3218
53.72642673383343 6.2961
53.75138543689533 6.28569
53.776541917524526 6.28106
53.801506154876755 6.24452
53.826473151763246 6.27609
53.851442910284916 6.20464
53.87661054126026 6.2179199999999994
53.9015858509782 6.205769999999999
53.92656392866066 6.183680000000001
53.95154477641532 6.2022699999999995
53.976723591801296 6.15842
54.00171000771266 6.16003
54.02669920004598 6.10496
54.051691170915745 6.1033800000000005
54.076881204886796 6.08305
54.101878760928514 6.08281
54.12687910187696 6.03711
54.152077577768296 6.08609
54.1770835166946 6.03937
54.20209224691339 6.03885
54.22710377055121 6.02413
54.25231352511594 5.96681
54.27733066384342 5.91276
54.30235060239643 5.9286
54.32737334290836 5.91558
54.35259441062629 5.89503
54.377622783395324 5.85424
54.40265396455061 5.85602
54.42768795623251 5.8775
54.45292037169559 5.83817
54.477960012857906 5.81838
54.50300247099511 5.7938
54.52804774825457 5.75799
54.55329154616743 5.69524
54.57834249018678 5.72331
54.6033962597977 5.69623
54.6284528571545 5.64918
54.653708072335164 5.63
54.67877035378786 5.63155
54.70383546947698 5.60794
54.72890342156389 5.615480000000001
54.7541700889442 5.5465599999999995
54.77924374251975 5.5291
54.8043202390049 5.57451
54.82959552413022 5.52736
54.8546777351945 5.46138
54.87976279569621 5.45598
54.90485070780914 5.46497
54.930137506558005 5.454330000000001
54.95523115074295 5.4446900000000005
54.98032765308844 5.40454
55.005427015775496 5.33338
55.03072536339621 5.35659
55.05583047570572 5.32498
55.080938454927676 5.3221300000000005
55.10604930325027 5.27222
55.131359235107396 5.30229
55.15647585066083 5.18955
55.181595341907496 5.1808
55.20671771104285 5.1479800000000004
55.232039262617704 5.16424
55.25716741665048 5.1435900000000006
55.28229845518636 5.1222900000000005
55.30743238042802 5.06135
55.33276558731939 5.01584
55.357905315183636 5.01685
55.383047936390035 5.00709
55.40819345314859 4.97893
55.433538351073295 4.96891
55.458689688238415 4.99851
55.483843927614096 4.87293
55.509197623043605 4.8981699999999995
55.53435769621134 4.89329
55.55952067826466 4.842569999999999
55.5846865714265 4.81804
55.61005202069737 4.78073
55.63522376553902 4.7942800000000005
55.66039842818645 4.76025
55.68557601087004 4.70944
55.7109532500271 4.69036
55.73613670233794 4.71893
