TT I
1.2716486653135266 7.03874
1.2939594142134223 7.27225
1.3162702121660406 6.723610000000001
1.3385810600174564 6.31649
1.3608919586137629 6.74245
1.383202908801069 6.18561
1.405513911425503 6.4895
1.4278249673332093 6.06059
1.4501343378461518 6.42592
1.4724455028545926 6.6362
1.4947567236847858 6.5921899999999996
1.517068001182951 6.02006
1.5393793361953272 5.65025
1.5616907295681737 5.68605
1.5840021821477681 5.62556
1.60631369478041 4.97521
1.6286252683124185 5.25179
1.6509369035901333 5.97619
1.6732468618895553 5.057169999999999
1.695558623192809 5.18553
1.7178704487808514 4.86789
1.7401823395001077 4.53897
1.7625012545597203 4.90002
1.7848028405262486 4.8608199999999995
1.8071218901122095 4.60816
1.8294236121921872 4.6487099999999995
1.8517427996910911 4.74863
1.8740620574440425 4.83239
1.8963639900671978 4.71071
1.9186833908139995 4.60773
1.9409854680117449 4.761880000000001
1.9633050151394713 4.75683
1.9856246367570705 4.5676
2.0079269371922672 4.43318
2.03024671027244 4.29893
2.0525491637446027 4.49195
2.074869091674931 4.6347
2.097171701569106 4.5305599999999995
2.1194917877373847 5.15046
2.141811954326636 5.06933
2.164114805233074 4.38265
2.186435135143035 5.14142
2.208738150935709 9.11548
2.231058647554722 16.992
2.2533792288321184 14.054
2.275682498336085 7.548439999999999
2.298003251406138 5.28645
2.3203066942619714 4.45509
2.3426276225136022 5.06245
2.3649486396617507 5.23586
2.387252348930071 4.961880000000001
2.4095735463442893 5.79151
2.4318774374315884 5.70897
2.4541988185014043 6.22878
2.476502894794693 6.80923
2.498824462909887 6.755330000000001
2.521146125856138 6.3951400000000005
2.5434504863470337 6.7101
2.5657723414244717 7.159269999999999
2.588076895590662 8.42071
2.610398946189713 7.9154
2.6327210958598384 7.84846
2.6550259469304716 7.466480000000001
2.6773482972090137 7.81858
2.6996533504259 7.61211
2.7219759047039602 8.02259
2.744298562293959 8.27117
2.7666039251246595 8.36319
2.7889267918020164 7.84282
2.8112323652516555 8.30296
2.833555444408179 8.56533
2.8558786311183852 8.724680000000001
2.8781845268938557 8.91334
2.9005079311721484 8.57519
2.9228140460410397 9.0641
2.9451376712799635 8.916780000000001
2.967444008632326 9.070139999999999
2.9897678582247247 9.86482
3.0120918213106695 10.2517
3.0343984987899373 10.9242
3.0567226913198637 11.072000000000001
3.079029599759726 11.1898
3.101354025127254 12.2343
3.123678568232338 12.4401
3.145985829517914 12.7398
3.16831061055229 13.1019
3.1906181112775593 14.3005
3.212943133635653 14.4063
3.2352682779763207 14.8254
3.2575761442691227 15.3437
3.2799015350264273 15.3996
3.302209649240067 16.1199
3.3245352898092655 16.7773
3.3468436553365257 17.1088
3.369169549113219 17.6673
3.3914955708171384 18.3245
3.413804319727358 18.6409
3.4361305997334863 18.8103
3.4584396084414553 19.5998
3.4807661501462652 20.18
3.503092824025881 20.7818
3.5254022288463154 20.9958
3.5477291695206588 21.4874
3.5700388426251948 22.4248
3.5923660534916446 23.1486
3.6146934007816114 30.7751
3.637003482731501 55.178999999999995
3.6593311053109985 60.5332
3.681641464033634 40.2917
3.7039693653009733 27.6666
3.726297407241705 25.8652
3.7486081875460804 25.4337
3.7709365132734978 26.3016
3.793247578841633 26.4871
3.8155761917550093 26.5504
3.8378875459837216 26.9274
3.8602164494827234 27.3086
3.882545499606844 27.9961
3.9048572932539183 29.0506
3.9271866390645718 29.1695
3.9494987298666713 30.1002
3.971828374764527 30.7141
3.9941581705403255 30.5739
4.016470713506008 31.6001
4.038800813471445 32.363
4.061113662089144 32.6817
4.0834440696459176 33.5582
4.105774632334751 33.475
4.128087945865126 34.2901
4.150418821249301 35.2317
4.172732448931298 36.214
4.195063640413578 37.0509
4.2173775856475215 40.2568
4.239709096631102 57.2913
4.262040768704612 139.35399999999998
4.284355196706267 179.333
4.306687193387355 121.367
4.329001947444346 60.635
4.35133427213731 45.086999999999996
4.373666762177566 43.9027
4.395982011761091 43.9391
4.418314834921175 45.1144
4.44063041906622 49.812
4.4629635787515625 55.5566
4.4852969080429785 56.3542
4.5076130004776225 52.4922
4.529946671403969 53.5217
4.552263106909177 55.1106
4.574597122877047 54.4251
4.596931312711224 53.1605
4.619248269273446 53.8944
4.6415828092605835 54.6404
4.663900117405352 56.2452
4.686235010953232 57.2572
4.708552674085913 58.5913
4.730887924602802 60.8624
4.753223354952695 61.9135
4.775541557023902 64.4355
4.797877349456786 66.9018
4.820195915032126 67.9688
4.842532072957498 68.5123
4.864868414979744 71.0515
4.88718753227192 74.2391
4.909524244902505 75.5616
4.931843734218147 76.6003
4.954180820867835 79.0278
4.976518095879839 82.2453
4.998838149695359 84.9412
5.021175803844231 88.5885
5.043496238205739 92.1837
5.065834274903528 96.7755
5.088172504230693 102.088
5.1104935158799565 109.131
5.132832132875765 128.69799999999998
5.155153533596801 161.675
5.1774925416746225 213.468
5.199814334878411 472.418
5.2221537374521505 1257.59
5.244493338631803 3204.27
5.266815727034316 7978.27
5.289155727832427 12335.1
5.311478517248165 8347.44
5.333818921080011 2826.05
5.356159527788849 588.1080000000001
5.3784829252032536 200.253
5.400823940070432 153.925
5.423147747031976 132.543
5.445489173474152 121.77600000000001
5.467830807066149 118.20100000000001
5.490155234831516 115.484
5.512497285125229 110.135
5.534822130975162 106.23100000000001
5.557164601388673 103.34
5.579489868738879 100.399
5.601832762690846 99.2975
5.6241758697774475 98.2756
5.646501775867269 97.2953
5.668845311622074 96.2159
5.691171647754637 95.5933
5.713515615597765 94.5772
5.735859800852677 93.9282
5.758186788542988 94.1544
5.780531411018185 95.6987
5.802858837297399 95.9497
5.825203900414495 95.8101
5.8475491852224 98.0563
5.869877275883075 97.7093
5.892223006467101 97.1376
5.914551544266608 97.3204
5.936897724049891 100.178
5.959244129804903 108.845
5.981573344815301 142.006
6.0039202049061 269.962
6.026249875609095 554.763
6.04859719346037 1107.25
6.070927323278297 2344.25
6.093275102315365 4446.85
6.115623113320588 5580.5
6.137953938319995 3335.08
6.160302415650845 1023.17
6.182633708324452 243.497
6.2049826554078376 115.09899999999999
6.227331838745022 93.3256
6.249663839443684 85.6181
6.27201349767565 82.1032
6.294345974611799 83.5158
6.316696111167083 88.1221
6.339046488263839 84.5085
6.361379686074702 75.9329
6.383730546639482 71.1936
6.406064229255215 69.574
6.428415576718203 69.8041
6.450749747566656 68.93
6.47310158535871 67.1385
6.495453669698332 65.8694
6.517788579421056 65.0768
6.540141159237969 63.6805
6.562476565766648 63.331
6.5848296444934045 62.7788
6.607182974060425 63.0072
6.6295191323281015 62.7205
6.651872965955752 63.9372
6.6742096296068985 76.6824
6.6965639707294615 100.465
6.71891856698715 99.7503
6.741255995248479 77.148
6.763611104154477 63.4375
6.785949046381137 59.4814
6.808304671371482 58.9652
6.8306605557940046 59.5099
6.852999275508618 58.5925
6.875355681171544 57.8985
6.897694923437771 56.7895
6.92005185377892 56.5244
6.9423916220322655 56.3364
6.964749080490181 55.8076
6.987106804399774 55.5
7.009447368180821 56.2509
7.031805625367033 55.7514
7.054146723727803 55.4973
7.076505517631004 55.1921
7.098864581288365 54.8787
7.121206488070854 54.6233
7.143566093607822 54.8933
7.165908543567245 55.6478
7.188268694426048 55.9182
7.2106291193438095 55.6006
7.232972390625943 55.7518
7.255333366030969 62.5306
7.277677189091925 89.1501
7.300038718428332 112.235
7.322400526130865 99.4261
7.344745183422596 71.9733
7.367107550224791 57.9091
7.389452767901992 55.3916
7.411815697249891 54.8344
7.434161478756298 54.0489
7.456524974096713 54.0942
7.478888753837185 54.1834
7.501235387657368 54.4775
7.523599738562711 54.7024
7.545946944825532 54.9096
7.568311870344528 55.4591
7.5906770845765665 55.5884
7.613025156078678 55.9198
7.635390950099687 56.9019
7.657739602662809 56.2091
7.680105979923558 56.1592
7.702472650212829 56.61
7.724822180948224 56.4788
7.747189439655568 56.6412
7.769539560075357 56.5007
7.791907410653562 56.8413
7.81425812420825 56.6439
7.836626570110925 57.1679
7.858995315087906 58.2472
7.881346924933401 58.1336
7.903716270417482 58.6783
7.926068482028405 59.2636
7.948438431475253 59.5507
7.9708086843180235 60.151
7.993161805171116 61.0264
8.015532667162402 61.312
8.037886398416653 62.2156
8.060257873014221 62.7151
8.082629655331942 63.6049
8.104984308787587 64.3052
8.127356708900503 66.5448
8.149711981398308 70.4831
8.172085002766314 72.5312
8.194458336181368 71.084
8.216814543847752 69.5476
8.23918850371002 70.0292
8.26154533906492 70.8598
8.283919928836452 72.2542
8.306277395339652 73.4698
8.328652618483376 74.8605
8.351028159736202 76.6254
8.373386579575245 79.2523
8.395762759396959 81.3838
8.418121819038275 85.5161
8.440498640894003 94.1464
8.462875785192262 106.93
8.485235811156207 135.268
8.507613602688501 196.028
8.529974277114228 291.297
8.552352719347912 438.069
8.574731488360351 715.0989999999999
8.59709314210385 1248.63
8.619472567021075 1878.14
8.64183487789147 2202.75
8.664214962183097 1746.88
8.686577933647762 929.808
8.708958680784317 363.715
8.731339760774953 159.269
8.753703729764451 111.13600000000001
8.77608547780821 99.969
8.798450116065078 95.8799
8.820832535634787 92.9788
8.843215292401656 92.3705
8.865580941199045 91.8979
8.887964374703538 90.5239
8.910330701447199 90.906
8.932714815164482 91.6009
8.955099270424924 89.5644
8.977466620733543 87.2952
8.999851761421976 85.6443
9.022219798361645 84.4444
9.04460562795561 84.2365
9.066991803441677 83.9102
9.089360876979615 84.2541
9.111747746589993 83.8255
9.13411751544971 83.0362
9.156505082664324 82.7599
9.178875550323522 82.6409
9.20126381862328 82.5246
9.223652438908596 82.8283
9.246023961427412 82.8162
9.26841328802173 82.5733
9.290785518039224 82.8506
9.313175554425882 84.258
9.335565947154315 84.9824
9.357939245086508 85.0222
9.380330352834827 85.1429
9.40270436697103 85.3384
9.425096193225055 84.9122
9.447488380180165 85.355
9.469863475295412 85.3523
9.492256385987508 85.43799999999999
9.514632206018318 86.1748
9.537025843935714 86.82600000000001
9.559402392368193 87.3615
9.581796761000229 89.1612
9.604191496441521 90.2238
9.626569144158516 92.7339
9.648964615551032 95.1788
9.671343000390081 95.8166
9.693739211225699 94.686
9.716135793237463 93.7961
9.738515290448102 94.2528
9.760912617143402 95.4217
9.783292860202891 97.4254
9.805690935076182 98.6883
9.828089385495742 99.708
9.850470754023561 101.53200000000001
9.872869957865444 106.45299999999999
9.89525208097539 115.251
9.917652041736662 123.634
9.940052382417589 132.264
9.962435644102392 159.148
9.984836746950979 208.09799999999998
10.007220771957746 273.497
10.029622640473708 380.769
10.052007432299963 572.404
10.074410069984072 863.9
10.096813093716005 1282.17
10.119199042482517 1741.53
10.141602840636468 1924.11
10.163989564971628 1567.65
10.186394141051062 860.6510000000001
10.208799107559706 372.94699999999995
10.231187001965623 180.113
10.253592751657669 125.63799999999999
10.275981430388155 113.163
10.298387966769793 110.845
10.320794897965431 111.258
10.343184759907361 110.3
10.36559248305461 107.125
10.387983138083852 106.359
10.410391656691655 114.309
10.432800574501677 127.319
10.455192425893369 144.09
10.47760214443012 171.59400000000002
10.499994797678786 217.752
10.522405320453982 298.324
10.54479877906917 408.431
10.567210109595656 519.876
10.5896218454736 566.567
10.612016518879773 489.27099999999996
10.634429067781074 327.73199999999997
10.656824555333241 191.153
10.679237920773568 119.10600000000001
10.701651695961992 95.3585
10.724048411481384 89.6943
10.746463008485165 87.0288
10.768860546937125 85.6731
10.791275969274796 83.8978
10.81369180576079 82.626
10.836090585366925 81.6368
10.858507252467449 80.2445
10.88090686379991 79.3789
10.903324365036394 78.9709
10.925724811614439 78.3157
10.948143150509463 78.7338
10.970561909719066 78.204
10.992963615930844 77.0256
11.015383218085756 75.5041
11.037785768347074 73.6905
11.06020621697282 73.2344
11.082627090322113 72.57600000000001
11.105030913430326 71.9441
11.12745263854165 71.9484
11.149857314510728 73.1596
11.172279894912576 76.5105
11.194702904450653 76.0882
11.217108866490921 73.9501
11.239532736615194 71.4211
11.26193956033512 70.0563
11.284364294577085 68.9929
11.306789462371718 67.9958
11.329197585398376 67.381
11.351623622610898 67.3108
11.37403261614354 66.4721
11.396459526308487 66.1727
11.418869393879497 65.8162
11.441297180532617 65.2737
11.463725406927658 65.2275
11.486136592353875 64.8604
11.508565700543707 65.0847
11.530977768845315 66.0605
11.553407762368774 66.027
11.575838200059769 66.0167
11.598251599479612 64.6723
11.620682927815501 64.0206
11.64309721895548 63.8351
11.665529441478206 63.4135
11.687962112597958 63.0082
11.710377748130886 63.2717
11.732811318753434 63.4393
11.755227854859067 63.1818
11.777662328529495 63.3239
11.800079768750786 62.8252
11.822515149015453 62.6945
11.844950984084935 62.9477
11.867369787303163 62.7927
11.889806534289491 62.8665
11.912226250487029 63.2137
11.934663912939751 63.3205
11.9571020346363 63.5034
11.979523127133968 63.7479
12.001962169624331 64.7739
12.024384183972964 66.8266
12.046824150809913 70.5232
12.069264581333726 75.5213
12.091687985297767 81.7532
12.11412934550045 91.5797
12.136553680195208 106.62
12.158995973632788 129.445
12.181438735204349 155.673
12.20386447284199 182.108
12.226308172985636 201.72799999999998
12.24873485024193 196.497
12.271179492516982 162.865
12.293607112949127 120.756
12.316052700916226 89.804
12.338498763250042 74.2898
12.360927805303868 67.8065
12.383374818673879 65.4032
12.405804812803074 64.5676
12.428252780773262 64.5677
12.45070122756722 64.6998
12.473132656675375 64.2651
12.49558206341869 64.579
12.518014453510101 65.0926
12.540464823770117 65.1556
12.562915677315177 65.194
12.58534951575545 65.74
12.607801338171472 66.8271
12.630236146511358 69.5272
12.652688941369085 71.9895
12.675124723177234 72.6862
12.697578494048786 71.1004
12.720032754458185 68.7993
12.742470003354093 68.0401
12.764925245138771 68.2103
12.787363476431278 68.3664
12.809819703166806 69.0341
12.83227642391173 69.4562
12.854716135692716 70.1619
12.877173846755147 71.4851
12.899614549869717 71.694
12.9220732548287 72.7152
12.94453245827299 73.444
12.966974655289818 74.4067
12.989434858002571 75.0122
13.011878055298721 75.9195
13.034339260862497 76.8337
13.056800969391883 78.1324
13.079245674017244 81.0861
13.101708390774869 85.5812
13.12415410463411 95.2597
13.146617833206086 106.54
13.169064559883248 117.669
13.191529303857127 133.30200000000002
13.213994557076367 158.403
13.236442809902437 197.51
13.258909083908291 252.917
13.28135835851934 311.52099999999996
13.30382565690295 377.50699999999995
13.326293469022952 426.908
13.348744283242008 422.82599999999996
13.371213125129904 344.791
13.39366497011003 250.128
13.416134845360597 165.705
13.438605238843131 121.57799999999999
13.46105863690397 109.12
13.483530069144786 110.448
13.505984506951902 116.057
13.528456981549432 126.459
13.550929978879088 142.787
13.573385983253365 167.85
13.595860028340867 207.218
13.618317081455832 254.511
13.64079217790333 308.79
13.663250283359057 350.31300000000005
13.685726434770173 364.986
13.708203115221277 330.551
13.730662806148091 253.864
13.75314054697177 181.43599999999998
13.775601299246777 125.69200000000001
13.798080104050406 96.8298
13.820559442405358 85.6825
13.843021793671388 82.3973
13.865502201420897 80.6042
13.887965623051947 80.002
13.910447103807167 78.8656
13.932929122629764 77.9284
13.955394156785959 77.1778
13.977877254034569 76.2892
14.000343367582113 75.4859
14.022827546871707 74.8904
14.045294743423524 74.1013
14.06778000837062 73.521
14.090265817715476 73.2812
14.112734645763819 72.8542
14.13522154619454 72.4382
14.157691466286913 72.4444
14.180179461423874 72.0087
14.202668005486178 71.6836
14.22513957064374 71.0943
14.247629214846473 70.835
14.270101881097517 70.6455
14.29259262906496 70.797
14.315083930490205 70.8858
14.337558255389705 71.0089
14.360050666019726 71.0194
14.382526101071944 70.2327
14.405019624534942 69.725
14.427513705993134 69.1813
14.449990813291825 69.398
14.47248601302899 69.3679
14.49496423954951 69.3933
14.517460561197822 69.4841
14.539939910570322 69.2245
14.562437357763558 69.6426
14.58493536931253 70.4003
14.607416409993311 70.6203
14.62991555254159 70.9735
14.652397725157423 71.2526
14.674898002342799 70.8667
14.697398848433282 71.3166
14.719882725991326 72.4599
14.74238471217934 74.7955
14.764869730765593 78.85600000000001
14.787372860692983 82.0949
14.809876564079925 86.3632
14.83236330125751 92.3964
14.854868153850365 101.865
14.877356041159485 116.17299999999999
14.899862046604186 134.77100000000002
14.922351087688757 158.766
14.944858249632887 185.722
14.967365991421232 209.50099999999998
14.989856770231246 223.261
15.012365673994204 214.312
15.03485761569738 184.263
15.05736768508665 143.526
15.07987833888692 110.945
15.102372032001655 89.0993
15.124883856909658 76.7841
15.14737872204565 72.399
15.169891721717274 71.0689
15.192405310371893 70.7239
15.214901940621196 70.712
15.237416709527137 70.1292
15.259914520936249 70.5035
15.282430473753607 69.5259
15.304947020131227 68.5525
15.327446610371178 68.0906
15.349964346154254 67.5078
15.372465126703139 67.3511
15.394984055556009 66.9216
15.417486030076159 66.7891
15.44000615566487 66.5857
15.462526881230803 66.3842
15.485030653812652 66.5773
15.507552581617434 66.5143
15.530057557334603 66.4439
15.55258069104857 66.5747
15.575104429329837 66.671
15.597611216864632 66.6533
15.620136166564563 67.3808
15.6426441664095 69.2091
15.665170331202765 72.20100000000001
15.687697105158826 74.9964
15.710206930593545 78.2907
15.732734925158933 82.5347
15.755245972089478 89.3825
15.77777519094324 99.1107
15.800287463046663 112.772
15.822817909869592 131.059
15.84534897229804 150.82
15.867863089299354 172.486
15.890395385222186 189.377
15.912910736597423 192.81599999999997
15.935444269699861 180.39700000000002
15.957978423016485 150.116
15.980495633101265 118.99
16.003031029129367 93.2631
16.02554948280019 74.9864
16.048086125229432 66.9627
16.070623392487107 64.6532
16.09314371869582 63.8096
16.11568223789321 63.093
16.13820381691126 62.2591
16.160743591742527 61.3542
16.183283996022084 60.8171
16.205807461423195 59.8696
16.228349126881973 59.056999999999995
16.25087385432698 59.1954
16.27341678466365 58.651
16.29594277784926 58.4758
16.31848697676433 58.4032
16.341031811604868 58.2591
16.36355971058487 58.2269
16.3861058195587 58.2083
16.40863499352978 57.3157
16.431182380342005 56.985
16.453730407713202 56.5706
16.476261501364792 56.067
16.498810812136167 55.981
16.52134319004079 55.9386
16.54389378792203 55.8104
16.566445031001553 55.4141
16.588979342490088 55.2624
16.61153187824822 55.2784
16.634067483263312 55.3029
16.656621315414416 55.0231
16.679175797408888 54.7077
16.701713349928728 54.7803
16.72426913389191 55.0846
16.74680798922351 55.2506
16.76936507887444 55.0336
16.791905240734874 55.2151
16.814463639794468 55.0836
16.837022695210294 55.2731
16.859564824093756 55.2871
16.882125194503903 55.6053
16.904668639217885 56.1744
16.927230328348003 56.0373
16.949792678493612 56.3725
16.972338104193863 55.9449
16.994901778652235 55.7698
17.017448529496576 56.1304
17.040013531998152 56.6965
17.06257920018044 57.278999999999996
17.0851279459922 58.0445
17.107694947817667 58.5624
17.130245028099072 59.4203
17.15281336730298 60.7224
17.17536478578733 62.6618
17.19793446610687 65.0036
17.220504818648422 67.9401
17.243058251703697 71.1215
17.265629950971032 75.1638
17.288184731571736 79.2603
17.310757781306908 82.4357
17.33333150794385 83.9917
17.355888317140174 81.5297
17.37846339986244 77.0998
17.401021565958885 70.9712
17.42359800851343 65.5864
17.44617513265564 62.3019
17.468735341390783 60.5545
17.491261035594565 59.6696
17.51396340099364 59.5856
17.536490463869136 59.5487
17.559018209820174 59.4805
17.58154663977963 59.6038
17.604251766089718 59.8131
17.626781572227713 60.0601
17.64931206518155 60.2687
17.671843245885103 60.852
17.69455114821572 60.7756
17.717083712612634 61.3688
17.739616967569667 61.5008
17.762150914021706 61.8273
17.78486160749854 62.074
17.807396945166804 62.9635
17.829932977143503 64.3952
17.85246970436452 66.1816
17.875183204129467 67.9454
17.897721330097664 69.9627
17.920260154126645 72.3448
17.942799677153296 75.6502
17.9655159983646 79.6376
17.988056927677544 85.3545
18.010598558807683 93.3141
18.033140892692916 102.93299999999999
18.05586005052525 112.985
18.07840379824407 123.887
18.10094825154059 134.846
18.12366954819864 141.875
18.146215420998306 141.679
18.16876200220057 132.496
18.191309292745153 117.41799999999999
18.214033452627167 103.09899999999999
18.236582170236648 92.0819
18.259131600016456 87.4792
18.281681742907335 88.081
18.304408781233683 91.9233
18.32696035875955 96.7969
18.349512652227624 101.262
18.372065662579683 105.134
18.394795594587553 106.338
18.41735004715306 102.553
18.43990521943684 95.6803
18.46246111238171 86.0798
18.485193953325208 76.8593
18.507751296070428 69.7496
18.530309362314178 65.9651
18.552868153000343 63.7218
18.57560391815056 62.6942
18.59816416623245 61.9482
18.620725141597372 61.433
18.643286845190268 61.0853
18.666025549835414 60.6981
18.688588718427933 60.1553
18.711152618092243 60.1217
18.73389353884365 59.7138
18.75645890921984 59.3815
18.77902501351406 59.0615
18.801591852673102 59.0142
18.824335739722738 58.303000000000004
18.846904057212626 58.3828
18.8694731124168 58.1109
18.89204290628315 57.9998
18.914789774966803 57.9605
18.937361054791623 57.8069
18.959933076131318 57.36
18.982505839934877 57.393
19.00525570560582 57.4726
19.027829963004184 57.3809
19.05040496572238 57.5243
19.072980714710468 57.6247
19.095733592739563 57.9647
19.11831084296757 58.0443
19.140888842324735 58.3027
19.16346759176222 58.494
19.18622349753803 58.9661
19.208803755869358 59.9756
19.231384767143577 61.4633
19.253966532312948 62.9965
19.276725481241822 65.1825
19.29930876296784 67.6569
19.3218928014549 70.3257
19.34465404436217 72.9591
19.36723960516257 75.3889
19.389825925592426 76.3321
19.412413006605938 75.2043
19.43517731967805 72.2298
19.457765930683355 67.4262
19.48035530514408 62.9974
19.50294544401556 59.1968
19.525712842708348 56.6131
19.54830451925909 55.5366
19.570896963095727 54.6145
19.593490175174704 54.0937
19.616260674962184 54.0742
19.638855432416964 53.8291
19.661450960992624 53.941
19.68404726164677 53.9022
19.706820878021247 53.7017
19.729418731756834 53.8832
19.752017360452857 53.8206
19.77461676506804 54.0937
19.797393513540218 54.284
19.819994478951667 54.5178
19.84259622316767 54.8313
19.8651987471481 55.239
19.887978643247177 55.6315
19.91058273574792 56.0599
19.933187610901943 56.913000000000004
19.955969879466828 58.0678
19.97857632894404 59.8626
20.00118356396599 61.6045
20.023791585494575 63.4907
20.046577028914875 65.9837
20.069186632506966 67.9476
20.091797025500632 69.8162
20.114408208858933 70.36399999999999
20.137196842715273 69.9061
20.159809615886765 68.2678
20.18242318232135 65.6178
20.20503754298326 63.8173
20.227829382875154 62.7358
20.250445341109344 62.6625
20.27306209647285 63.1342
20.29567964993108 64.2389
20.31847471147704 65.3278
20.34109387027612 65.8009
20.363713830075454 65.3402
20.386334591841646 64.1851
20.409132890679302 61.4416
20.431755265564437 58.248999999999995
20.454378445325528 55.4795
20.477002430930366 53.6233
20.499803982716553 52.2771
20.522429589228004 51.5819
20.54505600449589 51.1744
20.567683229489194 51.0229
20.590488049900088 50.6896
20.61311690359731 50.3755
20.63574656993626 50.3041
20.658553853717297 49.8496
20.681185154618298 50.1589
20.703817271080066 49.8076
20.72645020407368 49.4185
20.749260783967177 49.4272
20.771895359337133 49.419
20.794530754161617 49.2824
20.817166969412938 49.0838
20.83998086114876 49.1292
20.86261872660049 48.9192
20.885257415405402 48.886
20.90789692853701 48.8688
20.930714147864748 49.0722
20.953355319030678 49.0682
20.97599731745334 49.1819
20.99864014410749 48.8363
21.021460706796564 48.946999999999996
21.044105199328826 49.3376
21.06675052302631 49.4664
21.089396678865015 49.5795
21.112220600704806 49.836999999999996
21.134868430275347 50.2843
21.15751709492456 50.4296
21.180166595629693 50.6748
21.202993892429635 51.1895
21.22564507473034 51.5491
21.24829709602816 51.7648
21.27112693608965 51.7106
21.293780644891275 51.5865
21.316435195634053 50.9868
21.339090589297417 50.218999999999994
21.361923832041875 49.7292
21.384580921090404 49.288000000000004
21.407238856007325 48.8415
21.429897637773326 48.6693
21.45273429906592 48.7898
21.475394784108598 48.913999999999994
21.498056118951983 48.7376
21.520718304578022 48.9337
21.543558400304388 49.1154
21.566222297108816 49.4515
21.58888704765135 49.6626
21.61155265291521 49.8374
21.63439619898156 50.1775
21.657063523335786 50.3899
21.67973170537063 50.8735
21.7024007460706 51.4672
21.72524775840385 52.4294
21.747918526116475 53.5439
21.770590155457388 54.7667
21.79326264741238 56.3234
21.816113141960237 58.0529
21.838787368860547 59.8834
21.861462461341976 61.5456
21.884315579735777 63.358999999999995
21.90699241312273 64.3929
21.92967011506078 65.0378
21.95234868653799 64.8494
21.9752053151131 63.531000000000006
21.997885635446785 61.5652
22.020566828293532 59.8032
22.04324889464272 57.9325
22.066109049404666 56.8321
22.088792872571794 56.2377
22.111477572219204 56.1445
22.1341631493376 56.4079
22.157026846313123 56.1753
22.179714188221507 55.6941
22.202402410582668 54.4775
22.22509151438863 52.937
22.24795876962584 51.5728
22.270649646204486 50.7211
22.293341407213727 49.9574
22.316034053646906 49.6026
22.338904883215342 49.3591
22.36159931041458 49.25
22.38429462602756 49.2942
22.40699083104897 49.0186
22.429865251039757 49.0207
22.452563244831367 49.0396
22.47526213102522 49.1604
22.49813925616515 49.0417
22.520839937143307 48.8835
22.543541513520587 48.8419
22.56624398629403 48.846000000000004
22.589124730075895 49.0807
22.611829005656723 49.2715
22.63453418063466 49.1388
22.657240256008077 49.2545
22.680124634582935 49.4756
22.70283252079775 49.8041
22.725541310413075 50.0453
22.74825100442868 50.0433
22.771139033969575 50.8275
22.79385054687155 51.0063
22.81656296718292 51.778999999999996
22.83927629590484 52.5319
22.862167992606945 53.6023
22.88488314827121 54.711999999999996
22.907599215359284 55.5724
22.93031619487366 56.6625
22.953211574954405 57.3296
22.975930389478226 58.2353
22.998650119445763 58.4405
23.02137076586092 57.4165
23.044269845560063 56.3507
23.06699233506288 54.3934
23.089715744034912 52.7736
23.112617610931565 51.1757
23.135342869061212 50.0769
23.158069049684816 49.4819
23.1807961538087 49.2652
23.20370174880544 48.9964
23.226430710184808 49.3104
23.249160598093425 49.4216
23.271891413539002 49.2244
23.294800752937697 49.3177
23.31753343374794 49.655
23.340267045128353 49.7946
23.36300158808808 49.9235
23.38591468821339 50.4696
23.408651104658304 50.9237
23.431388455719986 51.4527
23.454126742409 52.2682
23.4770436196085 53.4195
23.499783787914662 54.553000000000004
23.522524894889884 55.4079
23.54526694154616 56.2957
23.56818761219047 57.3209
23.59093154860734 57.6442
23.613676427751283 58.1684
23.636422250635754 57.1387
23.659346731118656 55.7055
23.68209445191868 53.7189
23.704843119509587 51.5915
23.72759273490623 49.6776
23.750521041644767 48.4046
23.77327256312355 47.3779
23.796025035462787 46.9221
23.818956224555475 46.4081
23.841710609113413 46.2977
23.86446594758979 45.9548
23.887222241002014 45.7607
23.910157285144578 45.5219
23.932915498962537 45.4286
23.955674670778713 45.3558
23.978434801611975 45.1587
24.001373717286125 45.0024
24.024135776723917 44.9669
24.046898798245582 44.7813
24.06966278287146 44.6242
24.092605586582614 44.4658
24.115371508023642 44.3289
24.1381383956401 44.2535
24.16090625045381 44.2761
24.183852958731244 44.1919
24.206622758582608 43.9838
24.229393528706886 43.8792
24.252165270127392 43.9954
24.27511589952438 44.0127
24.297889594216997 43.7292
24.32066426328598 43.4287
24.34343990775613 43.5018
24.36639447485003 43.4327
24.38917208083877 43.3546
24.41195066531332 43.3982
24.43490819850244 43.5244
24.457688750692377 43.2821
24.48047028445616 43.2509
24.503252800821233 43.3681
24.526214300784112 43.4401
24.548998793132213 43.4326
24.57178427117417 43.2254
24.59457073593893 43.2783
24.617536219319863 43.26
24.64032466834748 43.2486
24.663114107195035 43.1411
24.685904536893013 42.7912
24.708874020360852 42.6609
24.731666442613744 42.7276
24.754459858818787 42.6209
24.777254270007962 42.6499
24.80022777025625 42.5563
24.82302418230472 42.5403
24.845821592443674 42.5471
24.86862000170663 42.4731
24.891597535453727 42.4896
24.914397953892728 42.5934
24.93719937456671 42.6307
24.96000179851076 42.8032
24.98298338249997 42.9061
25.00578782394922 43.1255
25.028593271784167 43.205
25.05157790644186 43.6703
25.07438537804115 43.8231
25.097193859145293 43.8587
25.120003350792075 44.2429
25.142992065061257 44.4505
25.165803588823465 44.6155
25.18861612625217 45.0668
25.211429678386736 44.9827
25.234422489079968 45.1555
25.257238081693636 45.2904
25.280054692141732 45.2456
25.3028723214652 45.0257
25.325869245420463 45.1589
25.348688923599397 45.191
25.371509623787006 45.1042
25.394331347025812 44.9389
25.41733240110666 44.4379
25.440156181590016 43.6437
25.46298098826268 43.1359
25.48580682216873 42.5242
25.50881202326435 42.006
25.53163992281684 41.657
25.55446885274561 41.4509
25.577298814096377 41.2364
25.600308179121807 40.9921
25.623140214533745 41.2756
25.64597328451537 41.0632
25.66898578564376 40.8165
25.691820936010206 40.9511
25.714657124097695 40.8328
25.737494350954734 40.8223
25.760511045684957 40.7212
25.783350361364224 40.7287
25.806190718969255 40.7194
25.82903211955018 40.7866
25.852053024868923 40.9021
25.874896522722523 40.952
25.897741066713106 40.978
25.920586657892454 41.1778
25.943611790812668 41.1367
25.966459487728237 41.3152
25.989308234998564 41.3621
26.01215803367705 41.604
26.03518741123814 41.8853
26.05803932412957 41.8419
26.080892291600094 41.8007
26.10374631470478 41.8945
26.12677995397268 41.9908
26.14963609978026 42.0785
26.172493304397875 41.5993
26.19535156888223 41.3563
26.218389486949604 41.0703
26.241249882640123 40.7905
26.26411134137826 40.6113
26.28715248187403 40.6604
26.31001607820869 40.37
26.3328807407756 40.2257
26.35574647063438 40.5388
26.37879191991473 40.3712
26.401659795896734 40.5852
26.424528742360263 40.7096
26.447398760366614 40.7993
26.470448535598294 40.911
26.49332070826805 41.0426
26.516193955675355 41.3675
26.53906827888316 41.4532
26.562122397260108 41.7732
26.584998883685063 41.9571
26.607876449110325 42.2756
26.63075509460056 42.4902
26.65381357334404 42.4769
26.67669439061878 42.4211
26.699576291163382 42.3337
26.722459276044212 42.3612
26.745522132402975 41.9656
26.768407297649354 41.6769
26.791293550442003 41.2492
26.814180891848974 41.0712
26.837248143099337 40.711999999999996
26.860137673466657 40.7537
26.88302829566349 40.4509
26.90592001075963 40.2294
26.92899167420566 40.1972
26.951885586870763 39.8305
26.974780595655517 39.6219
26.99785558178161 39.4948
27.020752794605112 39.4538
27.043651106772522 39.2021
27.06655051935668 39.1201
27.089629948036183 38.9767
27.112531573292053 39.0202
27.135434302194138 39.0748
27.158338135817015 38.7756
27.181422024430987 38.9125
27.204328079372566 38.8309
27.22723524226965 38.795
27.250143514198573 38.8389
27.273231880156334 38.7662
27.296142382065014 38.6398
27.319053996245536 38.6292
27.341966723775965 38.7054
27.365059584515222 38.7991
27.38797455070062 38.7449
27.410890633481237 38.6447
27.433807833936918 38.7296
27.456905206923906 38.8462
27.47982465472398 38.7613
27.502745223449743 38.8864
27.525666914182825 38.9234
27.548768816912457 38.8434
27.571692763693633 38.7879
27.59461783573812 38.764
27.617723149491244 38.5354
27.640650484125285 38.4682
27.66357894728264 38.4448
27.686508540048052 38.3247
27.709618414237887 38.1311
27.732550278321757 38.1116
27.755483275279115 38.0883
27.778417406196485 38.19
27.801531858397514 38.2221
27.824468269376716 38.0491
27.847405817586786 38.2072
27.870344504116094 38.1588
27.893463551932008 38.3655
27.916404527281053 38.6153
27.93934664422563 38.6752
27.962289903855886 38.7422
27.98541356491974 38.95
28.00835912214229 39.1176
28.03130582533231 39.2116
28.054253675581805 39.3997
28.077381967556104 39.2456
28.100332124185126 39.3546
28.123283431160893 39.3237
28.146235889577238 39.069
28.169368830154156 38.7325
28.192323603752033 38.6186
28.215279532083304 38.2724
28.238415973016764 38.0804
28.261374223145094 38.0984
28.284333631303806 37.8448
28.307294198589954 37.7204
28.330435319167677 37.3579
28.353398217078915 36.9648
28.376362277420153 36.8045
28.39932750129032 36.7733
28.422473319286713 36.5974
28.44544088262495 36.7179
28.468409612800283 36.6304
28.491379510913497 36.3046
28.51453004413313 36.1975
28.53750229057244 36.0946
28.56047570826344 36.1032
28.583450298308804 36.0302
28.606605564586562 35.8701
28.629582511831156 36.0001
28.65256063474956 35.8466
28.675539934446338 35.8597
28.698699951647605 35.8307
28.72168161743193 35.6794
28.74466446331978 35.785
28.767648490417624 35.6146
28.790813276438353 35.5882
28.813799678527303 35.6395
28.836787265157085 35.5948
28.859955641890075 35.6689
28.882945610203045 35.7014
28.905936766392035 35.58
28.928929111566863 35.5634
28.952102288520145 35.5406
28.975097024308607 35.385999999999996
28.998092952423807 35.2346
29.021090073977508 35.0839
29.04426806913204 35.0967
29.067267590245258 34.8709
29.090268308143695 34.8365
29.11327022394099 34.8677
29.13645305530891 34.6065
29.159457379627167 34.6163
29.18246290519685 34.6459
29.20546963313352 34.6627
29.22865731875826 34.6034
29.25166646419296 34.5958
29.27467681535305 34.4769
29.29768837335608 34.4773
29.320880931312562 34.5661
29.34389491580634 34.5458
29.366910110507334 34.4794
29.38992651653503 34.4853
29.41312396492981 34.4846
29.436142806456754 34.424
29.45916286268059 34.3042
29.48236399319994 34.1728
29.50538649169417 34.0849
29.528410208259935 34.0261
29.55143514402014 33.7004
29.574641196749695 33.6768
29.597668583816574 33.6056
29.6206971934585 33.3325
29.64372702680042 33.4205
29.666938019934474 33.3139
29.689970313635285 33.1863
29.713003834422636 33.1836
29.73603858342347 33.1437
29.759254535188578 33.106
29.78229175361658 33.0268
29.80533020365064 33.1042
29.82836988641968 33.1537
29.85159081507472 33.019
29.874632976355343 32.9693
29.89767637376955 32.9545
29.920721008448314 32.857
29.9439469322847 32.8157
29.96699405457564 32.8376
29.9900424175358 32.8206
30.013092022298157 32.6948
30.03632295963995 32.6278
30.059375061131373 32.775999999999996
30.08242840783577 32.7942
30.105483000888153 32.7624
30.128718970092244 32.6135
30.151776069006917 32.6321
30.17483441768648 32.5959
30.198074175317235 32.5207
30.221135036724256 32.5856
30.24419715131772 32.4775
30.267260520236203 32.4149
30.290505341942243 32.5121
30.313571232750228 32.619
30.336638381310948 32.5554
30.35970678876503 32.4587
30.38295669299435 32.3416
30.40602763151657 32.4161
30.429099832366074 32.3532
30.452173296685572 32.2103
30.47542830191959 32.2954
30.498504306502497 32.2669
30.521581577995562 32.3371
30.544660117543582 32.416
30.56792024229725 32.4199
30.59100133132069 32.3108
30.614083691845494 32.2928
30.637167325018545 32.4808
30.660432587840603 32.4716
30.683518779717886 32.4374
30.70660624769615 32.5322
30.729694992924372 32.4851
30.75296541239743 32.383
30.77605672557558 32.2627
30.799149319462742 32.3701
30.8224236211637 32.132
30.845518789950724 32.0761
30.868615242910597 32.0452
30.891712981195973 31.8708
30.91499247215866 31.7487
30.938092794619365 31.8574
30.96119440587579 31.7487
30.984297307082752 31.7087
31.00758200598383 31.5337
31.030687500658694 31.4347
31.053794288760695 31.3216
31.076902371446767 31.3055
31.100192296997445 31.2072
31.12330298246119 31.281
31.14641496599209 31.1418
31.169528248749216 31.1892
31.19282341969534 31.1973
31.215939314557186 31.2056
31.239056512134788 31.2079
31.262175013589378 31.1049
31.28547544871168 31.1848
31.30859657161541 31.0429
31.331719001892175 31.0181
31.35484274070538 31.1593
31.378148458819545 31.1266
31.401274828443725 31.1055
31.424402510106933 31.1715
31.447712205419993 31.1557
31.470842524931633 31.0394
31.493974159989783 31.0624
31.51710711176168 31.0304
31.54042212308802 31.0454
31.563557722100917 31.0041
31.586694641341655 30.7964
31.609832881979628 30.6527
31.63315322823208 30.6044
31.656294125521327 30.5566
31.679436347728515 30.5423
31.70257989602529 30.4688
31.725905596152327 30.3696
31.74905181052835 30.3416
31.772199354521323 30.4757
31.79534822930507 30.4268
31.818679302290967 30.4083
31.84183085259981 30.3144
31.864983737233473 30.3037
31.88813795736804 30.3663
31.911474422233013 30.2738
31.934631327356435 30.299
31.9577895715215 30.3569
31.980949155906522 30.2618
32.004291031706956 30.2552
32.027453310562606 30.1369
32.05061693318573 29.9264
32.07396288236386 29.9885
32.09712920658542 29.9391
32.12029687812702 29.9031
32.14346589817093 29.788
32.166817291729984 29.776
32.18998902288583 29.644000000000002
32.21316210610336 29.5765
32.23633654256711 29.4139
32.259693399663725 29.5128
32.282870556771144 29.4081
32.30604907069099 29.3419
32.329228942610065 29.2326
32.35259128243769 29.0687
32.375773884550505 29.1877
32.398957848235646 29.1633
32.422143174682176 29.1315
32.445511016471215 28.9833
32.468699082679954 28.9235
32.49188851523011 28.9714
32.51507931531304 28.8244
32.538452678331 28.7663
32.56164622776311 28.7515
32.58484114831493 28.7719
32.60803744118015 28.6957
32.631416344731896 28.6449
32.654615396551876 28.5962
32.67781582427913 28.6495
32.701198898634416 28.4951
32.72440209253756 28.3798
32.747606665947124 28.4406
32.77081262006088 28.2996
32.79420126883317 28.3403
32.81740999876112 28.3646
32.840620112999424 28.2277
32.86383161274818 28.1334
32.88722585534586 28.195999999999998
32.91044014056596 28.2488
32.933655814909734 28.2321
32.95687287957963 28.3036
32.98027273544904 28.0527
33.00349259526636 28.0584
33.026713849030116 28.0505
33.04993649794511 28.0322
33.073341986570746 28.037
33.09656744032826 28.0257
33.11979429286444 27.9384
33.14302254538647 28.0561
33.166433686291185 27.9503
33.18966475336992 27.9707
33.212897224069096 27.7115
33.23613109959831 27.748
33.259547912343415 27.7677
33.2827846121627 27.7846
33.306022720453775 27.7291
33.32926223842861 27.6263
33.352684742614166 27.6133
33.37592709463173 27.4916
33.399170859982064 27.454
33.422597648419426 27.4358
33.44584425514446 27.3224
33.46909227885668 27.325
33.4923417207723 27.2299
33.51577423505344 27.2575
33.539026528130385 27.0497
33.56228024307245 27.0594
33.585535381098246 26.9215
33.60897364093058 26.8562
33.63223163992385 26.930999999999997
33.6554910656699 26.8549
33.678751919389796 26.8323
33.702195944520106 26.7612
33.72545966903325 26.6695
33.74872482519663 26.625
33.771991414233746 26.7137
33.79544122444841 26.6669
33.81871069412428 26.5437
33.84198160035767 26.5352
33.86525394437455 26.4643
33.88870955949969 26.4903
33.911984794020626 26.4044
33.93526147001624 26.4499
33.958539588715006 26.3508
33.98200102861669 26.3353
34.0052820477047 26.2675
34.02856451319451 26.2156
34.05203033759056 26.1069
34.07531571090147 26.2307
34.09860253431845 26.1601
34.121890809074316 26.1219
34.145362493118924 26.0572
34.16865368561615 25.9116
34.191946333164054 25.8876
34.21524043699793 25.9022
34.23871800066799 25.8989
34.26201503218366 25.7588
34.28531352370466 25.8237
34.30861347646881 25.7267
34.33209693978188 25.7331
34.3553998301885 25.6745
34.378704185565205 25.6271
34.402010007152356 25.4689
34.42549939016683 25.5169
34.44880815937748 25.3757
34.472118398533134 25.3384
34.49543010887669 25.3815
34.51892543169198 25.283
34.54224009966052 25.3909
34.56555624255917 25.2905
34.58887386163339 25.1619
34.61237514439016 25.164
34.6356957311114 25.2291
34.65901779775809 25.0748
34.68252356662995 25.0526
34.705848608458616 25.0509
34.72917513396849 24.91
34.75250314440949 24.904
34.77601490857862 24.951999999999998
34.799345904259795 24.8965
34.82267838863559 24.8978
34.846012362958525 24.8096
34.869530142679984 24.7715
34.89286711232212 24.8033
34.91620557568269 24.839000000000002
34.93954553401677 24.7648
34.9630693495876 24.7095
34.986412313340814 24.6006
35.00975677584668 24.5634
35.033102738362956 24.4719
35.05663261012228 24.5599
35.0799815881786 24.5453
35.10333207003229 24.5121
35.12668405694369 24.5036
35.150220005273056 24.3747
35.17357501786656 24.3512
35.19693153931268 24.3632
35.220289570874385 24.2694
35.24383161619786 24.2923
35.267192683604904 24.2921
35.290555264930376 24.2716
35.314101899412165 24.3022
35.33746752422433 24.2749
35.36083466676374 24.2495
35.38420332829803 24.153000000000002
35.407756095629054 24.2389
35.43112781085063 24.1179
35.45450104888391 24.0239
35.477875810999194 24.1186
35.50143473172161 24.0058
35.52481255774625 23.9811
35.54819191167777 23.9814
35.57157279478914 23.9605
35.595137889488406 23.9073
35.61852184675279 23.8837
35.641907337029984 23.7618
35.665294361595684 23.7747
35.68886565090076 23.6909
35.7122557598848 23.6495
35.73564740699838 23.6687
35.759040593519934 23.4711
35.78261809810353 23.4957
35.80601437933051 23.4143
35.829412203814705 23.3861
35.85281157283719 23.3983
35.876395313415884 23.4458
35.8997977874528 23.3407
35.92320180988546 23.3461
35.946790244133936 23.2784
35.97019737933222 23.2779
35.993606066789866 23.2705
36.01701630779276 23.2511
36.04061101440684 23.2054
36.06402437852291 23.2967
36.08743930005611 23.1674
36.1108557802951 23.0738
36.13445678011326 23.0614
36.15787639383515 22.973000000000003
36.18129757014299 22.9023
36.20472031032821 22.8709
36.22832762423364 22.8611
36.25175350829375 22.8548
36.275180960119776 22.8021
36.298609981005924 22.8793
36.32222362992669 22.7945
36.34565580510207 22.7116
36.36908955323448 22.7923
36.39252487562093 22.5826
36.416144880530226 22.5781
36.43958336764275 22.5857
36.463023432914625 22.5327
36.486465077645676 22.506
36.51009145956204 22.5684
36.53353627947859 22.5118
36.55698268276811 22.432
36.58043067073321 22.3862
36.60406345072071 22.2778
36.62751462435344 22.3523
36.65096738658405 22.3234
36.67460498210655 22.2695
36.69806093788647 22.302
36.72151848619297 22.2272
36.744977628333636 22.1805
36.76862165890998 22.1417
36.79208400512205 22.1125
36.81554794910557 22.1276
36.83901349217101 22.0489
36.862663978991606 21.9148
36.88613273667352 21.9009
36.90960309738324 21.9176
36.933075062434064 21.8861
36.95673202673572 21.8218
36.98020721697122 21.8136
37.003684015502365 21.7837
37.027162423645365 21.7436
37.050825886711465 21.6722
37.07430753063053 21.6163
37.09779078812467 21.6342
37.121275660513014 21.6295
37.144945643673694 21.5571
37.16843376245278 21.499000000000002
37.19192350009803 21.5245
37.215414857931435 21.4801
37.239091382563885 21.3405
37.262585997426164 21.3195
37.28608223645736 21.3587
37.309763684451696 21.3068
37.33326318851098 21.2626
37.356764320726555 21.2311
37.380267082425526 21.2755
37.40395510942588 21.2144
37.42746114683234 21.1561
37.45096881771841 21.1507
37.474478123414166 21.0823
37.49817275092816 21.0647
37.52168534303452 21.0376
37.54519957395567 21.0039
37.568715445024665 21.0152
37.592416694607714 20.916999999999998
37.61593586281424 20.9529
37.63945667518264 20.9628
37.66297913304891 20.8697
37.68668702630454 20.8025
37.710212792059274 20.7424
37.733740207334854 20.7433
37.757269273470364 20.6788
37.780983832050374 20.6228
37.80451621684926 20.5843
37.82805025654007 20.6135
37.851585952464795 20.6243
37.8753071980695 20.5235
37.89884622345676 20.5398
37.92238690911902 20.5693
37.94611318753442 20.4487
37.969657210779765 20.3723
37.99320289834801 20.4088
38.016750251586465 20.3381
38.04048325513017 20.2798
38.06403395679343 20.2666
38.087586328183946 20.2148
38.11114037065203 20.1866
38.13488012115898 20.1701
38.1584375229181 20.0995
38.181996599821 20.0567
38.205557353221124 20.1
38.229303872575656 20.0104
38.2528679961576 20.029
38.27643380031219 19.9649
38.30000128639589 19.9392
38.32375459653193 19.9379
38.34732546371299 19.9308
38.37089801690786 19.8877
38.39447225747609 19.8253
38.418232380377425 19.828
38.441810012983396 19.79
38.46538933705673 19.7652
38.488970353960084 19.7264
38.51273731166058 19.6874
38.536321731567014 19.6294
38.55990784840681 19.5948
38.58367995004091 19.5535
38.60726947812959 19.5489
38.63086070726198 19.4947
38.654453638806274 19.5472
38.678232613930824 19.4787
38.70182896773327 19.3578
38.72542702806741 19.2793
38.7490267963045 19.3769
38.77281266709232 19.3379
38.79641586862214 19.2883
38.8200207821842 19.2259
38.843627409152944 19.2806
38.86742019782782 19.2787
38.891030269149255 19.1531
38.914642058016156 19.1566
38.938255565806124 19.1167
38.96205529464307 19.0402
38.98567225787121 19.0754
39.00929094417078 19.057000000000002
39.03291135492255 19.0017
39.05671804624804 18.9756
39.080341923549106 18.8458
39.103967529460334 18.882
39.127594865365744 18.8624
39.15140854155791 18.8327
39.17503935514948 18.8107
39.19867190290282 18.8379
39.22249083587951 18.7391
39.24612686969409 18.7096
39.269764641845306 18.6655
39.293404153722804 18.6482
39.317230110864074 18.5808
39.34087311998506 18.5382
39.36451787301696 18.5905
39.388164371352595 18.5253
39.41199737518003 18.4733
39.43564738196752 18.4821
39.45929913825317 18.4429
39.48295264543308 18.4389
39.506792718520884 18.3969
39.530449745387216 18.3544
39.55410852735203 18.3261
39.57776906581474 18.3352
39.60161623079 18.2502
39.625280300200025 18.2469
39.64894613032202 18.1881
39.67261372255866 18.2113
39.6964680021016 18.1432
39.72013913657293 18.18
39.74381203738292 18.1161
39.76748670593756 18.0799
39.79134812278169 18.0585
39.81502634488497 18.007
39.83870633896685 18.0131
39.862388106436654 17.9909
39.88625668336918 17.9066
39.90994201572829 17.9071
39.933629125719285 17.863
39.957503091207826 17.8793
39.9811937746168 17.9629
40.00488623990914 17.797
40.02858048850006 17.706
40.05246165409549 17.7109
40.076159487492085 17.6894
40.099859108448875 17.6787
40.123560518384345 17.6762
40.1474489070226 17.607
40.171153913178564 17.5513
40.194860712584955 17.5602
40.2185693066637 17.5104
40.242464941335314 17.5312
40.26617714307655 17.4854
40.289891143772046 17.5131
40.3136069448471 17.4783
40.33750984859743 17.4414
40.3612292688043 17.3527
40.3849504936829 17.2924
40.40867352466194 17.3288
40.43258372059144 17.3046
40.45631038219906 17.262999999999998
40.48003885420956 17.2229
40.503769138055105 17.1967
40.52768664931955 17.2207
40.55142057531802 17.1281
40.57515631746428 17.1108
40.599079334038514 17.0649
40.62281872700477 17.017
40.64655994043941 17.0352
40.67030297578061 17.0292
40.69423334835778 17.0616
40.71798004609188 16.9821
40.74172857006355 16.979
40.76547892171441 16.9515
40.7894166736039 16.9427
40.813170699248566 16.8206
40.83692655691388 16.7745
40.86068424804498 16.8818
40.884629402612525 16.808
40.908390779366385 16.8141
40.932153993938 16.7734
40.95591904777605 16.7167
40.979871628443995 16.6719
41.003640379561936 16.6812
41.02741097430883 16.6201
41.05118341413683 16.5878
41.075143444384416 16.5924
41.098919593177826 16.5662
41.1226975914255 16.5472
41.14647744058318 16.4804
41.170444943946755 16.4364
41.19422851378379 16.494
41.218013938914645 16.4385
41.24198706625173 16.3684
41.26577622087193 16.2936
41.289567235177785 16.3187
41.31336011063129 16.218
41.337340752422875 16.2479
41.361137369129835 16.2144
41.38493585138705 16.1768
41.40873620066004 16.1647
41.43272438060107 16.131
41.45652848292052 16.0998
41.48033445666918 16.0139
41.50414230331616 16.0378
41.528138045159764 16.0675
41.551949656675205 16.037
41.575763145513235 16.0076
41.59957851314666 15.9489
41.62358184070442 15.9487
41.64740098505737 15.9434
41.6712220126409 15.8806
41.69504492493139 15.8522
41.71905586207357 15.8378
41.74288256296395 15.767999999999999
41.766711153007456 15.8098
41.79054163368412 15.7386
41.814560204340054 15.7749
41.838394485526365 15.6883
41.86223066180303 15.675999999999998
41.88625497706819 15.6349
41.910094962812 15.6291
41.93393684811168 15.6223
41.95778063445365 15.5072
41.981812625263366 15.5142
42.00566023303407 15.4825
42.029509746323676 15.4343
42.05336116662236 15.4509
42.077400857069705 15.4931
42.10125611078846 15.4108
42.12511327600405 15.3829
42.14897235421036 15.3314
42.173019768448455 15.3241
42.19688269209613 15.2894
42.22074753323349 15.2824
42.24461429335818 15.2237
42.268669455600495 15.2195
42.292540073217886 15.1676
42.31641261433284 15.2095
42.34028708044675 15.1557
42.36435001496739 15.1178
42.38822835065557 15.185
42.41210861586426 15.0571
42.4359908120986 15.0666
42.46006154323262 15.0216
42.48394762115317 14.9642
42.507835634632315 15.0232
42.531912233047436 15.0131
42.55580413732265 14.9425
42.579697981698 14.8359
42.60359376768525 14.9228
42.62767820545945 14.8313
42.65157789440821 14.8225
42.67547952952185 14.7968
42.699383112316 14.7985
42.72347541395347 14.7581
42.74738291190531 14.7638
42.771292362102166 14.7556
42.795203766063516 14.6662
42.819303956130405 14.5886
42.843219287476536 14.5929
42.86713657716324 14.5454
42.89105582671383 14.6059
42.91516392983864 14.5713
42.939087119032166 14.5398
42.963012272677304 14.5106
42.98693939230129 14.514000000000001
43.01105543317513 14.4616
43.034986504731386 14.4327
43.05891954686589 14.3719
43.08285456110972 14.3786
43.10697856448665 14.3214
43.130917542983475 14.2447
43.15485849820081 14.3469
43.17880143167367 14.3016
43.20293342237094 14.2297
43.226880332449 14.2037
43.25082922540554 14.2482
43.27496722682525 14.2445
43.29892010567796 14.1536
43.32287497204102 14.1445
43.34683182745632 14.079
43.370977859791836 14.078
43.39493871351105 14.0643
43.41890156092628 14.0398
43.44286640358341 13.9732
43.46702049182749 13.9883
43.49098934522816 13.9517
43.51496019852649 13.8973
43.5389330532723 13.8942
43.56309522248204 13.8437
43.58707210044314 13.8385
43.61105098451946 13.8325
43.63503187626491 13.787
43.659202151562134 13.763
43.68318707902681 13.7802
43.70717401884041 13.8154
43.731162972560874 13.7277
43.75534137913236 13.6876
43.779334381108384 13.6796
43.803329401683186 13.6698
43.82732644241872 13.6826
43.8515130055166 13.6128
43.87551410707659 13.591
43.89951723350145 13.592
43.923709934595614 13.5357
43.94771713129917 13.4904
43.97172635758096 13.5278
43.99573761501002 13.4702
44.0199385169922 13.4376
44.04395385732619 13.3987
44.067971233533086 13.4017
44.09199064718605 13.4277
44.11619977548961 13.3513
44.14022328470671 13.3047
44.16424883610785 13.3265
44.18827643127035 13.3
44.21249381139513 13.2313
44.236525514814076 13.2214
44.26055926674478 13.2377
44.28459506876863 13.1872
44.3088207262813 13.1668
44.33286064928722 13.1551
44.35690262714919 13.1003
44.38094666145278 13.0653
44.4051806219871 13.0574
44.42922879003185 13.0551
44.45327901929361 13.0325
44.477331311362136 13.0115
44.501573600619416 12.9754
44.525630039221795 12.9455
44.54968854541895 12.9536
44.573937102200176 12.9018
44.5979997645541 12.8838
44.622064499300315 12.8826
44.64613130803592 12.8534
44.67038823869318 12.882
44.69445921643748 12.8007
44.718532272981385 12.7637
44.742607409926194 12.73
44.76687274034801 12.7083
44.79095205918753 12.6919
44.81503346325094 12.6933
44.839116954143876 12.6796
44.86339071028742 12.6388
44.88747839599524 12.6027
44.91156817336837 12.5551
44.93566004401666 12.5676
44.959942251908146 12.5676
44.984038330325966 12.542
45.00813650686762 12.5093
45.03223678314731 12.4642
45.05652746888232 12.4578
45.08063196592069 12.4369
45.104738567558705 12.386
45.128847275414856 12.3941
45.15314646515866 12.3613
45.17725940679741 12.3782
45.20137445952892 12.3174
45.22568004865265 12.3371
45.24979934496396 12.3017
45.27392075725247 12.2268
45.29804428714431 12.2232
45.322358426247604 12.2394
45.346486212804315 12.2343
45.370616121861914 12.2324
45.39474815505086 12.1419
45.41907087049246 12.1504
45.4432071734666 12.1098
45.46734560548283 12.1188
45.49148616817604 12.0946
45.51581748638564 12.0565
45.5399623320197 11.9879
45.56410931325473 11.9883
45.58825843173002 12.0158
45.61259837920865 11.970999999999998
45.636751793816 11.9357
45.66090735060093 11.92
45.68506505120716 11.9214
45.7094136545275 11.9157
45.73357566449271 11.838
45.75773982322992 11.8496
45.78190613238733 11.8495
45.806263418194064 11.7867
45.83043404997326 11.7822
45.85460683713677 11.7311
45.87897065658495 11.7464
45.90314777634752 11.7031
45.92732705646868 11.6783
45.9515084986045 11.6007
45.97588104735473 11.6491
46.00006683541565 11.6517
46.02425479047904 11.6103
46.04844491420549 11.6307
46.0728262191024 11.6082
46.09702070211635 11.5249
46.12121735879483 11.5448
46.14541619080294 11.514000000000001
46.169806278764455 11.4987
46.194009483459034 11.515
46.21821486849841 11.4551
46.24242243555223 11.3978
46.266821333570014 11.4053
46.29103328674601 11.3713
46.31524742696538 11.3609
46.33946375590237 11.3477
46.36387149104216 11.3416
46.38809221957392 11.2724
46.41231514186606 11.2779
46.436540259597464 11.2577
46.460956858999374 11.2056
46.48518638983522 11.1998
46.509418121166966 11.2101
46.533652054678114 11.1786
46.55807754555709 11.1367
46.58231590571962 11.0909
46.60655647313217 11.093
46.630988654873654 11.0632
46.655233659129024 11.0698
46.67948087571551 11.0365
46.70373030632484 10.9851
46.72817142736393 11.0267
46.752425308428684 10.9546
46.77668140861147 11.0156
46.80093972960865 10.9486
46.82538981736788 10.8964
46.849652602470904 10.9312
46.87391761349769 10.9117
46.8981848521493 10.8632
46.9226439341274 10.8277
46.946915650573224 10.8032
46.97118959976749 10.7762
46.99546578341598 10.7774
47.019933887188216 10.769
47.04421456235744 10.741
47.06849747711879 10.7405
47.09278263318286 10.7223
47.11725978640143 10.6698
47.14154944775105 10.6421
47.165841355555656 10.6557
47.1901355115306 10.5757
47.214621741924994 10.5901
47.23892041698887 10.5964
47.26322134538975 10.5584
47.28771440635075 10.5603
47.31201986422527 10.5362
47.33632758061436 10.5256
47.360637557241866 10.4614
47.38513974410611 10.4627
47.40945426407847 10.4349
47.43377104948137 10.4185
47.45809010204344 10.3916
47.48260144275502 10.3607
47.506925052572285 10.3688
47.53125093475548 10.3504
47.55557909103813 10.3262
47.58009961361992 10.3001
47.60443234110732 10.2848
47.62876734791564 10.2703
47.65310463578333 10.2797
47.6776343683373 10.2451
47.7019762413987 10.2315
47.72632040075572 10.2198
47.75066684815169 10.1691
47.77520581885936 10.147
47.799556865477655 10.1581
47.823910205386 10.1372
47.84826584033272 10.1062
47.87281407745551 10.0713
47.89717432569297 10.0842
47.92153687423484 10.0708
47.94609208429692 10.0326
47.97045925671401 10.0301
47.99482873471275 10.0275
48.01920052005013 10.0121
48.04376504619224 9.9631
48.068141469543484 9.967410000000001
48.09252020552573 9.95772
48.11690125590099 9.89989
48.1414751266064 9.881860000000001
48.16586082917454 9.89776
48.19024885144316 9.85774
48.2146391951793 9.86406
48.239222439012764 9.839
48.26361744916137 9.78888
48.28801478610016 9.80787
48.31241445160131 9.82146
48.337007097209366 9.770480000000001
48.36141144338331 9.73988
48.38581812345755 9.75967
48.41022713920929 9.71524
48.434829215320704 9.6729
48.45924292604658 9.66333
48.48365897780325 9.65939
48.50807737237308 9.64441
48.532688907799276 9.605780000000001
48.55711201168574 9.59653
48.581537463754074 9.55524
48.60615611725119 9.59004
48.63058628942721 9.57136
48.65501881516546 9.5496
48.6794536962573 9.525319999999999
48.70408185970339 9.526060000000001
48.72852147531801 9.47738
48.75296345168211 9.41807
48.77740779059232 9.45278
48.80204549302823 9.447519999999999
48.82649458091802 9.398
48.85094603676547 9.37097
48.87539986237231 9.37341
48.90004713292306 9.37524
48.92450572200832 9.33013
48.94896668628025 9.32783
48.97343002754588 9.2867
48.99808689542115 9.28231
49.02255501470614 9.28812
49.04702551642794 9.23125
49.0714984023988 9.21458
49.096164896893235 9.20035
49.120642575466796 9.18489
49.145122643748394 9.16324
49.16960510355558 9.15974
49.19428125404938 9.135010000000001
49.2187685210852 9.11125
49.243258185121555 9.10704
49.26794160167084 9.08659
49.2924360839405 9.05335
49.31693296869764 9.06348
49.34143225776915 9.0383
49.36612538195438 9.01142
49.39062950396021 9.01013
49.41513603578346 8.96785
49.4396449792564 8.95763
49.46434784069503 8.9532
49.488861631846454 8.95266
49.513377840166804 8.890789999999999
49.537896467493745 8.84795
49.56260909589029 8.848289999999999
49.587132585683285 8.89589
49.611658500018365 8.85205
49.636186840738596 8.81948
49.66090926588511 8.819939999999999
49.685442483902584 8.79031
49.70997813385706 8.77262
49.734516217597076 8.774519999999999
49.75924846937352 8.74194
49.7837914452858 8.74566
49.80833686055187 8.696489999999999
49.83288471702571 8.68105
49.85762682540054 8.683860000000001
49.882179588965734 8.6848
49.9067347993235 8.65047
49.93129245833333 8.628789999999999
49.95604445336378 8.5936
49.98060703442832 8.58351
50.005172069746266 8.56547
50.02993150438364 8.56435
50.05450147301533 8.53608
50.07907390151433 8.518239999999999
50.10364879174981 8.54562
50.12841816587289 8.47937
50.1529980044635 8.45317
50.17758031042124 8.45023
50.20216508562089 8.46942
50.22694442953363 8.44083
50.25153416817468 8.410739999999999
50.27612638170508 8.4046
50.300721072005196 8.3878
50.325510416102105 8.359810000000001
50.350110084975064 8.32854
50.37471223628208 8.33888
50.39931687190919 8.29016
50.424116246675766 8.29341
50.44872587605249 8.28851
50.47333799543065 8.27921
50.49795260670191 8.24361
50.52276204271512 8.24518
50.54738166295838 8.257060000000001
50.57200378079314 8.20302
50.596628398116835 8.19952
50.62144792604559 8.17373
50.646077567609396 8.16249
50.670709714377715 8.13534
50.69553683636198 8.12951
50.72017401885922 8.1275
50.7448137122895 8.12862
50.76945591856022 8.034889999999999
50.79429318636823 8.037980000000001
50.818940443716784 8.06454
50.84359021965163 8.061819999999999
50.868242516085964 8.000869999999999
50.893089960641895 8.02462
50.917747323549435 8.03426
50.94240721271973 7.96409
50.96706963007175 7.92955
50.99192728239342 7.91617
51.01659478166073 7.93382
51.04126481489051 7.895569999999999
51.06593738400761 7.8959600000000005
51.090805275207074 7.867380000000001
51.11548294172845 7.86788
51.14016314993547 7.8562899999999996
51.164845901758845 7.82538
51.18972406304274 7.82353
51.21441192780656 7.79292
51.23910234200271 7.777260000000001
51.2637953075678 7.781280000000001
51.288683770237945 7.748460000000001
51.31338186432707 7.705019999999999
51.33808251561888 7.69225
51.362978729967345 7.699
51.387684521509755 7.678939999999999
51.41239287610203 7.68317
51.437103795691165 7.668010000000001
51.46201036644977 7.641139999999999
51.486726441956634 7.62971
51.51144508832545 7.626410000000001
51.536166307509156 7.6211199999999995
51.56108326624387 7.578930000000001
51.58580965706056 7.57436
51.61053862657523 7.54731
51.635270176746864 7.52786
51.66019755512065 7.50754
51.68493429268881 7.5219
51.70967361681515 7.48762
51.73441552946465 7.4479999999999995
51.759353359237934 7.46289
51.7841004750961 7.4576
51.80885018539685 7.4150100000000005
51.833602492111254 7.4172199999999995
51.8585508051424 7.4278699999999995
51.883308330926425 7.38391
51.90806845906181 7.36035
51.932831191525715 7.33835
51.95779001977161 7.340439999999999
51.98255798721516 7.31032
52.00732856494335 7.27942
52.03229530577543 7.300660000000001
52.057071130455945 7.268489999999999
52.081849571391054 7.25758
52.106630630568695 7.2126399999999995
52.13160794279417 7.20523
52.15639426492067 7.25174
52.18118321127822 7.202660000000001
52.205974783860896 7.17713
52.23096269971011 7.13214
52.255759551287994 7.16375
52.280559035098186 7.13322
52.30536115314103 7.104439999999999
52.33035970494467 7.13208
52.35516711807904 7.12513
52.37997717147198 7.079560000000001
52.40478986713005 7.0900300000000005
52.42979908731974 7.06165
52.454617094216 7.01538
52.47943774942214 7.0232
52.50426105495102 6.99622
52.529280976059844 6.98088
52.554109609024096 6.9783800000000005
52.57894089837482 6.99202
52.60377484613117 6.97463
52.62880550079408 6.956589999999999
52.65364479223379 6.91605
52.67848674816189 6.908860000000001
52.70352547971946 6.9115899999999995
52.72837279155837 6.85416
52.753222773982785 6.85695
52.778075429022984 6.83863
52.80312495150885 6.817830000000001
52.827982978797436 6.82423
52.85284368481815 6.802460000000001
52.87770707160767 6.7614600000000005
52.90276741793998 6.74631
52.92763619336701 6.78781
52.952507655698504 6.75184
52.977381806977576 6.694380000000001
53.00245301017842 6.69072
53.02733256653592 6.70962
53.052214817996074 6.699319999999999
53.077099766608484 6.674289999999999
53.102181859804446 6.66815
53.127072229988265 6.68278
53.15196530349892 6.656689999999999
53.17686108239249 6.628419999999999
53.20195409881522 6.621460000000001
53.22685531582556 6.61327
53.25175924441303 6.582339999999999
53.27666588664027 6.59617
53.30176985962693 6.583480000000001
53.3266819565689 6.52402
53.35159677336455 6.54561
53.376514312083096 6.500319999999999
53.40162927507703 6.526619999999999
53.42655228516116 6.51775
53.45147802340193 6.44795
53.47660125628886 6.49864
53.50153247842639 6.42772
53.52646643496923 6.4227
53.55140312799818 6.45059
53.576537409691696 6.40191
53.60147960336152 6.376869999999999
53.626424539786164 6.34986
53.65137222105307 6.357819999999999
53.67651758529126 6.39237
53.70147078399681 6.35393
53.72642673383343 6.31661
53.75138543689533 6.32615
53.776541917524526 6.2725800000000005
53.801506154876755 6.24576
53.826473151763246 6.24241
53.851442910284916 6.20006
53.87661054126026 6.221769999999999
53.9015858509782 6.21318
53.92656392866066 6.20407
53.95154477641532 6.19088
53.976723591801296 6.1615
54.00171000771266 6.17382
54.02669920004598 6.19151
54.051691170915745 6.1545
54.076881204886796 6.11686
54.101878760928514 6.08745
54.12687910187696 6.09168
54.152077577768296 6.06337
54.1770835166946 6.03571
54.20209224691339 6.05735
54.22710377055121 6.04057
54.25231352511594 6.0267800000000005
54.27733066384342 5.971769999999999
54.30235060239643 6.01357
54.32737334290836 6.001469999999999
54.35259441062629 5.94942
54.377622783395324 5.94198
54.40265396455061 5.93049
54.42768795623251 5.88742
54.45292037169559 5.86325
54.477960012857906 5.8569
54.50300247099511 5.8404300000000005
54.52804774825457 5.84507
54.55329154616743 5.8275
54.57834249018678 5.81404
54.6033962597977 5.76441
54.6284528571545 5.79255
54.653708072335164 5.73051
54.67877035378786 5.67148
54.70383546947698 5.69952
54.72890342156389 5.69801
54.7541700889442 5.64428
54.77924374251975 5.65511
54.8043202390049 5.59696
54.82959552413022 5.56051
54.8546777351945 5.5700400000000005
54.87976279569621 5.52152
54.90485070780914 5.53383
54.930137506558005 5.52569
54.95523115074295 5.48473
54.98032765308844 5.4545
55.005427015775496 5.45991
55.03072536339621 5.44669
55.05583047570572 5.44226
55.080938454927676 5.384469999999999
55.10604930325027 5.3798900000000005
55.131359235107396 5.38149
55.15647585066083 5.33487
55.181595341907496 5.274380000000001
55.20671771104285 5.3112900000000005
55.232039262617704 5.31945
55.25716741665048 5.2369900000000005
55.28229845518636 5.2472900000000005
55.30743238042802 5.2131300000000005
55.33276558731939 5.18524
55.357905315183636 5.17246
55.383047936390035 5.09885
55.40819345314859 5.07982
55.433538351073295 5.12329
55.458689688238415 5.0968800000000005
55.483843927614096 5.03306
55.509197623043605 4.97593
55.53435769621134 5.02649
55.55952067826466 4.955419999999999
55.5846865714265 4.92581
55.61005202069737 4.92851
55.63522376553902 4.92615
55.66039842818645 4.9007
55.68557601087004 4.89511
55.7109532500271 4.80349
55.73613670233794 4.84617
