TT I
1.2716486653135266 7.086060000000001
1.2939594142134223 6.72052
1.3162702121660406 6.520919999999999
1.3385810600174564 6.978789999999999
1.3608919586137629 7.16379
1.383202908801069 6.40477
1.405513911425503 5.47717
1.4278249673332093 6.57465
1.4501343378461518 6.810639999999999
1.4724455028545926 5.93573
1.4947567236847858 6.26769
1.517068001182951 6.24643
1.5393793361953272 6.03521
1.5616907295681737 5.66147
1.5840021821477681 5.68046
1.60631369478041 4.89686
1.6286252683124185 4.80089
1.6509369035901333 5.41101
1.6732468618895553 5.364240000000001
1.695558623192809 4.75422
1.7178704487808514 5.33095
1.7401823395001077 4.70234
1.7625012545597203 4.9576199999999995
1.7848028405262486 4.5791
1.8071218901122095 5.12974
1.8294236121921872 5.45463
1.8517427996910911 5.274290000000001
1.8740620574440425 4.87248
1.8963639900671978 4.91714
1.9186833908139995 4.96077
1.9409854680117449 5.31011
1.9633050151394713 5.1528
1.9856246367570705 5.169169999999999
2.0079269371922672 5.13048
2.03024671027244 4.49875
2.0525491637446027 4.70614
2.074869091674931 4.9225699999999994
2.097171701569106 4.62591
2.1194917877373847 5.08436
2.141811954326636 4.98377
2.164114805233074 5.02056
2.186435135143035 6.34645
2.208738150935709 17.2472
2.231058647554722 38.5136
2.2533792288321184 30.2821
2.275682498336085 13.1947
2.298003251406138 6.66402
2.3203066942619714 5.5379
2.3426276225136022 5.4012
2.3649486396617507 5.34933
2.387252348930071 5.4695599999999995
2.4095735463442893 6.02041
2.4318774374315884 5.91334
2.4541988185014043 6.44637
2.476502894794693 6.67413
2.498824462909887 6.79281
2.521146125856138 7.409330000000001
2.5434504863470337 7.65245
2.5657723414244717 7.987080000000001
2.588076895590662 8.406139999999999
2.610398946189713 7.473210000000001
2.6327210958598384 7.036110000000001
2.6550259469304716 7.33109
2.6773482972090137 7.8079600000000005
2.6996533504259 8.27197
2.7219759047039602 8.67189
2.744298562293959 8.50282
2.7666039251246595 8.12313
2.7889267918020164 8.22435
2.8112323652516555 8.15008
2.833555444408179 8.6144
2.8558786311183852 8.19437
2.8781845268938557 8.34145
2.9005079311721484 9.06519
2.9228140460410397 8.789
2.9451376712799635 9.63183
2.967444008632326 9.92602
2.9897678582247247 9.96592
3.0120918213106695 10.3028
3.0343984987899373 10.8051
3.0567226913198637 11.0745
3.079029599759726 11.8409
3.101354025127254 12.3726
3.123678568232338 13.1043
3.145985829517914 12.7826
3.16831061055229 13.2206
3.1906181112775593 13.8058
3.212943133635653 14.5917
3.2352682779763207 14.9678
3.2575761442691227 15.4898
3.2799015350264273 15.9949
3.302209649240067 16.3214
3.3245352898092655 17.0664
3.3468436553365257 17.5573
3.369169549113219 17.723
3.3914955708171384 18.7153
3.413804319727358 19.1162
3.4361305997334863 19.0682
3.4584396084414553 19.7138
3.4807661501462652 20.5667
3.503092824025881 21.0167
3.5254022288463154 21.4687
3.5477291695206588 22.2195
3.5700388426251948 23.1393
3.5923660534916446 24.6068
3.6146934007816114 44.7236
3.637003482731501 117.198
3.6593311053109985 134.196
3.681641464033634 73.2006
3.7039693653009733 33.7362
3.726297407241705 26.6064
3.7486081875460804 26.3861
3.7709365132734978 26.6074
3.793247578841633 26.9985
3.8155761917550093 27.1685
3.8378875459837216 27.2376
3.8602164494827234 27.7261
3.882545499606844 28.1907
3.9048572932539183 28.9714
3.9271866390645718 29.8169
3.9494987298666713 30.0747
3.971828374764527 30.6686
3.9941581705403255 31.4281
4.016470713506008 32.1882
4.038800813471445 32.7752
4.061113662089144 33.0939
4.0834440696459176 33.983000000000004
4.105774632334751 34.6293
4.128087945865126 35.5879
4.150418821249301 36.4167
4.172732448931298 37.843
4.195063640413578 39.8741
4.2173775856475215 45.025
4.239709096631102 86.2593
4.262040768704612 325.202
4.284355196706267 453.711
4.306687193387355 289.357
4.329001947444346 101.295
4.35133427213731 51.089
4.373666762177566 45.911
4.395982011761091 45.4564
4.418314834921175 46.795
4.44063041906622 57.1722
4.4629635787515625 73.0121
4.4852969080429785 72.862
4.5076130004776225 56.9787
4.529946671403969 50.8464
4.552263106909177 50.2897
4.574597122877047 51.0893
4.596931312711224 52.3448
4.619248269273446 53.3982
4.6415828092605835 54.3423
4.663900117405352 55.4126
4.686235010953232 56.5935
4.708552674085913 57.9307
4.730887924602802 59.2447
4.753223354952695 60.7303
4.775541557023902 62.4048
4.797877349456786 64.1683
4.820195915032126 66.0876
4.842532072957498 66.9653
4.864868414979744 68.7221
4.88718753227192 70.96300000000001
4.909524244902505 72.6317
4.931843734218147 74.6341
4.954180820867835 76.8443
4.976518095879839 79.5532
4.998838149695359 82.6207
5.021175803844231 86.2066
5.043496238205739 89.1838
5.065834274903528 93.6146
5.088172504230693 98.3274
5.1104935158799565 104.155
5.132832132875765 130.622
5.155153533596801 187.74
5.1774925416746225 224.347
5.199814334878411 328.999
5.2221537374521505 902.428
5.244493338631803 2591.01
5.266815727034316 6992.52
5.289155727832427 12537.1
5.311478517248165 9314.19
5.333818921080011 3222.8
5.356159527788849 640.288
5.3784829252032536 196.78900000000002
5.400823940070432 147.165
5.423147747031976 130.84
5.445489173474152 120.01899999999999
5.467830807066149 114.29899999999999
5.490155234831516 109.39299999999999
5.512497285125229 106.35
5.534822130975162 104.52799999999999
5.557164601388673 102.47200000000001
5.579489868738879 99.4138
5.601832762690846 98.5538
5.6241758697774475 98.4284
5.646501775867269 97.0119
5.668845311622074 95.3625
5.691171647754637 93.9627
5.713515615597765 92.7338
5.735859800852677 92.0126
5.758186788542988 90.9846
5.780531411018185 90.9711
5.802858837297399 90.4954
5.825203900414495 90.7205
5.8475491852224 90.928
5.869877275883075 91.0565
5.892223006467101 92.1767
5.914551544266608 93.31
5.936897724049891 95.47
5.959244129804903 100.221
5.981573344815301 113.90899999999999
6.0039202049061 186.649
6.026249875609095 406.195
6.04859719346037 887.0419999999999
6.070927323278297 2002.04
6.093275102315365 4268.05
6.115623113320588 5329.45
6.137953938319995 3504.27
6.160302415650845 1127.43
6.182633708324452 266.074
6.2049826554078376 119.765
6.227331838745022 95.1019
6.249663839443684 87.1362
6.27201349767565 84.62200000000001
6.294345974611799 93.8685
6.316696111167083 112.59
6.339046488263839 105.78299999999999
6.361379686074702 84.8223
6.383730546639482 73.1403
6.406064229255215 69.5445
6.428415576718203 68.8079
6.450749747566656 67.7212
6.47310158535871 66.4769
6.495453669698332 65.7271
6.517788579421056 65.4433
6.540141159237969 64.2129
6.562476565766648 64.0149
6.5848296444934045 63.887
6.607182974060425 63.5165
6.6295191323281015 63.778
6.651872965955752 68.3437
6.6742096296068985 105.33
6.6965639707294615 174.26
6.71891856698715 177.363
6.741255995248479 113.38
6.763611104154477 73.0585
6.785949046381137 61.7513
6.808304671371482 59.3857
6.8306605557940046 58.7469
6.852999275508618 58.3625
6.875355681171544 58.0063
6.897694923437771 57.3836
6.92005185377892 57.6499
6.9423916220322655 57.352
6.964749080490181 56.6824
6.987106804399774 56.4917
7.009447368180821 56.5112
7.031805625367033 55.9096
7.054146723727803 56.1194
7.076505517631004 56.0226
7.098864581288365 55.6829
7.121206488070854 55.8579
7.143566093607822 55.5371
7.165908543567245 56.1601
7.188268694426048 56.1578
7.2106291193438095 56.7661
7.232972390625943 58.7326
7.255333366030969 75.5892
7.277677189091925 152.701
7.300038718428332 228.176
7.322400526130865 190.35
7.344745183422596 107.4
7.367107550224791 66.5573
7.389452767901992 57.9089
7.411815697249891 56.6172
7.434161478756298 55.4546
7.456524974096713 55.3686
7.478888753837185 55.0969
7.501235387657368 55.3503
7.523599738562711 55.5771
7.545946944825532 55.7274
7.568311870344528 55.9195
7.5906770845765665 56.1843
7.613025156078678 57.841
7.635390950099687 59.8749
7.657739602662809 58.7731
7.680105979923558 57.0405
7.702472650212829 56.5738
7.724822180948224 56.4927
7.747189439655568 56.2798
7.769539560075357 56.5841
7.791907410653562 57.0328
7.81425812420825 56.9137
7.836626570110925 57.1021
7.858995315087906 58.1419
7.881346924933401 58.1903
7.903716270417482 58.8558
7.926068482028405 58.9727
7.948438431475253 59.6694
7.9708086843180235 60.1815
7.993161805171116 60.6111
8.015532667162402 61.2439
8.037886398416653 62.261
8.060257873014221 62.3835
8.082629655331942 62.8174
8.104984308787587 64.328
8.127356708900503 68.4486
8.149711981398308 76.5637
8.172085002766314 79.6153
8.194458336181368 74.5195
8.216814543847752 70.221
8.23918850371002 69.54
8.26154533906492 70.387
8.283919928836452 71.9874
8.306277395339652 73.0285
8.328652618483376 74.0469
8.351028159736202 75.9908
8.373386579575245 77.9407
8.395762759396959 79.9267
8.418121819038275 85.8552
8.440498640894003 102.88799999999999
8.462875785192262 121.275
8.485235811156207 129.423
8.507613602688501 156.748
8.529974277114228 232.873
8.552352719347912 357.846
8.574731488360351 595.88
8.59709314210385 1075.53
8.619472567021075 1751.16
8.64183487789147 2165.24
8.664214962183097 1902.01
8.686577933647762 1045.45
8.708958680784317 414.92800000000005
8.731339760774953 178.13299999999998
8.753703729764451 114.781
8.77608547780821 100.404
8.798450116065078 96.3707
8.820832535634787 92.978
8.843215292401656 91.5165
8.865580941199045 89.6431
8.887964374703538 88.79799999999999
8.910330701447199 90.3379
8.932714815164482 94.3207
8.955099270424924 94.1157
8.977466620733543 89.7629
8.999851761421976 86.1407
9.022219798361645 84.2623
9.04460562795561 83.4161
9.066991803441677 83.1859
9.089360876979615 82.4478
9.111747746589993 82.0941
9.13411751544971 81.7032
9.156505082664324 81.6191
9.178875550323522 82.3745
9.20126381862328 82.7656
9.223652438908596 83.7078
9.246023961427412 83.2826
9.26841328802173 82.2076
9.290785518039224 82.2356
9.313175554425882 82.4927
9.335565947154315 82.4905
9.357939245086508 82.6187
9.380330352834827 82.5569
9.40270436697103 82.79899999999999
9.425096193225055 82.751
9.447488380180165 83.7133
9.469863475295412 84.0816
9.492256385987508 84.3078
9.514632206018318 84.7759
9.537025843935714 85.1484
9.559402392368193 85.869
9.581796761000229 87.1492
9.604191496441521 88.0992
9.626569144158516 92.3258
9.648964615551032 99.2752
9.671343000390081 101.791
9.693739211225699 98.49799999999999
9.716135793237463 94.1852
9.738515290448102 93.1308
9.760912617143402 93.9558
9.783292860202891 94.7452
9.805690935076182 95.9512
9.828089385495742 97.1592
9.850470754023561 100.06700000000001
9.872869957865444 109.564
9.89525208097539 130.714
9.917652041736662 148.613
9.940052382417589 145.298
9.962435644102392 141.94899999999998
9.984836746950979 166.22
10.007220771957746 223.465
10.029622640473708 315.974
10.052007432299963 475.26
10.074410069984072 739.403
10.096813093716005 1158.04
10.119199042482517 1688.27
10.141602840636468 1970.41
10.163989564971628 1707.82
10.186394141051062 991.312
10.208799107559706 452.425
10.231187001965623 209.928
10.253592751657669 132.614
10.275981430388155 115.814
10.298387966769793 115.531
10.320794897965431 120.146
10.343184759907361 119.75399999999999
10.36559248305461 112.133
10.387983138083852 105.316
10.410391656691655 106.027
10.432800574501677 114.65
10.455192425893369 129.416
10.47760214443012 152.69899999999998
10.499994797678786 190.268
10.522405320453982 262.247
10.54479877906917 365.685
10.567210109595656 485.251
10.5896218454736 571.457
10.612016518879773 525.461
10.634429067781074 371.374
10.656824555333241 217.575
10.679237920773568 133.07
10.701651695961992 98.8753
10.724048411481384 90.245
10.746463008485165 87.1563
10.768860546937125 85.3351
10.791275969274796 83.7142
10.81369180576079 82.5772
10.836090585366925 81.1342
10.858507252467449 80.0729
10.88090686379991 79.3924
10.903324365036394 78.7872
10.925724811614439 78.9454
10.948143150509463 81.2603
10.970561909719066 80.4435
10.992963615930844 78.2923
11.015383218085756 75.3651
11.037785768347074 73.8295
11.06020621697282 73.3333
11.082627090322113 72.8567
11.105030913430326 72.1067
11.12745263854165 73.3983
11.149857314510728 78.4123
11.172279894912576 87.4686
11.194702904450653 89.2763
11.217108866490921 83.7029
11.239532736615194 77.1751
11.26193956033512 73.8986
11.284364294577085 71.9066
11.306789462371718 69.3245
11.329197585398376 67.91199999999999
11.351623622610898 67.6013
11.37403261614354 66.4861
11.396459526308487 66.2125
11.418869393879497 66.2632
11.441297180532617 65.6255
11.463725406927658 65.4146
11.486136592353875 65.2661
11.508565700543707 66.1953
11.530977768845315 69.0309
11.553407762368774 70.6912
11.575838200059769 69.62100000000001
11.598251599479612 66.7717
11.620682927815501 64.8306
11.64309721895548 64.2046
11.665529441478206 63.4819
11.687962112597958 63.3954
11.710377748130886 63.2317
11.732811318753434 63.3273
11.755227854859067 63.1418
11.777662328529495 63.3304
11.800079768750786 62.9662
11.822515149015453 62.6251
11.844950984084935 62.8239
11.867369787303163 62.3414
11.889806534289491 62.5875
11.912226250487029 63.0078
11.934663912939751 62.8323
11.9571020346363 63.0428
11.979523127133968 63.0276
12.001962169624331 63.7483
12.024384183972964 64.2662
12.046824150809913 67.1674
12.069264581333726 71.9534
12.091687985297767 77.9232
12.11412934550045 86.6916
12.136553680195208 100.78200000000001
12.158995973632788 120.54299999999999
12.181438735204349 146.076
12.20386447284199 175.449
12.226308172985636 204.396
12.24873485024193 207.227
12.271179492516982 176.46
12.293607112949127 138.259
12.316052700916226 104.553
12.338498763250042 84.2245
12.360927805303868 73.3066
12.383374818673879 68.0751
12.405804812803074 65.3454
12.428252780773262 64.7534
12.45070122756722 64.6142
12.473132656675375 64.4753
12.49558206341869 64.7795
12.518014453510101 64.7609
12.540464823770117 64.634
12.562915677315177 65.1921
12.58534951575545 65.8825
12.607801338171472 68.7131
12.630236146511358 76.3042
12.652688941369085 83.8143
12.675124723177234 84.1424
12.697578494048786 78.4056
12.720032754458185 71.6208
12.742470003354093 68.8329
12.764925245138771 68.068
12.787363476431278 68.3988
12.809819703166806 68.574
12.83227642391173 69.1967
12.854716135692716 69.5717
12.877173846755147 70.9023
12.899614549869717 70.9056
12.9220732548287 71.719
12.94453245827299 72.2913
12.966974655289818 73.3081
12.989434858002571 73.9435
13.011878055298721 74.6455
13.034339260862497 75.7224
13.056800969391883 76.7236
13.079245674017244 78.7103
13.101708390774869 80.0848
13.12415410463411 86.2859
13.146617833206086 97.3044
13.169064559883248 108.805
13.191529303857127 122.738
13.213994557076367 143.014
13.236442809902437 174.854
13.258909083908291 223.722
13.28135835851934 285.121
13.30382565690295 354.63699999999994
13.326293469022952 423.50300000000004
13.348744283242008 440.064
13.371213125129904 384.45300000000003
13.39366497011003 286.644
13.416134845360597 189.851
13.438605238843131 130.955
13.46105863690397 107.52799999999999
13.483530069144786 104.17399999999999
13.505984506951902 108.537
13.528456981549432 117.016
13.550929978879088 130.308
13.573385983253365 151.442
13.595860028340867 185.233
13.618317081455832 232.713
13.64079217790333 285.988
13.663250283359057 338.14
13.685726434770173 374.194
13.708203115221277 351.67199999999997
13.730662806148091 282.084
13.75314054697177 197.852
13.775601299246777 136.189
13.798080104050406 100.35799999999999
13.820559442405358 86.2609
13.843021793671388 81.9091
13.865502201420897 80.6162
13.887965623051947 80.0205
13.910447103807167 78.7308
13.932929122629764 77.1403
13.955394156785959 77.0691
13.977877254034569 76.1522
14.000343367582113 75.0318
14.022827546871707 74.57600000000001
14.045294743423524 74.0003
14.06778000837062 73.0874
14.090265817715476 73.2066
14.112734645763819 72.8306
14.13522154619454 73.029
14.157691466286913 73.161
14.180179461423874 72.7561
14.202668005486178 71.9299
14.22513957064374 70.8405
14.247629214846473 70.5404
14.270101881097517 70.5594
14.29259262906496 70.943
14.315083930490205 72.2117
14.337558255389705 72.73
14.360050666019726 72.2622
14.382526101071944 70.8278
14.405019624534942 69.6238
14.427513705993134 68.9505
14.449990813291825 68.9619
14.47248601302899 68.6572
14.49496423954951 68.9806
14.517460561197822 68.9307
14.539939910570322 68.7531
14.562437357763558 69.2084
14.58493536931253 70.6647
14.607416409993311 71.9323
14.62991555254159 73.0043
14.652397725157423 72.6107
14.674898002342799 71.5431
14.697398848433282 70.76
14.719882725991326 71.1313
14.74238471217934 71.4679
14.764869730765593 74.2157
14.787372860692983 77.5771
14.809876564079925 81.592
14.83236330125751 86.7387
14.854868153850365 94.1397
14.877356041159485 105.914
14.899862046604186 122.71600000000001
14.922351087688757 145.886
14.944858249632887 172.96200000000002
14.967365991421232 199.252
14.989856770231246 219.13299999999998
15.012365673994204 219.408
15.03485761569738 194.315
15.05736768508665 155.92700000000002
15.07987833888692 120.58200000000001
15.102372032001655 94.0684
15.124883856909658 78.7569
15.14737872204565 72.943
15.169891721717274 70.9426
15.192405310371893 70.8642
15.214901940621196 71.7512
15.237416709527137 72.2175
15.259914520936249 72.5895
15.282430473753607 71.5279
15.304947020131227 70.2797
15.327446610371178 68.6769
15.349964346154254 67.5304
15.372465126703139 66.999
15.394984055556009 66.5673
15.417486030076159 66.6088
15.44000615566487 66.1929
15.462526881230803 66.2405
15.485030653812652 66.5626
15.507552581617434 66.6968
15.530057557334603 66.6409
15.55258069104857 66.562
15.575104429329837 66.3367
15.597611216864632 65.626
15.620136166564563 65.7718
15.6426441664095 66.4096
15.665170331202765 68.1858
15.687697105158826 71.2134
15.710206930593545 74.2429
15.732734925158933 77.8326
15.755245972089478 83.55799999999999
15.77777519094324 91.9191
15.800287463046663 104.12700000000001
15.822817909869592 120.98299999999999
15.84534897229804 140.516
15.867863089299354 162.9
15.890395385222186 183.803
15.912910736597423 195.24200000000002
15.935444269699861 187.571
15.957978423016485 164.685
15.980495633101265 132.184
16.003031029129367 102.992
16.02554948280019 80.2448
16.048086125229432 69.7655
16.070623392487107 66.9321
16.09314371869582 66.2869
16.11568223789321 65.1316
16.13820381691126 63.6816
16.160743591742527 62.4816
16.183283996022084 61.1679
16.205807461423195 60.0714
16.228349126881973 59.0956
16.25087385432698 59.2349
16.27341678466365 58.771
16.29594277784926 58.7281
16.31848697676433 59.27
16.341031811604868 60.0833
16.36355971058487 60.5947
16.3861058195587 60.3401
16.40863499352978 58.6832
16.431182380342005 57.4241
16.453730407713202 56.4054
16.476261501364792 56.2341
16.498810812136167 55.8369
16.52134319004079 55.9506
16.54389378792203 55.7752
16.566445031001553 55.657
16.588979342490088 55.5531
16.61153187824822 55.2285
16.634067483263312 55.2431
16.656621315414416 55.0446
16.679175797408888 54.5411
16.701713349928728 54.7525
16.72426913389191 54.9798
16.74680798922351 55.2094
16.76936507887444 55.3209
16.791905240734874 55.3892
16.814463639794468 55.0677
16.837022695210294 55.2795
16.859564824093756 55.6229
16.882125194503903 56.7022
16.904668639217885 57.7048
16.927230328348003 58.0901
16.949792678493612 58.0626
16.972338104193863 57.115
16.994901778652235 56.2503
17.017448529496576 55.9248
17.040013531998152 55.8271
17.06257920018044 56.1283
17.0851279459922 56.9028
17.107694947817667 57.833
17.130245028099072 58.7463
17.15281336730298 59.7823
17.17536478578733 61.3283
17.19793446610687 63.1908
17.220504818648422 65.8714
17.243058251703697 68.6432
17.265629950971032 73.2199
17.288184731571736 77.9708
17.310757781306908 82.2093
17.33333150794385 84.3991
17.355888317140174 83.8239
17.37846339986244 79.1005
17.401021565958885 72.7216
17.42359800851343 67.0352
17.44617513265564 62.9063
17.468735341390783 60.6256
17.491261035594565 59.2517
17.51396340099364 58.9586
17.536490463869136 59.2791
17.559018209820174 59.3541
17.58154663977963 59.3898
17.604251766089718 59.3158
17.626781572227713 59.6817
17.64931206518155 60.1416
17.671843245885103 60.4812
17.69455114821572 60.9417
17.717083712612634 61.2013
17.739616967569667 61.3087
17.762150914021706 61.1352
17.78486160749854 61.2014
17.807396945166804 61.7386
17.829932977143503 62.3292
17.85246970436452 63.5955
17.875183204129467 65.3313
17.897721330097664 67.48899999999999
17.920260154126645 69.773
17.942799677153296 72.6419
17.9655159983646 76.0556
17.988056927677544 80.765
18.010598558807683 87.5333
18.033140892692916 95.9419
18.05586005052525 106.20200000000001
18.07840379824407 117.581
18.10094825154059 129.434
18.12366954819864 138.66
18.146215420998306 141.465
18.16876200220057 135.019
18.191309292745153 121.37799999999999
18.214033452627167 106.24600000000001
18.236582170236648 93.5802
18.259131600016456 86.6484
18.281681742907335 85.6485
18.304408781233683 88.9895
18.32696035875955 93.8156
18.349512652227624 98.7323
18.372065662579683 103.929
18.394795594587553 106.33200000000001
18.41735004715306 105.204
18.43990521943684 99.3644
18.46246111238171 90.219
18.485193953325208 79.8423
18.507751296070428 71.8532
18.530309362314178 67.1339
18.552868153000343 64.1256
18.57560391815056 62.4421
18.59816416623245 61.9433
18.620725141597372 61.3414
18.643286845190268 61.1652
18.666025549835414 60.6017
18.688588718427933 60.0406
18.711152618092243 59.9583
18.73389353884365 59.5061
18.75645890921984 59.1898
18.77902501351406 58.6307
18.801591852673102 58.7035
18.824335739722738 58.3078
18.846904057212626 58.278999999999996
18.8694731124168 57.8069
18.89204290628315 57.8316
18.914789774966803 57.8305
18.937361054791623 57.4453
18.959933076131318 57.2138
18.982505839934877 57.1939
19.00525570560582 57.4747
19.027829963004184 57.2564
19.05040496572238 57.3491
19.072980714710468 56.9763
19.095733592739563 57.3877
19.11831084296757 57.6105
19.140888842324735 58.0334
19.16346759176222 58.4429
19.18622349753803 58.9979
19.208803755869358 59.6155
19.231384767143577 60.3816
19.253966532312948 61.7012
19.276725481241822 63.5117
19.29930876296784 65.9194
19.3218928014549 68.7368
19.34465404436217 72.1856
19.36723960516257 75.6636
19.389825925592426 77.3251
19.412413006605938 77.4661
19.43517731967805 74.08
19.457765930683355 69.3988
19.48035530514408 64.732
19.50294544401556 60.31399999999999
19.525712842708348 57.2457
19.54830451925909 55.6159
19.570896963095727 54.5142
19.593490175174704 54.1315
19.616260674962184 54.0268
19.638855432416964 53.6786
19.661450960992624 53.7647
19.68404726164677 53.7343
19.706820878021247 53.493
19.729418731756834 53.7215
19.752017360452857 53.4455
19.77461676506804 53.7661
19.797393513540218 53.6537
19.819994478951667 54.0592
19.84259622316767 54.6091
19.8651987471481 55.0078
19.887978643247177 55.2727
19.91058273574792 55.4831
19.933187610901943 56.176
19.955969879466828 57.2175
19.97857632894404 58.2351
20.00118356396599 59.5882
20.023791585494575 61.5894
20.046577028914875 64.2785
20.069186632506966 66.4265
20.091797025500632 68.3336
20.114408208858933 69.785
20.137196842715273 70.0656
20.159809615886765 69.1381
20.18242318232135 66.6237
20.20503754298326 64.0297
20.227829382875154 62.7677
20.250445341109344 62.1107
20.27306209647285 62.1922
20.29567964993108 63.5056
20.31847471147704 64.4406
20.34109387027612 65.9417
20.363713830075454 66.1056
20.386334591841646 64.9339
20.409132890679302 62.5821
20.431755265564437 59.3238
20.454378445325528 56.2259
20.477002430930366 54.2914
20.499803982716553 52.897
20.522429589228004 52.1193
20.54505600449589 51.7435
20.567683229489194 51.4361
20.590488049900088 50.9086
20.61311690359731 50.6536
20.63574656993626 50.3273
20.658553853717297 49.8599
20.681185154618298 49.9831
20.703817271080066 49.82899999999999
20.72645020407368 49.3593
20.749260783967177 49.3332
20.771895359337133 49.2479
20.794530754161617 49.0614
20.817166969412938 49.0647
20.83998086114876 48.9696
20.86261872660049 48.8768
20.885257415405402 48.7929
20.90789692853701 48.7738
20.930714147864748 48.7946
20.953355319030678 48.6845
20.97599731745334 48.8379
20.99864014410749 48.5591
21.021460706796564 48.5754
21.044105199328826 48.9094
21.06675052302631 49.106
21.089396678865015 49.3122
21.112220600704806 49.4286
21.134868430275347 49.9354
21.15751709492456 50.2597
21.180166595629693 50.4613
21.202993892429635 50.6836
21.22564507473034 51.1407
21.24829709602816 51.5787
21.27112693608965 51.6809
21.293780644891275 51.6853
21.316435195634053 51.1245
21.339090589297417 50.4357
21.361923832041875 49.8893
21.384580921090404 49.1384
21.407238856007325 48.7807
21.429897637773326 48.6413
21.45273429906592 48.558
21.475394784108598 48.507
21.498056118951983 48.3547
21.520718304578022 48.6096
21.543558400304388 48.6812
21.566222297108816 48.8176
21.58888704765135 48.8748
21.61155265291521 49.0724
21.63439619898156 49.5963
21.657063523335786 49.6469
21.67973170537063 50.405
21.7024007460706 50.8904
21.72524775840385 51.3838
21.747918526116475 52.3702
21.770590155457388 53.4953
21.79326264741238 54.747
21.816113141960237 56.4566
21.838787368860547 58.2696
21.861462461341976 60.0207
21.884315579735777 62.2134
21.90699241312273 63.6649
21.92967011506078 64.6366
21.95234868653799 65.0066
21.9752053151131 64.1819
21.997885635446785 62.2101
22.020566828293532 60.2748
22.04324889464272 58.2614
22.066109049404666 56.9275
22.088792872571794 56.3354
22.111477572219204 56.3
22.1341631493376 56.2927
22.157026846313123 56.3891
22.179714188221507 55.8592
22.202402410582668 54.7916
22.22509151438863 53.2701
22.24795876962584 51.9304
22.270649646204486 51.0048
22.293341407213727 50.3551
22.316034053646906 49.5513
22.338904883215342 49.2682
22.36159931041458 49.3396
22.38429462602756 49.2883
22.40699083104897 49.0217
22.429865251039757 49.3061
22.452563244831367 49.235
22.47526213102522 49.1827
22.49813925616515 48.9686
22.520839937143307 48.8954
22.543541513520587 48.9178
22.56624398629403 48.5583
22.589124730075895 48.5756
22.611829005656723 48.7636
22.63453418063466 48.6196
22.657240256008077 48.9129
22.680124634582935 49.0323
22.70283252079775 49.1789
22.725541310413075 49.5301
22.74825100442868 49.7325
22.771139033969575 50.1541
22.79385054687155 50.3386
22.81656296718292 51.0288
22.83927629590484 51.7326
22.862167992606945 52.6522
22.88488314827121 53.644
22.907599215359284 54.6907
22.93031619487366 55.8911
22.953211574954405 56.7465
22.975930389478226 57.6448
22.998650119445763 58.3372
23.02137076586092 58.0481
23.044269845560063 56.8563
23.06699233506288 55.4002
23.089715744034912 53.5733
23.112617610931565 51.8122
23.135342869061212 50.3819
23.158069049684816 49.5942
23.1807961538087 49.1485
23.20370174880544 48.949
23.226430710184808 49.0092
23.249160598093425 48.937
23.271891413539002 48.9097
23.294800752937697 48.8621
23.31753343374794 49.1199
23.340267045128353 49.1381
23.36300158808808 49.2842
23.38591468821339 49.4708
23.408651104658304 50.0963
23.431388455719986 50.6274
23.454126742409 51.3276
23.4770436196085 52.4413
23.499783787914662 53.4546
23.522524894889884 54.4817
23.54526694154616 55.6787
23.56818761219047 56.6419
23.59093154860734 57.475
23.613676427751283 58.1173
23.636422250635754 57.7826
23.659346731118656 56.4294
23.68209445191868 54.7717
23.704843119509587 52.5119
23.72759273490623 50.3001
23.750521041644767 48.852
23.77327256312355 47.7405
23.796025035462787 46.821999999999996
23.818956224555475 46.2507
23.841710609113413 46.0359
23.86446594758979 45.9572
23.887222241002014 45.8377
23.910157285144578 45.3591
23.932915498962537 45.498000000000005
23.955674670778713 45.1883
23.978434801611975 45.1771
24.001373717286125 44.8452
24.024135776723917 44.8517
24.046898798245582 44.7396
24.06966278287146 44.8182
24.092605586582614 44.3649
24.115371508023642 44.2952
24.1381383956401 44.2408
24.16090625045381 44.3159
24.183852958731244 44.1497
24.206622758582608 44.083999999999996
24.229393528706886 43.8468
24.252165270127392 43.8013
24.27511589952438 43.8778
24.297889594216997 43.5523
24.32066426328598 43.4484
24.34343990775613 43.537
24.36639447485003 43.3514
24.38917208083877 43.4301
24.41195066531332 43.1876
24.43490819850244 43.2851
24.457688750692377 43.1889
24.48047028445616 43.1099
24.503252800821233 43.0903
24.526214300784112 43.1876
24.548998793132213 43.0963
24.57178427117417 43.0558
24.59457073593893 43.047
24.617536219319863 43.0004
24.64032466834748 43.1906
24.663114107195035 43.0842
24.685904536893013 42.8108
24.708874020360852 42.7045
24.731666442613744 42.7126
24.754459858818787 42.6098
24.777254270007962 42.4871
24.80022777025625 42.3851
24.82302418230472 42.4258
24.845821592443674 42.3994
24.86862000170663 42.3482
24.891597535453727 42.1146
24.914397953892728 42.413999999999994
24.93719937456671 42.3928
24.96000179851076 42.4482
24.98298338249997 42.6249
25.00578782394922 42.7057
25.028593271784167 42.7936
25.05157790644186 43.2461
25.07438537804115 43.3663
25.097193859145293 43.5454
25.120003350792075 43.8487
25.142992065061257 44.0776
25.165803588823465 44.2233
25.18861612625217 44.5328
25.211429678386736 44.7448
25.234422489079968 44.8367
25.257238081693636 44.8313
25.280054692141732 44.978
25.3028723214652 44.9029
25.325869245420463 45.0179
25.348688923599397 45.0753
25.371509623787006 45.0429
25.394331347025812 44.8363
25.41733240110666 44.4486
25.440156181590016 43.8027
25.46298098826268 43.2947
25.48580682216873 42.8196
25.50881202326435 42.2161
25.53163992281684 41.6919
25.55446885274561 41.418
25.577298814096377 41.0827
25.600308179121807 40.9182
25.623140214533745 41.0949
25.64597328451537 40.9194
25.66898578564376 40.7615
25.691820936010206 40.759
25.714657124097695 40.6817
25.737494350954734 40.6304
25.760511045684957 40.5909
25.783350361364224 40.7706
25.806190718969255 40.6991
25.82903211955018 40.8334
25.852053024868923 40.7099
25.874896522722523 40.6963
25.897741066713106 40.6173
25.920586657892454 40.8673
25.943611790812668 40.8883
25.966459487728237 40.9841
25.989308234998564 40.928000000000004
26.01215803367705 41.3358
26.03518741123814 41.5717
26.05803932412957 41.5842
26.080892291600094 41.6884
26.10374631470478 41.6054
26.12677995397268 41.7797
26.14963609978026 41.9471
26.172493304397875 41.6244
26.19535156888223 41.5466
26.218389486949604 41.0892
26.241249882640123 40.7034
26.26411134137826 40.6393
26.28715248187403 40.5908
26.31001607820869 40.2672
26.3328807407756 40.0831
26.35574647063438 40.3799
26.37879191991473 40.2339
26.401659795896734 40.1725
26.424528742360263 40.2916
26.447398760366614 40.5025
26.470448535598294 40.4987
26.49332070826805 40.7799
26.516193955675355 41.1578
26.53906827888316 41.2258
26.562122397260108 41.3169
26.584998883685063 41.7952
26.607876449110325 42.0429
26.63075509460056 42.0568
26.65381357334404 42.2589
26.67669439061878 42.3658
26.699576291163382 42.3379
26.722459276044212 42.1259
26.745522132402975 41.8787
26.768407297649354 41.6426
26.791293550442003 41.2372
26.814180891848974 41.1103
26.837248143099337 40.7943
26.860137673466657 40.6073
26.88302829566349 40.4092
26.90592001075963 40.266
26.92899167420566 40.1344
26.951885586870763 39.7293
26.974780595655517 39.4829
26.99785558178161 39.371
27.020752794605112 39.1014
27.043651106772522 39.1796
27.06655051935668 39.1257
27.089629948036183 38.8457
27.112531573292053 38.8259
27.135434302194138 38.7704
27.158338135817015 38.6267
27.181422024430987 38.7417
27.204328079372566 38.6119
27.22723524226965 38.6824
27.250143514198573 38.7948
27.273231880156334 38.7744
27.296142382065014 38.6069
27.319053996245536 38.4774
27.341966723775965 38.5624
27.365059584515222 38.594
27.38797455070062 38.6534
27.410890633481237 38.3853
27.433807833936918 38.5366
27.456905206923906 38.6667
27.47982465472398 38.6129
27.502745223449743 38.5379
27.525666914182825 38.7493
27.548768816912457 38.7661
27.571692763693633 38.6099
27.59461783573812 38.5847
27.617723149491244 38.3579
27.640650484125285 38.1916
27.66357894728264 38.319
27.686508540048052 38.2895
27.709618414237887 38.2628
27.732550278321757 38.0431
27.755483275279115 37.9747
27.778417406196485 37.9452
27.801531858397514 37.9205
27.824468269376716 37.8558
27.847405817586786 37.9367
27.870344504116094 38.0646
27.893463551932008 38.3176
27.916404527281053 38.4474
27.93934664422563 38.5069
27.962289903855886 38.5368
27.98541356491974 38.6044
28.00835912214229 38.7861
28.03130582533231 39.1094
28.054253675581805 39.1694
28.077381967556104 39.1074
28.100332124185126 39.0834
28.123283431160893 39.1834
28.146235889577238 39.004
28.169368830154156 38.8498
28.192323603752033 38.6091
28.215279532083304 38.2839
28.238415973016764 38.1277
28.261374223145094 38.0475
28.284333631303806 37.8287
28.307294198589954 37.7249
28.330435319167677 37.4716
28.353398217078915 37.2231
28.376362277420153 37.0082
28.39932750129032 36.7649
28.422473319286713 36.6663
28.44544088262495 36.525
28.468409612800283 36.4049
28.491379510913497 36.1047
28.51453004413313 36.1305
28.53750229057244 36.1179
28.56047570826344 36.0178
28.583450298308804 35.9537
28.606605564586562 35.8428
28.629582511831156 35.7873
28.65256063474956 35.6248
28.675539934446338 35.719
28.698699951647605 35.6853
28.72168161743193 35.68
28.74466446331978 35.5883
28.767648490417624 35.667
28.790813276438353 35.6741
28.813799678527303 35.6933
28.836787265157085 35.6415
28.859955641890075 35.6675
28.882945610203045 35.5959
28.905936766392035 35.4952
28.928929111566863 35.5835
28.952102288520145 35.3772
28.975097024308607 35.2827
28.998092952423807 35.1209
29.021090073977508 35.132
29.04426806913204 34.9782
29.067267590245258 34.8954
29.090268308143695 34.7028
29.11327022394099 34.6739
29.13645305530891 34.6253
29.159457379627167 34.6407
29.18246290519685 34.5833
29.20546963313352 34.4444
29.22865731875826 34.5137
29.25166646419296 34.6267
29.27467681535305 34.41
29.29768837335608 34.4601
29.320880931312562 34.4654
29.34389491580634 34.3758
29.366910110507334 34.3675
29.38992651653503 34.4591
29.41312396492981 34.3712
29.436142806456754 34.2609
29.45916286268059 34.385
29.48236399319994 34.1895
29.50538649169417 33.9211
29.528410208259935 34.0263
29.55143514402014 33.7015
29.574641196749695 33.6442
29.597668583816574 33.4551
29.6206971934585 33.287
29.64372702680042 33.3806
29.666938019934474 33.31
29.689970313635285 33.187
29.713003834422636 33.0972
29.73603858342347 33.0772
29.759254535188578 32.9806
29.78229175361658 32.9949
29.80533020365064 33.1017
29.82836988641968 33.0094
29.85159081507472 32.9253
29.874632976355343 32.806999999999995
29.89767637376955 32.9744
29.920721008448314 32.7005
29.9439469322847 32.6631
29.96699405457564 32.6565
29.9900424175358 32.8093
30.013092022298157 32.7593
30.03632295963995 32.5632
30.059375061131373 32.6071
30.08242840783577 32.6786
30.105483000888153 32.6346
30.128718970092244 32.5404
30.151776069006917 32.6158
30.17483441768648 32.6301
30.198074175317235 32.6121
30.221135036724256 32.6007
30.24419715131772 32.5223
30.267260520236203 32.3826
30.290505341942243 32.474000000000004
30.313571232750228 32.3935
30.336638381310948 32.3916
30.35970678876503 32.4131
30.38295669299435 32.309
30.40602763151657 32.3481
30.429099832366074 32.2227
30.452173296685572 32.2753
30.47542830191959 32.1921
30.498504306502497 32.1793
30.521581577995562 32.1488
30.544660117543582 32.288000000000004
30.56792024229725 32.2138
30.59100133132069 32.3134
30.614083691845494 32.2452
30.637167325018545 32.2844
30.660432587840603 32.2948
30.683518779717886 32.2331
30.70660624769615 32.316
30.729694992924372 32.4248
30.75296541239743 32.3765
30.77605672557558 32.3398
30.799149319462742 32.2842
30.8224236211637 32.0694
30.845518789950724 32.0517
30.868615242910597 32.0132
30.891712981195973 31.895
30.91499247215866 31.7601
30.938092794619365 31.7301
30.96119440587579 31.576
30.984297307082752 31.506
31.00758200598383 31.416999999999998
31.030687500658694 31.4716
31.053794288760695 31.299
31.076902371446767 31.2095
31.100192296997445 31.3261
31.12330298246119 31.1215
31.14641496599209 31.022
31.169528248749216 31.0615
31.19282341969534 31.0581
31.215939314557186 31.1391
31.239056512134788 31.1027
31.262175013589378 31.066
31.28547544871168 30.9513
31.30859657161541 30.9707
31.331719001892175 31.0216
31.35484274070538 31.1385
31.378148458819545 31.0289
31.401274828443725 30.982
31.424402510106933 30.9891
31.447712205419993 31.0429
31.470842524931633 30.9678
31.493974159989783 30.9303
31.51710711176168 30.8529
31.54042212308802 30.9079
31.563557722100917 30.9327
31.586694641341655 30.7628
31.609832881979628 30.6812
31.63315322823208 30.5767
31.656294125521327 30.4923
31.679436347728515 30.4128
31.70257989602529 30.3357
31.725905596152327 30.3333
31.74905181052835 30.1926
31.772199354521323 30.2896
31.79534822930507 30.2495
31.818679302290967 30.2161
31.84183085259981 30.2872
31.864983737233473 30.2056
31.88813795736804 30.2075
31.911474422233013 30.1051
31.934631327356435 30.2743
31.9577895715215 30.2076
31.980949155906522 30.2319
32.004291031706956 30.2158
32.027453310562606 30.0376
32.05061693318573 29.8646
32.07396288236386 29.9467
32.09712920658542 29.8707
32.12029687812702 29.6782
32.14346589817093 29.6624
32.166817291729984 29.7354
32.18998902288583 29.6008
32.21316210610336 29.5425
32.23633654256711 29.3938
32.259693399663725 29.4335
32.282870556771144 29.316
32.30604907069099 29.2625
32.329228942610065 29.2758
32.35259128243769 29.1037
32.375773884550505 29.1208
32.398957848235646 29.037
32.422143174682176 28.9809
32.445511016471215 28.8427
32.468699082679954 28.8079
32.49188851523011 28.7481
32.51507931531304 28.8185
32.538452678331 28.8245
32.56164622776311 28.7096
32.58484114831493 28.5872
32.60803744118015 28.5188
32.631416344731896 28.5955
32.654615396551876 28.509
32.67781582427913 28.5978
32.701198898634416 28.4464
32.72440209253756 28.4033
32.747606665947124 28.4005
32.77081262006088 28.2096
32.79420126883317 28.2706
32.81740999876112 28.2096
32.840620112999424 28.1441
32.86383161274818 28.2083
32.88722585534586 28.1855
32.91044014056596 28.1656
32.933655814909734 28.1149
32.95687287957963 28.1974
32.98027273544904 28.0709
33.00349259526636 28.0326
33.026713849030116 28.0677
33.04993649794511 27.9963
33.073341986570746 27.9513
33.09656744032826 27.9205
33.11979429286444 27.9632
33.14302254538647 27.9049
33.166433686291185 27.7816
33.18966475336992 27.7435
33.212897224069096 27.7494
33.23613109959831 27.8048
33.259547912343415 27.618000000000002
33.2827846121627 27.6914
33.306022720453775 27.5921
33.32926223842861 27.5776
33.352684742614166 27.53
33.37592709463173 27.5307
33.399170859982064 27.4568
33.422597648419426 27.3957
33.44584425514446 27.2802
33.46909227885668 27.2398
33.4923417207723 27.1068
33.51577423505344 27.1929
33.539026528130385 27.057
33.56228024307245 26.989
33.585535381098246 26.8633
33.60897364093058 26.8832
33.63223163992385 26.9446
33.6554910656699 26.8055
33.678751919389796 26.8721
33.702195944520106 26.7882
33.72545966903325 26.7685
33.74872482519663 26.6235
33.771991414233746 26.6071
33.79544122444841 26.5313
33.81871069412428 26.4669
33.84198160035767 26.4846
33.86525394437455 26.4899
33.88870955949969 26.4614
33.911984794020626 26.4457
33.93526147001624 26.3753
33.958539588715006 26.3517
33.98200102861669 26.3173
34.0052820477047 26.1604
34.02856451319451 26.2061
34.05203033759056 26.1147
34.07531571090147 26.143
34.09860253431845 26.0967
34.121890809074316 26.0221
34.145362493118924 26.0185
34.16865368561615 25.9738
34.191946333164054 25.8918
34.21524043699793 25.8908
34.23871800066799 25.9046
34.26201503218366 25.7302
34.28531352370466 25.8012
34.30861347646881 25.7349
34.33209693978188 25.5694
34.3553998301885 25.6182
34.378704185565205 25.5349
34.402010007152356 25.4908
34.42549939016683 25.5056
34.44880815937748 25.3665
34.472118398533134 25.3457
34.49543010887669 25.4055
34.51892543169198 25.2211
34.54224009966052 25.3201
34.56555624255917 25.2678
34.58887386163339 25.1385
34.61237514439016 25.0882
34.6356957311114 25.0598
34.65901779775809 25.133000000000003
34.68252356662995 25.0519
34.705848608458616 25.0474
34.72917513396849 24.9472
34.75250314440949 24.8937
34.77601490857862 24.8724
34.799345904259795 24.788
34.82267838863559 24.8276
34.846012362958525 24.7776
34.869530142679984 24.7742
34.89286711232212 24.671
34.91620557568269 24.6757
34.93954553401677 24.6456
34.9630693495876 24.6226
34.986412313340814 24.6786
35.00975677584668 24.5597
35.033102738362956 24.5685
35.05663261012228 24.4842
35.0799815881786 24.4373
35.10333207003229 24.451999999999998
35.12668405694369 24.471
35.150220005273056 24.3734
35.17357501786656 24.3248
35.19693153931268 24.2818
35.220289570874385 24.2358
35.24383161619786 24.2864
35.267192683604904 24.2521
35.290555264930376 24.2082
35.314101899412165 24.2299
35.33746752422433 24.1965
35.36083466676374 24.2035
35.38420332829803 24.0607
35.407756095629054 24.1024
35.43112781085063 24.108
35.45450104888391 24.0999
35.477875810999194 24.0321
35.50143473172161 23.9149
35.52481255774625 23.9748
35.54819191167777 23.932
35.57157279478914 23.9575
35.595137889488406 23.8647
35.61852184675279 23.7908
35.641907337029984 23.7247
35.665294361595684 23.7543
35.68886565090076 23.721
35.7122557598848 23.7205
35.73564740699838 23.6429
35.759040593519934 23.6274
35.78261809810353 23.6057
35.80601437933051 23.4403
35.829412203814705 23.4623
35.85281157283719 23.2983
35.876395313415884 23.3972
35.8997977874528 23.3701
35.92320180988546 23.2886
35.946790244133936 23.2046
35.97019737933222 23.289
35.993606066789866 23.1985
36.01701630779276 23.1603
36.04061101440684 23.0385
36.06402437852291 23.0538
36.08743930005611 23.1009
36.1108557802951 22.9628
36.13445678011326 23.0211
36.15787639383515 22.9859
36.18129757014299 22.9635
36.20472031032821 22.8518
36.22832762423364 22.8249
36.25175350829375 22.761
36.275180960119776 22.6937
36.298609981005924 22.7778
36.32222362992669 22.7588
36.34565580510207 22.7417
36.36908955323448 22.6831
36.39252487562093 22.5872
36.416144880530226 22.5112
36.43958336764275 22.4977
36.463023432914625 22.5024
36.486465077645676 22.3867
36.51009145956204 22.4489
36.53353627947859 22.4897
36.55698268276811 22.4357
36.58043067073321 22.3884
36.60406345072071 22.3112
36.62751462435344 22.2614
36.65096738658405 22.2553
36.67460498210655 22.2179
36.69806093788647 22.2141
36.72151848619297 22.1455
36.744977628333636 22.1443
36.76862165890998 22.1178
36.79208400512205 22.0528
36.81554794910557 22.0848
36.83901349217101 21.9654
36.862663978991606 21.955
36.88613273667352 21.8807
36.90960309738324 21.8804
36.933075062434064 21.8876
36.95673202673572 21.7918
36.98020721697122 21.6833
37.003684015502365 21.6971
37.027162423645365 21.6475
37.050825886711465 21.6995
37.07430753063053 21.5823
37.09779078812467 21.5167
37.121275660513014 21.5358
37.144945643673694 21.5536
37.16843376245278 21.4786
37.19192350009803 21.4914
37.215414857931435 21.4046
37.239091382563885 21.3843
37.262585997426164 21.3562
37.28608223645736 21.3219
37.309763684451696 21.3437
37.33326318851098 21.2545
37.356764320726555 21.2928
37.380267082425526 21.2747
37.40395510942588 21.1948
37.42746114683234 21.1236
37.45096881771841 21.0972
37.474478123414166 21.0988
37.49817275092816 21.0386
37.52168534303452 21.0217
37.54519957395567 20.8509
37.568715445024665 20.9722
37.592416694607714 20.9367
37.61593586281424 20.9516
37.63945667518264 20.9442
37.66297913304891 20.8297
37.68668702630454 20.824
37.710212792059274 20.7064
37.733740207334854 20.7061
37.757269273470364 20.6514
37.780983832050374 20.6574
37.80451621684926 20.6057
37.82805025654007 20.6096
37.851585952464795 20.5079
37.8753071980695 20.4303
37.89884622345676 20.4465
37.92238690911902 20.4676
37.94611318753442 20.3608
37.969657210779765 20.3694
37.99320289834801 20.3889
38.016750251586465 20.3929
38.04048325513017 20.2754
38.06403395679343 20.2279
38.087586328183946 20.1743
38.11114037065203 20.1706
38.13488012115898 20.139
38.1584375229181 20.0291
38.181996599821 20.0303
38.205557353221124 20.0795
38.229303872575656 20.0341
38.2528679961576 19.9534
38.27643380031219 19.9319
38.30000128639589 19.9467
38.32375459653193 19.8818
38.34732546371299 19.8426
38.37089801690786 19.7715
38.39447225747609 19.6922
38.418232380377425 19.7931
38.441810012983396 19.7952
38.46538933705673 19.7375
38.488970353960084 19.6598
38.51273731166058 19.6345
38.536321731567014 19.6139
38.55990784840681 19.5929
38.58367995004091 19.5855
38.60726947812959 19.4542
38.63086070726198 19.5323
38.654453638806274 19.4876
38.678232613930824 19.4512
38.70182896773327 19.385
38.72542702806741 19.3867
38.7490267963045 19.3104
38.77281266709232 19.2812
38.79641586862214 19.2828
38.8200207821842 19.212
38.843627409152944 19.1896
38.86742019782782 19.2367
38.891030269149255 19.1038
38.914642058016156 19.1214
38.938255565806124 19.069000000000003
38.96205529464307 19.0495
38.98567225787121 19.0664
39.00929094417078 19.0353
39.03291135492255 18.9766
39.05671804624804 18.9337
39.080341923549106 18.9538
39.103967529460334 18.9318
39.127594865365744 18.8653
39.15140854155791 18.8261
39.17503935514948 18.7915
39.19867190290282 18.7885
39.22249083587951 18.6918
39.24612686969409 18.7433
39.269764641845306 18.7068
39.293404153722804 18.6172
39.317230110864074 18.5748
39.34087311998506 18.5478
39.36451787301696 18.4969
39.388164371352595 18.4158
39.41199737518003 18.4236
39.43564738196752 18.506
39.45929913825317 18.3845
39.48295264543308 18.4135
39.506792718520884 18.4258
39.530449745387216 18.2985
39.55410852735203 18.3233
39.57776906581474 18.3211
39.60161623079 18.2893
39.625280300200025 18.1971
39.64894613032202 18.1645
39.67261372255866 18.1738
39.6964680021016 18.1207
39.72013913657293 18.1253
39.74381203738292 18.1382
39.76748670593756 18.1048
39.79134812278169 18.0967
39.81502634488497 18.057000000000002
39.83870633896685 17.9565
39.862388106436654 17.8917
39.88625668336918 17.9212
39.90994201572829 17.8807
39.933629125719285 17.8413
39.957503091207826 17.8191
39.9811937746168 17.8113
40.00488623990914 17.7803
40.02858048850006 17.7587
40.05246165409549 17.7051
40.076159487492085 17.6407
40.099859108448875 17.6321
40.123560518384345 17.6305
40.1474489070226 17.654
40.171153913178564 17.577
40.194860712584955 17.5317
40.2185693066637 17.474
40.242464941335314 17.4436
40.26617714307655 17.4797
40.289891143772046 17.474
40.3136069448471 17.4232
40.33750984859743 17.4546
40.3612292688043 17.3912
40.3849504936829 17.3207
40.40867352466194 17.389
40.43258372059144 17.279
40.45631038219906 17.2806
40.48003885420956 17.2132
40.503769138055105 17.1935
40.52768664931955 17.2137
40.55142057531802 17.1791
40.57515631746428 17.0768
40.599079334038514 17.099
40.62281872700477 17.0798
40.64655994043941 17.0157
40.67030297578061 16.9942
40.69423334835778 16.927
40.71798004609188 16.9543
40.74172857006355 16.8808
40.76547892171441 16.8449
40.7894166736039 16.8484
40.813170699248566 16.8193
40.83692655691388 16.7865
40.86068424804498 16.8246
40.884629402612525 16.7491
40.908390779366385 16.7736
40.932153993938 16.7403
40.95591904777605 16.7025
40.979871628443995 16.6877
41.003640379561936 16.6648
41.02741097430883 16.551
41.05118341413683 16.5972
41.075143444384416 16.6565
41.098919593177826 16.5384
41.1226975914255 16.4468
41.14647744058318 16.4488
41.170444943946755 16.4861
41.19422851378379 16.4616
41.218013938914645 16.4014
41.24198706625173 16.3674
41.26577622087193 16.3621
41.289567235177785 16.3438
41.31336011063129 16.2134
41.337340752422875 16.2871
41.361137369129835 16.2514
41.38493585138705 16.1623
41.40873620066004 16.1171
41.43272438060107 16.1407
41.45652848292052 16.0851
41.48033445666918 16.065
41.50414230331616 16.0271
41.528138045159764 16.0129
41.551949656675205 15.9571
41.575763145513235 15.9273
41.59957851314666 15.9233
41.62358184070442 15.9438
41.64740098505737 15.8691
41.6712220126409 15.8649
41.69504492493139 15.7707
41.71905586207357 15.8029
41.74288256296395 15.7557
41.766711153007456 15.7114
41.79054163368412 15.6867
41.814560204340054 15.7283
41.838394485526365 15.7756
41.86223066180303 15.6706
41.88625497706819 15.5887
41.910094962812 15.5794
41.93393684811168 15.5992
41.95778063445365 15.5211
41.981812625263366 15.5397
42.00566023303407 15.5148
42.029509746323676 15.4751
42.05336116662236 15.4185
42.077400857069705 15.4119
42.10125611078846 15.3774
42.12511327600405 15.3855
42.14897235421036 15.4
42.173019768448455 15.3563
42.19688269209613 15.2667
42.22074753323349 15.2523
42.24461429335818 15.2267
42.268669455600495 15.2367
42.292540073217886 15.1821
42.31641261433284 15.207
42.34028708044675 15.1096
42.36435001496739 15.1063
42.38822835065557 15.1078
42.41210861586426 15.0515
42.4359908120986 15.0731
42.46006154323262 15.0206
42.48394762115317 14.9894
42.507835634632315 15.0293
42.531912233047436 14.948
42.55580413732265 14.9568
42.579697981698 14.8936
42.60359376768525 14.8208
42.62767820545945 14.8713
42.65157789440821 14.8298
42.67547952952185 14.8436
42.699383112316 14.8182
42.72347541395347 14.7422
42.74738291190531 14.6731
42.771292362102166 14.6805
42.795203766063516 14.6635
42.819303956130405 14.6456
42.843219287476536 14.6326
42.86713657716324 14.5744
42.89105582671383 14.5503
42.91516392983864 14.5638
42.939087119032166 14.5064
42.963012272677304 14.4849
42.98693939230129 14.4625
43.01105543317513 14.4294
43.034986504731386 14.4223
43.05891954686589 14.4008
43.08285456110972 14.3768
43.10697856448665 14.302
43.130917542983475 14.3036
43.15485849820081 14.2867
43.17880143167367 14.2464
43.20293342237094 14.2234
43.226880332449 14.1986
43.25082922540554 14.1918
43.27496722682525 14.1311
43.29892010567796 14.1172
43.32287497204102 14.1515
43.34683182745632 14.072000000000001
43.370977859791836 14.054
43.39493871351105 14.0448
43.41890156092628 13.9941
43.44286640358341 13.9758
43.46702049182749 14.008
43.49098934522816 13.9444
43.51496019852649 13.8979
43.5389330532723 13.9209
43.56309522248204 13.8574
43.58707210044314 13.8361
43.61105098451946 13.8117
43.63503187626491 13.8273
43.659202151562134 13.8083
43.68318707902681 13.7727
43.70717401884041 13.7611
43.731162972560874 13.675
43.75534137913236 13.6539
43.779334381108384 13.6616
43.803329401683186 13.6313
43.82732644241872 13.6214
43.8515130055166 13.5623
43.87551410707659 13.515999999999998
43.89951723350145 13.5347
43.923709934595614 13.5073
43.94771713129917 13.5208
43.97172635758096 13.4654
43.99573761501002 13.4323
44.0199385169922 13.3876
44.04395385732619 13.3597
44.067971233533086 13.4178
44.09199064718605 13.3779
44.11619977548961 13.3609
44.14022328470671 13.3347
44.16424883610785 13.3375
44.18827643127035 13.296
44.21249381139513 13.2375
44.236525514814076 13.2094
44.26055926674478 13.2085
44.28459506876863 13.2268
44.3088207262813 13.1459
44.33286064928722 13.151
44.35690262714919 13.142000000000001
44.38094666145278 13.0766
44.4051806219871 13.0975
44.42922879003185 13.0231
44.45327901929361 13.0268
44.477331311362136 13.0166
44.501573600619416 12.9749
44.525630039221795 12.9367
44.54968854541895 12.8905
44.573937102200176 12.9172
44.5979997645541 12.9117
44.622064499300315 12.8753
44.64613130803592 12.8711
44.67038823869318 12.8756
44.69445921643748 12.8453
44.718532272981385 12.7811
44.742607409926194 12.7406
44.76687274034801 12.7687
44.79095205918753 12.7022
44.81503346325094 12.687999999999999
44.839116954143876 12.6504
44.86339071028742 12.6355
44.88747839599524 12.5576
44.91156817336837 12.5581
44.93566004401666 12.5714
44.959942251908146 12.554
44.984038330325966 12.5145
45.00813650686762 12.4701
45.03223678314731 12.4799
45.05652746888232 12.4349
45.08063196592069 12.373
45.104738567558705 12.4002
45.128847275414856 12.366
45.15314646515866 12.3596
45.17725940679741 12.3354
45.20137445952892 12.3205
45.22568004865265 12.3028
45.24979934496396 12.2774
45.27392075725247 12.2851
45.29804428714431 12.2221
45.322358426247604 12.2219
45.346486212804315 12.17
45.370616121861914 12.2075
45.39474815505086 12.1881
45.41907087049246 12.1141
45.4432071734666 12.0651
45.46734560548283 12.091
45.49148616817604 12.1187
45.51581748638564 12.0001
45.5399623320197 12.0107
45.56410931325473 11.9757
45.58825843173002 12.0165
45.61259837920865 11.9559
45.636751793816 11.9273
45.66090735060093 11.8824
45.68506505120716 11.8613
45.7094136545275 11.8678
45.73357566449271 11.8499
45.75773982322992 11.835999999999999
45.78190613238733 11.8242
45.806263418194064 11.7722
45.83043404997326 11.812999999999999
45.85460683713677 11.7347
45.87897065658495 11.6648
45.90314777634752 11.6829
45.92732705646868 11.665999999999999
45.9515084986045 11.6597
45.97588104735473 11.6416
46.00006683541565 11.6216
46.02425479047904 11.6053
46.04844491420549 11.5475
46.0728262191024 11.5839
46.09702070211635 11.5764
46.12121735879483 11.536
46.14541619080294 11.5486
46.169806278764455 11.5183
46.194009483459034 11.5007
46.21821486849841 11.474
46.24242243555223 11.4141
46.266821333570014 11.3859
46.29103328674601 11.3788
46.31524742696538 11.412
46.33946375590237 11.36
46.36387149104216 11.3871
46.38809221957392 11.2846
46.41231514186606 11.299000000000001
46.436540259597464 11.3213
46.460956858999374 11.2254
46.48518638983522 11.2414
46.509418121166966 11.2196
46.533652054678114 11.1485
46.55807754555709 11.1144
46.58231590571962 11.1306
46.60655647313217 11.15
46.630988654873654 11.1203
46.655233659129024 11.0722
46.67948087571551 11.0826
46.70373030632484 11.0412
46.72817142736393 11.0166
46.752425308428684 10.9768
46.77668140861147 10.964
46.80093972960865 10.9246
46.82538981736788 10.9186
46.849652602470904 10.9092
46.87391761349769 10.8958
46.8981848521493 10.8392
46.9226439341274 10.8176
46.946915650573224 10.8013
46.97118959976749 10.7942
46.99546578341598 10.7827
47.019933887188216 10.7648
47.04421456235744 10.7254
47.06849747711879 10.7359
47.09278263318286 10.738
47.11725978640143 10.7174
47.14154944775105 10.687999999999999
47.165841355555656 10.6504
47.1901355115306 10.5983
47.214621741924994 10.6132
47.23892041698887 10.5967
47.26322134538975 10.5442
47.28771440635075 10.5631
47.31201986422527 10.5684
47.33632758061436 10.4819
47.360637557241866 10.4649
47.38513974410611 10.4799
47.40945426407847 10.4354
47.43377104948137 10.4454
47.45809010204344 10.4159
47.48260144275502 10.3764
47.506925052572285 10.3754
47.53125093475548 10.3421
47.55557909103813 10.329
47.58009961361992 10.3332
47.60443234110732 10.3197
47.62876734791564 10.2916
47.65310463578333 10.2465
47.6776343683373 10.2361
47.7019762413987 10.2499
47.72632040075572 10.2392
47.75066684815169 10.224
47.77520581885936 10.1861
47.799556865477655 10.1306
47.823910205386 10.1617
47.84826584033272 10.135
47.87281407745551 10.1029
47.89717432569297 10.0718
47.92153687423484 10.1011
47.94609208429692 10.047
47.97045925671401 10.0351
47.99482873471275 9.992
48.01920052005013 9.97198
48.04376504619224 9.958960000000001
48.068141469543484 9.963610000000001
48.09252020552573 9.92486
48.11690125590099 9.93463
48.1414751266064 9.88153
48.16586082917454 9.866489999999999
48.19024885144316 9.856010000000001
48.2146391951793 9.86777
48.239222439012764 9.84802
48.26361744916137 9.7812
48.28801478610016 9.74424
48.31241445160131 9.77332
48.337007097209366 9.77641
48.36141144338331 9.7399
48.38581812345755 9.72407
48.41022713920929 9.72645
48.434829215320704 9.676960000000001
48.45924292604658 9.6498
48.48365897780325 9.69013
48.50807737237308 9.641580000000001
48.532688907799276 9.606580000000001
48.55711201168574 9.595260000000001
48.581537463754074 9.59499
48.60615611725119 9.60402
48.63058628942721 9.57207
48.65501881516546 9.555
48.6794536962573 9.52505
48.70408185970339 9.458969999999999
48.72852147531801 9.4562
48.75296345168211 9.42683
48.77740779059232 9.4446
48.80204549302823 9.44631
48.82649458091802 9.47172
48.85094603676547 9.42538
48.87539986237231 9.35505
48.90004713292306 9.34791
48.92450572200832 9.31357
48.94896668628025 9.353660000000001
48.97343002754588 9.32038
48.99808689542115 9.24987
49.02255501470614 9.27623
49.04702551642794 9.26055
49.0714984023988 9.23202
49.096164896893235 9.197569999999999
49.120642575466796 9.21645
49.145122643748394 9.19223
49.16960510355558 9.16343
49.19428125404938 9.17118
49.2187685210852 9.12862
49.243258185121555 9.10743
49.26794160167084 9.08575
49.2924360839405 9.04643
49.31693296869764 9.01245
49.34143225776915 9.04317
49.36612538195438 8.99805
49.39062950396021 9.00451
49.41513603578346 8.95526
49.4396449792564 8.973519999999999
49.46434784069503 8.95395
49.488861631846454 8.94282
49.513377840166804 8.88769
49.537896467493745 8.89816
49.56260909589029 8.87632
49.587132585683285 8.8643
49.611658500018365 8.848410000000001
49.636186840738596 8.81776
49.66090926588511 8.819180000000001
49.685442483902584 8.800239999999999
49.70997813385706 8.77537
49.734516217597076 8.760639999999999
49.75924846937352 8.74785
49.7837914452858 8.7134
49.80833686055187 8.686919999999999
49.83288471702571 8.72215
49.85762682540054 8.69979
49.882179588965734 8.66432
49.9067347993235 8.65916
49.93129245833333 8.63697
49.95604445336378 8.59114
49.98060703442832 8.58333
50.005172069746266 8.5608
50.02993150438364 8.56049
50.05450147301533 8.56143
50.07907390151433 8.51689
50.10364879174981 8.50117
50.12841816587289 8.51032
50.1529980044635 8.48392
50.17758031042124 8.45707
50.20216508562089 8.447280000000001
50.22694442953363 8.41947
50.25153416817468 8.4546
50.27612638170508 8.41766
50.300721072005196 8.36482
50.325510416102105 8.33485
50.350110084975064 8.30636
50.37471223628208 8.32826
50.39931687190919 8.330810000000001
50.424116246675766 8.28575
50.44872587605249 8.305769999999999
50.47333799543065 8.3056
50.49795260670191 8.25165
50.52276204271512 8.23698
50.54738166295838 8.19755
50.57200378079314 8.20779
50.596628398116835 8.21491
50.62144792604559 8.18833
50.646077567609396 8.18856
50.670709714377715 8.16152
50.69553683636198 8.12327
50.72017401885922 8.11989
50.7448137122895 8.1222
50.76945591856022 8.08245
50.79429318636823 8.05439
50.818940443716784 8.04604
50.84359021965163 8.04888
50.868242516085964 8.01865
50.893089960641895 8.022730000000001
50.917747323549435 7.980119999999999
50.94240721271973 7.93606
50.96706963007175 7.95772
50.99192728239342 7.92629
51.01659478166073 7.944610000000001
51.04126481489051 7.93318
51.06593738400761 7.9014
51.090805275207074 7.87741
51.11548294172845 7.85623
51.14016314993547 7.8297300000000005
51.164845901758845 7.8304100000000005
51.18972406304274 7.8129
51.21441192780656 7.8132
51.23910234200271 7.774610000000001
51.2637953075678 7.77658
51.288683770237945 7.746
51.31338186432707 7.72996
51.33808251561888 7.72686
51.362978729967345 7.71572
51.387684521509755 7.679939999999999
51.41239287610203 7.67691
51.437103795691165 7.6426300000000005
51.46201036644977 7.62905
51.486726441956634 7.610689999999999
51.51144508832545 7.608169999999999
51.536166307509156 7.60589
51.56108326624387 7.53534
51.58580965706056 7.53845
51.61053862657523 7.52312
51.635270176746864 7.529489999999999
51.66019755512065 7.54753
51.68493429268881 7.539569999999999
51.70967361681515 7.48578
51.73441552946465 7.46415
51.759353359237934 7.453310000000001
51.7841004750961 7.4254
51.80885018539685 7.4165399999999995
51.833602492111254 7.40901
51.8585508051424 7.41448
51.883308330926425 7.380330000000001
51.90806845906181 7.34258
51.932831191525715 7.342410000000001
51.95779001977161 7.31716
51.98255798721516 7.26965
52.00732856494335 7.28159
52.03229530577543 7.3114300000000005
52.057071130455945 7.2447
52.081849571391054 7.23417
52.106630630568695 7.236680000000001
52.13160794279417 7.18681
52.15639426492067 7.185410000000001
52.18118321127822 7.20966
52.205974783860896 7.196289999999999
52.23096269971011 7.1744699999999995
52.255759551287994 7.143610000000001
52.280559035098186 7.13658
52.30536115314103 7.1092699999999995
52.33035970494467 7.1252699999999995
52.35516711807904 7.09767
52.37997717147198 7.09213
52.40478986713005 7.067080000000001
52.42979908731974 7.0455
52.454617094216 7.03494
52.47943774942214 6.9897100000000005
52.50426105495102 6.994839999999999
52.529280976059844 6.956180000000001
52.554109609024096 6.994039999999999
52.57894089837482 6.975280000000001
52.60377484613117 6.9229899999999995
52.62880550079408 6.92868
52.65364479223379 6.87328
52.67848674816189 6.849939999999999
52.70352547971946 6.86234
52.72837279155837 6.87033
52.753222773982785 6.897
52.778075429022984 6.872210000000001
52.80312495150885 6.82717
52.827982978797436 6.79568
52.85284368481815 6.80185
52.87770707160767 6.7687
52.90276741793998 6.7462800000000005
52.92763619336701 6.77596
52.952507655698504 6.7165300000000006
52.977381806977576 6.73957
53.00245301017842 6.7334
53.02733256653592 6.68315
53.052214817996074 6.6959
53.077099766608484 6.68054
53.102181859804446 6.636260000000001
53.127072229988265 6.679639999999999
53.15196530349892 6.6380300000000005
53.17686108239249 6.603280000000001
53.20195409881522 6.625189999999999
53.22685531582556 6.6266300000000005
53.25175924441303 6.62983
53.27666588664027 6.57265
53.30176985962693 6.54354
53.3266819565689 6.56278
53.35159677336455 6.5284699999999996
53.376514312083096 6.4932
53.40162927507703 6.51485
53.42655228516116 6.4855599999999995
53.45147802340193 6.47809
53.47660125628886 6.39781
53.50153247842639 6.43647
53.52646643496923 6.38779
53.55140312799818 6.40541
53.576537409691696 6.39233
53.60147960336152 6.38048
53.626424539786164 6.37349
53.65137222105307 6.34713
53.67651758529126 6.36559
53.70147078399681 6.34209
53.72642673383343 6.3070900000000005
53.75138543689533 6.31019
53.776541917524526 6.32544
53.801506154876755 6.2739199999999995
53.826473151763246 6.2836300000000005
53.851442910284916 6.26871
53.87661054126026 6.25021
53.9015858509782 6.22175
53.92656392866066 6.18981
53.95154477641532 6.22239
53.976723591801296 6.20138
54.00171000771266 6.14541
54.02669920004598 6.15359
54.051691170915745 6.11501
54.076881204886796 6.12429
54.101878760928514 6.06055
54.12687910187696 6.06525
54.152077577768296 6.08664
54.1770835166946 6.06061
54.20209224691339 6.025869999999999
54.22710377055121 6.05382
54.25231352511594 6.03397
54.27733066384342 5.97877
54.30235060239643 6.02494
54.32737334290836 5.96559
54.35259441062629 5.90971
54.377622783395324 5.97129
54.40265396455061 5.90453
54.42768795623251 5.8644300000000005
54.45292037169559 5.87637
54.477960012857906 5.86702
54.50300247099511 5.85415
54.52804774825457 5.82092
54.55329154616743 5.84152
54.57834249018678 5.7832
54.6033962597977 5.77209
54.6284528571545 5.77583
54.653708072335164 5.7320400000000005
54.67877035378786 5.70217
54.70383546947698 5.69236
54.72890342156389 5.67251
54.7541700889442 5.59143
54.77924374251975 5.57032
54.8043202390049 5.5846599999999995
54.82959552413022 5.59117
54.8546777351945 5.5560599999999996
54.87976279569621 5.48915
54.90485070780914 5.58366
54.930137506558005 5.56038
54.95523115074295 5.533980000000001
54.98032765308844 5.446940000000001
55.005427015775496 5.46558
55.03072536339621 5.47008
55.05583047570572 5.409269999999999
55.080938454927676 5.41791
55.10604930325027 5.42656
55.131359235107396 5.398280000000001
55.15647585066083 5.341480000000001
55.181595341907496 5.32715
55.20671771104285 5.28493
55.232039262617704 5.31416
55.25716741665048 5.25407
55.28229845518636 5.21191
55.30743238042802 5.20815
55.33276558731939 5.1021
55.357905315183636 5.14728
55.383047936390035 5.16324
55.40819345314859 5.08542
55.433538351073295 5.08782
55.458689688238415 5.09984
55.483843927614096 5.05277
55.509197623043605 4.97823
55.53435769621134 5.0006900000000005
55.55952067826466 4.97651
55.5846865714265 4.9122
55.61005202069737 4.902909999999999
55.63522376553902 4.92887
55.66039842818645 4.91121
55.68557601087004 4.87641
55.7109532500271 4.85036
55.73613670233794 4.8655800000000005
