TT I
1.2716486653135266 6.71213
1.2939594142134223 6.9478100000000005
1.3162702121660406 6.4193
1.3385810600174564 6.02724
1.3608919586137629 6.136080000000001
1.383202908801069 6.0128
1.405513911425503 5.62402
1.4278249673332093 5.613180000000001
1.4501343378461518 5.88143
1.4724455028545926 5.17801
1.4947567236847858 5.81945
1.517068001182951 6.20298
1.5393793361953272 5.82452
1.5616907295681737 5.40074
1.5840021821477681 5.2342
1.60631369478041 5.03845
1.6286252683124185 4.3019300000000005
1.6509369035901333 5.13235
1.6732468618895553 4.3274300000000006
1.695558623192809 3.9438699999999995
1.7178704487808514 4.58266
1.7401823395001077 4.61461
1.7625012545597203 4.170380000000001
1.7848028405262486 4.1185599999999996
1.8071218901122095 4.18565
1.8294236121921872 3.69458
1.8517427996910911 4.21702
1.8740620574440425 4.3592699999999995
1.8963639900671978 3.9324800000000004
1.9186833908139995 3.9547800000000004
1.9409854680117449 4.5756
1.9633050151394713 4.28337
1.9856246367570705 4.21983
2.0079269371922672 4.58067
2.03024671027244 4.22697
2.0525491637446027 4.0993699999999995
2.074869091674931 3.7981199999999995
2.097171701569106 3.87569
2.1194917877373847 4.592
2.141811954326636 4.7731900000000005
2.164114805233074 4.4983
2.186435135143035 5.15372
2.208738150935709 4.88621
2.231058647554722 6.653810000000001
2.2533792288321184 6.1193599999999995
2.275682498336085 5.02848
2.298003251406138 5.04971
2.3203066942619714 4.983230000000001
2.3426276225136022 5.00407
2.3649486396617507 5.30579
2.387252348930071 5.98445
2.4095735463442893 5.929469999999999
2.4318774374315884 5.83957
2.4541988185014043 6.38794
2.476502894794693 6.9832600000000005
2.498824462909887 7.748130000000001
2.521146125856138 7.3140600000000004
2.5434504863470337 7.95883
2.5657723414244717 8.1747
2.588076895590662 8.32381
2.610398946189713 8.20449
2.6327210958598384 8.38696
2.6550259469304716 8.56893
2.6773482972090137 8.81723
2.6996533504259 8.749239999999999
2.7219759047039602 9.71064
2.744298562293959 9.05211
2.7666039251246595 8.50469
2.7889267918020164 8.137
2.8112323652516555 8.26706
2.833555444408179 9.157169999999999
2.8558786311183852 8.98833
2.8781845268938557 9.36771
2.9005079311721484 9.446019999999999
2.9228140460410397 9.34788
2.9451376712799635 8.74255
2.967444008632326 8.799539999999999
2.9897678582247247 9.550989999999999
3.0120918213106695 10.1775
3.0343984987899373 10.7091
3.0567226913198637 11.3106
3.079029599759726 12.0346
3.101354025127254 12.3975
3.123678568232338 12.7557
3.145985829517914 12.4205
3.16831061055229 13.1885
3.1906181112775593 13.9183
3.212943133635653 14.2594
3.2352682779763207 14.6377
3.2575761442691227 14.9356
3.2799015350264273 15.0641
3.302209649240067 16.2459
3.3245352898092655 16.1594
3.3468436553365257 16.6768
3.369169549113219 16.4194
3.3914955708171384 17.3152
3.413804319727358 17.9695
3.4361305997334863 18.3926
3.4584396084414553 18.8677
3.4807661501462652 19.3524
3.503092824025881 20.253
3.5254022288463154 20.0814
3.5477291695206588 20.3195
3.5700388426251948 20.4362
3.5923660534916446 21.0304
3.6146934007816114 22.2052
3.637003482731501 27.3137
3.6593311053109985 29.5822
3.681641464033634 26.1616
3.7039693653009733 23.7206
3.726297407241705 23.9353
3.7486081875460804 24.1614
3.7709365132734978 24.5895
3.793247578841633 24.8464
3.8155761917550093 25.198
3.8378875459837216 25.8034
3.8602164494827234 26.141
3.882545499606844 27.2128
3.9048572932539183 27.4328
3.9271866390645718 27.7247
3.9494987298666713 28.0331
3.971828374764527 28.4909
3.9941581705403255 28.9944
4.016470713506008 29.8638
4.038800813471445 30.5715
4.061113662089144 30.7712
4.0834440696459176 31.4838
4.105774632334751 31.743000000000002
4.128087945865126 32.571999999999996
4.150418821249301 32.6734
4.172732448931298 33.3799
4.195063640413578 34.1385
4.2173775856475215 35.5683
4.239709096631102 37.9005
4.262040768704612 51.8165
4.284355196706267 63.7067
4.306687193387355 56.3166
4.329001947444346 44.1786
4.35133427213731 40.5241
4.373666762177566 40.7116
4.395982011761091 41.1483
4.418314834921175 42.0136
4.44063041906622 43.5356
4.4629635787515625 44.9677
4.4852969080429785 46.0801
4.5076130004776225 46.2855
4.529946671403969 47.2282
4.552263106909177 47.1789
4.574597122877047 48.0999
4.596931312711224 49.4896
4.619248269273446 50.6479
4.6415828092605835 51.7009
4.663900117405352 53.233000000000004
4.686235010953232 54.3048
4.708552674085913 55.1985
4.730887924602802 56.8195
4.753223354952695 58.257
4.775541557023902 59.3507
4.797877349456786 60.8554
4.820195915032126 63.0787
4.842532072957498 64.2414
4.864868414979744 66.1657
4.88718753227192 68.116
4.909524244902505 69.7346
4.931843734218147 71.5494
4.954180820867835 74.5942
4.976518095879839 77.5408
4.998838149695359 79.6352
5.021175803844231 83.0834
5.043496238205739 86.06
5.065834274903528 90.0525
5.088172504230693 93.7379
5.1104935158799565 98.0735
5.132832132875765 105.571
5.155153533596801 118.19200000000001
5.1774925416746225 137.77100000000002
5.199814334878411 233.3
5.2221537374521505 812.122
5.244493338631803 2540.6
5.266815727034316 7267.22
5.289155727832427 13679.3
5.311478517248165 9631.34
5.333818921080011 3314.25
5.356159527788849 667.905
5.3784829252032536 203.512
5.400823940070432 143.687
5.423147747031976 123.484
5.445489173474152 113.65299999999999
5.467830807066149 108.585
5.490155234831516 104.59299999999999
5.512497285125229 101.85
5.534822130975162 99.7838
5.557164601388673 97.5735
5.579489868738879 94.9884
5.601832762690846 93.579
5.6241758697774475 92.2171
5.646501775867269 91.53399999999999
5.668845311622074 91.0059
5.691171647754637 90.3603
5.713515615597765 89.0242
5.735859800852677 87.8063
5.758186788542988 86.7661
5.780531411018185 87.1509
5.802858837297399 86.5588
5.825203900414495 86.3371
5.8475491852224 87.24600000000001
5.869877275883075 87.4625
5.892223006467101 88.3416
5.914551544266608 89.1753
5.936897724049891 90.9809
5.959244129804903 95.2333
5.981573344815301 106.917
6.0039202049061 165.707
6.026249875609095 400.534
6.04859719346037 897.206
6.070927323278297 2066.65
6.093275102315365 4462.31
6.115623113320588 5519.36
6.137953938319995 3719.76
6.160302415650845 1100.46
6.182633708324452 239.146
6.2049826554078376 109.51100000000001
6.227331838745022 86.8829
6.249663839443684 79.9319
6.27201349767565 76.0058
6.294345974611799 74.2168
6.316696111167083 73.0873
6.339046488263839 71.5971
6.361379686074702 68.8441
6.383730546639482 66.751
6.406064229255215 65.2644
6.428415576718203 64.4279
6.450749747566656 63.6926
6.47310158535871 62.5809
6.495453669698332 62.0284
6.517788579421056 61.2795
6.540141159237969 60.3058
6.562476565766648 59.553999999999995
6.5848296444934045 58.928000000000004
6.607182974060425 58.7249
6.6295191323281015 58.1889
6.651872965955752 57.8485
6.6742096296068985 58.8208
6.6965639707294615 63.2502
6.71891856698715 64.0952
6.741255995248479 60.1791
6.763611104154477 56.8309
6.785949046381137 55.1488
6.808304671371482 54.6083
6.8306605557940046 54.5055
6.852999275508618 53.5267
6.875355681171544 53.7558
6.897694923437771 53.7351
6.92005185377892 53.5694
6.9423916220322655 53.3498
6.964749080490181 53.0323
6.987106804399774 52.8524
7.009447368180821 52.8424
7.031805625367033 52.3393
7.054146723727803 52.5146
7.076505517631004 52.4868
7.098864581288365 52.2289
7.121206488070854 51.7692
7.143566093607822 51.5981
7.165908543567245 51.971000000000004
7.188268694426048 51.913000000000004
7.2106291193438095 51.2908
7.232972390625943 51.1253
7.255333366030969 51.7177
7.277677189091925 55.6306
7.300038718428332 61.7922
7.322400526130865 61.0696
7.344745183422596 55.7766
7.367107550224791 52.1492
7.389452767901992 51.7383
7.411815697249891 51.7292
7.434161478756298 51.1832
7.456524974096713 51.5162
7.478888753837185 51.6313
7.501235387657368 52.9072
7.523599738562711 58.2159
7.545946944825532 66.9033
7.568311870344528 70.8263
7.5906770845765665 63.7626
7.613025156078678 56.1306
7.635390950099687 53.6914
7.657739602662809 52.5903
7.680105979923558 52.8664
7.702472650212829 53.2461
7.724822180948224 52.8052
7.747189439655568 53.2888
7.769539560075357 53.0752
7.791907410653562 53.8049
7.81425812420825 53.7749
7.836626570110925 53.8799
7.858995315087906 54.6434
7.881346924933401 55.1563
7.903716270417482 55.407
7.926068482028405 55.9859
7.948438431475253 56.3591
7.9708086843180235 56.9937
7.993161805171116 57.3141
8.015532667162402 57.8792
8.037886398416653 58.6709
8.060257873014221 59.1544
8.082629655331942 59.4754
8.104984308787587 60.3704
8.127356708900503 61.3932
8.149711981398308 62.5714
8.172085002766314 63.2496
8.194458336181368 64.0887
8.216814543847752 64.6604
8.23918850371002 65.7165
8.26154533906492 66.8298
8.283919928836452 68.4078
8.306277395339652 69.2142
8.328652618483376 70.9416
8.351028159736202 72.0911
8.373386579575245 73.9129
8.395762759396959 75.5964
8.418121819038275 78.0088
8.440498640894003 81.6099
8.462875785192262 86.414
8.485235811156207 94.7464
8.507613602688501 130.119
8.529974277114228 233.763
8.552352719347912 383.76
8.574731488360351 626.445
8.59709314210385 1121.38
8.619472567021075 1846.94
8.64183487789147 2282.77
8.664214962183097 1953.38
8.686577933647762 1090.2
8.708958680784317 417.228
8.731339760774953 173.87
8.753703729764451 109.318
8.77608547780821 95.0808
8.798450116065078 91.4715
8.820832535634787 88.7244
8.843215292401656 87.3523
8.865580941199045 85.9288
8.887964374703538 84.6095
8.910330701447199 83.9599
8.932714815164482 83.5882
8.955099270424924 82.5419
8.977466620733543 81.8721
8.999851761421976 81.1851
9.022219798361645 80.5535
9.04460562795561 80.1427
9.066991803441677 80.1222
9.089360876979615 79.6657
9.111747746589993 79.7977
9.13411751544971 79.3477
9.156505082664324 79.0647
9.178875550323522 79.3794
9.20126381862328 81.8426
9.223652438908596 90.4336
9.246023961427412 104.70299999999999
9.26841328802173 110.234
9.290785518039224 100.11200000000001
9.313175554425882 88.0437
9.335565947154315 81.342
9.357939245086508 80.1358
9.380330352834827 80.2623
9.40270436697103 80.1331
9.425096193225055 79.8389
9.447488380180165 80.4552
9.469863475295412 80.8027
9.492256385987508 81.2721
9.514632206018318 82.0545
9.537025843935714 82.3295
9.559402392368193 82.5492
9.581796761000229 83.6155
9.604191496441521 83.9191
9.626569144158516 84.6741
9.648964615551032 85.6065
9.671343000390081 86.7122
9.693739211225699 87.4863
9.716135793237463 87.8563
9.738515290448102 88.7548
9.760912617143402 89.7223
9.783292860202891 90.5871
9.805690935076182 92.1233
9.828089385495742 92.479
9.850470754023561 94.3279
9.872869957865444 96.3808
9.89525208097539 99.1753
9.917652041736662 102.865
9.940052382417589 106.807
9.962435644102392 115.899
9.984836746950979 148.278
10.007220771957746 230.185
10.029622640473708 354.931
10.052007432299963 524.12
10.074410069984072 784.4580000000001
10.096813093716005 1207.52
10.119199042482517 1771.32
10.141602840636468 2080.04
10.163989564971628 1700.92
10.186394141051062 1014.47
10.208799107559706 438.99699999999996
10.231187001965623 198.565
10.253592751657669 124.765
10.275981430388155 107.84200000000001
10.298387966769793 103.215
10.320794897965431 102.39399999999999
10.343184759907361 100.866
10.36559248305461 99.0022
10.387983138083852 98.0033
10.410391656691655 98.9373
10.432800574501677 108.146
10.455192425893369 130.722
10.47760214443012 163.895
10.499994797678786 205.78099999999998
10.522405320453982 275.774
10.54479877906917 389.05300000000005
10.567210109595656 515.385
10.5896218454736 594.827
10.612016518879773 576.0269999999999
10.634429067781074 401.56800000000004
10.656824555333241 227.574
10.679237920773568 139.537
10.701651695961992 102.816
10.724048411481384 91.9551
10.746463008485165 86.1933
10.768860546937125 82.59299999999999
10.791275969274796 80.0642
10.81369180576079 79.0797
10.836090585366925 77.8272
10.858507252467449 76.6101
10.88090686379991 75.5905
10.903324365036394 74.9566
10.925724811614439 73.7399
10.948143150509463 73.5163
10.970561909719066 72.6754
10.992963615930844 71.9143
11.015383218085756 70.9871
11.037785768347074 70.2374
11.06020621697282 69.8252
11.082627090322113 69.0135
11.105030913430326 68.1238
11.12745263854165 67.7511
11.149857314510728 67.4707
11.172279894912576 67.8671
11.194702904450653 67.2791
11.217108866490921 66.5755
11.239532736615194 65.7529
11.26193956033512 65.479
11.284364294577085 65.0727
11.306789462371718 64.2763
11.329197585398376 63.6792
11.351623622610898 64.119
11.37403261614354 63.321000000000005
11.396459526308487 63.0158
11.418869393879497 62.7087
11.441297180532617 62.4338
11.463725406927658 62.175
11.486136592353875 61.831
11.508565700543707 61.4653
11.530977768845315 61.568999999999996
11.553407762368774 61.2825
11.575838200059769 61.4252
11.598251599479612 60.948
11.620682927815501 60.726000000000006
11.64309721895548 60.5578
11.665529441478206 60.3855
11.687962112597958 60.0325
11.710377748130886 60.3949
11.732811318753434 60.4439
11.755227854859067 60.2233
11.777662328529495 60.0004
11.800079768750786 59.7743
11.822515149015453 59.468
11.844950984084935 60.0403
11.867369787303163 59.9413
11.889806534289491 60.2702
11.912226250487029 61.9396
11.934663912939751 64.7577
11.9571020346363 67.3759
11.979523127133968 67.6804
12.001962169624331 65.8586
12.024384183972964 63.6259
12.046824150809913 64.5069
12.069264581333726 70.0683
12.091687985297767 77.2459
12.11412934550045 86.9826
12.136553680195208 99.9516
12.158995973632788 121.374
12.181438735204349 147.261
12.20386447284199 178.84099999999998
12.226308172985636 203.757
12.24873485024193 209.915
12.271179492516982 174.88
12.293607112949127 134.157
12.316052700916226 96.36
12.338498763250042 73.8328
12.360927805303868 64.734
12.383374818673879 62.1489
12.405804812803074 61.3313
12.428252780773262 61.2148
12.45070122756722 60.9798
12.473132656675375 61.051
12.49558206341869 61.483999999999995
12.518014453510101 61.3746
12.540464823770117 61.4059
12.562915677315177 61.6745
12.58534951575545 62.1732
12.607801338171472 62.1553
12.630236146511358 62.738
12.652688941369085 63.7884
12.675124723177234 64.0836
12.697578494048786 64.4275
12.720032754458185 64.2471
12.742470003354093 64.497
12.764925245138771 64.8893
12.787363476431278 65.4397
12.809819703166806 65.3456
12.83227642391173 65.9205
12.854716135692716 66.531
12.877173846755147 67.6076
12.899614549869717 67.9582
12.9220732548287 69.0245
12.94453245827299 69.4977
12.966974655289818 70.307
12.989434858002571 71.0404
13.011878055298721 72.0598
13.034339260862497 72.7992
13.056800969391883 74.3367
13.079245674017244 76.5745
13.101708390774869 78.4144
13.12415410463411 82.24799999999999
13.146617833206086 92.9973
13.169064559883248 108.76
13.191529303857127 127.56700000000001
13.213994557076367 149.644
13.236442809902437 182.761
13.258909083908291 232.024
13.28135835851934 293.861
13.30382565690295 371.12199999999996
13.326293469022952 439.395
13.348744283242008 451.369
13.371213125129904 376.778
13.39366497011003 276.505
13.416134845360597 182.074
13.438605238843131 124.78299999999999
13.46105863690397 101.959
13.483530069144786 99.4381
13.505984506951902 107.69
13.528456981549432 120.959
13.550929978879088 136.89600000000002
13.573385983253365 158.685
13.595860028340867 191.271
13.618317081455832 238.045
13.64079217790333 300.01599999999996
13.663250283359057 357.53
13.685726434770173 388.699
13.708203115221277 359.31300000000005
13.730662806148091 285.652
13.75314054697177 204.205
13.775601299246777 137.457
13.798080104050406 99.7356
13.820559442405358 84.4702
13.843021793671388 79.7085
13.865502201420897 77.6339
13.887965623051947 77.2221
13.910447103807167 76.0322
13.932929122629764 74.5313
13.955394156785959 74.44
13.977877254034569 73.3764
14.000343367582113 72.63
14.022827546871707 71.994
14.045294743423524 71.2561
14.06778000837062 70.9778
14.090265817715476 71.0706
14.112734645763819 71.6649
14.13522154619454 73.0048
14.157691466286913 74.5522
14.180179461423874 74.8478
14.202668005486178 73.0678
14.22513957064374 70.4589
14.247629214846473 68.8831
14.270101881097517 68.0208
14.29259262906496 67.4825
14.315083930490205 67.6204
14.337558255389705 67.4265
14.360050666019726 67.1897
14.382526101071944 66.8788
14.405019624534942 66.653
14.427513705993134 66.5052
14.449990813291825 66.5678
14.47248601302899 66.4799
14.49496423954951 66.5219
14.517460561197822 66.6261
14.539939910570322 66.4712
14.562437357763558 66.4206
14.58493536931253 66.8735
14.607416409993311 66.6708
14.62991555254159 67.3423
14.652397725157423 67.5204
14.674898002342799 67.5474
14.697398848433282 67.7816
14.719882725991326 68.4224
14.74238471217934 68.8277
14.764869730765593 70.7027
14.787372860692983 74.6165
14.809876564079925 81.7812
14.83236330125751 89.4186
14.854868153850365 98.3878
14.877356041159485 110.927
14.899862046604186 126.984
14.922351087688757 149.556
14.944858249632887 180.53599999999997
14.967365991421232 209.148
14.989856770231246 228.38400000000001
15.012365673994204 226.058
15.03485761569738 199.19799999999998
15.05736768508665 157.869
15.07987833888692 120.314
15.102372032001655 93.2798
15.124883856909658 77.2932
15.14737872204565 71.2033
15.169891721717274 68.9443
15.192405310371893 67.9724
15.214901940621196 67.1824
15.237416709527137 66.5604
15.259914520936249 66.5292
15.282430473753607 65.6606
15.304947020131227 65.3908
15.327446610371178 65.156
15.349964346154254 64.4911
15.372465126703139 64.384
15.394984055556009 64.4994
15.417486030076159 64.1564
15.44000615566487 64.0173
15.462526881230803 63.6371
15.485030653812652 63.6289
15.507552581617434 63.467
15.530057557334603 63.4858
15.55258069104857 63.7245
15.575104429329837 63.8071
15.597611216864632 63.674
15.620136166564563 63.8109
15.6426441664095 64.0698
15.665170331202765 65.321
15.687697105158826 68.7103
15.710206930593545 74.2456
15.732734925158933 80.1185
15.755245972089478 87.3547
15.77777519094324 95.6787
15.800287463046663 106.664
15.822817909869592 123.521
15.84534897229804 144.59
15.867863089299354 169.8
15.890395385222186 190.998
15.912910736597423 203.451
15.935444269699861 193.956
15.957978423016485 168.49200000000002
15.980495633101265 133.901
16.003031029129367 103.765
16.02554948280019 81.0687
16.048086125229432 69.354
16.070623392487107 64.5388
16.09314371869582 62.6188
16.11568223789321 61.1197
16.13820381691126 59.9864
16.160743591742527 58.9838
16.183283996022084 58.3825
16.205807461423195 57.746
16.228349126881973 56.99100000000001
16.25087385432698 56.7707
16.27341678466365 56.2305
16.29594277784926 56.0235
16.31848697676433 55.7731
16.341031811604868 55.1996
16.36355971058487 55.2442
16.3861058195587 54.9621
16.40863499352978 54.613
16.431182380342005 54.3739
16.453730407713202 53.9682
16.476261501364792 53.7223
16.498810812136167 53.5366
16.52134319004079 53.7068
16.54389378792203 53.4647
16.566445031001553 53.3112
16.588979342490088 52.989
16.61153187824822 53.1183
16.634067483263312 52.7973
16.656621315414416 52.79600000000001
16.679175797408888 52.7476
16.701713349928728 52.8651
16.72426913389191 52.9973
16.74680798922351 52.8612
16.76936507887444 52.9368
16.791905240734874 52.9289
16.814463639794468 52.8894
16.837022695210294 52.7687
16.859564824093756 53.0241
16.882125194503903 53.225
16.904668639217885 53.8167
16.927230328348003 53.8142
16.949792678493612 54.2496
16.972338104193863 54.2083
16.994901778652235 53.9222
17.017448529496576 53.8231
17.040013531998152 53.8416
17.06257920018044 54.0394
17.0851279459922 54.9334
17.107694947817667 56.1645
17.130245028099072 57.1666
17.15281336730298 58.528
17.17536478578733 60.4855
17.19793446610687 62.227
17.220504818648422 65.0246
17.243058251703697 68.0496
17.265629950971032 72.2975
17.288184731571736 77.439
17.310757781306908 81.7429
17.33333150794385 82.9708
17.355888317140174 82.4825
17.37846339986244 78.6462
17.401021565958885 71.9334
17.42359800851343 65.8536
17.44617513265564 61.3192
17.468735341390783 58.9948
17.491261035594565 57.6182
17.51396340099364 57.2592
17.536490463869136 57.3875
17.559018209820174 57.1859
17.58154663977963 57.3644
17.604251766089718 57.5207
17.626781572227713 57.7457
17.64931206518155 57.9394
17.671843245885103 58.3102
17.69455114821572 58.2721
17.717083712612634 58.7996
17.739616967569667 59.4737
17.762150914021706 60.1324
17.78486160749854 60.119
17.807396945166804 60.6143
17.829932977143503 61.2069
17.85246970436452 61.9597
17.875183204129467 63.8241
17.897721330097664 66.9114
17.920260154126645 70.0258
17.942799677153296 73.8745
17.9655159983646 77.887
17.988056927677544 82.5831
18.010598558807683 89.2549
18.033140892692916 98.0841
18.05586005052525 109.321
18.07840379824407 121.311
18.10094825154059 133.414
18.12366954819864 142.654
18.146215420998306 144.213
18.16876200220057 137.553
18.191309292745153 123.446
18.214033452627167 108.727
18.236582170236648 95.7425
18.259131600016456 88.3405
18.281681742907335 86.0462
18.304408781233683 89.04799999999999
18.32696035875955 94.3138
18.349512652227624 99.5457
18.372065662579683 105.339
18.394795594587553 107.13
18.41735004715306 104.569
18.43990521943684 98.1479
18.46246111238171 88.6477
18.485193953325208 78.6181
18.507751296070428 70.4617
18.530309362314178 65.6071
18.552868153000343 62.9676
18.57560391815056 61.245
18.59816416623245 60.7585
18.620725141597372 60.1498
18.643286845190268 59.476000000000006
18.666025549835414 58.8436
18.688588718427933 58.0848
18.711152618092243 58.2098
18.73389353884365 57.8952
18.75645890921984 57.4708
18.77902501351406 56.9156
18.801591852673102 56.9966
18.824335739722738 56.5479
18.846904057212626 56.4677
18.8694731124168 56.2595
18.89204290628315 56.2853
18.914789774966803 56.0712
18.937361054791623 55.6333
18.959933076131318 55.3379
18.982505839934877 55.5147
19.00525570560582 55.4983
19.027829963004184 55.1181
19.05040496572238 55.0638
19.072980714710468 55.1625
19.095733592739563 55.1469
19.11831084296757 55.6139
19.140888842324735 56.077
19.16346759176222 56.6159
19.18622349753803 57.2036
19.208803755869358 58.1452
19.231384767143577 59.2322
19.253966532312948 60.8323
19.276725481241822 63.0195
19.29930876296784 65.6714
19.3218928014549 68.8098
19.34465404436217 71.9716
19.36723960516257 74.508
19.389825925592426 75.74600000000001
19.412413006605938 75.0984
19.43517731967805 72.171
19.457765930683355 67.8415
19.48035530514408 63.1222
19.50294544401556 59.2833
19.525712842708348 56.2184
19.54830451925909 54.6525
19.570896963095727 53.0899
19.593490175174704 52.6474
19.616260674962184 52.652
19.638855432416964 52.1891
19.661450960992624 52.323
19.68404726164677 52.2051
19.706820878021247 51.8483
19.729418731756834 52.1102
19.752017360452857 51.818999999999996
19.77461676506804 51.9697
19.797393513540218 52.0178
19.819994478951667 52.2152
19.84259622316767 52.7736
19.8651987471481 53.5319
19.887978643247177 53.8748
19.91058273574792 54.4888
19.933187610901943 55.4184
19.955969879466828 56.4451
19.97857632894404 57.6774
20.00118356396599 59.0491
20.023791585494575 61.027
20.046577028914875 64.1678
20.069186632506966 66.7496
20.091797025500632 69.0919
20.114408208858933 70.4997
20.137196842715273 70.6379
20.159809615886765 69.3232
20.18242318232135 66.6844
20.20503754298326 64.0183
20.227829382875154 62.5157
20.250445341109344 61.8501
20.27306209647285 62.4142
20.29567964993108 63.655
20.31847471147704 64.7853
20.34109387027612 65.4072
20.363713830075454 65.446
20.386334591841646 64.1041
20.409132890679302 61.6203
20.431755265564437 58.3056
20.454378445325528 55.2582
20.477002430930366 52.8303
20.499803982716553 51.302
20.522429589228004 50.0394
20.54505600449589 49.4685
20.567683229489194 49.4212
20.590488049900088 49.1397
20.61311690359731 48.8973
20.63574656993626 48.8429
20.658553853717297 48.5403
20.681185154618298 48.4149
20.703817271080066 48.273
20.72645020407368 48.0816
20.749260783967177 47.9899
20.771895359337133 48.0855
20.794530754161617 48.2669
20.817166969412938 48.0988
20.83998086114876 47.9105
20.86261872660049 47.5217
20.885257415405402 47.5567
20.90789692853701 47.3825
20.930714147864748 47.3742
20.953355319030678 47.3041
20.97599731745334 47.486000000000004
20.99864014410749 47.331
21.021460706796564 47.3904
21.044105199328826 47.7416
21.06675052302631 47.8586
21.089396678865015 48.0664
21.112220600704806 48.2927
21.134868430275347 48.7088
21.15751709492456 48.688
21.180166595629693 49.043
21.202993892429635 49.5252
21.22564507473034 50.047
21.24829709602816 50.4359
21.27112693608965 50.7133
21.293780644891275 50.6078
21.316435195634053 49.8675
21.339090589297417 49.1837
21.361923832041875 48.6396
21.384580921090404 48.0716
21.407238856007325 47.5069
21.429897637773326 47.5463
21.45273429906592 47.4326
21.475394784108598 47.5079
21.498056118951983 47.3194
21.520718304578022 47.6047
21.543558400304388 47.538000000000004
21.566222297108816 47.4924
21.58888704765135 47.595
21.61155265291521 47.9324
21.63439619898156 48.5453
21.657063523335786 48.9164
21.67973170537063 49.5948
21.7024007460706 50.0126
21.72524775840385 50.7836
21.747918526116475 51.9249
21.770590155457388 52.9923
21.79326264741238 54.5276
21.816113141960237 56.1242
21.838787368860547 58.1672
21.861462461341976 60.4304
21.884315579735777 62.6998
21.90699241312273 64.5588
21.92967011506078 65.3623
21.95234868653799 65.2532
21.9752053151131 63.9606
21.997885635446785 61.9114
22.020566828293532 59.8506
22.04324889464272 57.7837
22.066109049404666 56.4181
22.088792872571794 56.0631
22.111477572219204 56.0594
22.1341631493376 56.1668
22.157026846313123 56.052
22.179714188221507 55.2488
22.202402410582668 54.2994
22.22509151438863 52.6689
22.24795876962584 51.2484
22.270649646204486 49.9823
22.293341407213727 49.0953
22.316034053646906 48.4962
22.338904883215342 48.0242
22.36159931041458 47.9736
22.38429462602756 47.8033
22.40699083104897 47.3831
22.429865251039757 47.5671
22.452563244831367 47.5381
22.47526213102522 47.5975
22.49813925616515 47.5512
22.520839937143307 47.4635
22.543541513520587 47.4102
22.56624398629403 47.511
22.589124730075895 47.549
22.611829005656723 47.7419
22.63453418063466 47.7372
22.657240256008077 47.729
22.680124634582935 47.8485
22.70283252079775 48.4198
22.725541310413075 48.803000000000004
22.74825100442868 49.103
22.771139033969575 49.6724
22.79385054687155 50.013999999999996
22.81656296718292 50.4649
22.83927629590484 51.3745
22.862167992606945 52.3307
22.88488314827121 53.4399
22.907599215359284 54.4086
22.93031619487366 55.8265
22.953211574954405 56.9306
22.975930389478226 57.6714
22.998650119445763 57.9838
23.02137076586092 57.4612
23.044269845560063 56.2166
23.06699233506288 54.6732
23.089715744034912 52.6023
23.112617610931565 50.9912
23.135342869061212 49.5094
23.158069049684816 48.5489
23.1807961538087 47.9761
23.20370174880544 47.9502
23.226430710184808 48.003
23.249160598093425 47.8871
23.271891413539002 47.8823
23.294800752937697 47.9884
23.31753343374794 48.5038
23.340267045128353 48.473
23.36300158808808 49.0789
23.38591468821339 49.4173
23.408651104658304 49.7965
23.431388455719986 50.3812
23.454126742409 51.1533
23.4770436196085 52.1787
23.499783787914662 53.4132
23.522524894889884 54.6145
23.54526694154616 55.8255
23.56818761219047 57.1279
23.59093154860734 57.8445
23.613676427751283 58.5897
23.636422250635754 58.0178
23.659346731118656 56.4416
23.68209445191868 54.5494
23.704843119509587 51.9777
23.72759273490623 49.8807
23.750521041644767 48.0952
23.77327256312355 46.8018
23.796025035462787 45.9958
23.818956224555475 45.3446
23.841710609113413 45.1324
23.86446594758979 44.9462
23.887222241002014 44.7264
23.910157285144578 44.4037
23.932915498962537 44.3998
23.955674670778713 44.122
23.978434801611975 44.0744
24.001373717286125 43.9379
24.024135776723917 43.6347
24.046898798245582 43.698
24.06966278287146 43.5522
24.092605586582614 43.2747
24.115371508023642 43.1804
24.1381383956401 43.1802
24.16090625045381 42.9396
24.183852958731244 42.9615
24.206622758582608 42.8285
24.229393528706886 42.7661
24.252165270127392 42.7746
24.27511589952438 42.7585
24.297889594216997 42.4849
24.32066426328598 42.236999999999995
24.34343990775613 42.3579
24.36639447485003 42.336000000000006
24.38917208083877 42.3003
24.41195066531332 42.1069
24.43490819850244 41.9365
24.457688750692377 42.0159
24.48047028445616 41.9429
24.503252800821233 42.1679
24.526214300784112 42.1246
24.548998793132213 42.2955
24.57178427117417 42.135
24.59457073593893 42.284
24.617536219319863 42.1708
24.64032466834748 42.228
24.663114107195035 42.0383
24.685904536893013 41.9073
24.708874020360852 41.7405
24.731666442613744 41.6589
24.754459858818787 41.5554
24.777254270007962 41.4183
24.80022777025625 41.2747
24.82302418230472 41.2112
24.845821592443674 41.376000000000005
24.86862000170663 41.3602
24.891597535453727 41.1194
24.914397953892728 41.4034
24.93719937456671 41.3621
24.96000179851076 41.57
24.98298338249997 41.7419
25.00578782394922 41.9072
25.028593271784167 42.042
25.05157790644186 42.5616
25.07438537804115 42.6804
25.097193859145293 43.0641
25.120003350792075 43.3405
25.142992065061257 43.6882
25.165803588823465 43.9405
25.18861612625217 44.3162
25.211429678386736 44.2269
25.234422489079968 44.4043
25.257238081693636 44.3715
25.280054692141732 44.4553
25.3028723214652 44.5354
25.325869245420463 44.748999999999995
25.348688923599397 44.7375
25.371509623787006 44.6832
25.394331347025812 44.4199
25.41733240110666 43.8972
25.440156181590016 43.1781
25.46298098826268 42.7463
25.48580682216873 42.0749
25.50881202326435 41.4356
25.53163992281684 40.9687
25.55446885274561 40.4996
25.577298814096377 40.2924
25.600308179121807 40.2284
25.623140214533745 40.2217
25.64597328451537 40.1169
25.66898578564376 39.7723
25.691820936010206 39.8021
25.714657124097695 39.6605
25.737494350954734 39.7782
25.760511045684957 39.5872
25.783350361364224 39.6761
25.806190718969255 39.6888
25.82903211955018 39.835
25.852053024868923 39.8116
25.874896522722523 40.0028
25.897741066713106 39.8598
25.920586657892454 40.0936
25.943611790812668 40.0688
25.966459487728237 40.2252
25.989308234998564 40.3837
26.01215803367705 40.5872
26.03518741123814 40.7919
26.05803932412957 40.9795
26.080892291600094 41.1279
26.10374631470478 41.2752
26.12677995397268 41.4737
26.14963609978026 41.3833
26.172493304397875 40.9593
26.19535156888223 40.8365
26.218389486949604 40.3567
26.241249882640123 40.0767
26.26411134137826 39.6732
26.28715248187403 39.6959
26.31001607820869 39.3983
26.3328807407756 39.333
26.35574647063438 39.3973
26.37879191991473 39.4021
26.401659795896734 39.5484
26.424528742360263 39.7024
26.447398760366614 39.8568
26.470448535598294 39.9858
26.49332070826805 40.1245
26.516193955675355 40.4731
26.53906827888316 40.7207
26.562122397260108 40.9236
26.584998883685063 41.2847
26.607876449110325 41.7559
26.63075509460056 41.9843
26.65381357334404 42.0416
26.67669439061878 42.0259
26.699576291163382 41.953
26.722459276044212 41.9539
26.745522132402975 41.5928
26.768407297649354 41.3653
26.791293550442003 40.8201
26.814180891848974 40.658
26.837248143099337 40.3149
26.860137673466657 40.1879
26.88302829566349 39.865
26.90592001075963 39.715
26.92899167420566 39.4715
26.951885586870763 39.0573
26.974780595655517 38.9564
26.99785558178161 38.9075
27.020752794605112 38.5913
27.043651106772522 38.3248
27.06655051935668 38.2738
27.089629948036183 38.2116
27.112531573292053 38.0493
27.135434302194138 38.0469
27.158338135817015 37.9246
27.181422024430987 38.0543
27.204328079372566 38.1011
27.22723524226965 38.078
27.250143514198573 37.9687
27.273231880156334 37.8732
27.296142382065014 37.7779
27.319053996245536 37.8847
27.341966723775965 37.821999999999996
27.365059584515222 37.8685
27.38797455070062 37.833
27.410890633481237 37.8916
27.433807833936918 37.8835
27.456905206923906 37.8848
27.47982465472398 37.9422
27.502745223449743 38.1312
27.525666914182825 38.2864
27.548768816912457 38.1099
27.571692763693633 38.0253
27.59461783573812 37.8879
27.617723149491244 37.6635
27.640650484125285 37.7505
27.66357894728264 37.6922
27.686508540048052 37.5905
27.709618414237887 37.4334
27.732550278321757 37.3812
27.755483275279115 37.4002
27.778417406196485 37.4851
27.801531858397514 37.3046
27.824468269376716 37.2572
27.847405817586786 37.3799
27.870344504116094 37.5793
27.893463551932008 37.7479
27.916404527281053 37.8262
27.93934664422563 37.9792
27.962289903855886 38.0867
27.98541356491974 38.3557
28.00835912214229 38.467
28.03130582533231 38.7214
28.054253675581805 38.951
28.077381967556104 38.815
28.100332124185126 38.9176
28.123283431160893 38.9131
28.146235889577238 38.696999999999996
28.169368830154156 38.5422
28.192323603752033 38.441
28.215279532083304 38.062
28.238415973016764 37.7346
28.261374223145094 37.6603
28.284333631303806 37.4611
28.307294198589954 37.3334
28.330435319167677 36.8886
28.353398217078915 36.6066
28.376362277420153 36.3465
28.39932750129032 36.0993
28.422473319286713 35.9033
28.44544088262495 35.9793
28.468409612800283 35.7072
28.491379510913497 35.5624
28.51453004413313 35.45
28.53750229057244 35.4474
28.56047570826344 35.4179
28.583450298308804 35.4377
28.606605564586562 35.1679
28.629582511831156 35.2383
28.65256063474956 35.1864
28.675539934446338 35.1774
28.698699951647605 35.1546
28.72168161743193 34.8704
28.74466446331978 34.9509
28.767648490417624 34.9014
28.790813276438353 34.859
28.813799678527303 34.8739
28.836787265157085 34.8791
28.859955641890075 34.9346
28.882945610203045 34.9137
28.905936766392035 34.7955
28.928929111566863 34.8698
28.952102288520145 34.8859
28.975097024308607 34.6252
28.998092952423807 34.5462
29.021090073977508 34.5777
29.04426806913204 34.328
29.067267590245258 34.165
29.090268308143695 34.0516
29.11327022394099 34.0643
29.13645305530891 34.0142
29.159457379627167 34.0356
29.18246290519685 33.939
29.20546963313352 33.9139
29.22865731875826 33.7442
29.25166646419296 33.9143
29.27467681535305 33.7791
29.29768837335608 33.8277
29.320880931312562 33.846
29.34389491580634 33.8828
29.366910110507334 33.772
29.38992651653503 33.8624
29.41312396492981 33.8578
29.436142806456754 33.7562
29.45916286268059 33.7648
29.48236399319994 33.5333
29.50538649169417 33.2646
29.528410208259935 33.2682
29.55143514402014 33.0942
29.574641196749695 32.8958
29.597668583816574 32.7734
29.6206971934585 32.6351
29.64372702680042 32.6545
29.666938019934474 32.5792
29.689970313635285 32.3855
29.713003834422636 32.4301
29.73603858342347 32.3269
29.759254535188578 32.1491
29.78229175361658 32.2371
29.80533020365064 32.3285
29.82836988641968 32.4861
29.85159081507472 32.294000000000004
29.874632976355343 32.2174
29.89767637376955 32.2519
29.920721008448314 32.1907
29.9439469322847 32.0733
29.96699405457564 32.1514
29.9900424175358 32.204
30.013092022298157 32.0453
30.03632295963995 31.9956
30.059375061131373 32.0897
30.08242840783577 32.1169
30.105483000888153 32.0481
30.128718970092244 31.8819
30.151776069006917 31.9479
30.17483441768648 32.0452
30.198074175317235 31.891
30.221135036724256 31.8868
30.24419715131772 31.9426
30.267260520236203 31.9115
30.290505341942243 31.7792
30.313571232750228 31.9517
30.336638381310948 31.8147
30.35970678876503 31.7903
30.38295669299435 31.7848
30.40602763151657 31.8275
30.429099832366074 31.7955
30.452173296685572 31.6575
30.47542830191959 31.6005
30.498504306502497 31.5474
30.521581577995562 31.6504
30.544660117543582 31.7193
30.56792024229725 31.7235
30.59100133132069 31.7851
30.614083691845494 31.5751
30.637167325018545 31.8503
30.660432587840603 31.9376
30.683518779717886 31.8407
30.70660624769615 31.765
30.729694992924372 31.8389
30.75296541239743 31.7801
30.77605672557558 31.705
30.799149319462742 31.781
30.8224236211637 31.6977
30.845518789950724 31.5999
30.868615242910597 31.4845
30.891712981195973 31.3865
30.91499247215866 31.3277
30.938092794619365 31.2214
30.96119440587579 31.1444
30.984297307082752 31.1006
31.00758200598383 30.9804
31.030687500658694 30.8929
31.053794288760695 30.8127
31.076902371446767 30.7215
31.100192296997445 30.7291
31.12330298246119 30.7054
31.14641496599209 30.6425
31.169528248749216 30.6318
31.19282341969534 30.5625
31.215939314557186 30.599
31.239056512134788 30.6002
31.262175013589378 30.4796
31.28547544871168 30.4904
31.30859657161541 30.4758
31.331719001892175 30.5324
31.35484274070538 30.5082
31.378148458819545 30.5875
31.401274828443725 30.4911
31.424402510106933 30.5135
31.447712205419993 30.6414
31.470842524931633 30.4949
31.493974159989783 30.5439
31.51710711176168 30.4583
31.54042212308802 30.4843
31.563557722100917 30.5473
31.586694641341655 30.361
31.609832881979628 30.1031
31.63315322823208 30.1866
31.656294125521327 30.1741
31.679436347728515 30.1269
31.70257989602529 29.8811
31.725905596152327 29.7873
31.74905181052835 29.7954
31.772199354521323 29.9189
31.79534822930507 29.851999999999997
31.818679302290967 29.7802
31.84183085259981 29.802
31.864983737233473 29.7823
31.88813795736804 29.8514
31.911474422233013 29.6952
31.934631327356435 29.8364
31.9577895715215 29.819000000000003
31.980949155906522 29.7224
32.004291031706956 29.6704
32.027453310562606 29.6389
32.05061693318573 29.4756
32.07396288236386 29.4869
32.09712920658542 29.4456
32.12029687812702 29.2458
32.14346589817093 29.1718
32.166817291729984 29.1314
32.18998902288583 29.0747
32.21316210610336 29.0956
32.23633654256711 28.9023
32.259693399663725 28.9176
32.282870556771144 28.765
32.30604907069099 28.7827
32.329228942610065 28.8383
32.35259128243769 28.5966
32.375773884550505 28.4953
32.398957848235646 28.588
32.422143174682176 28.4499
32.445511016471215 28.3453
32.468699082679954 28.4594
32.49188851523011 28.3257
32.51507931531304 28.2249
32.538452678331 28.2738
32.56164622776311 28.1615
32.58484114831493 28.031
32.60803744118015 28.0431
32.631416344731896 28.0521
32.654615396551876 28.0521
32.67781582427913 28.0272
32.701198898634416 28.0176
32.72440209253756 27.9524
32.747606665947124 27.9455
32.77081262006088 27.7569
32.79420126883317 27.7561
32.81740999876112 27.8338
32.840620112999424 27.6863
32.86383161274818 27.621
32.88722585534586 27.5992
32.91044014056596 27.6478
32.933655814909734 27.6047
32.95687287957963 27.5653
32.98027273544904 27.4866
33.00349259526636 27.4802
33.026713849030116 27.5774
33.04993649794511 27.4389
33.073341986570746 27.4474
33.09656744032826 27.5007
33.11979429286444 27.4509
33.14302254538647 27.578000000000003
33.166433686291185 27.4827
33.18966475336992 27.3583
33.212897224069096 27.2661
33.23613109959831 27.3138
33.259547912343415 27.2433
33.2827846121627 27.3624
33.306022720453775 27.2132
33.32926223842861 27.0857
33.352684742614166 27.1149
33.37592709463173 27.0916
33.399170859982064 27.0344
33.422597648419426 26.9232
33.44584425514446 26.8379
33.46909227885668 26.7326
33.4923417207723 26.6045
33.51577423505344 26.6117
33.539026528130385 26.6582
33.56228024307245 26.604
33.585535381098246 26.4119
33.60897364093058 26.3072
33.63223163992385 26.3698
33.6554910656699 26.3024
33.678751919389796 26.3445
33.702195944520106 26.2226
33.72545966903325 26.3092
33.74872482519663 26.191
33.771991414233746 26.1527
33.79544122444841 26.1608
33.81871069412428 26.0086
33.84198160035767 26.0052
33.86525394437455 26.0633
33.88870955949969 26.0092
33.911984794020626 25.9705
33.93526147001624 25.8989
33.958539588715006 25.842
33.98200102861669 25.8187
34.0052820477047 25.7915
34.02856451319451 25.7127
34.05203033759056 25.590999999999998
34.07531571090147 25.6062
34.09860253431845 25.6046
34.121890809074316 25.5312
34.145362493118924 25.5622
34.16865368561615 25.489
34.191946333164054 25.4735
34.21524043699793 25.3894
34.23871800066799 25.3875
34.26201503218366 25.2242
34.28531352370466 25.3108
34.30861347646881 25.1769
34.33209693978188 25.1574
34.3553998301885 25.1786
34.378704185565205 25.1457
34.402010007152356 25.0497
34.42549939016683 25.0784
34.44880815937748 24.9573
34.472118398533134 24.9773
34.49543010887669 24.9167
34.51892543169198 24.7599
34.54224009966052 24.750999999999998
34.56555624255917 24.8008
34.58887386163339 24.7343
34.61237514439016 24.6538
34.6356957311114 24.6097
34.65901779775809 24.551
34.68252356662995 24.5116
34.705848608458616 24.5104
34.72917513396849 24.5226
34.75250314440949 24.5301
34.77601490857862 24.366
34.799345904259795 24.3076
34.82267838863559 24.3056
34.846012362958525 24.2479
34.869530142679984 24.2951
34.89286711232212 24.2758
34.91620557568269 24.2398
34.93954553401677 24.1911
34.9630693495876 24.1429
34.986412313340814 24.1939
35.00975677584668 24.0922
35.033102738362956 24.0269
35.05663261012228 23.9766
35.0799815881786 24.0849
35.10333207003229 24.0009
35.12668405694369 24.0525
35.150220005273056 23.945999999999998
35.17357501786656 23.9798
35.19693153931268 23.9025
35.220289570874385 23.8493
35.24383161619786 23.8803
35.267192683604904 23.8199
35.290555264930376 23.8079
35.314101899412165 23.7148
35.33746752422433 23.7841
35.36083466676374 23.7994
35.38420332829803 23.6735
35.407756095629054 23.7149
35.43112781085063 23.7415
35.45450104888391 23.6169
35.477875810999194 23.6598
35.50143473172161 23.5157
35.52481255774625 23.6154
35.54819191167777 23.538
35.57157279478914 23.488000000000003
35.595137889488406 23.5115
35.61852184675279 23.4205
35.641907337029984 23.3086
35.665294361595684 23.269000000000002
35.68886565090076 23.2373
35.7122557598848 23.2537
35.73564740699838 23.2263
35.759040593519934 23.103
35.78261809810353 23.1727
35.80601437933051 23.0654
35.829412203814705 22.9582
35.85281157283719 22.8928
35.876395313415884 22.9469
35.8997977874528 22.926
35.92320180988546 22.8956
35.946790244133936 22.8214
35.97019737933222 22.8362
35.993606066789866 22.8095
36.01701630779276 22.7766
36.04061101440684 22.6958
36.06402437852291 22.6326
36.08743930005611 22.6994
36.1108557802951 22.6012
36.13445678011326 22.5738
36.15787639383515 22.5341
36.18129757014299 22.4802
36.20472031032821 22.4575
36.22832762423364 22.3196
36.25175350829375 22.3605
36.275180960119776 22.3521
36.298609981005924 22.3672
36.32222362992669 22.4125
36.34565580510207 22.3321
36.36908955323448 22.3259
36.39252487562093 22.1528
36.416144880530226 22.1648
36.43958336764275 22.1224
36.463023432914625 22.1526
36.486465077645676 22.1008
36.51009145956204 22.1533
36.53353627947859 22.1491
36.55698268276811 22.113000000000003
36.58043067073321 21.9898
36.60406345072071 21.8804
36.62751462435344 21.8607
36.65096738658405 21.9515
36.67460498210655 21.8937
36.69806093788647 21.8726
36.72151848619297 21.7365
36.744977628333636 21.772
36.76862165890998 21.7531
36.79208400512205 21.7019
36.81554794910557 21.7419
36.83901349217101 21.5758
36.862663978991606 21.5632
36.88613273667352 21.5442
36.90960309738324 21.4191
36.933075062434064 21.4484
36.95673202673572 21.4441
36.98020721697122 21.4155
37.003684015502365 21.3027
37.027162423645365 21.2753
37.050825886711465 21.2608
37.07430753063053 21.2581
37.09779078812467 21.1273
37.121275660513014 21.2148
37.144945643673694 21.1353
37.16843376245278 21.1088
37.19192350009803 21.1395
37.215414857931435 21.0905
37.239091382563885 20.9918
37.262585997426164 20.9566
37.28608223645736 20.9738
37.309763684451696 20.9452
37.33326318851098 20.8892
37.356764320726555 20.8839
37.380267082425526 20.8435
37.40395510942588 20.8377
37.42746114683234 20.771
37.45096881771841 20.6447
37.474478123414166 20.6735
37.49817275092816 20.7017
37.52168534303452 20.6917
37.54519957395567 20.5609
37.568715445024665 20.5819
37.592416694607714 20.5128
37.61593586281424 20.5364
37.63945667518264 20.5387
37.66297913304891 20.4649
37.68668702630454 20.4262
37.710212792059274 20.3728
37.733740207334854 20.3354
37.757269273470364 20.2971
37.780983832050374 20.2218
37.80451621684926 20.2423
37.82805025654007 20.1889
37.851585952464795 20.1797
37.8753071980695 20.145
37.89884622345676 20.0449
37.92238690911902 20.0463
37.94611318753442 19.9995
37.969657210779765 20.0442
37.99320289834801 19.9577
38.016750251586465 19.9399
38.04048325513017 19.8842
38.06403395679343 19.8927
38.087586328183946 19.9066
38.11114037065203 19.769000000000002
38.13488012115898 19.8793
38.1584375229181 19.7499
38.181996599821 19.7278
38.205557353221124 19.6937
38.229303872575656 19.7146
38.2528679961576 19.6326
38.27643380031219 19.6606
38.30000128639589 19.5584
38.32375459653193 19.4959
38.34732546371299 19.5172
38.37089801690786 19.4663
38.39447225747609 19.4021
38.418232380377425 19.4101
38.441810012983396 19.3634
38.46538933705673 19.379
38.488970353960084 19.2958
38.51273731166058 19.3292
38.536321731567014 19.2428
38.55990784840681 19.2619
38.58367995004091 19.1821
38.60726947812959 19.1113
38.63086070726198 19.1579
38.654453638806274 19.1399
38.678232613930824 19.1087
38.70182896773327 19.0346
38.72542702806741 18.979
38.7490267963045 18.9638
38.77281266709232 18.9747
38.79641586862214 18.9112
38.8200207821842 18.8368
38.843627409152944 18.8898
38.86742019782782 18.8853
38.891030269149255 18.8241
38.914642058016156 18.7804
38.938255565806124 18.6662
38.96205529464307 18.6602
38.98567225787121 18.7671
39.00929094417078 18.6776
39.03291135492255 18.7192
39.05671804624804 18.6082
39.080341923549106 18.5798
39.103967529460334 18.4977
39.127594865365744 18.4058
39.15140854155791 18.4277
39.17503935514948 18.4945
39.19867190290282 18.3993
39.22249083587951 18.3708
39.24612686969409 18.3502
39.269764641845306 18.3028
39.293404153722804 18.3492
39.317230110864074 18.2664
39.34087311998506 18.23
39.36451787301696 18.2249
39.388164371352595 18.1027
39.41199737518003 18.1347
39.43564738196752 18.109
39.45929913825317 18.0608
39.48295264543308 18.1045
39.506792718520884 17.9922
39.530449745387216 17.989
39.55410852735203 17.9185
39.57776906581474 17.9467
39.60161623079 17.8991
39.625280300200025 17.8981
39.64894613032202 17.8852
39.67261372255866 17.8651
39.6964680021016 17.7955
39.72013913657293 17.7864
39.74381203738292 17.7875
39.76748670593756 17.7521
39.79134812278169 17.7619
39.81502634488497 17.6824
39.83870633896685 17.6357
39.862388106436654 17.6583
39.88625668336918 17.6493
39.90994201572829 17.6267
39.933629125719285 17.5193
39.957503091207826 17.4953
39.9811937746168 17.5629
40.00488623990914 17.4696
40.02858048850006 17.383
40.05246165409549 17.3641
40.076159487492085 17.2997
40.099859108448875 17.3641
40.123560518384345 17.2849
40.1474489070226 17.3178
40.171153913178564 17.2535
40.194860712584955 17.2096
40.2185693066637 17.1974
40.242464941335314 17.2238
40.26617714307655 17.1258
40.289891143772046 17.1568
40.3136069448471 17.1228
40.33750984859743 17.1063
40.3612292688043 17.0286
40.3849504936829 16.9347
40.40867352466194 16.9498
40.43258372059144 16.9835
40.45631038219906 16.9829
40.48003885420956 16.9021
40.503769138055105 16.8938
40.52768664931955 16.8888
40.55142057531802 16.8839
40.57515631746428 16.8252
40.599079334038514 16.8087
40.62281872700477 16.7526
40.64655994043941 16.7494
40.67030297578061 16.69
40.69423334835778 16.7007
40.71798004609188 16.632
40.74172857006355 16.6574
40.76547892171441 16.6392
40.7894166736039 16.5876
40.813170699248566 16.4925
40.83692655691388 16.4771
40.86068424804498 16.4973
40.884629402612525 16.4511
40.908390779366385 16.4765
40.932153993938 16.4103
40.95591904777605 16.3874
40.979871628443995 16.3796
41.003640379561936 16.3596
41.02741097430883 16.3104
41.05118341413683 16.3017
41.075143444384416 16.2989
41.098919593177826 16.2569
41.1226975914255 16.1991
41.14647744058318 16.1973
41.170444943946755 16.14
41.19422851378379 16.1522
41.218013938914645 16.1081
41.24198706625173 16.0199
41.26577622087193 15.9964
41.289567235177785 15.9961
41.31336011063129 15.942
41.337340752422875 15.9592
41.361137369129835 15.982000000000001
41.38493585138705 15.892999999999999
41.40873620066004 15.8255
41.43272438060107 15.847999999999999
41.45652848292052 15.7779
41.48033445666918 15.7238
41.50414230331616 15.8106
41.528138045159764 15.6872
41.551949656675205 15.7317
41.575763145513235 15.6864
41.59957851314666 15.6162
41.62358184070442 15.6008
41.64740098505737 15.6519
41.6712220126409 15.5279
41.69504492493139 15.5086
41.71905586207357 15.5029
41.74288256296395 15.4672
41.766711153007456 15.5158
41.79054163368412 15.454
41.814560204340054 15.4688
41.838394485526365 15.4549
41.86223066180303 15.3705
41.88625497706819 15.3667
41.910094962812 15.3601
41.93393684811168 15.279000000000002
41.95778063445365 15.2128
41.981812625263366 15.2268
42.00566023303407 15.2496
42.029509746323676 15.2074
42.05336116662236 15.1791
42.077400857069705 15.1734
42.10125611078846 15.1809
42.12511327600405 15.0848
42.14897235421036 15.0746
42.173019768448455 15.0675
42.19688269209613 15.0215
42.22074753323349 15.038
42.24461429335818 14.9851
42.268669455600495 14.8997
42.292540073217886 14.925999999999998
42.31641261433284 14.8716
42.34028708044675 14.9101
42.36435001496739 14.8955
42.38822835065557 14.831
42.41210861586426 14.8204
42.4359908120986 14.7991
42.46006154323262 14.7574
42.48394762115317 14.7033
42.507835634632315 14.7025
42.531912233047436 14.7083
42.55580413732265 14.6497
42.579697981698 14.6297
42.60359376768525 14.5819
42.62767820545945 14.5817
42.65157789440821 14.5166
42.67547952952185 14.5868
42.699383112316 14.5711
42.72347541395347 14.4436
42.74738291190531 14.4396
42.771292362102166 14.427999999999999
42.795203766063516 14.3821
42.819303956130405 14.4197
42.843219287476536 14.3607
42.86713657716324 14.3416
42.89105582671383 14.3144
42.91516392983864 14.2719
42.939087119032166 14.2184
42.963012272677304 14.2023
42.98693939230129 14.1795
43.01105543317513 14.1564
43.034986504731386 14.1332
43.05891954686589 14.140999999999998
43.08285456110972 14.1268
43.10697856448665 14.0787
43.130917542983475 14.0317
43.15485849820081 14.0216
43.17880143167367 14.0474
43.20293342237094 13.9858
43.226880332449 13.9265
43.25082922540554 13.9318
43.27496722682525 13.9044
43.29892010567796 13.8608
43.32287497204102 13.8542
43.34683182745632 13.8436
43.370977859791836 13.780999999999999
43.39493871351105 13.8034
43.41890156092628 13.8173
43.44286640358341 13.7181
43.46702049182749 13.725
43.49098934522816 13.6725
43.51496019852649 13.6581
43.5389330532723 13.6612
43.56309522248204 13.6116
43.58707210044314 13.5861
43.61105098451946 13.5714
43.63503187626491 13.5577
43.659202151562134 13.4959
43.68318707902681 13.4993
43.70717401884041 13.4907
43.731162972560874 13.4478
43.75534137913236 13.405
43.779334381108384 13.4108
43.803329401683186 13.3695
43.82732644241872 13.3634
43.8515130055166 13.2866
43.87551410707659 13.292
43.89951723350145 13.2912
43.923709934595614 13.3049
43.94771713129917 13.2692
43.97172635758096 13.25
43.99573761501002 13.1832
44.0199385169922 13.1387
44.04395385732619 13.152999999999999
44.067971233533086 13.1827
44.09199064718605 13.1342
44.11619977548961 13.0555
44.14022328470671 13.0109
44.16424883610785 13.0414
44.18827643127035 13.0491
44.21249381139513 13.0276
44.236525514814076 13.0179
44.26055926674478 12.9615
44.28459506876863 12.9464
44.3088207262813 12.9295
44.33286064928722 12.8867
44.35690262714919 12.8357
44.38094666145278 12.8504
44.4051806219871 12.8364
44.42922879003185 12.7336
44.45327901929361 12.7627
44.477331311362136 12.7496
44.501573600619416 12.6966
44.525630039221795 12.7069
44.54968854541895 12.7352
44.573937102200176 12.6749
44.5979997645541 12.6595
44.622064499300315 12.6332
44.64613130803592 12.6189
44.67038823869318 12.6339
44.69445921643748 12.5427
44.718532272981385 12.5143
44.742607409926194 12.5291
44.76687274034801 12.5185
44.79095205918753 12.4846
44.81503346325094 12.4298
44.839116954143876 12.4237
44.86339071028742 12.4066
44.88747839599524 12.3723
44.91156817336837 12.3532
44.93566004401666 12.3223
44.959942251908146 12.3392
44.984038330325966 12.3484
45.00813650686762 12.2673
45.03223678314731 12.2158
45.05652746888232 12.2346
45.08063196592069 12.2399
45.104738567558705 12.1667
45.128847275414856 12.1457
45.15314646515866 12.0924
45.17725940679741 12.1112
45.20137445952892 12.0926
45.22568004865265 12.0586
45.24979934496396 12.0596
45.27392075725247 12.0552
45.29804428714431 12.0438
45.322358426247604 12.0136
45.346486212804315 11.9935
45.370616121861914 11.959000000000001
45.39474815505086 11.9444
45.41907087049246 11.8649
45.4432071734666 11.9036
45.46734560548283 11.8853
45.49148616817604 11.8799
45.51581748638564 11.8201
45.5399623320197 11.7496
45.56410931325473 11.7396
45.58825843173002 11.7988
45.61259837920865 11.7602
45.636751793816 11.7159
45.66090735060093 11.7165
45.68506505120716 11.6603
45.7094136545275 11.6474
45.73357566449271 11.5742
45.75773982322992 11.6076
45.78190613238733 11.5717
45.806263418194064 11.5778
45.83043404997326 11.5375
45.85460683713677 11.5231
45.87897065658495 11.4811
45.90314777634752 11.4888
45.92732705646868 11.4402
45.9515084986045 11.4296
45.97588104735473 11.4175
46.00006683541565 11.3427
46.02425479047904 11.3748
46.04844491420549 11.3469
46.0728262191024 11.3225
46.09702070211635 11.3168
46.12121735879483 11.3124
46.14541619080294 11.2851
46.169806278764455 11.2668
46.194009483459034 11.2812
46.21821486849841 11.2274
46.24242243555223 11.2355
46.266821333570014 11.2233
46.29103328674601 11.232000000000001
46.31524742696538 11.1641
46.33946375590237 11.1077
46.36387149104216 11.0831
46.38809221957392 11.0595
46.41231514186606 11.0535
46.436540259597464 11.0086
46.460956858999374 11.0204
46.48518638983522 10.9884
46.509418121166966 10.9892
46.533652054678114 10.9654
46.55807754555709 10.9589
46.58231590571962 10.908
46.60655647313217 10.8822
46.630988654873654 10.8747
46.655233659129024 10.8345
46.67948087571551 10.8533
46.70373030632484 10.847999999999999
46.72817142736393 10.8136
46.752425308428684 10.7773
46.77668140861147 10.8253
46.80093972960865 10.7231
46.82538981736788 10.6921
46.849652602470904 10.7011
46.87391761349769 10.7003
46.8981848521493 10.655
46.9226439341274 10.6411
46.946915650573224 10.6057
46.97118959976749 10.5789
46.99546578341598 10.5695
47.019933887188216 10.55
47.04421456235744 10.5493
47.06849747711879 10.5208
47.09278263318286 10.5159
47.11725978640143 10.5017
47.14154944775105 10.439
47.165841355555656 10.44
47.1901355115306 10.4148
47.214621741924994 10.3692
47.23892041698887 10.3945
47.26322134538975 10.3621
47.28771440635075 10.3156
47.31201986422527 10.3678
47.33632758061436 10.3128
47.360637557241866 10.2865
47.38513974410611 10.280999999999999
47.40945426407847 10.2361
47.43377104948137 10.215
47.45809010204344 10.208
47.48260144275502 10.1923
47.506925052572285 10.1132
47.53125093475548 10.1044
47.55557909103813 10.1484
47.58009961361992 10.1013
47.60443234110732 10.0832
47.62876734791564 10.0624
47.65310463578333 10.0655
47.6776343683373 10.0314
47.7019762413987 9.98627
47.72632040075572 9.991430000000001
47.75066684815169 10.0033
47.77520581885936 9.99721
47.799556865477655 9.93334
47.823910205386 9.92375
47.84826584033272 9.94094
47.87281407745551 9.919889999999999
47.89717432569297 9.906939999999999
47.92153687423484 9.8578
47.94609208429692 9.83933
47.97045925671401 9.83608
47.99482873471275 9.79913
48.01920052005013 9.80156
48.04376504619224 9.761619999999999
48.068141469543484 9.772839999999999
48.09252020552573 9.765989999999999
48.11690125590099 9.74211
48.1414751266064 9.71768
48.16586082917454 9.72846
48.19024885144316 9.69233
48.2146391951793 9.68861
48.239222439012764 9.69668
48.26361744916137 9.65038
48.28801478610016 9.592210000000001
48.31241445160131 9.6097
48.337007097209366 9.59028
48.36141144338331 9.57286
48.38581812345755 9.5617
48.41022713920929 9.54935
48.434829215320704 9.50274
48.45924292604658 9.45807
48.48365897780325 9.48011
48.50807737237308 9.4465
48.532688907799276 9.45556
48.55711201168574 9.45341
48.581537463754074 9.438239999999999
48.60615611725119 9.42182
48.63058628942721 9.36781
48.65501881516546 9.34116
48.6794536962573 9.333110000000001
48.70408185970339 9.30945
48.72852147531801 9.30203
48.75296345168211 9.289860000000001
48.77740779059232 9.278939999999999
48.80204549302823 9.25044
48.82649458091802 9.247630000000001
48.85094603676547 9.201039999999999
48.87539986237231 9.22434
48.90004713292306 9.158539999999999
48.92450572200832 9.18592
48.94896668628025 9.13372
48.97343002754588 9.183010000000001
48.99808689542115 9.15972
49.02255501470614 9.08423
49.04702551642794 9.07697
49.0714984023988 9.08297
49.096164896893235 9.04087
49.120642575466796 9.04274
49.145122643748394 9.02307
49.16960510355558 8.99147
49.19428125404938 8.9852
49.2187685210852 8.95629
49.243258185121555 8.94847
49.26794160167084 8.9241
49.2924360839405 8.87698
49.31693296869764 8.86369
49.34143225776915 8.851939999999999
49.36612538195438 8.81408
49.39062950396021 8.80894
49.41513603578346 8.82414
49.4396449792564 8.79782
49.46434784069503 8.80283
49.488861631846454 8.78626
49.513377840166804 8.76628
49.537896467493745 8.733239999999999
49.56260909589029 8.68506
49.587132585683285 8.68684
49.611658500018365 8.72695
49.636186840738596 8.641960000000001
49.66090926588511 8.6627
49.685442483902584 8.60321
49.70997813385706 8.57504
49.734516217597076 8.59215
49.75924846937352 8.584719999999999
49.7837914452858 8.59486
49.80833686055187 8.540460000000001
49.83288471702571 8.52872
49.85762682540054 8.50103
49.882179588965734 8.48422
49.9067347993235 8.45571
49.93129245833333 8.47643
49.95604445336378 8.45218
49.98060703442832 8.46353
50.005172069746266 8.412560000000001
50.02993150438364 8.41248
50.05450147301533 8.3654
50.07907390151433 8.3492
50.10364879174981 8.32814
50.12841816587289 8.30885
50.1529980044635 8.30917
50.17758031042124 8.269630000000001
50.20216508562089 8.262360000000001
50.22694442953363 8.288780000000001
50.25153416817468 8.255139999999999
50.27612638170508 8.24329
50.300721072005196 8.21852
50.325510416102105 8.219510000000001
50.350110084975064 8.18489
50.37471223628208 8.2081
50.39931687190919 8.17532
50.424116246675766 8.1527
50.44872587605249 8.122639999999999
50.47333799543065 8.09948
50.49795260670191 8.10162
50.52276204271512 8.05892
50.54738166295838 8.07928
50.57200378079314 8.03968
50.596628398116835 8.03885
50.62144792604559 8.0314
50.646077567609396 7.989210000000001
50.670709714377715 7.971760000000001
50.69553683636198 7.9725600000000005
50.72017401885922 7.96818
50.7448137122895 7.95297
50.76945591856022 7.93127
50.79429318636823 7.902239999999999
50.818940443716784 7.91505
50.84359021965163 7.898389999999999
50.868242516085964 7.88428
50.893089960641895 7.823460000000001
50.917747323549435 7.82568
50.94240721271973 7.82705
50.96706963007175 7.81128
50.99192728239342 7.809310000000001
51.01659478166073 7.778389999999999
51.04126481489051 7.736210000000001
51.06593738400761 7.7534
51.090805275207074 7.76289
51.11548294172845 7.72721
51.14016314993547 7.690360000000001
51.164845901758845 7.67265
51.18972406304274 7.685160000000001
51.21441192780656 7.6402399999999995
51.23910234200271 7.647010000000001
51.2637953075678 7.648610000000001
51.288683770237945 7.576860000000001
51.31338186432707 7.583360000000001
51.33808251561888 7.56681
51.362978729967345 7.5915300000000006
51.387684521509755 7.53627
51.41239287610203 7.5262199999999995
51.437103795691165 7.490660000000001
51.46201036644977 7.47507
51.486726441956634 7.462339999999999
51.51144508832545 7.4835899999999995
51.536166307509156 7.4326
51.56108326624387 7.4049
51.58580965706056 7.36689
51.61053862657523 7.392639999999999
51.635270176746864 7.3512
51.66019755512065 7.34969
51.68493429268881 7.344189999999999
51.70967361681515 7.32035
51.73441552946465 7.31053
51.759353359237934 7.3398699999999995
51.7841004750961 7.33304
51.80885018539685 7.27826
51.833602492111254 7.29759
51.8585508051424 7.2579
51.883308330926425 7.22007
51.90806845906181 7.21128
51.932831191525715 7.20033
51.95779001977161 7.21249
51.98255798721516 7.1855199999999995
52.00732856494335 7.12498
52.03229530577543 7.1555
52.057071130455945 7.12685
52.081849571391054 7.0716399999999995
52.106630630568695 7.10699
52.13160794279417 7.090110000000001
52.15639426492067 7.112839999999999
52.18118321127822 7.0589699999999995
52.205974783860896 7.029139999999999
52.23096269971011 6.9964
52.255759551287994 7.00822
52.280559035098186 7.018
52.30536115314103 6.95723
52.33035970494467 6.92747
52.35516711807904 6.9694
52.37997717147198 6.9413
52.40478986713005 6.950830000000001
52.42979908731974 6.95967
52.454617094216 6.87498
52.47943774942214 6.83707
52.50426105495102 6.87705
52.529280976059844 6.856269999999999
52.554109609024096 6.80955
52.57894089837482 6.8406899999999995
52.60377484613117 6.80836
52.62880550079408 6.8133
52.65364479223379 6.76673
52.67848674816189 6.75713
52.70352547971946 6.78958
52.72837279155837 6.792619999999999
52.753222773982785 6.7136
52.778075429022984 6.698169999999999
52.80312495150885 6.68478
52.827982978797436 6.701980000000001
52.85284368481815 6.6737
52.87770707160767 6.64642
52.90276741793998 6.635210000000001
52.92763619336701 6.598439999999999
52.952507655698504 6.6043
52.977381806977576 6.63697
53.00245301017842 6.602060000000001
53.02733256653592 6.57742
53.052214817996074 6.54663
53.077099766608484 6.539619999999999
53.102181859804446 6.55032
53.127072229988265 6.52985
53.15196530349892 6.50179
53.17686108239249 6.48495
53.20195409881522 6.49432
53.22685531582556 6.4559
53.25175924441303 6.44071
53.27666588664027 6.42834
53.30176985962693 6.451309999999999
53.3266819565689 6.4155
53.35159677336455 6.4292
53.376514312083096 6.4240900000000005
53.40162927507703 6.34753
53.42655228516116 6.34433
53.45147802340193 6.32991
53.47660125628886 6.31882
53.50153247842639 6.28771
53.52646643496923 6.29535
53.55140312799818 6.26823
53.576537409691696 6.24885
53.60147960336152 6.24071
53.626424539786164 6.225280000000001
53.65137222105307 6.2091199999999995
53.67651758529126 6.231730000000001
53.70147078399681 6.17657
53.72642673383343 6.1985
53.75138543689533 6.15552
53.776541917524526 6.1540099999999995
53.801506154876755 6.14754
53.826473151763246 6.11333
53.851442910284916 6.10281
53.87661054126026 6.06784
53.9015858509782 6.1175
53.92656392866066 6.06548
53.95154477641532 6.076890000000001
53.976723591801296 6.0601400000000005
54.00171000771266 6.02061
54.02669920004598 6.084890000000001
54.051691170915745 6.06706
54.076881204886796 6.00991
54.101878760928514 5.99787
54.12687910187696 5.94054
54.152077577768296 5.9697
54.1770835166946 5.90941
54.20209224691339 5.9427900000000005
54.22710377055121 5.90103
54.25231352511594 5.89049
54.27733066384342 5.84269
54.30235060239643 5.848669999999999
54.32737334290836 5.8541099999999995
54.35259441062629 5.79164
54.377622783395324 5.78566
54.40265396455061 5.83186
54.42768795623251 5.76524
54.45292037169559 5.7958
54.477960012857906 5.7508099999999995
54.50300247099511 5.72611
54.52804774825457 5.72816
54.55329154616743 5.68799
54.57834249018678 5.69571
54.6033962597977 5.6576699999999995
54.6284528571545 5.62756
54.653708072335164 5.61284
54.67877035378786 5.5823599999999995
54.70383546947698 5.57728
54.72890342156389 5.5803
54.7541700889442 5.50974
54.77924374251975 5.54439
54.8043202390049 5.51069
54.82959552413022 5.4964699999999995
54.8546777351945 5.4872
54.87976279569621 5.4418
54.90485070780914 5.4886800000000004
54.930137506558005 5.42715
54.95523115074295 5.42071
54.98032765308844 5.40184
55.005427015775496 5.34959
55.03072536339621 5.366630000000001
55.05583047570572 5.30901
55.080938454927676 5.29327
55.10604930325027 5.30508
55.131359235107396 5.29221
55.15647585066083 5.228280000000001
55.181595341907496 5.214180000000001
55.20671771104285 5.19573
55.232039262617704 5.1904699999999995
55.25716741665048 5.161980000000001
55.28229845518636 5.15679
55.30743238042802 5.072769999999999
55.33276558731939 5.07475
55.357905315183636 5.08576
55.383047936390035 5.04686
55.40819345314859 5.00962
55.433538351073295 4.99855
55.458689688238415 4.9811
55.483843927614096 4.95376
55.509197623043605 4.95821
55.53435769621134 4.904780000000001
55.55952067826466 4.8768
55.5846865714265 4.8200400000000005
55.61005202069737 4.83327
55.63522376553902 4.8360199999999995
55.66039842818645 4.82632
55.68557601087004 4.7919
55.7109532500271 4.76544
55.73613670233794 4.80457
