TT I
1.2716486653135266 7.2057
1.2939594142134223 7.14365
1.3162702121660406 6.73765
1.3385810600174564 6.54816
1.3608919586137629 6.6340699999999995
1.383202908801069 6.15557
1.405513911425503 5.43166
1.4278249673332093 5.95575
1.4501343378461518 6.26121
1.4724455028545926 6.23803
1.4947567236847858 5.88224
1.517068001182951 5.97604
1.5393793361953272 5.41299
1.5616907295681737 4.93556
1.5840021821477681 5.32219
1.60631369478041 5.16211
1.6286252683124185 5.33079
1.6509369035901333 4.55198
1.6732468618895553 5.08021
1.695558623192809 4.5477099999999995
1.7178704487808514 4.868180000000001
1.7401823395001077 4.435169999999999
1.7625012545597203 4.74196
1.7848028405262486 4.68685
1.8071218901122095 4.70209
1.8294236121921872 4.6901
1.8517427996910911 4.21809
1.8740620574440425 4.40169
1.8963639900671978 4.5570900000000005
1.9186833908139995 4.7348
1.9409854680117449 4.83533
1.9633050151394713 4.97618
1.9856246367570705 5.12177
2.0079269371922672 5.05812
2.03024671027244 4.39859
2.0525491637446027 4.36607
2.074869091674931 4.5324800000000005
2.097171701569106 4.478219999999999
2.1194917877373847 4.49064
2.141811954326636 4.89545
2.164114805233074 4.7967900000000006
2.186435135143035 4.8691
2.208738150935709 9.10155
2.231058647554722 15.9255
2.2533792288321184 11.8038
2.275682498336085 6.4625
2.298003251406138 5.48461
2.3203066942619714 5.51806
2.3426276225136022 5.77534
2.3649486396617507 5.85123
2.387252348930071 5.8455
2.4095735463442893 6.13556
2.4318774374315884 6.43381
2.4541988185014043 6.717960000000001
2.476502894794693 6.71966
2.498824462909887 6.82798
2.521146125856138 6.62966
2.5434504863470337 7.1333
2.5657723414244717 7.6710899999999995
2.588076895590662 9.297369999999999
2.610398946189713 8.563130000000001
2.6327210958598384 8.32122
2.6550259469304716 8.13245
2.6773482972090137 8.147
2.6996533504259 7.764530000000001
2.7219759047039602 8.05989
2.744298562293959 8.1972
2.7666039251246595 8.0153
2.7889267918020164 8.070730000000001
2.8112323652516555 8.048160000000001
2.833555444408179 8.11622
2.8558786311183852 8.321819999999999
2.8781845268938557 9.13677
2.9005079311721484 9.2806
2.9228140460410397 9.04386
2.9451376712799635 9.11844
2.967444008632326 9.49876
2.9897678582247247 9.770430000000001
3.0120918213106695 10.626
3.0343984987899373 10.7814
3.0567226913198637 11.1059
3.079029599759726 11.9911
3.101354025127254 12.2699
3.123678568232338 12.7776
3.145985829517914 12.769
3.16831061055229 13.7402
3.1906181112775593 14.277000000000001
3.212943133635653 15.1709
3.2352682779763207 14.873
3.2575761442691227 15.2107
3.2799015350264273 15.1788
3.302209649240067 16.0524
3.3245352898092655 16.3342
3.3468436553365257 17.2116
3.369169549113219 17.3866
3.3914955708171384 18.3324
3.413804319727358 18.5301
3.4361305997334863 18.8326
3.4584396084414553 19.0815
3.4807661501462652 19.8462
3.503092824025881 20.324
3.5254022288463154 20.1684
3.5477291695206588 21.1074
3.5700388426251948 22.2598
3.5923660534916446 23.2588
3.6146934007816114 30.5184
3.637003482731501 52.8028
3.6593311053109985 57.0101
3.681641464033634 38.8287
3.7039693653009733 26.7118
3.726297407241705 24.77
3.7486081875460804 25.2476
3.7709365132734978 25.7172
3.793247578841633 25.8757
3.8155761917550093 26.299
3.8378875459837216 26.5175
3.8602164494827234 27.1212
3.882545499606844 27.9056
3.9048572932539183 28.5016
3.9271866390645718 28.581
3.9494987298666713 29.6131
3.971828374764527 30.0146
3.9941581705403255 30.2999
4.016470713506008 31.1002
4.038800813471445 31.7688
4.061113662089144 32.1926
4.0834440696459176 33.6277
4.105774632334751 33.3477
4.128087945865126 33.9285
4.150418821249301 34.5528
4.172732448931298 35.5431
4.195063640413578 36.431999999999995
4.2173775856475215 39.3742
4.239709096631102 55.0061
4.262040768704612 131.89700000000002
4.284355196706267 167.98
4.306687193387355 115.238
4.329001947444346 59.0913
4.35133427213731 44.4834
4.373666762177566 43.192
4.395982011761091 43.0672
4.418314834921175 44.2469
4.44063041906622 48.172
4.4629635787515625 54.3234
4.4852969080429785 54.7635
4.5076130004776225 52.2783
4.529946671403969 55.3976
4.552263106909177 58.4999
4.574597122877047 56.0493
4.596931312711224 53.6369
4.619248269273446 53.4744
4.6415828092605835 53.9006
4.663900117405352 55.0377
4.686235010953232 56.4955
4.708552674085913 58.0325
4.730887924602802 59.5175
4.753223354952695 60.8036
4.775541557023902 64.2519
4.797877349456786 66.9877
4.820195915032126 67.6272
4.842532072957498 67.9066
4.864868414979744 70.2738
4.88718753227192 74.1597
4.909524244902505 75.7424
4.931843734218147 75.7821
4.954180820867835 77.4532
4.976518095879839 80.7908
4.998838149695359 83.2887
5.021175803844231 86.3925
5.043496238205739 89.4917
5.065834274903528 93.6765
5.088172504230693 99.0741
5.1104935158799565 105.006
5.132832132875765 124.65700000000001
5.155153533596801 155.565
5.1774925416746225 195.96
5.199814334878411 393.025
5.2221537374521505 1020.06
5.244493338631803 2832.75
5.266815727034316 7915.84
5.289155727832427 12355.4
5.311478517248165 8261.61
5.333818921080011 2530.03
5.356159527788849 487.356
5.3784829252032536 188.107
5.400823940070432 149.184
5.423147747031976 127.99799999999999
5.445489173474152 118.469
5.467830807066149 117.07799999999999
5.490155234831516 116.676
5.512497285125229 110.22399999999999
5.534822130975162 104.74700000000001
5.557164601388673 101.43
5.579489868738879 98.3356
5.601832762690846 97.124
5.6241758697774475 95.7032
5.646501775867269 95.2987
5.668845311622074 94.2182
5.691171647754637 93.3958
5.713515615597765 92.1371
5.735859800852677 91.7266
5.758186788542988 93.1862
5.780531411018185 96.3738
5.802858837297399 96.6296
5.825203900414495 95.8171
5.8475491852224 98.8576
5.869877275883075 98.8878
5.892223006467101 95.381
5.914551544266608 94.2933
5.936897724049891 96.6875
5.959244129804903 103.484
5.981573344815301 129.054
6.0039202049061 237.227
6.026249875609095 476.74199999999996
6.04859719346037 962.296
6.070927323278297 2261.37
6.093275102315365 4529.65
6.115623113320588 5193.37
6.137953938319995 3015.58
6.160302415650845 858.471
6.182633708324452 204.993
6.2049826554078376 106.652
6.227331838745022 89.3377
6.249663839443684 83.1711
6.27201349767565 79.5226
6.294345974611799 81.6459
6.316696111167083 85.1361
6.339046488263839 82.4235
6.361379686074702 74.5252
6.383730546639482 70.0577
6.406064229255215 69.2607
6.428415576718203 70.2643
6.450749747566656 68.7845
6.47310158535871 66.3218
6.495453669698332 64.7195
6.517788579421056 63.7409
6.540141159237969 62.795
6.562476565766648 62.2725
6.5848296444934045 62.1324
6.607182974060425 62.1246
6.6295191323281015 62.3532
6.651872965955752 63.3306
6.6742096296068985 74.6024
6.6965639707294615 95.1178
6.71891856698715 94.3523
6.741255995248479 74.6164
6.763611104154477 62.5563
6.785949046381137 58.5771
6.808304671371482 58.5032
6.8306605557940046 59.7896
6.852999275508618 58.8379
6.875355681171544 57.6536
6.897694923437771 55.9924
6.92005185377892 55.5157
6.9423916220322655 55.7903
6.964749080490181 54.9283
6.987106804399774 54.9584
7.009447368180821 55.155
7.031805625367033 55.4625
7.054146723727803 55.1595
7.076505517631004 54.4262
7.098864581288365 54.827
7.121206488070854 54.1881
7.143566093607822 54.5018
7.165908543567245 55.4843
7.188268694426048 55.4294
7.2106291193438095 54.9386
7.232972390625943 55.044
7.255333366030969 61.3106
7.277677189091925 84.3555
7.300038718428332 107.206
7.322400526130865 97.8367
7.344745183422596 70.1073
7.367107550224791 56.9645
7.389452767901992 54.3497
7.411815697249891 53.9724
7.434161478756298 53.5713
7.456524974096713 53.2912
7.478888753837185 53.7869
7.501235387657368 54.0137
7.523599738562711 53.9106
7.545946944825532 54.1193
7.568311870344528 54.2166
7.5906770845765665 54.23
7.613025156078678 54.7743
7.635390950099687 55.9726
7.657739602662809 55.7095
7.680105979923558 55.7792
7.702472650212829 56.1758
7.724822180948224 55.7953
7.747189439655568 55.6415
7.769539560075357 55.5184
7.791907410653562 56.0338
7.81425812420825 56.1642
7.836626570110925 56.2497
7.858995315087906 57.3757
7.881346924933401 56.8876
7.903716270417482 57.3665
7.926068482028405 57.8852
7.948438431475253 58.3175
7.9708086843180235 58.6352
7.993161805171116 59.763999999999996
8.015532667162402 60.0706
8.037886398416653 61.1743
8.060257873014221 62.0038
8.082629655331942 62.7785
8.104984308787587 63.6047
8.127356708900503 66.172
8.149711981398308 70.0782
8.172085002766314 72.1962
8.194458336181368 70.4314
8.216814543847752 68.5584
8.23918850371002 68.5542
8.26154533906492 69.7262
8.283919928836452 71.1581
8.306277395339652 72.2173
8.328652618483376 73.7877
8.351028159736202 75.4763
8.373386579575245 77.8655
8.395762759396959 79.3467
8.418121819038275 82.9044
8.440498640894003 91.0701
8.462875785192262 103.005
8.485235811156207 125.84100000000001
8.507613602688501 176.392
8.529974277114228 259.214
8.552352719347912 383.75800000000004
8.574731488360351 660.2739999999999
8.59709314210385 1212.06
8.619472567021075 1935.24
8.64183487789147 2169.57
8.664214962183097 1727.75
8.686577933647762 861.336
8.708958680784317 320.08099999999996
8.731339760774953 147.26
8.753703729764451 106.665
8.77608547780821 97.2179
8.798450116065078 93.696
8.820832535634787 91.3624
8.843215292401656 91.2695
8.865580941199045 91.0843
8.887964374703538 90.3862
8.910330701447199 90.7998
8.932714815164482 90.9044
8.955099270424924 88.7119
8.977466620733543 86.3189
8.999851761421976 84.40899999999999
9.022219798361645 83.1664
9.04460562795561 83.2118
9.066991803441677 82.9895
9.089360876979615 82.7877
9.111747746589993 82.5875
9.13411751544971 82.2346
9.156505082664324 81.4297
9.178875550323522 81.5907
9.20126381862328 81.5451
9.223652438908596 81.8221
9.246023961427412 81.7722
9.26841328802173 81.4658
9.290785518039224 82.0158
9.313175554425882 84.0107
9.335565947154315 85.1138
9.357939245086508 85.1161
9.380330352834827 85.0924
9.40270436697103 84.9943
9.425096193225055 84.5225
9.447488380180165 84.3667
9.469863475295412 84.1174
9.492256385987508 84.0788
9.514632206018318 84.6826
9.537025843935714 84.8503
9.559402392368193 85.6964
9.581796761000229 88.6983
9.604191496441521 90.3946
9.626569144158516 93.2685
9.648964615551032 94.9925
9.671343000390081 94.8295
9.693739211225699 92.9612
9.716135793237463 91.6969
9.738515290448102 92.1259
9.760912617143402 93.7591
9.783292860202891 95.8586
9.805690935076182 98.1546
9.828089385495742 98.7958
9.850470754023561 100.189
9.872869957865444 104.291
9.89525208097539 112.139
9.917652041736662 119.905
9.940052382417589 127.01700000000001
9.962435644102392 149.808
9.984836746950979 188.925
10.007220771957746 245.75900000000001
10.029622640473708 343.514
10.052007432299963 518.029
10.074410069984072 828.472
10.096813093716005 1302.06
10.119199042482517 1801.47
10.141602840636468 1974.4
10.163989564971628 1514.13
10.186394141051062 820.143
10.208799107559706 350.68800000000005
10.231187001965623 169.72
10.253592751657669 120.182
10.275981430388155 109.881
10.298387966769793 108.693
10.320794897965431 108.823
10.343184759907361 107.795
10.36559248305461 104.84
10.387983138083852 103.977
10.410391656691655 110.12700000000001
10.432800574501677 121.63
10.455192425893369 136.254
10.47760214443012 161.343
10.499994797678786 207.19799999999998
10.522405320453982 292.34
10.54479877906917 422.945
10.567210109595656 532.769
10.5896218454736 575.19
10.612016518879773 482.56800000000004
10.634429067781074 320.153
10.656824555333241 184.209
10.679237920773568 114.76799999999999
10.701651695961992 93.5464
10.724048411481384 88.1314
10.746463008485165 85.3928
10.768860546937125 83.8848
10.791275969274796 82.1989
10.81369180576079 81.0662
10.836090585366925 80.1836
10.858507252467449 79.0538
10.88090686379991 77.8293
10.903324365036394 77.4329
10.925724811614439 77.1122
10.948143150509463 77.6458
10.970561909719066 77.2029
10.992963615930844 76.207
11.015383218085756 74.2822
11.037785768347074 72.4815
11.06020621697282 72.2094
11.082627090322113 71.5477
11.105030913430326 70.7483
11.12745263854165 70.7142
11.149857314510728 71.9757
11.172279894912576 75.082
11.194702904450653 74.6907
11.217108866490921 71.986
11.239532736615194 70.02
11.26193956033512 68.8034
11.284364294577085 68.1296
11.306789462371718 66.8647
11.329197585398376 66.4001
11.351623622610898 66.2693
11.37403261614354 65.3947
11.396459526308487 65.2933
11.418869393879497 64.7293
11.441297180532617 64.2929
11.463725406927658 63.8093
11.486136592353875 63.8014
11.508565700543707 64.0752
11.530977768845315 65.1111
11.553407762368774 65.4043
11.575838200059769 64.9125
11.598251599479612 63.7164
11.620682927815501 62.7571
11.64309721895548 62.7284
11.665529441478206 62.5295
11.687962112597958 62.3374
11.710377748130886 62.5619
11.732811318753434 62.0711
11.755227854859067 62.0507
11.777662328529495 62.0135
11.800079768750786 62.0414
11.822515149015453 62.1477
11.844950984084935 62.4493
11.867369787303163 62.0859
11.889806534289491 62.0135
11.912226250487029 61.903999999999996
11.934663912939751 62.2192
11.9571020346363 62.523
11.979523127133968 62.5729
12.001962169624331 63.5041
12.024384183972964 65.3166
12.046824150809913 68.1255
12.069264581333726 72.4243
12.091687985297767 77.7581
12.11412934550045 86.6781
12.136553680195208 102.804
12.158995973632788 127.27799999999999
12.181438735204349 158.071
12.20386447284199 191.511
12.226308172985636 215.201
12.24873485024193 202.65099999999998
12.271179492516982 166.149
12.293607112949127 117.96799999999999
12.316052700916226 88.0891
12.338498763250042 72.8709
12.360927805303868 66.4093
12.383374818673879 64.2641
12.405804812803074 63.4393
12.428252780773262 63.3066
12.45070122756722 63.4811
12.473132656675375 63.4818
12.49558206341869 64.1173
12.518014453510101 64.2199
12.540464823770117 64.2313
12.562915677315177 64.2959
12.58534951575545 64.763
12.607801338171472 65.3708
12.630236146511358 67.8936
12.652688941369085 70.2165
12.675124723177234 70.8849
12.697578494048786 69.4272
12.720032754458185 67.5569
12.742470003354093 67.0831
12.764925245138771 67.1803
12.787363476431278 67.5351
12.809819703166806 67.7486
12.83227642391173 68.6025
12.854716135692716 68.9481
12.877173846755147 70.0736
12.899614549869717 70.7254
12.9220732548287 71.5564
12.94453245827299 72.2488
12.966974655289818 73.2282
12.989434858002571 74.0118
13.011878055298721 74.6748
13.034339260862497 75.3439
13.056800969391883 76.7168
13.079245674017244 79.4966
13.101708390774869 83.1446
13.12415410463411 91.5107
13.146617833206086 101.5
13.169064559883248 111.221
13.191529303857127 125.32700000000001
13.213994557076367 148.43
13.236442809902437 188.49200000000002
13.258909083908291 248.08900000000003
13.28135835851934 314.79
13.30382565690295 390.098
13.326293469022952 432.163
13.348744283242008 415.62699999999995
13.371213125129904 337.72900000000004
13.39366497011003 238.28400000000002
13.416134845360597 157.556
13.438605238843131 118.43
13.46105863690397 105.057
13.483530069144786 105.682
13.505984506951902 109.99700000000001
13.528456981549432 119.631
13.550929978879088 134.655
13.573385983253365 159.80700000000002
13.595860028340867 200.912
13.618317081455832 257.22700000000003
13.64079217790333 315.95799999999997
13.663250283359057 365.551
13.685726434770173 376.366
13.708203115221277 329.274
13.730662806148091 245.782
13.75314054697177 169.74099999999999
13.775601299246777 117.616
13.798080104050406 92.6336
13.820559442405358 83.3444
13.843021793671388 80.4222
13.865502201420897 79.0438
13.887965623051947 78.6739
13.910447103807167 77.6331
13.932929122629764 76.3622
13.955394156785959 75.8622
13.977877254034569 74.7223
14.000343367582113 74.1596
14.022827546871707 73.4091
14.045294743423524 72.9066
14.06778000837062 72.1348
14.090265817715476 72.1881
14.112734645763819 71.9259
14.13522154619454 71.2433
14.157691466286913 71.2565
14.180179461423874 71.0454
14.202668005486178 70.6441
14.22513957064374 70.0004
14.247629214846473 69.5569
14.270101881097517 69.42
14.29259262906496 69.441
14.315083930490205 69.9944
14.337558255389705 69.5242
14.360050666019726 69.4869
14.382526101071944 69.1787
14.405019624534942 68.6171
14.427513705993134 68.4439
14.449990813291825 68.2488
14.47248601302899 68.081
14.49496423954951 68.0824
14.517460561197822 68.2381
14.539939910570322 67.7562
14.562437357763558 67.9944
14.58493536931253 68.8787
14.607416409993311 69.3245
14.62991555254159 69.993
14.652397725157423 69.9971
14.674898002342799 69.8735
14.697398848433282 70.0365
14.719882725991326 71.2652
14.74238471217934 73.0937
14.764869730765593 76.223
14.787372860692983 79.1409
14.809876564079925 82.6536
14.83236330125751 88.2275
14.854868153850365 97.4057
14.877356041159485 111.818
14.899862046604186 131.61
14.922351087688757 158.986
14.944858249632887 189.232
14.967365991421232 217.85
14.989856770231246 227.354
15.012365673994204 219.22400000000002
15.03485761569738 187.023
15.05736768508665 140.264
15.07987833888692 107.333
15.102372032001655 85.8142
15.124883856909658 74.6128
15.14737872204565 71.2458
15.169891721717274 69.6833
15.192405310371893 69.2633
15.214901940621196 69.4827
15.237416709527137 69.0216
15.259914520936249 68.7786
15.282430473753607 67.8042
15.304947020131227 67.1222
15.327446610371178 66.8575
15.349964346154254 66.2635
15.372465126703139 66.0154
15.394984055556009 65.7035
15.417486030076159 65.6924
15.44000615566487 65.3868
15.462526881230803 65.2321
15.485030653812652 65.14399999999999
15.507552581617434 64.997
15.530057557334603 65.10600000000001
15.55258069104857 65.2671
15.575104429329837 65.3467
15.597611216864632 65.0312
15.620136166564563 65.6079
15.6426441664095 67.3859
15.665170331202765 69.9287
15.687697105158826 72.4422
15.710206930593545 75.4221
15.732734925158933 79.404
15.755245972089478 85.6097
15.77777519094324 95.2403
15.800287463046663 109.228
15.822817909869592 129.726
15.84534897229804 152.472
15.867863089299354 179.37599999999998
15.890395385222186 195.821
15.912910736597423 196.908
15.935444269699861 179.613
15.957978423016485 146.75799999999998
15.980495633101265 113.241
16.003031029129367 89.3958
16.02554948280019 72.4858
16.048086125229432 65.46
16.070623392487107 63.2701
16.09314371869582 62.3757
16.11568223789321 61.6641
16.13820381691126 60.7796
16.160743591742527 60.3457
16.183283996022084 59.6583
16.205807461423195 58.5835
16.228349126881973 58.3452
16.25087385432698 57.9339
16.27341678466365 57.4243
16.29594277784926 57.3777
16.31848697676433 57.2448
16.341031811604868 57.1905
16.36355971058487 57.1699
16.3861058195587 57.0449
16.40863499352978 56.0966
16.431182380342005 55.6003
16.453730407713202 55.2591
16.476261501364792 55.1508
16.498810812136167 54.8989
16.52134319004079 54.9449
16.54389378792203 54.7524
16.566445031001553 54.4768
16.588979342490088 54.355
16.61153187824822 54.3668
16.634067483263312 54.1138
16.656621315414416 54.0834
16.679175797408888 53.7225
16.701713349928728 53.7876
16.72426913389191 54.0731
16.74680798922351 54.1189
16.76936507887444 54.0582
16.791905240734874 54.2156
16.814463639794468 54.0735
16.837022695210294 53.9953
16.859564824093756 54.4211
16.882125194503903 54.559
16.904668639217885 55.1385
16.927230328348003 55.0602
16.949792678493612 55.2997
16.972338104193863 54.9516
16.994901778652235 54.7046
17.017448529496576 54.8973
17.040013531998152 55.5056
17.06257920018044 56.0408
17.0851279459922 56.5294
17.107694947817667 57.4787
17.130245028099072 57.9993
17.15281336730298 59.1662
17.17536478578733 61.1668
17.19793446610687 63.4671
17.220504818648422 66.7339
17.243058251703697 70.2563
17.265629950971032 75.1207
17.288184731571736 79.8768
17.310757781306908 83.5325
17.33333150794385 83.4516
17.355888317140174 80.6609
17.37846339986244 75.025
17.401021565958885 68.4851
17.42359800851343 63.3512
17.44617513265564 60.6992
17.468735341390783 59.2987
17.491261035594565 58.5249
17.51396340099364 58.1601
17.536490463869136 58.2721
17.559018209820174 58.3513
17.58154663977963 58.5955
17.604251766089718 58.5811
17.626781572227713 58.8865
17.64931206518155 59.1109
17.671843245885103 59.6898
17.69455114821572 59.7323
17.717083712612634 59.9892
17.739616967569667 60.1661
17.762150914021706 60.8315
17.78486160749854 60.8989
17.807396945166804 61.7173
17.829932977143503 63.0385
17.85246970436452 64.5311
17.875183204129467 66.3318
17.897721330097664 68.0524
17.920260154126645 70.1441
17.942799677153296 73.0187
17.9655159983646 76.9252
17.988056927677544 82.5852
18.010598558807683 90.9419
18.033140892692916 101.411
18.05586005052525 113.303
18.07840379824407 125.40799999999999
18.10094825154059 135.724
18.12366954819864 141.835
18.146215420998306 138.362
18.16876200220057 127.801
18.191309292745153 112.693
18.214033452627167 99.1216
18.236582170236648 89.04700000000001
18.259131600016456 84.8544
18.281681742907335 85.8336
18.304408781233683 90.9247
18.32696035875955 96.9533
18.349512652227624 102.07600000000001
18.372065662579683 105.78200000000001
18.394795594587553 105.374
18.41735004715306 100.432
18.43990521943684 92.4472
18.46246111238171 82.7923
18.485193953325208 74.3909
18.507751296070428 67.8937
18.530309362314178 64.34100000000001
18.552868153000343 62.6271
18.57560391815056 61.3796
18.59816416623245 61.1321
18.620725141597372 60.4682
18.643286845190268 60.1379
18.666025549835414 59.7559
18.688588718427933 58.9356
18.711152618092243 58.9162
18.73389353884365 58.7598
18.75645890921984 58.4599
18.77902501351406 58.0823
18.801591852673102 58.1557
18.824335739722738 57.5001
18.846904057212626 57.4209
18.8694731124168 57.1309
18.89204290628315 57.0256
18.914789774966803 56.8759
18.937361054791623 56.5455
18.959933076131318 56.3245
18.982505839934877 56.3754
19.00525570560582 56.2503
19.027829963004184 56.1946
19.05040496572238 56.402
19.072980714710468 56.2789
19.095733592739563 56.6156
19.11831084296757 56.8739
19.140888842324735 57.0599
19.16346759176222 57.1592
19.18622349753803 57.8555
19.208803755869358 58.6619
19.231384767143577 59.8457
19.253966532312948 61.8066
19.276725481241822 63.8515
19.29930876296784 66.4767
19.3218928014549 69.4464
19.34465404436217 72.4734
19.36723960516257 75.2393
19.389825925592426 75.4696
19.412413006605938 74.1627
19.43517731967805 69.953
19.457765930683355 65.171
19.48035530514408 60.8421
19.50294544401556 57.5685
19.525712842708348 55.2792
19.54830451925909 54.2975
19.570896963095727 53.5682
19.593490175174704 53.3459
19.616260674962184 53.3101
19.638855432416964 52.8533
19.661450960992624 53.1923
19.68404726164677 53.045
19.706820878021247 52.8259
19.729418731756834 53.0222
19.752017360452857 52.8056
19.77461676506804 53.0425
19.797393513540218 53.2528
19.819994478951667 53.4176
19.84259622316767 53.7886
19.8651987471481 54.1285
19.887978643247177 54.36
19.91058273574792 54.7388
19.933187610901943 55.7478
19.955969879466828 56.9749
19.97857632894404 58.4067
20.00118356396599 60.3331
20.023791585494575 62.8199
20.046577028914875 65.5259
20.069186632506966 67.8056
20.091797025500632 69.6825
20.114408208858933 69.9452
20.137196842715273 69.2584
20.159809615886765 67.06
20.18242318232135 64.5164
20.20503754298326 62.4362
20.227829382875154 61.4571
20.250445341109344 61.6112
20.27306209647285 62.7637
20.29567964993108 64.0432
20.31847471147704 64.9465
20.34109387027612 65.3221
20.363713830075454 64.5823
20.386334591841646 62.7309
20.409132890679302 59.9593
20.431755265564437 56.7001
20.454378445325528 54.077
20.477002430930366 52.3316
20.499803982716553 51.3749
20.522429589228004 50.6224
20.54505600449589 50.218
20.567683229489194 50.0922
20.590488049900088 49.7946
20.61311690359731 49.6781
20.63574656993626 49.2775
20.658553853717297 49.0175
20.681185154618298 49.1549
20.703817271080066 48.956
20.72645020407368 48.5787
20.749260783967177 48.4132
20.771895359337133 48.3414
20.794530754161617 48.4461
20.817166969412938 48.3579
20.83998086114876 48.18899999999999
20.86261872660049 48.2684
20.885257415405402 48.3517
20.90789692853701 48.1662
20.930714147864748 48.1341
20.953355319030678 48.1715
20.97599731745334 48.3552
20.99864014410749 48.0727
21.021460706796564 48.169
21.044105199328826 48.3535
21.06675052302631 48.4738
21.089396678865015 48.3611
21.112220600704806 48.8087
21.134868430275347 49.2684
21.15751709492456 49.7258
21.180166595629693 50.0854
21.202993892429635 50.4454
21.22564507473034 50.7982
21.24829709602816 51.0917
21.27112693608965 50.8791
21.293780644891275 50.7922
21.316435195634053 50.0409
21.339090589297417 49.37
21.361923832041875 48.8468
21.384580921090404 48.1425
21.407238856007325 48.0075
21.429897637773326 47.8382
21.45273429906592 47.8816
21.475394784108598 47.9833
21.498056118951983 47.7921
21.520718304578022 48.2409
21.543558400304388 48.3422
21.566222297108816 48.5003
21.58888704765135 48.6774
21.61155265291521 48.9111
21.63439619898156 49.239
21.657063523335786 49.5047
21.67973170537063 49.8343
21.7024007460706 50.4543
21.72524775840385 51.1453
21.747918526116475 52.3759
21.770590155457388 53.6109
21.79326264741238 55.2614
21.816113141960237 57.0383
21.838787368860547 59.2074
21.861462461341976 61.0279
21.884315579735777 62.985
21.90699241312273 63.9481
21.92967011506078 64.346
21.95234868653799 63.325
21.9752053151131 61.7632
21.997885635446785 59.8558
22.020566828293532 58.1022
22.04324889464272 56.5737
22.066109049404666 55.7859
22.088792872571794 55.6577
22.111477572219204 55.8416
22.1341631493376 55.7031
22.157026846313123 55.4434
22.179714188221507 54.4627
22.202402410582668 53.2673
22.22509151438863 51.8131
22.24795876962584 50.5716
22.270649646204486 49.6463
22.293341407213727 49.0344
22.316034053646906 48.7325
22.338904883215342 48.5823
22.36159931041458 48.483000000000004
22.38429462602756 48.2764
22.40699083104897 48.0525
22.429865251039757 48.0876
22.452563244831367 48.165
22.47526213102522 48.2467
22.49813925616515 48.1738
22.520839937143307 47.8599
22.543541513520587 48.0609
22.56624398629403 47.99100000000001
22.589124730075895 48.0071
22.611829005656723 48.3556
22.63453418063466 48.3476
22.657240256008077 48.4937
22.680124634582935 48.6447
22.70283252079775 48.7649
22.725541310413075 49.026
22.74825100442868 49.2312
22.771139033969575 49.6767
22.79385054687155 49.9775
22.81656296718292 50.6135
22.83927629590484 51.5916
22.862167992606945 52.6416
22.88488314827121 53.9798
22.907599215359284 54.9301
22.93031619487366 56.1619
22.953211574954405 56.842
22.975930389478226 57.5305
22.998650119445763 57.3809
23.02137076586092 56.373999999999995
23.044269845560063 55.1107
23.06699233506288 53.4185
23.089715744034912 51.632
23.112617610931565 50.0161
23.135342869061212 49.0546
23.158069049684816 48.4971
23.1807961538087 48.0793
23.20370174880544 48.3803
23.226430710184808 48.3555
23.249160598093425 48.4267
23.271891413539002 48.3042
23.294800752937697 48.3572
23.31753343374794 48.4777
23.340267045128353 48.5578
23.36300158808808 48.8758
23.38591468821339 49.2374
23.408651104658304 49.7929
23.431388455719986 50.3934
23.454126742409 51.3827
23.4770436196085 52.5464
23.499783787914662 53.9265
23.522524894889884 54.8661
23.54526694154616 56.1548
23.56818761219047 57.2179
23.59093154860734 57.5655
23.613676427751283 57.5439
23.636422250635754 56.4075
23.659346731118656 54.6365
23.68209445191868 52.504
23.704843119509587 50.3241
23.72759273490623 48.5578
23.750521041644767 47.4152
23.77327256312355 46.3985
23.796025035462787 46.0063
23.818956224555475 45.5202
23.841710609113413 45.5975
23.86446594758979 45.1255
23.887222241002014 45.1385
23.910157285144578 44.6852
23.932915498962537 44.6587
23.955674670778713 44.6114
23.978434801611975 44.4988
24.001373717286125 44.3732
24.024135776723917 44.1189
24.046898798245582 44.0188
24.06966278287146 43.9668
24.092605586582614 43.6509
24.115371508023642 43.5965
24.1381383956401 43.5099
24.16090625045381 43.4831
24.183852958731244 43.4031
24.206622758582608 43.3127
24.229393528706886 43.1374
24.252165270127392 43.2505
24.27511589952438 43.1938
24.297889594216997 42.8139
24.32066426328598 42.8421
24.34343990775613 42.7157
24.36639447485003 42.6998
24.38917208083877 42.6485
24.41195066531332 42.6201
24.43490819850244 42.6729
24.457688750692377 42.5151
24.48047028445616 42.5868
24.503252800821233 42.5028
24.526214300784112 42.6169
24.548998793132213 42.6921
24.57178427117417 42.5167
24.59457073593893 42.5045
24.617536219319863 42.4721
24.64032466834748 42.452
24.663114107195035 42.4313
24.685904536893013 42.1542
24.708874020360852 41.9799
24.731666442613744 41.8937
24.754459858818787 41.9261
24.777254270007962 41.8354
24.80022777025625 41.726000000000006
24.82302418230472 41.7051
24.845821592443674 41.8028
24.86862000170663 41.8159
24.891597535453727 41.6042
24.914397953892728 41.9316
24.93719937456671 41.7994
24.96000179851076 41.9984
24.98298338249997 42.1302
25.00578782394922 42.3358
25.028593271784167 42.4873
25.05157790644186 42.8582
25.07438537804115 42.9102
25.097193859145293 43.2448
25.120003350792075 43.5344
25.142992065061257 43.7066
25.165803588823465 43.9803
25.18861612625217 44.2826
25.211429678386736 44.2298
25.234422489079968 44.3329
25.257238081693636 44.4517
25.280054692141732 44.4679
25.3028723214652 44.5282
25.325869245420463 44.605
25.348688923599397 44.5029
25.371509623787006 44.5668
25.394331347025812 44.081
25.41733240110666 43.5879
25.440156181590016 42.8999
25.46298098826268 42.4224
25.48580682216873 41.7189
25.50881202326435 41.2865
25.53163992281684 40.9843
25.55446885274561 40.8404
25.577298814096377 40.4872
25.600308179121807 40.4173
25.623140214533745 40.4275
25.64597328451537 40.2483
25.66898578564376 40.1172
25.691820936010206 40.1706
25.714657124097695 40.0875
25.737494350954734 40.1051
25.760511045684957 39.9247
25.783350361364224 39.9222
25.806190718969255 39.9754
25.82903211955018 40.2078
25.852053024868923 40.1961
25.874896522722523 40.1956
25.897741066713106 40.1456
25.920586657892454 40.264
25.943611790812668 40.3903
25.966459487728237 40.6158
25.989308234998564 40.7093
26.01215803367705 41.0255
26.03518741123814 41.1092
26.05803932412957 41.3801
26.080892291600094 41.1043
26.10374631470478 41.2438
26.12677995397268 41.3042
26.14963609978026 41.2367
26.172493304397875 40.8731
26.19535156888223 40.6823
26.218389486949604 40.3065
26.241249882640123 40.2068
26.26411134137826 39.9288
26.28715248187403 39.7446
26.31001607820869 39.6791
26.3328807407756 39.5394
26.35574647063438 39.7661
26.37879191991473 39.635
26.401659795896734 39.6549
26.424528742360263 39.8796
26.447398760366614 40.1864
26.470448535598294 40.1644
26.49332070826805 40.2089
26.516193955675355 40.6709
26.53906827888316 40.7721
26.562122397260108 41.0131
26.584998883685063 41.3916
26.607876449110325 41.5903
26.63075509460056 41.7557
26.65381357334404 41.7755
26.67669439061878 41.7816
26.699576291163382 41.6094
26.722459276044212 41.4242
26.745522132402975 41.1256
26.768407297649354 40.8675
26.791293550442003 40.3869
26.814180891848974 40.3772
26.837248143099337 40.1748
26.860137673466657 40.025
26.88302829566349 39.7188
26.90592001075963 39.6588
26.92899167420566 39.508
26.951885586870763 38.969
26.974780595655517 38.8472
26.99785558178161 38.7842
27.020752794605112 38.6212
27.043651106772522 38.4964
27.06655051935668 38.4741
27.089629948036183 38.302
27.112531573292053 38.3284
27.135434302194138 38.3211
27.158338135817015 38.1054
27.181422024430987 38.2978
27.204328079372566 38.1117
27.22723524226965 38.1215
27.250143514198573 38.1088
27.273231880156334 38.1179
27.296142382065014 38.1311
27.319053996245536 37.9396
27.341966723775965 38.0337
27.365059584515222 38.1885
27.38797455070062 38.2497
27.410890633481237 38.0295
27.433807833936918 37.8739
27.456905206923906 38.1434
27.47982465472398 38.0851
27.502745223449743 38.2077
27.525666914182825 38.3113
27.548768816912457 38.143
27.571692763693633 38.1898
27.59461783573812 38.1278
27.617723149491244 37.8386
27.640650484125285 37.777
27.66357894728264 37.7338
27.686508540048052 37.8293
27.709618414237887 37.696
27.732550278321757 37.5765
27.755483275279115 37.4088
27.778417406196485 37.4398
27.801531858397514 37.5536
27.824468269376716 37.4973
27.847405817586786 37.4726
27.870344504116094 37.5701
27.893463551932008 37.6243
27.916404527281053 37.9968
27.93934664422563 38.0424
27.962289903855886 38.1962
27.98541356491974 38.4429
28.00835912214229 38.5076
28.03130582533231 38.8066
28.054253675581805 38.7745
28.077381967556104 38.7264
28.100332124185126 38.7132
28.123283431160893 38.6033
28.146235889577238 38.427
28.169368830154156 38.2476
28.192323603752033 38.0228
28.215279532083304 37.7015
28.238415973016764 37.5078
28.261374223145094 37.4631
28.284333631303806 37.159
28.307294198589954 37.0688
28.330435319167677 36.7909
28.353398217078915 36.5247
28.376362277420153 36.1918
28.39932750129032 36.1991
28.422473319286713 36.1545
28.44544088262495 36.0937
28.468409612800283 35.8286
28.491379510913497 35.6709
28.51453004413313 35.5803
28.53750229057244 35.6013
28.56047570826344 35.5259
28.583450298308804 35.6151
28.606605564586562 35.354
28.629582511831156 35.42
28.65256063474956 35.1808
28.675539934446338 35.1927
28.698699951647605 35.1853
28.72168161743193 35.2355
28.74466446331978 35.238
28.767648490417624 35.1986
28.790813276438353 35.1559
28.813799678527303 35.0492
28.836787265157085 35.1088
28.859955641890075 35.0044
28.882945610203045 35.0568
28.905936766392035 34.9544
28.928929111566863 34.9292
28.952102288520145 34.8757
28.975097024308607 34.6255
28.998092952423807 34.5762
29.021090073977508 34.68
29.04426806913204 34.4051
29.067267590245258 34.1556
29.090268308143695 34.2486
29.11327022394099 34.0804
29.13645305530891 33.9204
29.159457379627167 34.0127
29.18246290519685 33.9098
29.20546963313352 33.9352
29.22865731875826 34.0013
29.25166646419296 33.9693
29.27467681535305 33.8499
29.29768837335608 33.8465
29.320880931312562 33.8695
29.34389491580634 33.7386
29.366910110507334 33.7954
29.38992651653503 33.9732
29.41312396492981 33.8489
29.436142806456754 33.8304
29.45916286268059 33.7676
29.48236399319994 33.6561
29.50538649169417 33.4525
29.528410208259935 33.2752
29.55143514402014 33.0229
29.574641196749695 32.9288
29.597668583816574 32.9269
29.6206971934585 32.8271
29.64372702680042 32.8768
29.666938019934474 32.7215
29.689970313635285 32.523
29.713003834422636 32.5916
29.73603858342347 32.5199
29.759254535188578 32.5596
29.78229175361658 32.3872
29.80533020365064 32.4725
29.82836988641968 32.4608
29.85159081507472 32.4725
29.874632976355343 32.3826
29.89767637376955 32.4194
29.920721008448314 32.293
29.9439469322847 32.2041
29.96699405457564 32.1426
29.9900424175358 32.2594
30.013092022298157 32.2322
30.03632295963995 32.1885
30.059375061131373 32.2521
30.08242840783577 32.1417
30.105483000888153 32.1196
30.128718970092244 32.1984
30.151776069006917 32.1149
30.17483441768648 32.1802
30.198074175317235 32.0741
30.221135036724256 32.1204
30.24419715131772 32.0189
30.267260520236203 31.9584
30.290505341942243 31.9615
30.313571232750228 32.0361
30.336638381310948 31.9105
30.35970678876503 31.9995
30.38295669299435 31.8755
30.40602763151657 31.8618
30.429099832366074 31.8032
30.452173296685572 31.6758
30.47542830191959 31.7242
30.498504306502497 31.7018
30.521581577995562 31.8595
30.544660117543582 31.8606
30.56792024229725 31.910999999999998
30.59100133132069 31.7993
30.614083691845494 31.784000000000002
30.637167325018545 31.9356
30.660432587840603 31.9064
30.683518779717886 31.7564
30.70660624769615 31.9594
30.729694992924372 31.9246
30.75296541239743 31.8324
30.77605672557558 31.6726
30.799149319462742 31.7229
30.8224236211637 31.6376
30.845518789950724 31.6037
30.868615242910597 31.4764
30.891712981195973 31.3562
30.91499247215866 31.3111
30.938092794619365 31.373
30.96119440587579 31.1887
30.984297307082752 31.037
31.00758200598383 31.0034
31.030687500658694 30.9405
31.053794288760695 30.858
31.076902371446767 30.6622
31.100192296997445 30.7538
31.12330298246119 30.7363
31.14641496599209 30.6894
31.169528248749216 30.6743
31.19282341969534 30.5389
31.215939314557186 30.578000000000003
31.239056512134788 30.6388
31.262175013589378 30.6234
31.28547544871168 30.5759
31.30859657161541 30.4812
31.331719001892175 30.5634
31.35484274070538 30.6917
31.378148458819545 30.6102
31.401274828443725 30.5373
31.424402510106933 30.5656
31.447712205419993 30.619
31.470842524931633 30.5083
31.493974159989783 30.5825
31.51710711176168 30.5208
31.54042212308802 30.5416
31.563557722100917 30.3736
31.586694641341655 30.3247
31.609832881979628 30.1593
31.63315322823208 30.1421
31.656294125521327 30.0905
31.679436347728515 30.0534
31.70257989602529 29.9288
31.725905596152327 29.8634
31.74905181052835 29.8002
31.772199354521323 29.8327
31.79534822930507 29.8914
31.818679302290967 29.845
31.84183085259981 29.7858
31.864983737233473 29.8067
31.88813795736804 29.8015
31.911474422233013 29.8137
31.934631327356435 29.8186
31.9577895715215 29.9157
31.980949155906522 29.8235
32.004291031706956 29.6845
32.027453310562606 29.6392
32.05061693318573 29.5663
32.07396288236386 29.4791
32.09712920658542 29.398000000000003
32.12029687812702 29.3485
32.14346589817093 29.1574
32.166817291729984 29.1555
32.18998902288583 29.0817
32.21316210610336 29.0405
32.23633654256711 28.9612
32.259693399663725 28.9559
32.282870556771144 28.8514
32.30604907069099 28.8894
32.329228942610065 28.7855
32.35259128243769 28.6857
32.375773884550505 28.6606
32.398957848235646 28.7146
32.422143174682176 28.6415
32.445511016471215 28.5618
32.468699082679954 28.5283
32.49188851523011 28.506
32.51507931531304 28.3322
32.538452678331 28.3804
32.56164622776311 28.3899
32.58484114831493 28.232
32.60803744118015 28.2633
32.631416344731896 28.2774
32.654615396551876 28.2203
32.67781582427913 28.1373
32.701198898634416 27.9693
32.72440209253756 27.968000000000004
32.747606665947124 27.9943
32.77081262006088 27.8695
32.79420126883317 27.8678
32.81740999876112 27.8638
32.840620112999424 27.8013
32.86383161274818 27.7606
32.88722585534586 27.7526
32.91044014056596 27.7782
32.933655814909734 27.6744
32.95687287957963 27.7089
32.98027273544904 27.6126
33.00349259526636 27.5626
33.026713849030116 27.6469
33.04993649794511 27.5345
33.073341986570746 27.5097
33.09656744032826 27.5818
33.11979429286444 27.4928
33.14302254538647 27.5141
33.166433686291185 27.538
33.18966475336992 27.3864
33.212897224069096 27.291999999999998
33.23613109959831 27.3841
33.259547912343415 27.3254
33.2827846121627 27.3234
33.306022720453775 27.2799
33.32926223842861 27.17
33.352684742614166 27.1088
33.37592709463173 27.0754
33.399170859982064 27.0832
33.422597648419426 26.9636
33.44584425514446 26.8469
33.46909227885668 26.7705
33.4923417207723 26.7086
33.51577423505344 26.7237
33.539026528130385 26.6158
33.56228024307245 26.645
33.585535381098246 26.4675
33.60897364093058 26.4776
33.63223163992385 26.421999999999997
33.6554910656699 26.3514
33.678751919389796 26.3844
33.702195944520106 26.3435
33.72545966903325 26.2422
33.74872482519663 26.2198
33.771991414233746 26.2397
33.79544122444841 26.2157
33.81871069412428 26.0937
33.84198160035767 26.1262
33.86525394437455 25.9935
33.88870955949969 26.0251
33.911984794020626 25.9889
33.93526147001624 25.9458
33.958539588715006 25.8948
33.98200102861669 25.858
34.0052820477047 25.6931
34.02856451319451 25.7765
34.05203033759056 25.7058
34.07531571090147 25.676
34.09860253431845 25.6887
34.121890809074316 25.6372
34.145362493118924 25.6028
34.16865368561615 25.5245
34.191946333164054 25.5428
34.21524043699793 25.5108
34.23871800066799 25.4736
34.26201503218366 25.3917
34.28531352370466 25.3741
34.30861347646881 25.2321
34.33209693978188 25.1901
34.3553998301885 25.2449
34.378704185565205 25.2297
34.402010007152356 25.1527
34.42549939016683 25.1047
34.44880815937748 25.0241
34.472118398533134 24.9573
34.49543010887669 24.9921
34.51892543169198 24.866
34.54224009966052 24.9292
34.56555624255917 24.9793
34.58887386163339 24.8024
34.61237514439016 24.7126
34.6356957311114 24.7122
34.65901779775809 24.7104
34.68252356662995 24.5969
34.705848608458616 24.5834
34.72917513396849 24.5406
34.75250314440949 24.5145
34.77601490857862 24.4697
34.799345904259795 24.427
34.82267838863559 24.4661
34.846012362958525 24.4399
34.869530142679984 24.3562
34.89286711232212 24.3707
34.91620557568269 24.3178
34.93954553401677 24.3009
34.9630693495876 24.2474
34.986412313340814 24.3084
35.00975677584668 24.25
35.033102738362956 24.2375
35.05663261012228 24.1433
35.0799815881786 24.1216
35.10333207003229 24.0469
35.12668405694369 24.0616
35.150220005273056 23.9822
35.17357501786656 23.9582
35.19693153931268 23.8679
35.220289570874385 23.9229
35.24383161619786 23.9387
35.267192683604904 23.869
35.290555264930376 23.8506
35.314101899412165 23.8937
35.33746752422433 23.9124
35.36083466676374 23.8197
35.38420332829803 23.7678
35.407756095629054 23.7928
35.43112781085063 23.7455
35.45450104888391 23.7152
35.477875810999194 23.7583
35.50143473172161 23.6043
35.52481255774625 23.7069
35.54819191167777 23.6227
35.57157279478914 23.5932
35.595137889488406 23.568
35.61852184675279 23.5343
35.641907337029984 23.3927
35.665294361595684 23.3201
35.68886565090076 23.3671
35.7122557598848 23.3208
35.73564740699838 23.2756
35.759040593519934 23.1841
35.78261809810353 23.2138
35.80601437933051 23.1542
35.829412203814705 23.1144
35.85281157283719 23.0412
35.876395313415884 23.1137
35.8997977874528 22.9274
35.92320180988546 22.9131
35.946790244133936 22.848000000000003
35.97019737933222 22.8619
35.993606066789866 22.8025
36.01701630779276 22.7795
36.04061101440684 22.7627
36.06402437852291 22.7654
36.08743930005611 22.7372
36.1108557802951 22.6142
36.13445678011326 22.6827
36.15787639383515 22.6389
36.18129757014299 22.541999999999998
36.20472031032821 22.4879
36.22832762423364 22.4331
36.25175350829375 22.4601
36.275180960119776 22.3928
36.298609981005924 22.4609
36.32222362992669 22.471999999999998
36.34565580510207 22.455
36.36908955323448 22.3549
36.39252487562093 22.2327
36.416144880530226 22.1517
36.43958336764275 22.253
36.463023432914625 22.2503
36.486465077645676 22.1388
36.51009145956204 22.1609
36.53353627947859 22.1359
36.55698268276811 22.0929
36.58043067073321 22.0522
36.60406345072071 21.9113
36.62751462435344 21.9799
36.65096738658405 21.9301
36.67460498210655 21.9693
36.69806093788647 21.9145
36.72151848619297 21.776
36.744977628333636 21.7696
36.76862165890998 21.7675
36.79208400512205 21.7874
36.81554794910557 21.7174
36.83901349217101 21.6273
36.862663978991606 21.5645
36.88613273667352 21.601
36.90960309738324 21.619
36.933075062434064 21.4783
36.95673202673572 21.5388
36.98020721697122 21.4523
37.003684015502365 21.429000000000002
37.027162423645365 21.377
37.050825886711465 21.3439
37.07430753063053 21.337
37.09779078812467 21.3228
37.121275660513014 21.27
37.144945643673694 21.2275
37.16843376245278 21.1745
37.19192350009803 21.1678
37.215414857931435 21.0874
37.239091382563885 21.0522
37.262585997426164 21.0717
37.28608223645736 21.0026
37.309763684451696 20.9868
37.33326318851098 20.9787
37.356764320726555 20.9514
37.380267082425526 20.8745
37.40395510942588 20.8034
37.42746114683234 20.8314
37.45096881771841 20.7386
37.474478123414166 20.7593
37.49817275092816 20.7436
37.52168534303452 20.7053
37.54519957395567 20.6415
37.568715445024665 20.6346
37.592416694607714 20.5284
37.61593586281424 20.6029
37.63945667518264 20.6699
37.66297913304891 20.5411
37.68668702630454 20.5362
37.710212792059274 20.3951
37.733740207334854 20.3329
37.757269273470364 20.2608
37.780983832050374 20.2781
37.80451621684926 20.2904
37.82805025654007 20.2103
37.851585952464795 20.2098
37.8753071980695 20.1285
37.89884622345676 20.1078
37.92238690911902 20.1274
37.94611318753442 20.1236
37.969657210779765 20.0976
37.99320289834801 20.0763
38.016750251586465 19.9564
38.04048325513017 19.9537
38.06403395679343 19.9102
38.087586328183946 19.8915
38.11114037065203 19.8594
38.13488012115898 19.8531
38.1584375229181 19.8346
38.181996599821 19.8081
38.205557353221124 19.7339
38.229303872575656 19.6976
38.2528679961576 19.6783
38.27643380031219 19.6349
38.30000128639589 19.5692
38.32375459653193 19.5839
38.34732546371299 19.5819
38.37089801690786 19.5775
38.39447225747609 19.5415
38.418232380377425 19.4763
38.441810012983396 19.4848
38.46538933705673 19.4174
38.488970353960084 19.3902
38.51273731166058 19.3619
38.536321731567014 19.3608
38.55990784840681 19.293
38.58367995004091 19.2792
38.60726947812959 19.1647
38.63086070726198 19.1473
38.654453638806274 19.2512
38.678232613930824 19.1752
38.70182896773327 19.1053
38.72542702806741 19.0707
38.7490267963045 19.044
38.77281266709232 19.0241
38.79641586862214 18.935
38.8200207821842 18.9671
38.843627409152944 18.9218
38.86742019782782 18.8662
38.891030269149255 18.8429
38.914642058016156 18.8609
38.938255565806124 18.7931
38.96205529464307 18.7222
38.98567225787121 18.713
39.00929094417078 18.6781
39.03291135492255 18.7291
39.05671804624804 18.6933
39.080341923549106 18.6414
39.103967529460334 18.587
39.127594865365744 18.5198
39.15140854155791 18.5798
39.17503935514948 18.4984
39.19867190290282 18.4629
39.22249083587951 18.4313
39.24612686969409 18.4454
39.269764641845306 18.4043
39.293404153722804 18.3498
39.317230110864074 18.3087
39.34087311998506 18.2683
39.36451787301696 18.2715
39.388164371352595 18.1985
39.41199737518003 18.1618
39.43564738196752 18.1352
39.45929913825317 18.1595
39.48295264543308 18.1035
39.506792718520884 18.0959
39.530449745387216 18.0985
39.55410852735203 18.0504
39.57776906581474 18.0547
39.60161623079 17.9807
39.625280300200025 17.942999999999998
39.64894613032202 17.8978
39.67261372255866 17.9132
39.6964680021016 17.8908
39.72013913657293 17.8807
39.74381203738292 17.7662
39.76748670593756 17.8249
39.79134812278169 17.8489
39.81502634488497 17.7949
39.83870633896685 17.7314
39.862388106436654 17.6508
39.88625668336918 17.6558
39.90994201572829 17.7082
39.933629125719285 17.6413
39.957503091207826 17.5734
39.9811937746168 17.5427
40.00488623990914 17.562
40.02858048850006 17.4751
40.05246165409549 17.4612
40.076159487492085 17.4421
40.099859108448875 17.3874
40.123560518384345 17.3589
40.1474489070226 17.3598
40.171153913178564 17.293
40.194860712584955 17.2418
40.2185693066637 17.2641
40.242464941335314 17.2577
40.26617714307655 17.1629
40.289891143772046 17.1355
40.3136069448471 17.1046
40.33750984859743 17.1197
40.3612292688043 17.1439
40.3849504936829 17.1103
40.40867352466194 17.0533
40.43258372059144 17.0597
40.45631038219906 16.9412
40.48003885420956 16.9186
40.503769138055105 16.9697
40.52768664931955 16.8782
40.55142057531802 16.8832
40.57515631746428 16.8431
40.599079334038514 16.7954
40.62281872700477 16.8223
40.64655994043941 16.7837
40.67030297578061 16.7363
40.69423334835778 16.7263
40.71798004609188 16.7012
40.74172857006355 16.6179
40.76547892171441 16.6776
40.7894166736039 16.6508
40.813170699248566 16.6007
40.83692655691388 16.5489
40.86068424804498 16.5553
40.884629402612525 16.5301
40.908390779366385 16.51
40.932153993938 16.4851
40.95591904777605 16.4821
40.979871628443995 16.4534
41.003640379561936 16.4176
41.02741097430883 16.4407
41.05118341413683 16.3158
41.075143444384416 16.3477
41.098919593177826 16.2796
41.1226975914255 16.2929
41.14647744058318 16.2382
41.170444943946755 16.2118
41.19422851378379 16.2011
41.218013938914645 16.1534
41.24198706625173 16.0807
41.26577622087193 16.0803
41.289567235177785 16.0502
41.31336011063129 15.9935
41.337340752422875 16.0
41.361137369129835 16.0018
41.38493585138705 15.9257
41.40873620066004 15.9715
41.43272438060107 15.902999999999999
41.45652848292052 15.8438
41.48033445666918 15.8164
41.50414230331616 15.7956
41.528138045159764 15.8049
41.551949656675205 15.7162
41.575763145513235 15.7114
41.59957851314666 15.7476
41.62358184070442 15.6545
41.64740098505737 15.6277
41.6712220126409 15.6252
41.69504492493139 15.5856
41.71905586207357 15.5734
41.74288256296395 15.564
41.766711153007456 15.5855
41.79054163368412 15.5242
41.814560204340054 15.5406
41.838394485526365 15.4566
41.86223066180303 15.4013
41.88625497706819 15.3891
41.910094962812 15.360999999999999
41.93393684811168 15.357000000000001
41.95778063445365 15.3153
41.981812625263366 15.3177
42.00566023303407 15.2643
42.029509746323676 15.2252
42.05336116662236 15.1834
42.077400857069705 15.2046
42.10125611078846 15.1663
42.12511327600405 15.1425
42.14897235421036 15.107000000000001
42.173019768448455 15.0839
42.19688269209613 15.0439
42.22074753323349 15.0323
42.24461429335818 15.0651
42.268669455600495 14.9919
42.292540073217886 15.0334
42.31641261433284 14.9479
42.34028708044675 14.87
42.36435001496739 14.9562
42.38822835065557 14.9084
42.41210861586426 14.8052
42.4359908120986 14.8889
42.46006154323262 14.7934
42.48394762115317 14.7549
42.507835634632315 14.7397
42.531912233047436 14.6927
42.55580413732265 14.7251
42.579697981698 14.6667
42.60359376768525 14.6241
42.62767820545945 14.635
42.65157789440821 14.5805
42.67547952952185 14.5881
42.699383112316 14.5098
42.72347541395347 14.4924
42.74738291190531 14.458
42.771292362102166 14.4795
42.795203766063516 14.4676
42.819303956130405 14.4172
42.843219287476536 14.3824
42.86713657716324 14.4046
42.89105582671383 14.3533
42.91516392983864 14.3524
42.939087119032166 14.261
42.963012272677304 14.2697
42.98693939230129 14.2649
43.01105543317513 14.1595
43.034986504731386 14.1788
43.05891954686589 14.1803
43.08285456110972 14.1178
43.10697856448665 14.0821
43.130917542983475 14.0446
43.15485849820081 14.0565
43.17880143167367 14.0587
43.20293342237094 14.0467
43.226880332449 14.007
43.25082922540554 14.0054
43.27496722682525 13.923
43.29892010567796 13.897
43.32287497204102 13.8843
43.34683182745632 13.8508
43.370977859791836 13.8498
43.39493871351105 13.8363
43.41890156092628 13.8446
43.44286640358341 13.7891
43.46702049182749 13.7335
43.49098934522816 13.7337
43.51496019852649 13.7306
43.5389330532723 13.6736
43.56309522248204 13.683
43.58707210044314 13.6372
43.61105098451946 13.6171
43.63503187626491 13.5972
43.659202151562134 13.6211
43.68318707902681 13.5466
43.70717401884041 13.493
43.731162972560874 13.4713
43.75534137913236 13.4181
43.779334381108384 13.4537
43.803329401683186 13.4299
43.82732644241872 13.4542
43.8515130055166 13.4151
43.87551410707659 13.3278
43.89951723350145 13.3297
43.923709934595614 13.3142
43.94771713129917 13.3057
43.97172635758096 13.2713
43.99573761501002 13.2228
44.0199385169922 13.2442
44.04395385732619 13.237
44.067971233533086 13.1895
44.09199064718605 13.1779
44.11619977548961 13.0773
44.14022328470671 13.0937
44.16424883610785 13.1004
44.18827643127035 13.0992
44.21249381139513 13.0592
44.236525514814076 13.0313
44.26055926674478 12.9481
44.28459506876863 13.0061
44.3088207262813 12.9456
44.33286064928722 12.9489
44.35690262714919 12.8699
44.38094666145278 12.8363
44.4051806219871 12.9353
44.42922879003185 12.8189
44.45327901929361 12.8339
44.477331311362136 12.829
44.501573600619416 12.7712
44.525630039221795 12.7166
44.54968854541895 12.7461
44.573937102200176 12.7296
44.5979997645541 12.7229
44.622064499300315 12.6546
44.64613130803592 12.6672
44.67038823869318 12.6391
44.69445921643748 12.5782
44.718532272981385 12.548
44.742607409926194 12.5648
44.76687274034801 12.5279
44.79095205918753 12.4952
44.81503346325094 12.4808
44.839116954143876 12.5119
44.86339071028742 12.472000000000001
44.88747839599524 12.4301
44.91156817336837 12.3991
44.93566004401666 12.3634
44.959942251908146 12.3253
44.984038330325966 12.3091
45.00813650686762 12.3003
45.03223678314731 12.3105
45.05652746888232 12.2691
45.08063196592069 12.2593
45.104738567558705 12.2558
45.128847275414856 12.2135
45.15314646515866 12.1788
45.17725940679741 12.1954
45.20137445952892 12.1164
45.22568004865265 12.0744
45.24979934496396 12.1103
45.27392075725247 12.1062
45.29804428714431 12.0614
45.322358426247604 12.0532
45.346486212804315 12.0154
45.370616121861914 11.9691
45.39474815505086 11.9586
45.41907087049246 11.921
45.4432071734666 11.9192
45.46734560548283 11.9039
45.49148616817604 11.8924
45.51581748638564 11.8772
45.5399623320197 11.8353
45.56410931325473 11.7963
45.58825843173002 11.8032
45.61259837920865 11.7954
45.636751793816 11.7968
45.66090735060093 11.707
45.68506505120716 11.6883
45.7094136545275 11.6708
45.73357566449271 11.6783
45.75773982322992 11.6586
45.78190613238733 11.6285
45.806263418194064 11.6103
45.83043404997326 11.5863
45.85460683713677 11.5591
45.87897065658495 11.5734
45.90314777634752 11.5193
45.92732705646868 11.4581
45.9515084986045 11.4896
45.97588104735473 11.5039
46.00006683541565 11.4146
46.02425479047904 11.3892
46.04844491420549 11.4383
46.0728262191024 11.4195
46.09702070211635 11.3732
46.12121735879483 11.356
46.14541619080294 11.35
46.169806278764455 11.325
46.194009483459034 11.2971
46.21821486849841 11.2684
46.24242243555223 11.2505
46.266821333570014 11.2656
46.29103328674601 11.1816
46.31524742696538 11.1939
46.33946375590237 11.1462
46.36387149104216 11.1511
46.38809221957392 11.12
46.41231514186606 11.1201
46.436540259597464 11.095999999999998
46.460956858999374 11.035
46.48518638983522 11.0505
46.509418121166966 11.0528
46.533652054678114 10.9993
46.55807754555709 10.9553
46.58231590571962 10.9525
46.60655647313217 10.9492
46.630988654873654 10.89
46.655233659129024 10.8429
46.67948087571551 10.8739
46.70373030632484 10.8654
46.72817142736393 10.8374
46.752425308428684 10.8343
46.77668140861147 10.8034
46.80093972960865 10.7416
46.82538981736788 10.7518
46.849652602470904 10.7321
46.87391761349769 10.7351
46.8981848521493 10.7016
46.9226439341274 10.6835
46.946915650573224 10.642000000000001
46.97118959976749 10.6264
46.99546578341598 10.6155
47.019933887188216 10.616
47.04421456235744 10.5316
47.06849747711879 10.5581
47.09278263318286 10.5508
47.11725978640143 10.5442
47.14154944775105 10.525
47.165841355555656 10.4924
47.1901355115306 10.4361
47.214621741924994 10.3971
47.23892041698887 10.4132
47.26322134538975 10.384
47.28771440635075 10.4187
47.31201986422527 10.4006
47.33632758061436 10.350999999999999
47.360637557241866 10.3292
47.38513974410611 10.3232
47.40945426407847 10.290999999999999
47.43377104948137 10.2883
47.45809010204344 10.2627
47.48260144275502 10.2173
47.506925052572285 10.1864
47.53125093475548 10.1871
47.55557909103813 10.18
47.58009961361992 10.163
47.60443234110732 10.1513
47.62876734791564 10.1178
47.65310463578333 10.113999999999999
47.6776343683373 10.1057
47.7019762413987 10.0841
47.72632040075572 10.0561
47.75066684815169 10.0392
47.77520581885936 10.0076
47.799556865477655 9.955160000000001
47.823910205386 9.97345
47.84826584033272 9.982280000000001
47.87281407745551 9.92886
47.89717432569297 9.90802
47.92153687423484 9.90864
47.94609208429692 9.910210000000001
47.97045925671401 9.89198
47.99482873471275 9.80595
48.01920052005013 9.840639999999999
48.04376504619224 9.807310000000001
48.068141469543484 9.787
48.09252020552573 9.78086
48.11690125590099 9.78215
48.1414751266064 9.701889999999999
48.16586082917454 9.75774
48.19024885144316 9.712489999999999
48.2146391951793 9.66549
48.239222439012764 9.67252
48.26361744916137 9.675469999999999
48.28801478610016 9.65015
48.31241445160131 9.64011
48.337007097209366 9.6341
48.36141144338331 9.58513
48.38581812345755 9.591280000000001
48.41022713920929 9.55363
48.434829215320704 9.531460000000001
48.45924292604658 9.526019999999999
48.48365897780325 9.49366
48.50807737237308 9.49548
48.532688907799276 9.477319999999999
48.55711201168574 9.4502
48.581537463754074 9.39795
48.60615611725119 9.41911
48.63058628942721 9.38224
48.65501881516546 9.36036
48.6794536962573 9.36068
48.70408185970339 9.35412
48.72852147531801 9.35379
48.75296345168211 9.26447
48.77740779059232 9.2774
48.80204549302823 9.284939999999999
48.82649458091802 9.24798
48.85094603676547 9.22283
48.87539986237231 9.21626
48.90004713292306 9.186169999999999
48.92450572200832 9.17794
48.94896668628025 9.15071
48.97343002754588 9.14349
48.99808689542115 9.12641
49.02255501470614 9.145719999999999
49.04702551642794 9.10488
49.0714984023988 9.07444
49.096164896893235 9.09535
49.120642575466796 9.07724
49.145122643748394 9.04341
49.16960510355558 8.988610000000001
49.19428125404938 9.00026
49.2187685210852 8.95982
49.243258185121555 8.95425
49.26794160167084 8.92302
49.2924360839405 8.90956
49.31693296869764 8.90243
49.34143225776915 8.85619
49.36612538195438 8.83216
49.39062950396021 8.87246
49.41513603578346 8.83565
49.4396449792564 8.8228
49.46434784069503 8.79984
49.488861631846454 8.79301
49.513377840166804 8.77849
49.537896467493745 8.755510000000001
49.56260909589029 8.735339999999999
49.587132585683285 8.72887
49.611658500018365 8.72851
49.636186840738596 8.67153
49.66090926588511 8.66339
49.685442483902584 8.67871
49.70997813385706 8.60644
49.734516217597076 8.619769999999999
49.75924846937352 8.612219999999999
49.7837914452858 8.60207
49.80833686055187 8.56827
49.83288471702571 8.54908
49.85762682540054 8.51769
49.882179588965734 8.50801
49.9067347993235 8.48911
49.93129245833333 8.4751
49.95604445336378 8.48635
49.98060703442832 8.43973
50.005172069746266 8.46296
50.02993150438364 8.46217
50.05450147301533 8.43705
50.07907390151433 8.40756
50.10364879174981 8.387360000000001
50.12841816587289 8.341000000000001
50.1529980044635 8.33843
50.17758031042124 8.3346
50.20216508562089 8.32537
50.22694442953363 8.290460000000001
50.25153416817468 8.27929
50.27612638170508 8.26823
50.300721072005196 8.245410000000001
50.325510416102105 8.21377
50.350110084975064 8.20764
50.37471223628208 8.1965
50.39931687190919 8.16729
50.424116246675766 8.15448
50.44872587605249 8.156930000000001
50.47333799543065 8.12532
50.49795260670191 8.1379
50.52276204271512 8.081389999999999
50.54738166295838 8.11223
50.57200378079314 8.07727
50.596628398116835 8.04831
50.62144792604559 8.06594
50.646077567609396 8.02026
50.670709714377715 8.01453
50.69553683636198 8.00767
50.72017401885922 8.00647
50.7448137122895 7.967230000000001
50.76945591856022 7.96926
50.79429318636823 7.924239999999999
50.818940443716784 7.9048300000000005
50.84359021965163 7.919510000000001
50.868242516085964 7.89037
50.893089960641895 7.869619999999999
50.917747323549435 7.840739999999999
50.94240721271973 7.80312
50.96706963007175 7.831180000000001
50.99192728239342 7.822589999999999
51.01659478166073 7.84342
51.04126481489051 7.80392
51.06593738400761 7.803319999999999
51.090805275207074 7.77345
51.11548294172845 7.76207
51.14016314993547 7.700819999999999
51.164845901758845 7.69136
51.18972406304274 7.68174
51.21441192780656 7.64884
51.23910234200271 7.644589999999999
51.2637953075678 7.64168
51.288683770237945 7.60233
51.31338186432707 7.588419999999999
51.33808251561888 7.58524
51.362978729967345 7.59271
51.387684521509755 7.580089999999999
51.41239287610203 7.579
51.437103795691165 7.54248
51.46201036644977 7.52822
51.486726441956634 7.49667
51.51144508832545 7.4988
51.536166307509156 7.43832
51.56108326624387 7.45622
51.58580965706056 7.4235
51.61053862657523 7.432510000000001
51.635270176746864 7.37637
51.66019755512065 7.3751
51.68493429268881 7.34753
51.70967361681515 7.35945
51.73441552946465 7.33551
51.759353359237934 7.35285
51.7841004750961 7.34886
51.80885018539685 7.3252
51.833602492111254 7.260330000000001
51.8585508051424 7.263539999999999
51.883308330926425 7.26315
51.90806845906181 7.266769999999999
51.932831191525715 7.213430000000001
51.95779001977161 7.1870899999999995
51.98255798721516 7.161580000000001
52.00732856494335 7.16816
52.03229530577543 7.14562
52.057071130455945 7.12816
52.081849571391054 7.119860000000001
52.106630630568695 7.15641
52.13160794279417 7.10805
52.15639426492067 7.0979399999999995
52.18118321127822 7.11293
52.205974783860896 7.08718
52.23096269971011 7.05634
52.255759551287994 7.061710000000001
52.280559035098186 7.03843
52.30536115314103 7.0161
52.33035970494467 7.00736
52.35516711807904 7.0048699999999995
52.37997717147198 6.961
52.40478986713005 6.90482
52.42979908731974 6.9100600000000005
52.454617094216 6.91373
52.47943774942214 6.90455
52.50426105495102 6.90455
52.529280976059844 6.84092
52.554109609024096 6.8343300000000005
52.57894089837482 6.8281600000000005
52.60377484613117 6.83016
52.62880550079408 6.865060000000001
52.65364479223379 6.790839999999999
52.67848674816189 6.78148
52.70352547971946 6.765910000000001
52.72837279155837 6.761539999999999
52.753222773982785 6.741569999999999
52.778075429022984 6.72025
52.80312495150885 6.7464699999999995
52.827982978797436 6.728510000000001
52.85284368481815 6.716469999999999
52.87770707160767 6.6752899999999995
52.90276741793998 6.6767
52.92763619336701 6.68002
52.952507655698504 6.67885
52.977381806977576 6.62742
53.00245301017842 6.61758
53.02733256653592 6.62943
53.052214817996074 6.5813
53.077099766608484 6.59628
53.102181859804446 6.5605899999999995
53.127072229988265 6.56348
53.15196530349892 6.55432
53.17686108239249 6.52562
53.20195409881522 6.46026
53.22685531582556 6.47076
53.25175924441303 6.47739
53.27666588664027 6.459219999999999
53.30176985962693 6.42628
53.3266819565689 6.42127
53.35159677336455 6.41425
53.376514312083096 6.38467
53.40162927507703 6.40362
53.42655228516116 6.37822
53.45147802340193 6.35743
53.47660125628886 6.3238
53.50153247842639 6.35078
53.52646643496923 6.3186800000000005
53.55140312799818 6.30609
53.576537409691696 6.2742
53.60147960336152 6.28399
53.626424539786164 6.258769999999999
53.65137222105307 6.21076
53.67651758529126 6.192769999999999
53.70147078399681 6.20186
53.72642673383343 6.18582
53.75138543689533 6.18623
53.776541917524526 6.21695
53.801506154876755 6.17336
53.826473151763246 6.1848
53.851442910284916 6.14326
53.87661054126026 6.12346
53.9015858509782 6.09775
53.92656392866066 6.12525
53.95154477641532 6.06372
53.976723591801296 6.06811
54.00171000771266 6.08102
54.02669920004598 6.08624
54.051691170915745 6.07099
54.076881204886796 6.0362599999999995
54.101878760928514 6.00817
54.12687910187696 5.97294
54.152077577768296 5.99449
54.1770835166946 5.96619
54.20209224691339 5.96255
54.22710377055121 5.94923
54.25231352511594 5.93692
54.27733066384342 5.8893
54.30235060239643 5.8839
54.32737334290836 5.89996
54.35259441062629 5.86404
54.377622783395324 5.79085
54.40265396455061 5.81524
54.42768795623251 5.78463
54.45292037169559 5.75589
54.477960012857906 5.79433
54.50300247099511 5.76841
54.52804774825457 5.73136
54.55329154616743 5.698919999999999
54.57834249018678 5.68452
54.6033962597977 5.63727
54.6284528571545 5.65525
54.653708072335164 5.62986
54.67877035378786 5.59437
54.70383546947698 5.61178
54.72890342156389 5.5722
54.7541700889442 5.56059
54.77924374251975 5.5292
54.8043202390049 5.5041199999999995
54.82959552413022 5.47872
54.8546777351945 5.52235
54.87976279569621 5.471830000000001
54.90485070780914 5.47905
54.930137506558005 5.39115
54.95523115074295 5.44762
54.98032765308844 5.34274
55.005427015775496 5.33849
55.03072536339621 5.39484
55.05583047570572 5.31862
55.080938454927676 5.27425
55.10604930325027 5.30083
55.131359235107396 5.30837
55.15647585066083 5.24845
55.181595341907496 5.2065
55.20671771104285 5.18816
55.232039262617704 5.1793
55.25716741665048 5.15
55.28229845518636 5.1611
55.30743238042802 5.09396
55.33276558731939 5.06543
55.357905315183636 5.10735
55.383047936390035 5.06616
55.40819345314859 5.00787
55.433538351073295 4.99831
55.458689688238415 5.05622
55.483843927614096 4.954680000000001
55.509197623043605 4.93881
55.53435769621134 4.88852
55.55952067826466 4.89462
55.5846865714265 4.85475
55.61005202069737 4.87211
55.63522376553902 4.84584
55.66039842818645 4.81251
55.68557601087004 4.762490000000001
55.7109532500271 4.71209
55.73613670233794 4.803380000000001
