TT I
1.2716486653135266 7.659739999999999
1.2939594142134223 7.18515
1.3162702121660406 7.0875699999999995
1.3385810600174564 6.71617
1.3608919586137629 6.8158199999999995
1.383202908801069 6.040769999999999
1.405513911425503 5.83929
1.4278249673332093 6.47198
1.4501343378461518 5.68634
1.4724455028545926 5.87918
1.4947567236847858 5.59978
1.517068001182951 5.84697
1.5393793361953272 5.79973
1.5616907295681737 5.80662
1.5840021821477681 5.2686
1.60631369478041 5.335430000000001
1.6286252683124185 5.45653
1.6509369035901333 6.22026
1.6732468618895553 5.49051
1.695558623192809 4.59355
1.7178704487808514 4.89469
1.7401823395001077 4.4893
1.7625012545597203 4.809480000000001
1.7848028405262486 4.62718
1.8071218901122095 4.69447
1.8294236121921872 4.66599
1.8517427996910911 4.57581
1.8740620574440425 4.56217
1.8963639900671978 4.752269999999999
1.9186833908139995 5.04948
1.9409854680117449 4.81369
1.9633050151394713 5.05553
1.9856246367570705 5.33589
2.0079269371922672 4.891430000000001
2.03024671027244 4.7759599999999995
2.0525491637446027 4.98292
2.074869091674931 4.5541
2.097171701569106 4.45159
2.1194917877373847 4.41069
2.141811954326636 4.72534
2.164114805233074 5.37971
2.186435135143035 6.2173099999999994
2.208738150935709 16.0542
2.231058647554722 34.5633
2.2533792288321184 26.9119
2.275682498336085 12.0486
2.298003251406138 6.60933
2.3203066942619714 5.77029
2.3426276225136022 5.624630000000001
2.3649486396617507 6.07435
2.387252348930071 5.896319999999999
2.4095735463442893 5.78458
2.4318774374315884 6.31879
2.4541988185014043 6.42949
2.476502894794693 6.942360000000001
2.498824462909887 6.9315
2.521146125856138 6.968960000000001
2.5434504863470337 7.01138
2.5657723414244717 7.41592
2.588076895590662 8.19449
2.610398946189713 8.19356
2.6327210958598384 7.7474300000000005
2.6550259469304716 7.94453
2.6773482972090137 7.860810000000001
2.6996533504259 8.03323
2.7219759047039602 8.50216
2.744298562293959 8.15754
2.7666039251246595 8.25484
2.7889267918020164 8.12094
2.8112323652516555 8.21642
2.833555444408179 8.06916
2.8558786311183852 8.306519999999999
2.8781845268938557 9.16842
2.9005079311721484 8.86922
2.9228140460410397 9.00585
2.9451376712799635 9.50558
2.967444008632326 10.0426
2.9897678582247247 10.2517
3.0120918213106695 10.2159
3.0343984987899373 10.5442
3.0567226913198637 11.3429
3.079029599759726 11.9013
3.101354025127254 12.0753
3.123678568232338 12.735
3.145985829517914 12.7691
3.16831061055229 13.4223
3.1906181112775593 14.2961
3.212943133635653 14.7118
3.2352682779763207 14.8842
3.2575761442691227 15.6711
3.2799015350264273 15.5284
3.302209649240067 16.2858
3.3245352898092655 16.5032
3.3468436553365257 17.5627
3.369169549113219 17.7918
3.3914955708171384 18.6368
3.413804319727358 19.0931
3.4361305997334863 19.219
3.4584396084414553 19.8574
3.4807661501462652 20.4886
3.503092824025881 21.0102
3.5254022288463154 21.2986
3.5477291695206588 21.7574
3.5700388426251948 22.9461
3.5923660534916446 24.5236
3.6146934007816114 42.9197
3.637003482731501 106.615
3.6593311053109985 121.125
3.681641464033634 67.1259
3.7039693653009733 32.9124
3.726297407241705 26.7882
3.7486081875460804 26.0875
3.7709365132734978 26.3263
3.793247578841633 26.9915
3.8155761917550093 27.2936
3.8378875459837216 27.4964
3.8602164494827234 27.8113
3.882545499606844 28.6885
3.9048572932539183 29.1989
3.9271866390645718 29.6485
3.9494987298666713 29.9228
3.971828374764527 30.7744
3.9941581705403255 31.2671
4.016470713506008 31.8407
4.038800813471445 32.4499
4.061113662089144 32.9042
4.0834440696459176 34.0952
4.105774632334751 34.251
4.128087945865126 34.9499
4.150418821249301 36.3802
4.172732448931298 37.5386
4.195063640413578 39.7906
4.2173775856475215 44.358000000000004
4.239709096631102 82.8318
4.262040768704612 289.131
4.284355196706267 404.24300000000005
4.306687193387355 256.04900000000004
4.329001947444346 92.8254
4.35133427213731 49.8387
4.373666762177566 45.0794
4.395982011761091 45.2892
4.418314834921175 46.6612
4.44063041906622 56.1934
4.4629635787515625 69.7222
4.4852969080429785 69.6746
4.5076130004776225 56.0649
4.529946671403969 50.8217
4.552263106909177 50.2228
4.574597122877047 51.3405
4.596931312711224 52.3601
4.619248269273446 53.42
4.6415828092605835 54.1383
4.663900117405352 55.3057
4.686235010953232 56.7455
4.708552674085913 58.2605
4.730887924602802 59.4533
4.753223354952695 60.7034
4.775541557023902 62.29
4.797877349456786 64.0499
4.820195915032126 65.819
4.842532072957498 67.4952
4.864868414979744 69.0866
4.88718753227192 70.9256
4.909524244902505 73.3377
4.931843734218147 75.1186
4.954180820867835 77.4266
4.976518095879839 80.9458
4.998838149695359 83.2573
5.021175803844231 86.3001
5.043496238205739 89.3886
5.065834274903528 93.7629
5.088172504230693 98.3135
5.1104935158799565 105.13600000000001
5.132832132875765 129.764
5.155153533596801 182.877
5.1774925416746225 216.592
5.199814334878411 336.704
5.2221537374521505 933.413
5.244493338631803 2685.1
5.266815727034316 7204.5
5.289155727832427 12528.0
5.311478517248165 9049.99
5.333818921080011 3056.09
5.356159527788849 616.614
5.3784829252032536 196.032
5.400823940070432 148.095
5.423147747031976 130.357
5.445489173474152 120.245
5.467830807066149 113.72
5.490155234831516 109.426
5.512497285125229 106.561
5.534822130975162 104.727
5.557164601388673 102.1
5.579489868738879 99.2246
5.601832762690846 98.7556
5.6241758697774475 98.1295
5.646501775867269 96.7507
5.668845311622074 95.15799999999999
5.691171647754637 94.1867
5.713515615597765 93.0495
5.735859800852677 92.0633
5.758186788542988 91.2632
5.780531411018185 91.1476
5.802858837297399 90.637
5.825203900414495 90.79700000000001
5.8475491852224 91.0952
5.869877275883075 91.69200000000001
5.892223006467101 92.6085
5.914551544266608 93.5653
5.936897724049891 95.9357
5.959244129804903 100.71799999999999
5.981573344815301 115.88
6.0039202049061 194.303
6.026249875609095 417.959
6.04859719346037 922.387
6.070927323278297 2066.88
6.093275102315365 4381.52
6.115623113320588 5300.3
6.137953938319995 3541.71
6.160302415650845 1120.06
6.182633708324452 260.323
6.2049826554078376 119.46
6.227331838745022 94.7845
6.249663839443684 87.1634
6.27201349767565 84.6492
6.294345974611799 92.8074
6.316696111167083 108.352
6.339046488263839 101.98200000000001
6.361379686074702 82.53399999999999
6.383730546639482 73.158
6.406064229255215 69.6235
6.428415576718203 68.7575
6.450749747566656 67.1238
6.47310158535871 66.6802
6.495453669698332 65.8013
6.517788579421056 65.5117
6.540141159237969 64.2411
6.562476565766648 63.8954
6.5848296444934045 63.408
6.607182974060425 62.9105
6.6295191323281015 63.4053
6.651872965955752 68.0014
6.6742096296068985 100.834
6.6965639707294615 160.92700000000002
6.71891856698715 162.319
6.741255995248479 105.626
6.763611104154477 71.5448
6.785949046381137 61.8766
6.808304671371482 59.305
6.8306605557940046 58.467
6.852999275508618 57.606
6.875355681171544 57.5684
6.897694923437771 57.1253
6.92005185377892 57.5834
6.9423916220322655 57.1171
6.964749080490181 56.23
6.987106804399774 56.2344
7.009447368180821 56.2796
7.031805625367033 55.8556
7.054146723727803 56.0483
7.076505517631004 55.8022
7.098864581288365 55.913999999999994
7.121206488070854 55.526
7.143566093607822 55.3817
7.165908543567245 55.8249
7.188268694426048 56.1812
7.2106291193438095 56.5447
7.232972390625943 58.2024
7.255333366030969 73.7248
7.277677189091925 143.215
7.300038718428332 207.231
7.322400526130865 173.83
7.344745183422596 100.661
7.367107550224791 65.0818
7.389452767901992 57.555
7.411815697249891 56.1437
7.434161478756298 55.1401
7.456524974096713 54.9543
7.478888753837185 54.8645
7.501235387657368 55.2198
7.523599738562711 55.2687
7.545946944825532 55.6755
7.568311870344528 55.7244
7.5906770845765665 55.922
7.613025156078678 57.8287
7.635390950099687 59.4708
7.657739602662809 58.358000000000004
7.680105979923558 56.6955
7.702472650212829 56.4593
7.724822180948224 56.2676
7.747189439655568 56.6581
7.769539560075357 56.625
7.791907410653562 57.1998
7.81425812420825 56.6975
7.836626570110925 57.2287
7.858995315087906 57.8543
7.881346924933401 57.9873
7.903716270417482 58.7028
7.926068482028405 59.1223
7.948438431475253 59.4369
7.9708086843180235 60.2038
7.993161805171116 60.7613
8.015532667162402 61.1516
8.037886398416653 62.0362
8.060257873014221 62.6192
8.082629655331942 63.0288
8.104984308787587 64.2366
8.127356708900503 68.1337
8.149711981398308 75.3297
8.172085002766314 78.2412
8.194458336181368 73.9354
8.216814543847752 70.1172
8.23918850371002 69.9287
8.26154533906492 70.3068
8.283919928836452 72.0519
8.306277395339652 72.9296
8.328652618483376 74.2661
8.351028159736202 75.8015
8.373386579575245 78.152
8.395762759396959 80.0021
8.418121819038275 85.84299999999999
8.440498640894003 101.385
8.462875785192262 118.022
8.485235811156207 126.89
8.507613602688501 158.124
8.529974277114228 236.43099999999998
8.552352719347912 366.786
8.574731488360351 615.342
8.59709314210385 1119.9
8.619472567021075 1813.5
8.64183487789147 2210.41
8.664214962183097 1892.82
8.686577933647762 1028.49
8.708958680784317 406.82300000000004
8.731339760774953 178.28400000000002
8.753703729764451 114.956
8.77608547780821 100.5
8.798450116065078 96.2581
8.820832535634787 92.9476
8.843215292401656 91.2891
8.865580941199045 89.8458
8.887964374703538 88.9119
8.910330701447199 91.1047
8.932714815164482 93.9776
8.955099270424924 92.9551
8.977466620733543 89.2946
8.999851761421976 86.0655
9.022219798361645 84.3022
9.04460562795561 83.7549
9.066991803441677 82.9722
9.089360876979615 82.9959
9.111747746589993 82.6898
9.13411751544971 82.2589
9.156505082664324 81.7179
9.178875550323522 81.7761
9.20126381862328 82.6528
9.223652438908596 82.8009
9.246023961427412 82.7571
9.26841328802173 82.4329
9.290785518039224 82.0518
9.313175554425882 82.5591
9.335565947154315 82.615
9.357939245086508 82.9446
9.380330352834827 83.0495
9.40270436697103 83.1894
9.425096193225055 83.113
9.447488380180165 84.259
9.469863475295412 84.1239
9.492256385987508 84.4632
9.514632206018318 84.8449
9.537025843935714 85.1062
9.559402392368193 86.1617
9.581796761000229 87.1557
9.604191496441521 88.6924
9.626569144158516 92.7152
9.648964615551032 98.6047
9.671343000390081 100.71
9.693739211225699 97.8147
9.716135793237463 94.2791
9.738515290448102 93.3084
9.760912617143402 94.2449
9.783292860202891 95.3883
9.805690935076182 96.3535
9.828089385495742 97.1985
9.850470754023561 99.7375
9.872869957865444 108.83200000000001
9.89525208097539 127.809
9.917652041736662 143.202
9.940052382417589 140.985
9.962435644102392 140.74200000000002
9.984836746950979 169.06900000000002
10.007220771957746 229.233
10.029622640473708 326.863
10.052007432299963 495.205
10.074410069984072 771.707
10.096813093716005 1210.36
10.119199042482517 1709.8
10.141602840636468 1944.79
10.163989564971628 1659.95
10.186394141051062 973.304
10.208799107559706 436.082
10.231187001965623 203.048
10.253592751657669 130.612
10.275981430388155 115.288
10.298387966769793 115.557
10.320794897965431 118.846
10.343184759907361 117.449
10.36559248305461 110.8
10.387983138083852 105.052
10.410391656691655 106.661
10.432800574501677 115.884
10.455192425893369 130.996
10.47760214443012 154.69
10.499994797678786 195.08599999999998
10.522405320453982 269.319
10.54479877906917 383.35699999999997
10.567210109595656 500.06800000000004
10.5896218454736 577.646
10.612016518879773 521.102
10.634429067781074 365.181
10.656824555333241 216.201
10.679237920773568 134.895
10.701651695961992 99.4135
10.724048411481384 90.1613
10.746463008485165 87.0035
10.768860546937125 85.4929
10.791275969274796 84.0274
10.81369180576079 82.5141
10.836090585366925 81.6769
10.858507252467449 80.484
10.88090686379991 79.3039
10.903324365036394 78.9207
10.925724811614439 79.0016
10.948143150509463 80.9803
10.970561909719066 80.1763
10.992963615930844 77.4753
11.015383218085756 74.9742
11.037785768347074 73.6532
11.06020621697282 73.2154
11.082627090322113 72.5302
11.105030913430326 72.267
11.12745263854165 72.8373
11.149857314510728 77.6945
11.172279894912576 85.3664
11.194702904450653 86.8859
11.217108866490921 81.5723
11.239532736615194 75.8823
11.26193956033512 73.4059
11.284364294577085 71.3611
11.306789462371718 69.0736
11.329197585398376 67.7848
11.351623622610898 67.3973
11.37403261614354 66.3893
11.396459526308487 66.1067
11.418869393879497 65.6631
11.441297180532617 65.6913
11.463725406927658 65.2628
11.486136592353875 65.2559
11.508565700543707 66.0597
11.530977768845315 68.4242
11.553407762368774 69.6703
11.575838200059769 69.0009
11.598251599479612 66.1801
11.620682927815501 64.4329
11.64309721895548 64.1691
11.665529441478206 63.5766
11.687962112597958 63.1558
11.710377748130886 63.1634
11.732811318753434 63.2023
11.755227854859067 63.2581
11.777662328529495 63.0703
11.800079768750786 62.7967
11.822515149015453 62.8871
11.844950984084935 62.9373
11.867369787303163 62.2984
11.889806534289491 62.5945
11.912226250487029 63.05
11.934663912939751 62.9247
11.9571020346363 63.0081
11.979523127133968 63.0871
12.001962169624331 63.7172
12.024384183972964 64.5951
12.046824150809913 67.4301
12.069264581333726 72.4668
12.091687985297767 78.5712
12.11412934550045 86.9932
12.136553680195208 100.916
12.158995973632788 121.419
12.181438735204349 147.41
12.20386447284199 176.77700000000002
12.226308172985636 204.12599999999998
12.24873485024193 202.291
12.271179492516982 171.58900000000003
12.293607112949127 135.205
12.316052700916226 102.507
12.338498763250042 82.5379
12.360927805303868 72.3508
12.383374818673879 67.3039
12.405804812803074 65.1481
12.428252780773262 64.831
12.45070122756722 64.8743
12.473132656675375 64.6024
12.49558206341869 64.6406
12.518014453510101 64.7104
12.540464823770117 64.9059
12.562915677315177 65.0339
12.58534951575545 66.09899999999999
12.607801338171472 68.7151
12.630236146511358 75.3007
12.652688941369085 81.4849
12.675124723177234 81.8656
12.697578494048786 77.0563
12.720032754458185 71.1871
12.742470003354093 68.7874
12.764925245138771 68.1988
12.787363476431278 68.0985
12.809819703166806 68.3754
12.83227642391173 69.2288
12.854716135692716 69.7664
12.877173846755147 70.9483
12.899614549869717 71.0021
12.9220732548287 71.9607
12.94453245827299 72.2397
12.966974655289818 73.1924
12.989434858002571 74.0768
13.011878055298721 74.9811
13.034339260862497 75.6691
13.056800969391883 76.7687
13.079245674017244 78.6026
13.101708390774869 80.1987
13.12415410463411 86.5221
13.146617833206086 98.0039
13.169064559883248 109.649
13.191529303857127 123.675
13.213994557076367 144.578
13.236442809902437 178.513
13.258909083908291 229.74400000000003
13.28135835851934 292.112
13.30382565690295 362.121
13.326293469022952 420.491
13.348744283242008 430.681
13.371213125129904 372.74
13.39366497011003 276.043
13.416134845360597 183.91099999999997
13.438605238843131 127.679
13.46105863690397 106.55799999999999
13.483530069144786 104.756
13.505984506951902 109.056
13.528456981549432 118.37100000000001
13.550929978879088 132.32
13.573385983253365 154.828
13.595860028340867 190.804
13.618317081455832 240.81799999999998
13.64079217790333 293.899
13.663250283359057 344.715
13.685726434770173 375.403
13.708203115221277 345.163
13.730662806148091 275.437
13.75314054697177 195.34900000000002
13.775601299246777 135.10299999999998
13.798080104050406 100.764
13.820559442405358 86.589
13.843021793671388 82.0548
13.865502201420897 80.6931
13.887965623051947 79.9106
13.910447103807167 78.7245
13.932929122629764 77.398
13.955394156785959 77.1641
13.977877254034569 76.0249
14.000343367582113 75.1112
14.022827546871707 74.523
14.045294743423524 74.051
14.06778000837062 73.2665
14.090265817715476 73.1832
14.112734645763819 72.9433
14.13522154619454 72.9638
14.157691466286913 73.0687
14.180179461423874 72.3414
14.202668005486178 71.4563
14.22513957064374 70.9952
14.247629214846473 70.8571
14.270101881097517 70.5754
14.29259262906496 71.2119
14.315083930490205 72.0172
14.337558255389705 72.3923
14.360050666019726 71.949
14.382526101071944 70.719
14.405019624534942 69.6409
14.427513705993134 69.1781
14.449990813291825 69.0716
14.47248601302899 68.7154
14.49496423954951 68.7375
14.517460561197822 68.8737
14.539939910570322 68.7614
14.562437357763558 69.273
14.58493536931253 70.6276
14.607416409993311 71.7712
14.62991555254159 72.7595
14.652397725157423 72.4493
14.674898002342799 71.4416
14.697398848433282 70.7105
14.719882725991326 70.9406
14.74238471217934 71.5323
14.764869730765593 74.4294
14.787372860692983 77.6922
14.809876564079925 82.1686
14.83236330125751 87.5996
14.854868153850365 95.4234
14.877356041159485 108.012
14.899862046604186 125.958
14.922351087688757 150.209
14.944858249632887 176.762
14.967365991421232 202.71900000000002
14.989856770231246 219.153
15.012365673994204 217.894
15.03485761569738 192.227
15.05736768508665 152.622
15.07987833888692 118.898
15.102372032001655 93.2858
15.124883856909658 78.1269
15.14737872204565 72.7651
15.169891721717274 70.9782
15.192405310371893 70.7634
15.214901940621196 71.6548
15.237416709527137 71.92699999999999
15.259914520936249 72.3218
15.282430473753607 71.1859
15.304947020131227 69.7291
15.327446610371178 68.8787
15.349964346154254 67.7203
15.372465126703139 67.2409
15.394984055556009 66.60600000000001
15.417486030076159 66.4546
15.44000615566487 66.282
15.462526881230803 66.3341
15.485030653812652 66.5129
15.507552581617434 66.661
15.530057557334603 66.5594
15.55258069104857 66.6782
15.575104429329837 66.5731
15.597611216864632 65.973
15.620136166564563 65.9397
15.6426441664095 66.4811
15.665170331202765 68.3912
15.687697105158826 71.5266
15.710206930593545 74.8735
15.732734925158933 78.8042
15.755245972089478 84.4459
15.77777519094324 93.1659
15.800287463046663 105.234
15.822817909869592 122.495
15.84534897229804 142.399
15.867863089299354 165.22299999999998
15.890395385222186 184.275
15.912910736597423 193.38099999999997
15.935444269699861 184.296
15.957978423016485 159.82399999999998
15.980495633101265 129.197
16.003031029129367 101.17200000000001
16.02554948280019 79.742
16.048086125229432 69.7597
16.070623392487107 66.3349
16.09314371869582 65.4708
16.11568223789321 64.703
16.13820381691126 63.7243
16.160743591742527 62.1985
16.183283996022084 61.1261
16.205807461423195 59.9143
16.228349126881973 59.0874
16.25087385432698 59.2257
16.27341678466365 58.7189
16.29594277784926 58.6694
16.31848697676433 59.1082
16.341031811604868 59.8436
16.36355971058487 60.2004
16.3861058195587 59.7348
16.40863499352978 58.4173
16.431182380342005 57.272
16.453730407713202 56.6011
16.476261501364792 56.3538
16.498810812136167 55.7208
16.52134319004079 55.8785
16.54389378792203 55.5096
16.566445031001553 55.4318
16.588979342490088 55.3372
16.61153187824822 55.1621
16.634067483263312 55.2096
16.656621315414416 55.0762
16.679175797408888 54.6503
16.701713349928728 54.8057
16.72426913389191 54.9875
16.74680798922351 55.3444
16.76936507887444 55.3112
16.791905240734874 55.435
16.814463639794468 55.0849
16.837022695210294 54.9619
16.859564824093756 55.6632
16.882125194503903 56.5266
16.904668639217885 57.6341
16.927230328348003 57.6187
16.949792678493612 57.65
16.972338104193863 56.7523
16.994901778652235 55.8595
17.017448529496576 55.7492
17.040013531998152 55.8399
17.06257920018044 56.3276
17.0851279459922 57.0237
17.107694947817667 57.7705
17.130245028099072 58.8432
17.15281336730298 59.998000000000005
17.17536478578733 61.5234
17.19793446610687 63.4075
17.220504818648422 66.4537
17.243058251703697 69.4555
17.265629950971032 73.8719
17.288184731571736 78.2339
17.310757781306908 82.6038
17.33333150794385 83.65799999999999
17.355888317140174 83.0413
17.37846339986244 78.6827
17.401021565958885 72.2783
17.42359800851343 66.8393
17.44617513265564 62.9242
17.468735341390783 60.5809
17.491261035594565 59.5461
17.51396340099364 59.2755
17.536490463869136 59.4003
17.559018209820174 59.3382
17.58154663977963 59.2164
17.604251766089718 59.4829
17.626781572227713 59.8669
17.64931206518155 59.9533
17.671843245885103 60.683
17.69455114821572 60.7503
17.717083712612634 61.0717
17.739616967569667 61.2929
17.762150914021706 61.3039
17.78486160749854 61.2586
17.807396945166804 61.9264
17.829932977143503 62.5387
17.85246970436452 63.83
17.875183204129467 65.6561
17.897721330097664 67.8316
17.920260154126645 69.9713
17.942799677153296 72.9888
17.9655159983646 76.53
17.988056927677544 81.3638
18.010598558807683 88.4808
18.033140892692916 97.8001
18.05586005052525 107.836
18.07840379824407 118.96700000000001
18.10094825154059 130.71
18.12366954819864 138.252
18.146215420998306 140.656
18.16876200220057 132.289
18.191309292745153 120.10700000000001
18.214033452627167 105.792
18.236582170236648 93.5167
18.259131600016456 86.9745
18.281681742907335 86.3426
18.304408781233683 89.8494
18.32696035875955 94.3015
18.349512652227624 99.0498
18.372065662579683 103.79799999999999
18.394795594587553 105.92200000000001
18.41735004715306 103.51700000000001
18.43990521943684 98.4534
18.46246111238171 89.7781
18.485193953325208 79.3466
18.507751296070428 71.3954
18.530309362314178 66.7396
18.552868153000343 64.0394
18.57560391815056 62.4325
18.59816416623245 61.9748
18.620725141597372 61.5812
18.643286845190268 60.9305
18.666025549835414 60.6895
18.688588718427933 59.9734
18.711152618092243 60.021
18.73389353884365 59.6221
18.75645890921984 59.2473
18.77902501351406 58.7373
18.801591852673102 58.9002
18.824335739722738 58.2131
18.846904057212626 58.2475
18.8694731124168 58.0552
18.89204290628315 57.9235
18.914789774966803 57.8917
18.937361054791623 57.5453
18.959933076131318 57.2671
18.982505839934877 57.2673
19.00525570560582 57.2593
19.027829963004184 57.1048
19.05040496572238 57.1483
19.072980714710468 57.2627
19.095733592739563 57.3128
19.11831084296757 57.6346
19.140888842324735 58.1939
19.16346759176222 58.395
19.18622349753803 58.8821
19.208803755869358 59.5657
19.231384767143577 60.4946
19.253966532312948 61.96
19.276725481241822 63.9678
19.29930876296784 66.2787
19.3218928014549 69.2651
19.34465404436217 72.4589
19.36723960516257 75.6341
19.389825925592426 76.7465
19.412413006605938 76.1939
19.43517731967805 73.2056
19.457765930683355 68.6984
19.48035530514408 64.1563
19.50294544401556 60.2368
19.525712842708348 57.5102
19.54830451925909 55.5651
19.570896963095727 54.4379
19.593490175174704 54.2468
19.616260674962184 54.1699
19.638855432416964 53.5972
19.661450960992624 53.8654
19.68404726164677 53.7083
19.706820878021247 53.5272
19.729418731756834 53.7226
19.752017360452857 53.5011
19.77461676506804 53.43600000000001
19.797393513540218 53.581
19.819994478951667 53.9825
19.84259622316767 54.5284
19.8651987471481 55.0002
19.887978643247177 55.138000000000005
19.91058273574792 55.4937
19.933187610901943 56.1997
19.955969879466828 57.2996
19.97857632894404 58.6146
20.00118356396599 60.2176
20.023791585494575 62.0389
20.046577028914875 64.7555
20.069186632506966 67.1828
20.091797025500632 69.1466
20.114408208858933 69.9496
20.137196842715273 69.7384
20.159809615886765 68.6115
20.18242318232135 66.0081
20.20503754298326 63.8209
20.227829382875154 62.6962
20.250445341109344 62.2731
20.27306209647285 62.6109
20.29567964993108 63.6693
20.31847471147704 64.7685
20.34109387027612 65.8097
20.363713830075454 65.4699
20.386334591841646 64.6234
20.409132890679302 62.2259
20.431755265564437 59.1481
20.454378445325528 56.2284
20.477002430930366 54.0497
20.499803982716553 52.9008
20.522429589228004 52.0945
20.54505600449589 51.5968
20.567683229489194 51.4059
20.590488049900088 50.9957
20.61311690359731 50.4183
20.63574656993626 50.3238
20.658553853717297 49.8224
20.681185154618298 49.8814
20.703817271080066 49.8099
20.72645020407368 49.4559
20.749260783967177 49.2583
20.771895359337133 49.1687
20.794530754161617 49.1433
20.817166969412938 49.1823
20.83998086114876 49.1941
20.86261872660049 49.0159
20.885257415405402 48.9545
20.90789692853701 48.917
20.930714147864748 48.7136
20.953355319030678 48.6159
20.97599731745334 48.8575
20.99864014410749 48.8027
21.021460706796564 48.7496
21.044105199328826 48.8834
21.06675052302631 49.2366
21.089396678865015 49.2782
21.112220600704806 49.5956
21.134868430275347 50.108999999999995
21.15751709492456 50.2071
21.180166595629693 50.5282
21.202993892429635 50.836000000000006
21.22564507473034 51.2114
21.24829709602816 51.3162
21.27112693608965 51.2881
21.293780644891275 51.2714
21.316435195634053 50.705
21.339090589297417 50.3379
21.361923832041875 49.8081
21.384580921090404 49.1881
21.407238856007325 48.5569
21.429897637773326 48.7779
21.45273429906592 48.4783
21.475394784108598 48.5959
21.498056118951983 48.5462
21.520718304578022 48.7046
21.543558400304388 48.6792
21.566222297108816 48.8896
21.58888704765135 48.9301
21.61155265291521 49.2987
21.63439619898156 49.7492
21.657063523335786 49.7945
21.67973170537063 50.2355
21.7024007460706 50.6858
21.72524775840385 51.5723
21.747918526116475 52.3672
21.770590155457388 53.5936
21.79326264741238 55.1677
21.816113141960237 56.6481
21.838787368860547 58.5319
21.861462461341976 60.3857
21.884315579735777 62.3296
21.90699241312273 63.7438
21.92967011506078 64.7834
21.95234868653799 64.7498
21.9752053151131 63.5735
21.997885635446785 61.781000000000006
22.020566828293532 60.0086
22.04324889464272 58.2111
22.066109049404666 56.8958
22.088792872571794 56.1776
22.111477572219204 56.123000000000005
22.1341631493376 56.2495
22.157026846313123 56.2838
22.179714188221507 55.5936
22.202402410582668 54.6045
22.22509151438863 53.2108
22.24795876962584 51.7313
22.270649646204486 50.7555
22.293341407213727 50.0903
22.316034053646906 49.5456
22.338904883215342 49.3364
22.36159931041458 49.2876
22.38429462602756 49.2935
22.40699083104897 49.0511
22.429865251039757 49.1608
22.452563244831367 49.0859
22.47526213102522 49.2034
22.49813925616515 49.0639
22.520839937143307 48.8014
22.543541513520587 48.9143
22.56624398629403 48.6881
22.589124730075895 48.4855
22.611829005656723 48.729
22.63453418063466 48.7236
22.657240256008077 48.9002
22.680124634582935 48.8989
22.70283252079775 49.2327
22.725541310413075 49.5787
22.74825100442868 49.6933
22.771139033969575 50.1905
22.79385054687155 50.4741
22.81656296718292 51.07899999999999
22.83927629590484 51.655
22.862167992606945 52.5694
22.88488314827121 53.7969
22.907599215359284 54.9015
22.93031619487366 56.0449
22.953211574954405 56.8837
22.975930389478226 57.7611
22.998650119445763 58.2709
23.02137076586092 57.8753
23.044269845560063 56.4613
23.06699233506288 55.0107
23.089715744034912 53.3039
23.112617610931565 51.6314
23.135342869061212 50.3103
23.158069049684816 49.3855
23.1807961538087 48.9426
23.20370174880544 48.9624
23.226430710184808 48.9907
23.249160598093425 49.0723
23.271891413539002 48.998999999999995
23.294800752937697 48.7925
23.31753343374794 49.1017
23.340267045128353 49.2417
23.36300158808808 49.6501
23.38591468821339 49.6343
23.408651104658304 50.2853
23.431388455719986 50.7532
23.454126742409 51.5033
23.4770436196085 52.473
23.499783787914662 53.6816
23.522524894889884 54.5664
23.54526694154616 55.6658
23.56818761219047 56.8647
23.59093154860734 57.5831
23.613676427751283 58.1324
23.636422250635754 57.5118
23.659346731118656 56.0784
23.68209445191868 54.3403
23.704843119509587 52.3038
23.72759273490623 50.2085
23.750521041644767 48.556000000000004
23.77327256312355 47.5098
23.796025035462787 46.8011
23.818956224555475 46.3891
23.841710609113413 46.1518
23.86446594758979 45.9113
23.887222241002014 45.6415
23.910157285144578 45.4137
23.932915498962537 45.4889
23.955674670778713 45.318999999999996
23.978434801611975 45.0255
24.001373717286125 44.8964
24.024135776723917 44.8977
24.046898798245582 44.7094
24.06966278287146 44.6112
24.092605586582614 44.3183
24.115371508023642 44.2053
24.1381383956401 44.1745
24.16090625045381 44.2145
24.183852958731244 44.1807
24.206622758582608 44.1532
24.229393528706886 43.9101
24.252165270127392 43.9366
24.27511589952438 43.9043
24.297889594216997 43.68
24.32066426328598 43.4597
24.34343990775613 43.4358
24.36639447485003 43.4284
24.38917208083877 43.2638
24.41195066531332 43.1522
24.43490819850244 43.2162
24.457688750692377 43.1051
24.48047028445616 43.082
24.503252800821233 43.0177
24.526214300784112 43.1497
24.548998793132213 43.0913
24.57178427117417 43.0184
24.59457073593893 43.1698
24.617536219319863 42.9785
24.64032466834748 43.0664
24.663114107195035 42.8872
24.685904536893013 42.6951
24.708874020360852 42.5962
24.731666442613744 42.611999999999995
24.754459858818787 42.6289
24.777254270007962 42.4723
24.80022777025625 42.4409
24.82302418230472 42.2482
24.845821592443674 42.1559
24.86862000170663 42.1732
24.891597535453727 42.1427
24.914397953892728 42.3434
24.93719937456671 42.3115
24.96000179851076 42.4017
24.98298338249997 42.5647
25.00578782394922 42.6518
25.028593271784167 42.768
25.05157790644186 43.2451
25.07438537804115 43.35
25.097193859145293 43.5985
25.120003350792075 43.6786
25.142992065061257 44.1298
25.165803588823465 44.4506
25.18861612625217 44.7782
25.211429678386736 44.841
25.234422489079968 44.9319
25.257238081693636 44.9455
25.280054692141732 45.0167
25.3028723214652 44.9607
25.325869245420463 45.0429
25.348688923599397 45.0755
25.371509623787006 44.9921
25.394331347025812 44.8047
25.41733240110666 44.4203
25.440156181590016 43.615
25.46298098826268 43.3109
25.48580682216873 42.7098
25.50881202326435 42.1327
25.53163992281684 41.6287
25.55446885274561 41.3813
25.577298814096377 41.2206
25.600308179121807 41.1175
25.623140214533745 41.0263
25.64597328451537 40.911
25.66898578564376 40.6712
25.691820936010206 40.7011
25.714657124097695 40.6719
25.737494350954734 40.705
25.760511045684957 40.6478
25.783350361364224 40.6804
25.806190718969255 40.5691
25.82903211955018 40.8203
25.852053024868923 40.9428
25.874896522722523 40.789
25.897741066713106 40.7381
25.920586657892454 40.9022
25.943611790812668 41.0045
25.966459487728237 40.9569
25.989308234998564 41.0922
26.01215803367705 41.3063
26.03518741123814 41.6172
26.05803932412957 41.6998
26.080892291600094 41.6143
26.10374631470478 41.6605
26.12677995397268 41.7499
26.14963609978026 41.8124
26.172493304397875 41.5554
26.19535156888223 41.3863
26.218389486949604 41.0276
26.241249882640123 40.6579
26.26411134137826 40.5064
26.28715248187403 40.4585
26.31001607820869 40.3268
26.3328807407756 40.2054
26.35574647063438 40.321
26.37879191991473 40.1238
26.401659795896734 40.065
26.424528742360263 40.3449
26.447398760366614 40.4969
26.470448535598294 40.6218
26.49332070826805 40.8031
26.516193955675355 41.02
26.53906827888316 41.1963
26.562122397260108 41.4134
26.584998883685063 41.6936
26.607876449110325 41.966
26.63075509460056 42.1386
26.65381357334404 42.4749
26.67669439061878 42.3251
26.699576291163382 42.2699
26.722459276044212 42.0677
26.745522132402975 41.7697
26.768407297649354 41.6473
26.791293550442003 41.2645
26.814180891848974 40.9253
26.837248143099337 40.7603
26.860137673466657 40.6966
26.88302829566349 40.3475
26.90592001075963 40.2418
26.92899167420566 40.1504
26.951885586870763 39.5927
26.974780595655517 39.3927
26.99785558178161 39.3391
27.020752794605112 39.2716
27.043651106772522 39.0547
27.06655051935668 38.9478
27.089629948036183 38.926
27.112531573292053 38.7328
27.135434302194138 38.8411
27.158338135817015 38.78
27.181422024430987 38.7603
27.204328079372566 38.5621
27.22723524226965 38.6575
27.250143514198573 38.687
27.273231880156334 38.7405
27.296142382065014 38.6508
27.319053996245536 38.4091
27.341966723775965 38.4824
27.365059584515222 38.6382
27.38797455070062 38.4487
27.410890633481237 38.3804
27.433807833936918 38.563
27.456905206923906 38.6974
27.47982465472398 38.5948
27.502745223449743 38.598
27.525666914182825 38.7634
27.548768816912457 38.6191
27.571692763693633 38.598
27.59461783573812 38.4971
27.617723149491244 38.3915
27.640650484125285 38.3227
27.66357894728264 38.1785
27.686508540048052 38.1402
27.709618414237887 38.1656
27.732550278321757 38.0362
27.755483275279115 37.8746
27.778417406196485 37.9225
27.801531858397514 38.018
27.824468269376716 37.8673
27.847405817586786 37.925
27.870344504116094 37.9399
27.893463551932008 38.2286
27.916404527281053 38.4259
27.93934664422563 38.4142
27.962289903855886 38.4996
27.98541356491974 38.635999999999996
28.00835912214229 38.7536
28.03130582533231 39.0984
28.054253675581805 39.1644
28.077381967556104 39.0961
28.100332124185126 39.0516
28.123283431160893 39.0049
28.146235889577238 38.9468
28.169368830154156 38.7101
28.192323603752033 38.6262
28.215279532083304 38.3741
28.238415973016764 38.0299
28.261374223145094 37.9547
28.284333631303806 37.6926
28.307294198589954 37.6125
28.330435319167677 37.345
28.353398217078915 37.1574
28.376362277420153 36.8082
28.39932750129032 36.772
28.422473319286713 36.6303
28.44544088262495 36.5438
28.468409612800283 36.385
28.491379510913497 36.1234
28.51453004413313 36.1213
28.53750229057244 36.0726
28.56047570826344 36.0285
28.583450298308804 36.0586
28.606605564586562 35.8117
28.629582511831156 35.8763
28.65256063474956 35.7919
28.675539934446338 35.7163
28.698699951647605 35.6916
28.72168161743193 35.6872
28.74466446331978 35.6277
28.767648490417624 35.641
28.790813276438353 35.5072
28.813799678527303 35.6347
28.836787265157085 35.551
28.859955641890075 35.6475
28.882945610203045 35.5686
28.905936766392035 35.3549
28.928929111566863 35.4764
28.952102288520145 35.3883
28.975097024308607 35.2681
28.998092952423807 35.0938
29.021090073977508 35.0288
29.04426806913204 34.935
29.067267590245258 34.784
29.090268308143695 34.7574
29.11327022394099 34.7435
29.13645305530891 34.6826
29.159457379627167 34.6434
29.18246290519685 34.5271
29.20546963313352 34.4758
29.22865731875826 34.4666
29.25166646419296 34.3574
29.27467681535305 34.325
29.29768837335608 34.3686
29.320880931312562 34.4392
29.34389491580634 34.398
29.366910110507334 34.3422
29.38992651653503 34.4375
29.41312396492981 34.4253
29.436142806456754 34.3183
29.45916286268059 34.2101
29.48236399319994 34.141999999999996
29.50538649169417 34.0128
29.528410208259935 33.9463
29.55143514402014 33.7224
29.574641196749695 33.6486
29.597668583816574 33.4259
29.6206971934585 33.2946
29.64372702680042 33.4529
29.666938019934474 33.2961
29.689970313635285 33.0609
29.713003834422636 33.0902
29.73603858342347 33.1145
29.759254535188578 32.9748
29.78229175361658 32.9658
29.80533020365064 32.8902
29.82836988641968 32.9267
29.85159081507472 33.0023
29.874632976355343 32.8883
29.89767637376955 32.9056
29.920721008448314 32.7337
29.9439469322847 32.7731
29.96699405457564 32.777
29.9900424175358 32.6527
30.013092022298157 32.7184
30.03632295963995 32.5925
30.059375061131373 32.5035
30.08242840783577 32.6566
30.105483000888153 32.6108
30.128718970092244 32.5741
30.151776069006917 32.5698
30.17483441768648 32.5348
30.198074175317235 32.4448
30.221135036724256 32.5517
30.24419715131772 32.5791
30.267260520236203 32.3804
30.290505341942243 32.477
30.313571232750228 32.5002
30.336638381310948 32.4257
30.35970678876503 32.3993
30.38295669299435 32.2942
30.40602763151657 32.2864
30.429099832366074 32.3286
30.452173296685572 32.2362
30.47542830191959 32.1623
30.498504306502497 32.0862
30.521581577995562 32.2134
30.544660117543582 32.2513
30.56792024229725 32.2056
30.59100133132069 32.264
30.614083691845494 32.2044
30.637167325018545 32.23
30.660432587840603 32.3185
30.683518779717886 32.293
30.70660624769615 32.3718
30.729694992924372 32.3558
30.75296541239743 32.3753
30.77605672557558 32.4029
30.799149319462742 32.3556
30.8224236211637 32.2319
30.845518789950724 32.0873
30.868615242910597 31.9737
30.891712981195973 31.8132
30.91499247215866 31.7991
30.938092794619365 31.6985
30.96119440587579 31.570999999999998
30.984297307082752 31.4682
31.00758200598383 31.4162
31.030687500658694 31.3487
31.053794288760695 31.3316
31.076902371446767 31.2331
31.100192296997445 31.2592
31.12330298246119 31.1429
31.14641496599209 30.9813
31.169528248749216 31.0667
31.19282341969534 31.1277
31.215939314557186 31.1076
31.239056512134788 31.0389
31.262175013589378 31.0263
31.28547544871168 30.9857
31.30859657161541 30.9404
31.331719001892175 30.9833
31.35484274070538 31.1389
31.378148458819545 31.0374
31.401274828443725 31.0595
31.424402510106933 30.9817
31.447712205419993 31.0419
31.470842524931633 30.8595
31.493974159989783 30.9015
31.51710711176168 30.8581
31.54042212308802 30.8845
31.563557722100917 30.8304
31.586694641341655 30.7319
31.609832881979628 30.6654
31.63315322823208 30.6965
31.656294125521327 30.5356
31.679436347728515 30.4589
31.70257989602529 30.3782
31.725905596152327 30.2534
31.74905181052835 30.1824
31.772199354521323 30.226
31.79534822930507 30.276999999999997
31.818679302290967 30.2036
31.84183085259981 30.2339
31.864983737233473 30.2324
31.88813795736804 30.2836
31.911474422233013 30.1403
31.934631327356435 30.163
31.9577895715215 30.076999999999998
31.980949155906522 30.136
32.004291031706956 30.1776
32.027453310562606 30.0756
32.05061693318573 29.969
32.07396288236386 29.9875
32.09712920658542 29.9455
32.12029687812702 29.728
32.14346589817093 29.6864
32.166817291729984 29.6546
32.18998902288583 29.5353
32.21316210610336 29.5739
32.23633654256711 29.3968
32.259693399663725 29.4145
32.282870556771144 29.2843
32.30604907069099 29.2985
32.329228942610065 29.2747
32.35259128243769 29.0585
32.375773884550505 29.0609
32.398957848235646 29.1035
32.422143174682176 28.9871
32.445511016471215 28.9303
32.468699082679954 28.8654
32.49188851523011 28.8308
32.51507931531304 28.8128
32.538452678331 28.719
32.56164622776311 28.5519
32.58484114831493 28.6127
32.60803744118015 28.6549
32.631416344731896 28.6291
32.654615396551876 28.5797
32.67781582427913 28.5576
32.701198898634416 28.4563
32.72440209253756 28.3317
32.747606665947124 28.3346
32.77081262006088 28.265
32.79420126883317 28.2904
32.81740999876112 28.3517
32.840620112999424 28.1626
32.86383161274818 28.1384
32.88722585534586 28.1073
32.91044014056596 28.1345
32.933655814909734 28.0815
32.95687287957963 28.1754
32.98027273544904 28.0652
33.00349259526636 28.0838
33.026713849030116 28.0218
33.04993649794511 27.9326
33.073341986570746 27.9734
33.09656744032826 27.9684
33.11979429286444 27.9236
33.14302254538647 27.8968
33.166433686291185 27.8309
33.18966475336992 27.7516
33.212897224069096 27.6894
33.23613109959831 27.7973
33.259547912343415 27.7173
33.2827846121627 27.6727
33.306022720453775 27.6726
33.32926223842861 27.5371
33.352684742614166 27.5185
33.37592709463173 27.4878
33.399170859982064 27.4597
33.422597648419426 27.3213
33.44584425514446 27.2265
33.46909227885668 27.1717
33.4923417207723 27.0639
33.51577423505344 27.1577
33.539026528130385 27.0538
33.56228024307245 26.9921
33.585535381098246 26.8318
33.60897364093058 26.8622
33.63223163992385 26.7441
33.6554910656699 26.7377
33.678751919389796 26.7533
33.702195944520106 26.6433
33.72545966903325 26.6921
33.74872482519663 26.6201
33.771991414233746 26.5993
33.79544122444841 26.6239
33.81871069412428 26.4984
33.84198160035767 26.4419
33.86525394437455 26.4938
33.88870955949969 26.3986
33.911984794020626 26.4178
33.93526147001624 26.4084
33.958539588715006 26.339000000000002
33.98200102861669 26.2388
34.0052820477047 26.1861
34.02856451319451 26.131999999999998
34.05203033759056 26.0738
34.07531571090147 26.0408
34.09860253431845 26.08
34.121890809074316 26.0623
34.145362493118924 25.9737
34.16865368561615 25.9722
34.191946333164054 25.8981
34.21524043699793 25.9152
34.23871800066799 25.8477
34.26201503218366 25.7847
34.28531352370466 25.8351
34.30861347646881 25.6047
34.33209693978188 25.6973
34.3553998301885 25.6204
34.378704185565205 25.5229
34.402010007152356 25.4498
34.42549939016683 25.4434
34.44880815937748 25.4836
34.472118398533134 25.3804
34.49543010887669 25.3233
34.51892543169198 25.2387
34.54224009966052 25.2515
34.56555624255917 25.2118
34.58887386163339 25.1589
34.61237514439016 25.074
34.6356957311114 25.0523
34.65901779775809 24.9877
34.68252356662995 25.0364
34.705848608458616 25.0772
34.72917513396849 24.9325
34.75250314440949 24.9106
34.77601490857862 24.8566
34.799345904259795 24.7909
34.82267838863559 24.8142
34.846012362958525 24.8594
34.869530142679984 24.7456
34.89286711232212 24.7295
34.91620557568269 24.7434
34.93954553401677 24.6992
34.9630693495876 24.5988
34.986412313340814 24.5785
35.00975677584668 24.603
35.033102738362956 24.491999999999997
35.05663261012228 24.4672
35.0799815881786 24.4757
35.10333207003229 24.3304
35.12668405694369 24.3502
35.150220005273056 24.3352
35.17357501786656 24.3387
35.19693153931268 24.2679
35.220289570874385 24.2538
35.24383161619786 24.2699
35.267192683604904 24.2312
35.290555264930376 24.1301
35.314101899412165 24.1905
35.33746752422433 24.0905
35.36083466676374 24.1589
35.38420332829803 24.1564
35.407756095629054 24.1153
35.43112781085063 23.9964
35.45450104888391 23.9657
35.477875810999194 23.9874
35.50143473172161 23.9806
35.52481255774625 24.0235
35.54819191167777 23.8608
35.57157279478914 23.8463
35.595137889488406 23.8426
35.61852184675279 23.7781
35.641907337029984 23.7238
35.665294361595684 23.7415
35.68886565090076 23.6852
35.7122557598848 23.611
35.73564740699838 23.6124
35.759040593519934 23.5425
35.78261809810353 23.5223
35.80601437933051 23.4667
35.829412203814705 23.3721
35.85281157283719 23.3082
35.876395313415884 23.3821
35.8997977874528 23.2556
35.92320180988546 23.2618
35.946790244133936 23.184
35.97019737933222 23.1963
35.993606066789866 23.2135
36.01701630779276 23.1585
36.04061101440684 23.1436
36.06402437852291 23.1554
36.08743930005611 23.0705
36.1108557802951 23.0423
36.13445678011326 23.0153
36.15787639383515 22.8966
36.18129757014299 22.9194
36.20472031032821 22.8283
36.22832762423364 22.7863
36.25175350829375 22.8055
36.275180960119776 22.7506
36.298609981005924 22.756999999999998
36.32222362992669 22.7966
36.34565580510207 22.7083
36.36908955323448 22.6319
36.39252487562093 22.5271
36.416144880530226 22.5106
36.43958336764275 22.5717
36.463023432914625 22.5285
36.486465077645676 22.4361
36.51009145956204 22.568
36.53353627947859 22.5489
36.55698268276811 22.5082
36.58043067073321 22.4631
36.60406345072071 22.3114
36.62751462435344 22.3638
36.65096738658405 22.2418
36.67460498210655 22.2168
36.69806093788647 22.2487
36.72151848619297 22.1713
36.744977628333636 22.2139
36.76862165890998 22.0351
36.79208400512205 22.0841
36.81554794910557 22.0642
36.83901349217101 21.962
36.862663978991606 21.9012
36.88613273667352 21.9141
36.90960309738324 21.9144
36.933075062434064 21.8425
36.95673202673572 21.7603
36.98020721697122 21.7708
37.003684015502365 21.6878
37.027162423645365 21.6877
37.050825886711465 21.6738
37.07430753063053 21.5872
37.09779078812467 21.5157
37.121275660513014 21.5391
37.144945643673694 21.5234
37.16843376245278 21.5343
37.19192350009803 21.4657
37.215414857931435 21.4167
37.239091382563885 21.3775
37.262585997426164 21.3595
37.28608223645736 21.3643
37.309763684451696 21.3447
37.33326318851098 21.2527
37.356764320726555 21.2576
37.380267082425526 21.2046
37.40395510942588 21.1547
37.42746114683234 21.1368
37.45096881771841 21.1001
37.474478123414166 21.0433
37.49817275092816 21.0426
37.52168534303452 21.0299
37.54519957395567 20.9523
37.568715445024665 20.8821
37.592416694607714 20.8914
37.61593586281424 20.8988
37.63945667518264 20.8842
37.66297913304891 20.8301
37.68668702630454 20.8304
37.710212792059274 20.6299
37.733740207334854 20.6948
37.757269273470364 20.6366
37.780983832050374 20.6016
37.80451621684926 20.6667
37.82805025654007 20.6376
37.851585952464795 20.616999999999997
37.8753071980695 20.4898
37.89884622345676 20.4862
37.92238690911902 20.4052
37.94611318753442 20.3929
37.969657210779765 20.315
37.99320289834801 20.3284
38.016750251586465 20.3105
38.04048325513017 20.3016
38.06403395679343 20.1184
38.087586328183946 20.1672
38.11114037065203 20.1841
38.13488012115898 20.2196
38.1584375229181 20.1177
38.181996599821 20.1155
38.205557353221124 20.0773
38.229303872575656 20.0188
38.2528679961576 20.0299
38.27643380031219 19.9643
38.30000128639589 19.8992
38.32375459653193 19.9381
38.34732546371299 19.9555
38.37089801690786 19.7886
38.39447225747609 19.6895
38.418232380377425 19.7896
38.441810012983396 19.7423
38.46538933705673 19.7315
38.488970353960084 19.6999
38.51273731166058 19.6497
38.536321731567014 19.6178
38.55990784840681 19.5884
38.58367995004091 19.5824
38.60726947812959 19.4801
38.63086070726198 19.4844
38.654453638806274 19.4797
38.678232613930824 19.4138
38.70182896773327 19.3409
38.72542702806741 19.3709
38.7490267963045 19.3649
38.77281266709232 19.2668
38.79641586862214 19.2887
38.8200207821842 19.2577
38.843627409152944 19.2129
38.86742019782782 19.2376
38.891030269149255 19.1291
38.914642058016156 19.1218
38.938255565806124 19.0733
38.96205529464307 19.0541
38.98567225787121 18.9867
39.00929094417078 19.0058
39.03291135492255 18.9794
39.05671804624804 18.9587
39.080341923549106 18.8907
39.103967529460334 18.9285
39.127594865365744 18.7756
39.15140854155791 18.7463
39.17503935514948 18.7964
39.19867190290282 18.7712
39.22249083587951 18.7896
39.24612686969409 18.7244
39.269764641845306 18.7442
39.293404153722804 18.7331
39.317230110864074 18.6142
39.34087311998506 18.5406
39.36451787301696 18.5703
39.388164371352595 18.4811
39.41199737518003 18.5043
39.43564738196752 18.4796
39.45929913825317 18.4301
39.48295264543308 18.4536
39.506792718520884 18.4738
39.530449745387216 18.4199
39.55410852735203 18.3179
39.57776906581474 18.2845
39.60161623079 18.2274
39.625280300200025 18.1967
39.64894613032202 18.18
39.67261372255866 18.1878
39.6964680021016 18.1251
39.72013913657293 18.0877
39.74381203738292 18.044
39.76748670593756 18.059
39.79134812278169 18.0891
39.81502634488497 17.9845
39.83870633896685 18.005
39.862388106436654 17.9165
39.88625668336918 17.8885
39.90994201572829 17.9265
39.933629125719285 17.8685
39.957503091207826 17.7728
39.9811937746168 17.8074
40.00488623990914 17.7998
40.02858048850006 17.7268
40.05246165409549 17.7444
40.076159487492085 17.6771
40.099859108448875 17.6963
40.123560518384345 17.6498
40.1474489070226 17.6532
40.171153913178564 17.5788
40.194860712584955 17.5651
40.2185693066637 17.5256
40.242464941335314 17.4636
40.26617714307655 17.4496
40.289891143772046 17.4106
40.3136069448471 17.4219
40.33750984859743 17.3817
40.3612292688043 17.3212
40.3849504936829 17.2515
40.40867352466194 17.335
40.43258372059144 17.2667
40.45631038219906 17.2609
40.48003885420956 17.2328
40.503769138055105 17.194000000000003
40.52768664931955 17.1841
40.55142057531802 17.1356
40.57515631746428 17.0706
40.599079334038514 17.0821
40.62281872700477 17.0027
40.64655994043941 17.0386
40.67030297578061 17.0227
40.69423334835778 17.0017
40.71798004609188 16.91
40.74172857006355 16.87
40.76547892171441 16.9215
40.7894166736039 16.8984
40.813170699248566 16.8476
40.83692655691388 16.7749
40.86068424804498 16.8356
40.884629402612525 16.7776
40.908390779366385 16.7273
40.932153993938 16.6643
40.95591904777605 16.6504
40.979871628443995 16.6568
41.003640379561936 16.6338
41.02741097430883 16.6172
41.05118341413683 16.5656
41.075143444384416 16.5647
41.098919593177826 16.5475
41.1226975914255 16.51
41.14647744058318 16.449
41.170444943946755 16.3694
41.19422851378379 16.44
41.218013938914645 16.4274
41.24198706625173 16.363
41.26577622087193 16.3118
41.289567235177785 16.2848
41.31336011063129 16.3285
41.337340752422875 16.2324
41.361137369129835 16.2597
41.38493585138705 16.2693
41.40873620066004 16.1492
41.43272438060107 16.1579
41.45652848292052 16.0972
41.48033445666918 16.0608
41.50414230331616 16.0493
41.528138045159764 16.0698
41.551949656675205 15.9588
41.575763145513235 15.9466
41.59957851314666 15.9465
41.62358184070442 15.8854
41.64740098505737 15.9096
41.6712220126409 15.8203
41.69504492493139 15.7931
41.71905586207357 15.8039
41.74288256296395 15.7963
41.766711153007456 15.7186
41.79054163368412 15.6945
41.814560204340054 15.7135
41.838394485526365 15.6748
41.86223066180303 15.7077
41.88625497706819 15.6722
41.910094962812 15.6344
41.93393684811168 15.5669
41.95778063445365 15.514000000000001
41.981812625263366 15.4731
42.00566023303407 15.4921
42.029509746323676 15.4698
42.05336116662236 15.4841
42.077400857069705 15.4276
42.10125611078846 15.3996
42.12511327600405 15.3928
42.14897235421036 15.3288
42.173019768448455 15.3555
42.19688269209613 15.3002
42.22074753323349 15.2808
42.24461429335818 15.2502
42.268669455600495 15.2236
42.292540073217886 15.2092
42.31641261433284 15.1797
42.34028708044675 15.1659
42.36435001496739 15.0978
42.38822835065557 15.0945
42.41210861586426 15.0644
42.4359908120986 15.1057
42.46006154323262 14.9799
42.48394762115317 14.9751
42.507835634632315 14.9954
42.531912233047436 14.9755
42.55580413732265 14.9495
42.579697981698 14.8613
42.60359376768525 14.8459
42.62767820545945 14.8721
42.65157789440821 14.8178
42.67547952952185 14.8079
42.699383112316 14.8003
42.72347541395347 14.7706
42.74738291190531 14.7491
42.771292362102166 14.7433
42.795203766063516 14.6966
42.819303956130405 14.647
42.843219287476536 14.5809
42.86713657716324 14.6024
42.89105582671383 14.5762
42.91516392983864 14.5411
42.939087119032166 14.52
42.963012272677304 14.440999999999999
42.98693939230129 14.4787
43.01105543317513 14.4285
43.034986504731386 14.4371
43.05891954686589 14.4519
43.08285456110972 14.404000000000002
43.10697856448665 14.3665
43.130917542983475 14.2593
43.15485849820081 14.3215
43.17880143167367 14.2581
43.20293342237094 14.222000000000001
43.226880332449 14.2215
43.25082922540554 14.2214
43.27496722682525 14.1743
43.29892010567796 14.1387
43.32287497204102 14.1361
43.34683182745632 14.0904
43.370977859791836 14.0836
43.39493871351105 14.06
43.41890156092628 14.0606
43.44286640358341 14.0311
43.46702049182749 14.0201
43.49098934522816 13.9934
43.51496019852649 13.9548
43.5389330532723 13.9042
43.56309522248204 13.8993
43.58707210044314 13.879000000000001
43.61105098451946 13.8297
43.63503187626491 13.805
43.659202151562134 13.7378
43.68318707902681 13.7436
43.70717401884041 13.689
43.731162972560874 13.7084
43.75534137913236 13.6464
43.779334381108384 13.6684
43.803329401683186 13.6629
43.82732644241872 13.6423
43.8515130055166 13.6197
43.87551410707659 13.5869
43.89951723350145 13.5347
43.923709934595614 13.5207
43.94771713129917 13.5168
43.97172635758096 13.4806
43.99573761501002 13.4749
44.0199385169922 13.4445
44.04395385732619 13.3735
44.067971233533086 13.3442
44.09199064718605 13.3397
44.11619977548961 13.3621
44.14022328470671 13.3062
44.16424883610785 13.3501
44.18827643127035 13.2862
44.21249381139513 13.249
44.236525514814076 13.1971
44.26055926674478 13.1958
44.28459506876863 13.2298
44.3088207262813 13.1731
44.33286064928722 13.1216
44.35690262714919 13.1179
44.38094666145278 13.0207
44.4051806219871 13.0269
44.42922879003185 13.0703
44.45327901929361 13.0273
44.477331311362136 13.0462
44.501573600619416 12.9911
44.525630039221795 12.9375
44.54968854541895 12.9269
44.573937102200176 12.9344
44.5979997645541 12.8767
44.622064499300315 12.8435
44.64613130803592 12.8709
44.67038823869318 12.8486
44.69445921643748 12.7474
44.718532272981385 12.7425
44.742607409926194 12.7156
44.76687274034801 12.7068
44.79095205918753 12.6755
44.81503346325094 12.6758
44.839116954143876 12.6615
44.86339071028742 12.6641
44.88747839599524 12.6321
44.91156817336837 12.5711
44.93566004401666 12.5661
44.959942251908146 12.5495
44.984038330325966 12.5266
45.00813650686762 12.5061
45.03223678314731 12.4938
45.05652746888232 12.4374
45.08063196592069 12.4211
45.104738567558705 12.3908
45.128847275414856 12.3754
45.15314646515866 12.309000000000001
45.17725940679741 12.3336
45.20137445952892 12.3184
45.22568004865265 12.3019
45.24979934496396 12.2632
45.27392075725247 12.2384
45.29804428714431 12.2575
45.322358426247604 12.2024
45.346486212804315 12.1962
45.370616121861914 12.1789
45.39474815505086 12.1292
45.41907087049246 12.1433
45.4432071734666 12.0851
45.46734560548283 12.0976
45.49148616817604 12.038
45.51581748638564 12.0418
45.5399623320197 12.0554
45.56410931325473 11.9762
45.58825843173002 11.9907
45.61259837920865 11.9663
45.636751793816 11.9501
45.66090735060093 11.8875
45.68506505120716 11.8736
45.7094136545275 11.8489
45.73357566449271 11.8083
45.75773982322992 11.8464
45.78190613238733 11.8215
45.806263418194064 11.7571
45.83043404997326 11.7719
45.85460683713677 11.7966
45.87897065658495 11.7234
45.90314777634752 11.7452
45.92732705646868 11.7048
45.9515084986045 11.6503
45.97588104735473 11.6658
46.00006683541565 11.6484
46.02425479047904 11.6039
46.04844491420549 11.5884
46.0728262191024 11.5686
46.09702070211635 11.5551
46.12121735879483 11.5379
46.14541619080294 11.5166
46.169806278764455 11.5178
46.194009483459034 11.4955
46.21821486849841 11.4452
46.24242243555223 11.4381
46.266821333570014 11.4183
46.29103328674601 11.4177
46.31524742696538 11.3862
46.33946375590237 11.3486
46.36387149104216 11.3065
46.38809221957392 11.2671
46.41231514186606 11.2753
46.436540259597464 11.267999999999999
46.460956858999374 11.2277
46.48518638983522 11.2007
46.509418121166966 11.2245
46.533652054678114 11.1817
46.55807754555709 11.1205
46.58231590571962 11.1987
46.60655647313217 11.0624
46.630988654873654 11.0614
46.655233659129024 11.0637
46.67948087571551 11.072000000000001
46.70373030632484 11.0475
46.72817142736393 11.0228
46.752425308428684 10.9768
46.77668140861147 10.9537
46.80093972960865 10.9284
46.82538981736788 10.9125
46.849652602470904 10.912
46.87391761349769 10.9452
46.8981848521493 10.9032
46.9226439341274 10.865
46.946915650573224 10.7929
46.97118959976749 10.8267
46.99546578341598 10.8057
47.019933887188216 10.7506
47.04421456235744 10.7348
47.06849747711879 10.7373
47.09278263318286 10.6883
47.11725978640143 10.6755
47.14154944775105 10.6564
47.165841355555656 10.5913
47.1901355115306 10.6024
47.214621741924994 10.6441
47.23892041698887 10.5812
47.26322134538975 10.5655
47.28771440635075 10.5328
47.31201986422527 10.5477
47.33632758061436 10.5072
47.360637557241866 10.4836
47.38513974410611 10.4646
47.40945426407847 10.4338
47.43377104948137 10.3998
47.45809010204344 10.4482
47.48260144275502 10.3928
47.506925052572285 10.4081
47.53125093475548 10.3479
47.55557909103813 10.3351
47.58009961361992 10.2975
47.60443234110732 10.2777
47.62876734791564 10.2596
47.65310463578333 10.243
47.6776343683373 10.2571
47.7019762413987 10.2018
47.72632040075572 10.1721
47.75066684815169 10.1716
47.77520581885936 10.1559
47.799556865477655 10.1527
47.823910205386 10.1308
47.84826584033272 10.1153
47.87281407745551 10.056000000000001
47.89717432569297 10.0945
47.92153687423484 10.0556
47.94609208429692 10.0234
47.97045925671401 10.0046
47.99482873471275 9.975589999999999
48.01920052005013 9.98068
48.04376504619224 9.95987
48.068141469543484 9.996319999999999
48.09252020552573 9.93712
48.11690125590099 9.903369999999999
48.1414751266064 9.920539999999999
48.16586082917454 9.89207
48.19024885144316 9.83281
48.2146391951793 9.82611
48.239222439012764 9.851
48.26361744916137 9.7989
48.28801478610016 9.83739
48.31241445160131 9.789
48.337007097209366 9.74981
48.36141144338331 9.737589999999999
48.38581812345755 9.72424
48.41022713920929 9.73738
48.434829215320704 9.7222
48.45924292604658 9.674619999999999
48.48365897780325 9.66554
48.50807737237308 9.609580000000001
48.532688907799276 9.62504
48.55711201168574 9.59765
48.581537463754074 9.604230000000001
48.60615611725119 9.52917
48.63058628942721 9.52802
48.65501881516546 9.567160000000001
48.6794536962573 9.50206
48.70408185970339 9.46776
48.72852147531801 9.45997
48.75296345168211 9.45495
48.77740779059232 9.430819999999999
48.80204549302823 9.448189999999999
48.82649458091802 9.40112
48.85094603676547 9.35983
48.87539986237231 9.34464
48.90004713292306 9.34568
48.92450572200832 9.30781
48.94896668628025 9.31968
48.97343002754588 9.30775
48.99808689542115 9.25565
49.02255501470614 9.27777
49.04702551642794 9.25803
49.0714984023988 9.22781
49.096164896893235 9.17305
49.120642575466796 9.209589999999999
49.145122643748394 9.16351
49.16960510355558 9.13742
49.19428125404938 9.12727
49.2187685210852 9.131960000000001
49.243258185121555 9.08977
49.26794160167084 9.08262
49.2924360839405 9.04611
49.31693296869764 9.05402
49.34143225776915 9.03699
49.36612538195438 9.00809
49.39062950396021 9.00033
49.41513603578346 8.987039999999999
49.4396449792564 8.94486
49.46434784069503 8.944280000000001
49.488861631846454 8.92645
49.513377840166804 8.8927
49.537896467493745 8.918560000000001
49.56260909589029 8.86918
49.587132585683285 8.86324
49.611658500018365 8.80605
49.636186840738596 8.779
49.66090926588511 8.82589
49.685442483902584 8.78314
49.70997813385706 8.7529
49.734516217597076 8.764710000000001
49.75924846937352 8.748380000000001
49.7837914452858 8.733239999999999
49.80833686055187 8.70608
49.83288471702571 8.680769999999999
49.85762682540054 8.66915
49.882179588965734 8.67282
49.9067347993235 8.6198
49.93129245833333 8.608889999999999
49.95604445336378 8.6523
49.98060703442832 8.6037
50.005172069746266 8.6009
50.02993150438364 8.54439
50.05450147301533 8.51628
50.07907390151433 8.509260000000001
50.10364879174981 8.51424
50.12841816587289 8.496139999999999
50.1529980044635 8.49893
50.17758031042124 8.45239
50.20216508562089 8.4537
50.22694442953363 8.41433
50.25153416817468 8.42583
50.27612638170508 8.37354
50.300721072005196 8.378169999999999
50.325510416102105 8.36394
50.350110084975064 8.31074
50.37471223628208 8.32898
50.39931687190919 8.326210000000001
50.424116246675766 8.2906
50.44872587605249 8.27864
50.47333799543065 8.2978
50.49795260670191 8.258
50.52276204271512 8.20471
50.54738166295838 8.21514
50.57200378079314 8.21767
50.596628398116835 8.185319999999999
50.62144792604559 8.1962
50.646077567609396 8.168439999999999
50.670709714377715 8.14435
50.69553683636198 8.12147
50.72017401885922 8.09633
50.7448137122895 8.08981
50.76945591856022 8.09116
50.79429318636823 8.086139999999999
50.818940443716784 8.07217
50.84359021965163 8.029739999999999
50.868242516085964 8.01603
50.893089960641895 7.973310000000001
50.917747323549435 7.956289999999999
50.94240721271973 7.98475
50.96706963007175 7.96178
50.99192728239342 7.9182
51.01659478166073 7.96905
51.04126481489051 7.89734
51.06593738400761 7.88156
51.090805275207074 7.887580000000001
51.11548294172845 7.85725
51.14016314993547 7.84015
51.164845901758845 7.84324
51.18972406304274 7.81338
51.21441192780656 7.794169999999999
51.23910234200271 7.787539999999999
51.2637953075678 7.767360000000001
51.288683770237945 7.734939999999999
51.31338186432707 7.715330000000001
51.33808251561888 7.720039999999999
51.362978729967345 7.7036
51.387684521509755 7.69344
51.41239287610203 7.65375
51.437103795691165 7.59547
51.46201036644977 7.62507
51.486726441956634 7.60676
51.51144508832545 7.610410000000001
51.536166307509156 7.59408
51.56108326624387 7.59405
51.58580965706056 7.5582199999999995
51.61053862657523 7.539280000000001
51.635270176746864 7.53521
51.66019755512065 7.527589999999999
51.68493429268881 7.500210000000001
51.70967361681515 7.48957
51.73441552946465 7.46698
51.759353359237934 7.4569399999999995
51.7841004750961 7.46259
51.80885018539685 7.43447
51.833602492111254 7.41843
51.8585508051424 7.39577
51.883308330926425 7.3686300000000005
51.90806845906181 7.347389999999999
51.932831191525715 7.34503
51.95779001977161 7.2828800000000005
51.98255798721516 7.3171800000000005
52.00732856494335 7.26598
52.03229530577543 7.27762
52.057071130455945 7.2602
52.081849571391054 7.226489999999999
52.106630630568695 7.237369999999999
52.13160794279417 7.200819999999999
52.15639426492067 7.20914
52.18118321127822 7.20645
52.205974783860896 7.145010000000001
52.23096269971011 7.1361300000000005
52.255759551287994 7.1420699999999995
52.280559035098186 7.10887
52.30536115314103 7.08701
52.33035970494467 7.06217
52.35516711807904 7.096989999999999
52.37997717147198 7.108639999999999
52.40478986713005 7.06493
52.42979908731974 7.07459
52.454617094216 7.072030000000001
52.47943774942214 7.02942
52.50426105495102 7.02575
52.529280976059844 6.96842
52.554109609024096 6.9594
52.57894089837482 6.97443
52.60377484613117 6.926660000000001
52.62880550079408 6.93585
52.65364479223379 6.89802
52.67848674816189 6.869389999999999
52.70352547971946 6.88995
52.72837279155837 6.9005
52.753222773982785 6.829089999999999
52.778075429022984 6.849
52.80312495150885 6.82843
52.827982978797436 6.829969999999999
52.85284368481815 6.7880199999999995
52.87770707160767 6.76202
52.90276741793998 6.74705
52.92763619336701 6.763
52.952507655698504 6.72151
52.977381806977576 6.7252600000000005
53.00245301017842 6.734389999999999
53.02733256653592 6.70878
53.052214817996074 6.69429
53.077099766608484 6.6747
53.102181859804446 6.6814800000000005
53.127072229988265 6.6275699999999995
53.15196530349892 6.6093399999999995
53.17686108239249 6.62022
53.20195409881522 6.61135
53.22685531582556 6.55063
53.25175924441303 6.5498400000000006
53.27666588664027 6.58372
53.30176985962693 6.569789999999999
53.3266819565689 6.5263800000000005
53.35159677336455 6.51366
53.376514312083096 6.47926
53.40162927507703 6.47888
53.42655228516116 6.486269999999999
53.45147802340193 6.46252
53.47660125628886 6.48146
53.50153247842639 6.46025
53.52646643496923 6.42375
53.55140312799818 6.42065
53.576537409691696 6.38326
53.60147960336152 6.3758
53.626424539786164 6.4078800000000005
53.65137222105307 6.37824
53.67651758529126 6.34448
53.70147078399681 6.32562
53.72642673383343 6.30934
53.75138543689533 6.30025
53.776541917524526 6.32014
53.801506154876755 6.27939
53.826473151763246 6.24148
53.851442910284916 6.235930000000001
53.87661054126026 6.22467
53.9015858509782 6.2054599999999995
53.92656392866066 6.20951
53.95154477641532 6.19344
53.976723591801296 6.15114
54.00171000771266 6.159619999999999
54.02669920004598 6.15557
54.051691170915745 6.13541
54.076881204886796 6.10084
54.101878760928514 6.121569999999999
54.12687910187696 6.11606
54.152077577768296 6.0675300000000005
54.1770835166946 6.04783
54.20209224691339 6.03889
54.22710377055121 5.99615
54.25231352511594 6.00745
54.27733066384342 5.97083
54.30235060239643 6.02337
54.32737334290836 5.989719999999999
54.35259441062629 5.91651
54.377622783395324 5.94581
54.40265396455061 5.92692
54.42768795623251 5.87924
54.45292037169559 5.88088
54.477960012857906 5.919580000000001
54.50300247099511 5.8282099999999994
54.52804774825457 5.82982
54.55329154616743 5.82447
54.57834249018678 5.77065
54.6033962597977 5.80811
54.6284528571545 5.74189
54.653708072335164 5.71882
54.67877035378786 5.73019
54.70383546947698 5.65411
54.72890342156389 5.67991
54.7541700889442 5.64441
54.77924374251975 5.67352
54.8043202390049 5.6237
54.82959552413022 5.51694
54.8546777351945 5.51469
54.87976279569621 5.53174
54.90485070780914 5.52562
54.930137506558005 5.4536
54.95523115074295 5.4919199999999995
54.98032765308844 5.45135
55.005427015775496 5.4682900000000005
55.03072536339621 5.45695
55.05583047570572 5.3702
55.080938454927676 5.40759
55.10604930325027 5.43794
55.131359235107396 5.38173
55.15647585066083 5.32975
55.181595341907496 5.32236
55.20671771104285 5.26919
55.232039262617704 5.26122
55.25716741665048 5.2583400000000005
55.28229845518636 5.283580000000001
55.30743238042802 5.21143
55.33276558731939 5.15994
55.357905315183636 5.17347
55.383047936390035 5.11793
55.40819345314859 5.1045300000000005
55.433538351073295 5.109719999999999
55.458689688238415 5.10081
55.483843927614096 5.04027
55.509197623043605 4.9549900000000004
55.53435769621134 4.9772
55.55952067826466 4.9595
55.5846865714265 4.99177
55.61005202069737 4.93025
55.63522376553902 4.9319999999999995
55.66039842818645 4.891780000000001
55.68557601087004 4.90491
55.7109532500271 4.82625
55.73613670233794 4.85161
