TT I
1.2716486653135266 9.10316
1.2939594142134223 8.59215
1.3162702121660406 7.928089999999999
1.3385810600174564 7.89795
1.3608919586137629 7.87202
1.383202908801069 8.128969999999999
1.405513911425503 7.296069999999999
1.4278249673332093 7.5165
1.4501343378461518 7.74317
1.4724455028545926 7.34572
1.4947567236847858 7.557739999999999
1.517068001182951 7.68497
1.5393793361953272 7.5821
1.5616907295681737 7.2304
1.5840021821477681 6.74115
1.60631369478041 6.74224
1.6286252683124185 6.873130000000001
1.6509369035901333 6.24411
1.6732468618895553 5.84706
1.695558623192809 5.66219
1.7178704487808514 6.13703
1.7401823395001077 5.74594
1.7625012545597203 5.83361
1.7848028405262486 5.6637900000000005
1.8071218901122095 6.123880000000001
1.8294236121921872 5.60583
1.8517427996910911 5.39389
1.8740620574440425 5.6872
1.8963639900671978 5.68808
1.9186833908139995 5.60182
1.9409854680117449 5.64916
1.9633050151394713 6.0977
1.9856246367570705 5.73062
2.0079269371922672 5.62596
2.03024671027244 5.0421
2.0525491637446027 5.50341
2.074869091674931 5.19243
2.097171701569106 5.042269999999999
2.1194917877373847 5.30054
2.141811954326636 4.98075
2.164114805233074 5.041869999999999
2.186435135143035 5.12413
2.208738150935709 4.51705
2.231058647554722 4.57031
2.2533792288321184 5.10714
2.275682498336085 5.24395
2.298003251406138 4.74765
2.3203066942619714 4.258780000000001
2.3426276225136022 4.18956
2.3649486396617507 3.9426099999999997
2.387252348930071 4.4524
2.4095735463442893 4.628369999999999
2.4318774374315884 5.02081
2.4541988185014043 4.4041
2.476502894794693 4.37325
2.498824462909887 4.23567
2.521146125856138 3.86715
2.5434504863470337 3.79753
2.5657723414244717 4.58283
2.588076895590662 5.15315
2.610398946189713 5.00167
2.6327210958598384 4.54332
2.6550259469304716 5.03374
2.6773482972090137 4.95315
2.6996533504259 5.0643
2.7219759047039602 5.56867
2.744298562293959 6.08211
2.7666039251246595 5.58627
2.7889267918020164 6.16832
2.8112323652516555 6.179069999999999
2.833555444408179 6.6139399999999995
2.8558786311183852 6.818230000000001
2.8781845268938557 7.59995
2.9005079311721484 8.272689999999999
2.9228140460410397 8.6142
2.9451376712799635 9.02871
2.967444008632326 9.22879
2.9897678582247247 9.59191
3.0120918213106695 11.0011
3.0343984987899373 10.8374
3.0567226913198637 11.3054
3.079029599759726 11.5549
3.101354025127254 12.3044
3.123678568232338 12.9591
3.145985829517914 12.8893
3.16831061055229 13.5613
3.1906181112775593 14.2491
3.212943133635653 14.5251
3.2352682779763207 14.8739
3.2575761442691227 14.9588
3.2799015350264273 15.8056
3.302209649240067 16.4546
3.3245352898092655 16.5587
3.3468436553365257 17.2235
3.369169549113219 17.6082
3.3914955708171384 18.2476
3.413804319727358 18.3197
3.4361305997334863 18.3008
3.4584396084414553 19.3637
3.4807661501462652 20.0809
3.503092824025881 20.178
3.5254022288463154 20.3327
3.5477291695206588 20.7308
3.5700388426251948 20.7916
3.5923660534916446 21.3353
3.6146934007816114 22.011999999999997
3.637003482731501 22.552
3.6593311053109985 22.5219
3.681641464033634 22.945999999999998
3.7039693653009733 23.0103
3.726297407241705 23.8895
3.7486081875460804 24.1219
3.7709365132734978 24.9467
3.793247578841633 25.319000000000003
3.8155761917550093 25.6932
3.8378875459837216 25.9602
3.8602164494827234 26.1162
3.882545499606844 27.0638
3.9048572932539183 27.1532
3.9271866390645718 27.340999999999998
3.9494987298666713 28.1108
3.971828374764527 28.4962
3.9941581705403255 28.7518
4.016470713506008 29.3916
4.038800813471445 29.8598
4.061113662089144 30.7239
4.0834440696459176 31.0278
4.105774632334751 31.6262
4.128087945865126 32.4548
4.150418821249301 33.4852
4.172732448931298 33.8258
4.195063640413578 34.6108
4.2173775856475215 35.3971
4.239709096631102 35.7565
4.262040768704612 36.5641
4.284355196706267 36.3567
4.306687193387355 36.7857
4.329001947444346 38.4455
4.35133427213731 39.5187
4.373666762177566 39.9069
4.395982011761091 41.1165
4.418314834921175 41.333
4.44063041906622 43.0836
4.4629635787515625 43.5244
4.4852969080429785 44.6713
4.5076130004776225 45.9462
4.529946671403969 47.20399999999999
4.552263106909177 47.3402
4.574597122877047 48.6211
4.596931312711224 50.0456
4.619248269273446 51.7539
4.6415828092605835 52.2337
4.663900117405352 53.1769
4.686235010953232 54.7668
4.708552674085913 56.0838
4.730887924602802 57.3792
4.753223354952695 59.0249
4.775541557023902 60.5137
4.797877349456786 62.1745
4.820195915032126 64.9641
4.842532072957498 66.1499
4.864868414979744 68.3899
4.88718753227192 70.9626
4.909524244902505 73.4581
4.931843734218147 75.9609
4.954180820867835 79.6519
4.976518095879839 84.3988
4.998838149695359 89.1742
5.021175803844231 94.7664
5.043496238205739 100.22200000000001
5.065834274903528 107.352
5.088172504230693 116.40299999999999
5.1104935158799565 127.507
5.132832132875765 146.132
5.155153533596801 177.269
5.1774925416746225 254.43900000000002
5.199814334878411 699.717
5.2221537374521505 2249.74
5.244493338631803 3784.58
5.266815727034316 4389.15
5.289155727832427 6298.14
5.311478517248165 9026.2
5.333818921080011 7351.18
5.356159527788849 2963.39
5.3784829252032536 787.43
5.400823940070432 301.569
5.423147747031976 199.918
5.445489173474152 161.554
5.467830807066149 142.218
5.490155234831516 130.56
5.512497285125229 122.815
5.534822130975162 117.538
5.557164601388673 113.306
5.579489868738879 109.025
5.601832762690846 105.955
5.6241758697774475 103.551
5.646501775867269 102.434
5.668845311622074 101.478
5.691171647754637 101.148
5.713515615597765 99.8742
5.735859800852677 99.2334
5.758186788542988 98.3123
5.780531411018185 98.7515
5.802858837297399 98.9273
5.825203900414495 99.6
5.8475491852224 101.256
5.869877275883075 103.866
5.892223006467101 108.749
5.914551544266608 114.007
5.936897724049891 123.42299999999999
5.959244129804903 140.168
5.981573344815301 183.667
6.0039202049061 351.39300000000003
6.026249875609095 862.82
6.04859719346037 1446.37
6.070927323278297 1700.6
6.093275102315365 2043.38
6.115623113320588 2966.02
6.137953938319995 3781.62
6.160302415650845 2660.06
6.182633708324452 995.571
6.2049826554078376 316.811
6.227331838745022 155.519
6.249663839443684 115.274
6.27201349767565 98.6269
6.294345974611799 89.2633
6.316696111167083 82.9785
6.339046488263839 78.3221
6.361379686074702 74.4765
6.383730546639482 72.1868
6.406064229255215 69.4827
6.428415576718203 68.1576
6.450749747566656 67.1432
6.47310158535871 65.5752
6.495453669698332 64.6703
6.517788579421056 63.5794
6.540141159237969 62.3247
6.562476565766648 61.5464
6.5848296444934045 60.8687
6.607182974060425 59.9569
6.6295191323281015 59.3315
6.651872965955752 58.608000000000004
6.6742096296068985 57.9486
6.6965639707294615 57.5602
6.71891856698715 56.6396
6.741255995248479 56.3217
6.763611104154477 56.0111
6.785949046381137 55.4529
6.808304671371482 54.8322
6.8306605557940046 54.833
6.852999275508618 54.0717
6.875355681171544 54.0677
6.897694923437771 53.5361
6.92005185377892 53.5087
6.9423916220322655 53.2325
6.964749080490181 52.8421
6.987106804399774 52.9028
7.009447368180821 53.0087
7.031805625367033 52.3591
7.054146723727803 52.7646
7.076505517631004 52.103
7.098864581288365 51.7617
7.121206488070854 51.7244
7.143566093607822 51.526
7.165908543567245 51.528
7.188268694426048 51.1798
7.2106291193438095 51.2459
7.232972390625943 50.9899
7.255333366030969 51.233999999999995
7.277677189091925 50.9283
7.300038718428332 51.4672
7.322400526130865 50.9892
7.344745183422596 50.8245
7.367107550224791 51.0688
7.389452767901992 51.4152
7.411815697249891 51.6766
7.434161478756298 51.0971
7.456524974096713 51.3507
7.478888753837185 51.8335
7.501235387657368 53.5104
7.523599738562711 60.5635
7.545946944825532 74.768
7.568311870344528 81.5864
7.5906770845765665 72.9061
7.613025156078678 60.4189
7.635390950099687 55.2221
7.657739602662809 53.3776
7.680105979923558 52.7359
7.702472650212829 53.263000000000005
7.724822180948224 53.151
7.747189439655568 53.5871
7.769539560075357 53.4841
7.791907410653562 54.4212
7.81425812420825 53.7972
7.836626570110925 54.287
7.858995315087906 55.2852
7.881346924933401 55.3285
7.903716270417482 55.8018
7.926068482028405 56.3957
7.948438431475253 57.11
7.9708086843180235 57.5929
7.993161805171116 57.9268
8.015532667162402 58.6119
8.037886398416653 59.2206
8.060257873014221 59.7689
8.082629655331942 60.3524
8.104984308787587 61.1417
8.127356708900503 61.7691
8.149711981398308 62.9125
8.172085002766314 63.6028
8.194458336181368 64.557
8.216814543847752 65.6472
8.23918850371002 67.4655
8.26154533906492 68.5011
8.283919928836452 70.0538
8.306277395339652 71.4154
8.328652618483376 73.2865
8.351028159736202 75.7435
8.373386579575245 78.3656
8.395762759396959 80.4782
8.418121819038275 84.5208
8.440498640894003 90.3413
8.462875785192262 99.6549
8.485235811156207 118.965
8.507613602688501 194.665
8.529974277114228 414.535
8.552352719347912 659.331
8.574731488360351 770.8510000000001
8.59709314210385 727.508
8.619472567021075 778.067
8.64183487789147 1078.05
8.664214962183097 1613.78
8.686577933647762 1779.55
8.708958680784317 1227.86
8.731339760774953 598.355
8.753703729764451 237.835
8.77608547780821 133.944
8.798450116065078 111.675
8.820832535634787 101.645
8.843215292401656 96.5836
8.865580941199045 93.1354
8.887964374703538 90.5606
8.910330701447199 88.6764
8.932714815164482 86.8396
8.955099270424924 85.3078
8.977466620733543 84.402
8.999851761421976 83.735
9.022219798361645 82.8046
9.04460562795561 82.5579
9.066991803441677 81.7651
9.089360876979615 82.0663
9.111747746589993 81.4727
9.13411751544971 81.1237
9.156505082664324 81.2807
9.178875550323522 81.8977
9.20126381862328 83.7901
9.223652438908596 94.5373
9.246023961427412 116.954
9.26841328802173 126.947
9.290785518039224 117.286
9.313175554425882 99.2668
9.335565947154315 86.7244
9.357939245086508 83.0174
9.380330352834827 81.8101
9.40270436697103 81.8647
9.425096193225055 81.4083
9.447488380180165 82.1404
9.469863475295412 82.4571
9.492256385987508 82.7023
9.514632206018318 83.4672
9.537025843935714 83.5798
9.559402392368193 83.9646
9.581796761000229 85.2841
9.604191496441521 85.1479
9.626569144158516 85.868
9.648964615551032 86.5047
9.671343000390081 87.3241
9.693739211225699 88.7582
9.716135793237463 89.7336
9.738515290448102 90.6884
9.760912617143402 91.986
9.783292860202891 93.4627
9.805690935076182 94.9123
9.828089385495742 95.8904
9.850470754023561 98.2206
9.872869957865444 101.01700000000001
9.89525208097539 104.935
9.917652041736662 109.303
9.940052382417589 117.052
9.962435644102392 138.769
9.984836746950979 204.782
10.007220771957746 382.964
10.029622640473708 600.783
10.052007432299963 696.1189999999999
10.074410069984072 656.125
10.096813093716005 623.769
10.119199042482517 715.8910000000001
10.141602840636468 1005.19
10.163989564971628 1419.95
10.186394141051062 1636.77
10.208799107559706 1252.4
10.231187001965623 686.315
10.253592751657669 298.441
10.275981430388155 157.32
10.298387966769793 124.37299999999999
10.320794897965431 115.697
10.343184759907361 110.495
10.36559248305461 107.054
10.387983138083852 105.572
10.410391656691655 109.126
10.432800574501677 125.95100000000001
10.455192425893369 174.415
10.47760214443012 230.84799999999998
10.499994797678786 255.90900000000002
10.522405320453982 241.011
10.54479877906917 228.28599999999997
10.567210109595656 247.44400000000002
10.5896218454736 307.54900000000004
10.612016518879773 416.415
10.634429067781074 490.54900000000004
10.656824555333241 437.265
10.679237920773568 298.76599999999996
10.701651695961992 169.794
10.724048411481384 115.23299999999999
10.746463008485165 96.9848
10.768860546937125 88.9054
10.791275969274796 84.1494
10.81369180576079 82.0418
10.836090585366925 80.0147
10.858507252467449 78.7039
10.88090686379991 77.5303
10.903324365036394 76.3723
10.925724811614439 74.6952
10.948143150509463 74.4356
10.970561909719066 73.5937
10.992963615930844 72.6442
11.015383218085756 71.8053
11.037785768347074 70.9081
11.06020621697282 70.2813
11.082627090322113 69.413
11.105030913430326 68.8796
11.12745263854165 68.5093
11.149857314510728 67.596
11.172279894912576 67.7815
11.194702904450653 66.8905
11.217108866490921 65.9235
11.239532736615194 65.6642
11.26193956033512 65.3855
11.284364294577085 65.2466
11.306789462371718 64.7453
11.329197585398376 64.297
11.351623622610898 64.0917
11.37403261614354 63.5309
11.396459526308487 63.5054
11.418869393879497 63.0786
11.441297180532617 62.7382
11.463725406927658 62.6209
11.486136592353875 62.1671
11.508565700543707 61.8839
11.530977768845315 61.8711
11.553407762368774 61.453
11.575838200059769 61.5161
11.598251599479612 61.2474
11.620682927815501 61.136
11.64309721895548 61.25
11.665529441478206 60.8808
11.687962112597958 60.2661
11.710377748130886 60.6491
11.732811318753434 60.7209
11.755227854859067 60.5534
11.777662328529495 60.4495
11.800079768750786 60.1632
11.822515149015453 60.2569
11.844950984084935 60.6159
11.867369787303163 60.6876
11.889806534289491 60.9665
11.912226250487029 62.9465
11.934663912939751 67.1048
11.9571020346363 71.3466
11.979523127133968 72.4537
12.001962169624331 70.9119
12.024384183972964 68.6442
12.046824150809913 69.5991
12.069264581333726 79.9088
12.091687985297767 94.0104
12.11412934550045 104.35600000000001
12.136553680195208 106.698
12.158995973632788 103.37100000000001
12.181438735204349 101.01700000000001
12.20386447284199 105.652
12.226308172985636 120.04299999999999
12.24873485024193 145.44899999999998
12.271179492516982 175.405
12.293607112949127 184.81799999999998
12.316052700916226 159.305
12.338498763250042 117.09
12.360927805303868 83.1372
12.383374818673879 69.2223
12.405804812803074 64.7338
12.428252780773262 63.2974
12.45070122756722 62.7471
12.473132656675375 62.3664
12.49558206341869 62.2421
12.518014453510101 62.0681
12.540464823770117 62.0893
12.562915677315177 62.2508
12.58534951575545 62.2455
12.607801338171472 62.3295
12.630236146511358 62.626000000000005
12.652688941369085 63.0444
12.675124723177234 63.481
12.697578494048786 63.7963
12.720032754458185 63.9751
12.742470003354093 64.5372
12.764925245138771 65.0131
12.787363476431278 65.3176
12.809819703166806 65.8768
12.83227642391173 66.1947
12.854716135692716 66.7497
12.877173846755147 68.1226
12.899614549869717 68.5823
12.9220732548287 69.2894
12.94453245827299 69.8907
12.966974655289818 70.9139
12.989434858002571 71.765
13.011878055298721 72.7314
13.034339260862497 73.9354
13.056800969391883 75.5349
13.079245674017244 79.0051
13.101708390774869 82.3427
13.12415410463411 88.6451
13.146617833206086 107.214
13.169064559883248 141.032
13.191529303857127 174.967
13.213994557076367 194.976
13.236442809902437 192.81
13.258909083908291 179.977
13.28135835851934 175.875
13.30382565690295 187.423
13.326293469022952 218.433
13.348744283242008 274.99
13.371213125129904 350.095
13.39366497011003 393.38
13.416134845360597 358.86
13.438605238843131 267.11
13.46105863690397 176.94799999999998
13.483530069144786 134.778
13.505984506951902 139.503
13.528456981549432 165.082
13.550929978879088 182.674
13.573385983253365 183.938
13.595860028340867 171.924
13.618317081455832 162.54
13.64079217790333 165.19
13.663250283359057 181.047
13.685726434770173 215.065
13.708203115221277 275.732
13.730662806148091 329.356
13.75314054697177 335.564
13.775601299246777 279.818
13.798080104050406 192.77200000000002
13.820559442405358 123.33200000000001
13.843021793671388 93.8107
13.865502201420897 83.676
13.887965623051947 80.9398
13.910447103807167 78.422
13.932929122629764 76.8412
13.955394156785959 76.329
13.977877254034569 75.2035
14.000343367582113 74.4532
14.022827546871707 73.6383
14.045294743423524 72.5779
14.06778000837062 72.1809
14.090265817715476 72.3413
14.112734645763819 72.8348
14.13522154619454 75.4608
14.157691466286913 78.0132
14.180179461423874 78.1087
14.202668005486178 76.4431
14.22513957064374 73.7534
14.247629214846473 71.0547
14.270101881097517 69.4229
14.29259262906496 68.6627
14.315083930490205 68.3876
14.337558255389705 68.1975
14.360050666019726 67.7761
14.382526101071944 67.6236
14.405019624534942 67.3335
14.427513705993134 67.2912
14.449990813291825 67.1886
14.47248601302899 67.1768
14.49496423954951 67.1646
14.517460561197822 67.2657
14.539939910570322 66.9266
14.562437357763558 67.1144
14.58493536931253 67.2574
14.607416409993311 67.4588
14.62991555254159 67.63
14.652397725157423 68.017
14.674898002342799 68.3208
14.697398848433282 68.8839
14.719882725991326 69.82
14.74238471217934 70.5614
14.764869730765593 73.6654
14.787372860692983 81.479
14.809876564079925 96.1269
14.83236330125751 111.07700000000001
14.854868153850365 119.75
14.877356041159485 119.90299999999999
14.899862046604186 114.647
14.922351087688757 110.848
14.944858249632887 111.889
14.967365991421232 118.78299999999999
14.989856770231246 132.011
15.012365673994204 157.172
15.03485761569738 188.796
15.05736768508665 208.952
15.07987833888692 200.45
15.102372032001655 167.41
15.124883856909658 121.36399999999999
15.14737872204565 90.7867
15.169891721717274 76.9409
15.192405310371893 72.1084
15.214901940621196 69.9766
15.237416709527137 68.7396
15.259914520936249 67.903
15.282430473753607 66.9983
15.304947020131227 66.4037
15.327446610371178 65.8379
15.349964346154254 65.4681
15.372465126703139 65.4154
15.394984055556009 65.0689
15.417486030076159 65.0987
15.44000615566487 64.5837
15.462526881230803 64.5099
15.485030653812652 64.4778
15.507552581617434 64.3364
15.530057557334603 64.2505
15.55258069104857 64.4574
15.575104429329837 64.843
15.597611216864632 64.6565
15.620136166564563 64.71600000000001
15.6426441664095 65.7208
15.665170331202765 68.4579
15.687697105158826 74.4341
15.710206930593545 85.9915
15.732734925158933 98.3192
15.755245972089478 106.152
15.77777519094324 107.90799999999999
15.800287463046663 104.17299999999999
15.822817909869592 99.3384
15.84534897229804 97.6165
15.867863089299354 101.47399999999999
15.890395385222186 109.00200000000001
15.912910736597423 123.12
15.935444269699861 147.08
15.957978423016485 172.417
15.980495633101265 183.912
16.003031029129367 174.375
16.02554948280019 141.35
16.048086125229432 105.015
16.070623392487107 81.6781
16.09314371869582 70.3766
16.11568223789321 65.17
16.13820381691126 62.6459
16.160743591742527 61.0998
16.183283996022084 60.0673
16.205807461423195 58.8466
16.228349126881973 58.1893
16.25087385432698 57.9482
16.27341678466365 57.1488
16.29594277784926 56.818999999999996
16.31848697676433 56.345
16.341031811604868 55.8181
16.36355971058487 55.6576
16.3861058195587 55.3687
16.40863499352978 54.7963
16.431182380342005 54.7749
16.453730407713202 54.7239
16.476261501364792 54.3362
16.498810812136167 53.9315
16.52134319004079 54.0036
16.54389378792203 54.0935
16.566445031001553 53.9385
16.588979342490088 53.7058
16.61153187824822 53.6298
16.634067483263312 53.3501
16.656621315414416 53.3663
16.679175797408888 53.1857
16.701713349928728 53.1798
16.72426913389191 53.3811
16.74680798922351 53.3056
16.76936507887444 53.2978
16.791905240734874 53.243
16.814463639794468 53.1039
16.837022695210294 53.2621
16.859564824093756 53.1828
16.882125194503903 53.196999999999996
16.904668639217885 53.7781
16.927230328348003 54.1975
16.949792678493612 54.8103
16.972338104193863 54.7224
16.994901778652235 54.4839
17.017448529496576 54.4797
17.040013531998152 54.623000000000005
17.06257920018044 54.9257
17.0851279459922 55.9958
17.107694947817667 58.4664
17.130245028099072 60.8604
17.15281336730298 62.8716
17.17536478578733 64.0884
17.19793446610687 63.5753
17.220504818648422 62.8027
17.243058251703697 62.0113
17.265629950971032 62.6173
17.288184731571736 63.6101
17.310757781306908 65.7041
17.33333150794385 68.2203
17.355888317140174 72.4236
17.37846339986244 77.5372
17.401021565958885 80.8481
17.42359800851343 79.878
17.44617513265564 75.1007
17.468735341390783 68.6797
17.491261035594565 62.65
17.51396340099364 59.3341
17.536490463869136 58.3127
17.559018209820174 57.9309
17.58154663977963 58.1582
17.604251766089718 58.1082
17.626781572227713 58.3549
17.64931206518155 58.5321
17.671843245885103 58.6868
17.69455114821572 58.7263
17.717083712612634 59.1475
17.739616967569667 59.7361
17.762150914021706 60.6164
17.78486160749854 60.9814
17.807396945166804 61.5813
17.829932977143503 62.1969
17.85246970436452 63.3339
17.875183204129467 66.1196
17.897721330097664 72.1661
17.920260154126645 79.6588
17.942799677153296 85.5141
17.9655159983646 88.0415
17.988056927677544 87.4663
18.010598558807683 84.9724
18.033140892692916 82.9624
18.05586005052525 82.7287
18.07840379824407 84.8109
18.10094825154059 89.1128
18.12366954819864 96.8099
18.146215420998306 109.626
18.16876200220057 126.84700000000001
18.191309292745153 142.851
18.214033452627167 149.845
18.236582170236648 141.513
18.259131600016456 123.669
18.281681742907335 102.617
18.304408781233683 87.8956
18.32696035875955 80.8535
18.349512652227624 78.8107
18.372065662579683 80.408
18.394795594587553 84.0858
18.41735004715306 90.4109
18.43990521943684 97.6605
18.46246111238171 102.34899999999999
18.485193953325208 101.039
18.507751296070428 93.48700000000001
18.530309362314178 83.1076
18.552868153000343 73.2149
18.57560391815056 66.6082
18.59816416623245 63.5464
18.620725141597372 61.9769
18.643286845190268 60.9646
18.666025549835414 60.1928
18.688588718427933 59.3617
18.711152618092243 59.1615
18.73389353884365 58.9597
18.75645890921984 58.1832
18.77902501351406 58.0071
18.801591852673102 57.9651
18.824335739722738 57.5097
18.846904057212626 57.4164
18.8694731124168 56.9943
18.89204290628315 56.8848
18.914789774966803 56.5407
18.937361054791623 56.4424
18.959933076131318 56.0904
18.982505839934877 55.8949
19.00525570560582 55.9793
19.027829963004184 55.688
19.05040496572238 55.6718
19.072980714710468 55.9224
19.095733592739563 55.8764
19.11831084296757 56.3732
19.140888842324735 57.8024
19.16346759176222 59.369
19.18622349753803 60.4698
19.208803755869358 61.4097
19.231384767143577 61.6175
19.253966532312948 61.0427
19.276725481241822 60.3392
19.29930876296784 60.3035
19.3218928014549 61.0629
19.34465404436217 61.5878
19.36723960516257 62.6568
19.389825925592426 64.1434
19.412413006605938 66.3917
19.43517731967805 69.4718
19.457765930683355 72.5484
19.48035530514408 73.1625
19.50294544401556 71.5918
19.525712842708348 67.1729
19.54830451925909 62.0365
19.570896963095727 57.2681
19.593490175174704 54.7608
19.616260674962184 53.8822
19.638855432416964 52.9367
19.661450960992624 53.0188
19.68404726164677 52.7959
19.706820878021247 52.7102
19.729418731756834 52.7749
19.752017360452857 52.3772
19.77461676506804 52.5761
19.797393513540218 52.7336
19.819994478951667 52.9396
19.84259622316767 54.0801
19.8651987471481 55.4752
19.887978643247177 56.3069
19.91058273574792 57.1512
19.933187610901943 57.6972
19.955969879466828 57.5499
19.97857632894404 57.0822
20.00118356396599 56.3493
20.023791585494575 56.3154
20.046577028914875 57.1646
20.069186632506966 58.1911
20.091797025500632 60.1971
20.114408208858933 62.5867
20.137196842715273 65.7488
20.159809615886765 69.2419
20.18242318232135 70.7946
20.20503754298326 71.1095
20.227829382875154 69.4123
20.250445341109344 66.4037
20.27306209647285 62.4711
20.29567964993108 59.0973
20.31847471147704 57.6452
20.34109387027612 57.9405
20.363713830075454 58.8767
20.386334591841646 60.8934
20.409132890679302 63.0659
20.431755265564437 64.3091
20.454378445325528 63.5873
20.477002430930366 61.32899999999999
20.499803982716553 57.7713
20.522429589228004 54.2953
20.54505600449589 51.6601
20.567683229489194 50.4832
20.590488049900088 49.8022
20.61311690359731 49.663000000000004
20.63574656993626 49.4832
20.658553853717297 49.0289
20.681185154618298 48.9087
20.703817271080066 48.7426
20.72645020407368 48.3353
20.749260783967177 48.5064
20.771895359337133 48.6536
20.794530754161617 48.5436
20.817166969412938 48.6461
20.83998086114876 48.5515
20.86261872660049 48.2687
20.885257415405402 48.2136
20.90789692853701 47.97
20.930714147864748 47.7047
20.953355319030678 47.798
20.97599731745334 47.9551
20.99864014410749 48.0027
21.021460706796564 48.2386
21.044105199328826 48.5992
21.06675052302631 48.678000000000004
21.089396678865015 48.6274
21.112220600704806 48.5588
21.134868430275347 48.3581
21.15751709492456 48.2697
21.180166595629693 48.0774
21.202993892429635 48.1355
21.22564507473034 48.2559
21.24829709602816 48.4945
21.27112693608965 49.0738
21.293780644891275 49.8942
21.316435195634053 49.9611
21.339090589297417 50.3153
21.361923832041875 50.6411
21.384580921090404 50.1387
21.407238856007325 49.5243
21.429897637773326 49.0678
21.45273429906592 48.4688
21.475394784108598 48.1189
21.498056118951983 47.925
21.520718304578022 48.023999999999994
21.543558400304388 47.871
21.566222297108816 48.0692
21.58888704765135 48.0904
21.61155265291521 48.5999
21.63439619898156 49.5622
21.657063523335786 50.7466
21.67973170537063 52.0172
21.7024007460706 52.7947
21.72524775840385 53.2342
21.747918526116475 53.1636
21.770590155457388 52.7627
21.79326264741238 52.5788
21.816113141960237 52.4835
21.838787368860547 52.9136
21.861462461341976 53.626999999999995
21.884315579735777 54.8605
21.90699241312273 56.0707
21.92967011506078 57.7939
21.95234868653799 59.8395
21.9752053151131 62.1152
21.997885635446785 64.1281
22.020566828293532 65.1771
22.04324889464272 64.4627
22.066109049404666 62.0395
22.088792872571794 58.7024
22.111477572219204 56.0567
22.1341631493376 54.1921
22.157026846313123 53.7067
22.179714188221507 54.0299
22.202402410582668 54.9969
22.22509151438863 55.2805
22.24795876962584 55.2323
22.270649646204486 54.4339
22.293341407213727 52.9424
22.316034053646906 51.5088
22.338904883215342 50.0869
22.36159931041458 49.0377
22.38429462602756 48.5641
22.40699083104897 48.187
22.429865251039757 47.9063
22.452563244831367 47.9218
22.47526213102522 47.9033
22.49813925616515 48.0743
22.520839937143307 48.0115
22.543541513520587 47.8946
22.56624398629403 47.7341
22.589124730075895 47.777
22.611829005656723 48.0242
22.63453418063466 47.9048
22.657240256008077 48.271
22.680124634582935 48.7651
22.70283252079775 49.6117
22.725541310413075 50.4212
22.74825100442868 50.8653
22.771139033969575 51.5443
22.79385054687155 51.2057
22.81656296718292 50.809
22.83927629590484 50.6725
22.862167992606945 50.4327
22.88488314827121 50.4417
22.907599215359284 50.6409
22.93031619487366 50.7354
22.953211574954405 50.9395
22.975930389478226 51.9005
22.998650119445763 52.8817
23.02137076586092 53.8616
23.044269845560063 55.5255
23.06699233506288 56.9446
23.089715744034912 57.7325
23.112617610931565 57.0844
23.135342869061212 55.372
23.158069049684816 53.3218
23.1807961538087 51.2613
23.20370174880544 49.6381
23.226430710184808 48.8025
23.249160598093425 48.6397
23.271891413539002 48.7175
23.294800752937697 49.1589
23.31753343374794 49.9309
23.340267045128353 50.4813
23.36300158808808 51.1181
23.38591468821339 51.2262
23.408651104658304 51.2178
23.431388455719986 50.6573
23.454126742409 50.38399999999999
23.4770436196085 50.1016
23.499783787914662 50.1915
23.522524894889884 50.04
23.54526694154616 50.1684
23.56818761219047 50.5117
23.59093154860734 50.9358
23.613676427751283 52.1597
23.636422250635754 53.5212
23.659346731118656 55.0416
23.68209445191868 56.6948
23.704843119509587 57.3062
23.72759273490623 56.56100000000001
23.750521041644767 54.878
23.77327256312355 52.5771
23.796025035462787 50.1619
23.818956224555475 47.7489
23.841710609113413 46.7075
23.86446594758979 45.7926
23.887222241002014 45.3934
23.910157285144578 45.0437
23.932915498962537 44.9284
23.955674670778713 44.7255
23.978434801611975 44.5776
24.001373717286125 44.4338
24.024135776723917 44.1486
24.046898798245582 44.1031
24.06966278287146 43.9636
24.092605586582614 43.7261
24.115371508023642 43.7653
24.1381383956401 43.4316
24.16090625045381 43.3377
24.183852958731244 43.2847
24.206622758582608 43.2176
24.229393528706886 43.0544
24.252165270127392 43.3764
24.27511589952438 43.0931
24.297889594216997 42.8917
24.32066426328598 42.8322
24.34343990775613 42.8185
24.36639447485003 42.6005
24.38917208083877 42.6168
24.41195066531332 42.3635
24.43490819850244 42.4377
24.457688750692377 42.4002
24.48047028445616 42.3968
24.503252800821233 42.3353
24.526214300784112 42.3366
24.548998793132213 42.2808
24.57178427117417 42.193999999999996
24.59457073593893 42.1951
24.617536219319863 42.2622
24.64032466834748 42.3296
24.663114107195035 42.342
24.685904536893013 42.2863
24.708874020360852 42.1402
24.731666442613744 42.2649
24.754459858818787 42.1976
24.777254270007962 41.8765
24.80022777025625 41.8346
24.82302418230472 41.7089
24.845821592443674 41.8388
24.86862000170663 41.8713
24.891597535453727 41.8521
24.914397953892728 42.1332
24.93719937456671 41.9833
24.96000179851076 41.9968
24.98298338249997 42.001999999999995
25.00578782394922 42.11
25.028593271784167 42.2149
25.05157790644186 42.5794
25.07438537804115 42.6571
25.097193859145293 42.6736
25.120003350792075 42.7425
25.142992065061257 43.0215
25.165803588823465 43.1338
25.18861612625217 43.0533
25.211429678386736 43.1717
25.234422489079968 43.325
25.257238081693636 43.6464
25.280054692141732 43.9639
25.3028723214652 43.9754
25.325869245420463 43.7969
25.348688923599397 43.6847
25.371509623787006 43.4218
25.394331347025812 43.3681
25.41733240110666 43.6064
25.440156181590016 43.8915
25.46298098826268 44.2519
25.48580682216873 44.2068
25.50881202326435 43.7779
25.53163992281684 42.994
25.55446885274561 42.3661
25.577298814096377 41.6667
25.600308179121807 41.0978
25.623140214533745 40.7532
25.64597328451537 40.3893
25.66898578564376 40.1804
25.691820936010206 40.1383
25.714657124097695 40.0143
25.737494350954734 40.052
25.760511045684957 40.1015
25.783350361364224 40.2541
25.806190718969255 40.3033
25.82903211955018 40.5859
25.852053024868923 40.6921
25.874896522722523 40.5675
25.897741066713106 40.3368
25.920586657892454 40.3048
25.943611790812668 40.2631
25.966459487728237 40.0713
25.989308234998564 39.9967
26.01215803367705 40.1343
26.03518741123814 40.1746
26.05803932412957 40.1655
26.080892291600094 40.099000000000004
26.10374631470478 40.1947
26.12677995397268 40.5113
26.14963609978026 40.7383
26.172493304397875 41.0023
26.19535156888223 41.2991
26.218389486949604 41.3888
26.241249882640123 41.3647
26.26411134137826 41.1572
26.28715248187403 41.0809
26.31001607820869 40.6646
26.3328807407756 40.3766
26.35574647063438 40.4032
26.37879191991473 40.3063
26.401659795896734 40.2051
26.424528742360263 40.2646
26.447398760366614 40.2329
26.470448535598294 40.1504
26.49332070826805 40.0433
26.516193955675355 40.13
26.53906827888316 40.0984
26.562122397260108 40.2029
26.584998883685063 40.2287
26.607876449110325 40.3707
26.63075509460056 40.4222
26.65381357334404 40.5531
26.67669439061878 40.7012
26.699576291163382 40.981
26.722459276044212 41.352
26.745522132402975 41.5946
26.768407297649354 41.92
26.791293550442003 41.8837
26.814180891848974 41.6091
26.837248143099337 41.2046
26.860137673466657 40.7505
26.88302829566349 40.4686
26.90592001075963 40.0978
26.92899167420566 40.2073
26.951885586870763 39.977
26.974780595655517 39.8348
26.99785558178161 39.6423
27.020752794605112 39.3016
27.043651106772522 38.9954
27.06655051935668 38.8915
27.089629948036183 38.6269
27.112531573292053 38.4318
27.135434302194138 38.589
27.158338135817015 38.3006
27.181422024430987 38.3756
27.204328079372566 38.2654
27.22723524226965 38.3292
27.250143514198573 38.3531
27.273231880156334 38.2707
27.296142382065014 38.1562
27.319053996245536 37.9665
27.341966723775965 38.0559
27.365059584515222 37.9786
27.38797455070062 37.8606
27.410890633481237 37.8715
27.433807833936918 37.7459
27.456905206923906 37.8597
27.47982465472398 37.9246
27.502745223449743 37.8598
27.525666914182825 37.8045
27.548768816912457 37.9156
27.571692763693633 37.9372
27.59461783573812 37.957
27.617723149491244 37.9811
27.640650484125285 37.933
27.66357894728264 38.1254
27.686508540048052 38.1873
27.709618414237887 38.2647
27.732550278321757 38.128
27.755483275279115 38.0738
27.778417406196485 38.0351
27.801531858397514 37.8518
27.824468269376716 37.8042
27.847405817586786 37.6643
27.870344504116094 37.7249
27.893463551932008 37.6255
27.916404527281053 37.6503
27.93934664422563 37.7064
27.962289903855886 37.6337
27.98541356491974 37.6743
28.00835912214229 37.7563
28.03130582533231 37.6926
28.054253675581805 37.8049
28.077381967556104 37.7559
28.100332124185126 37.89
28.123283431160893 38.1701
28.146235889577238 38.2884
28.169368830154156 38.5164
28.192323603752033 38.6117
28.215279532083304 38.6215
28.238415973016764 38.3372
28.261374223145094 38.0649
28.284333631303806 37.7407
28.307294198589954 37.5511
28.330435319167677 37.4753
28.353398217078915 37.3801
28.376362277420153 37.1922
28.39932750129032 37.0653
28.422473319286713 36.8129
28.44544088262495 36.6534
28.468409612800283 36.2774
28.491379510913497 35.8826
28.51453004413313 35.7747
28.53750229057244 35.7064
28.56047570826344 35.7392
28.583450298308804 35.6374
28.606605564586562 35.3832
28.629582511831156 35.4007
28.65256063474956 35.3142
28.675539934446338 35.2899
28.698699951647605 35.2427
28.72168161743193 35.1039
28.74466446331978 35.1381
28.767648490417624 35.0064
28.790813276438353 34.8808
28.813799678527303 34.9032
28.836787265157085 34.9367
28.859955641890075 34.9104
28.882945610203045 34.8203
28.905936766392035 34.7699
28.928929111566863 34.8282
28.952102288520145 34.7354
28.975097024308607 34.628
28.998092952423807 34.6051
29.021090073977508 34.6577
29.04426806913204 34.85
29.067267590245258 34.6814
29.090268308143695 34.5481
29.11327022394099 34.5307
29.13645305530891 34.2775
29.159457379627167 34.1402
29.18246290519685 34.1568
29.20546963313352 34.0729
29.22865731875826 33.9702
29.25166646419296 33.8565
29.27467681535305 33.6867
29.29768837335608 33.5804
29.320880931312562 33.6793
29.34389491580634 33.6768
29.366910110507334 33.5117
29.38992651653503 33.5104
29.41312396492981 33.4601
29.436142806456754 33.5393
29.45916286268059 33.5318
29.48236399319994 33.5331
29.50538649169417 33.5311
29.528410208259935 33.5938
29.55143514402014 33.5041
29.574641196749695 33.3903
29.597668583816574 33.3086
29.6206971934585 33.1561
29.64372702680042 32.9706
29.666938019934474 32.754
29.689970313635285 32.7142
29.713003834422636 32.6179
29.73603858342347 32.5034
29.759254535188578 32.4159
29.78229175361658 32.3016
29.80533020365064 32.4743
29.82836988641968 32.4481
29.85159081507472 32.3549
29.874632976355343 32.3043
29.89767637376955 32.3174
29.920721008448314 32.2413
29.9439469322847 32.1932
29.96699405457564 32.1936
29.9900424175358 32.0786
30.013092022298157 31.965999999999998
30.03632295963995 31.948
30.059375061131373 31.9595
30.08242840783577 32.0685
30.105483000888153 31.9952
30.128718970092244 31.9347
30.151776069006917 31.8578
30.17483441768648 31.884
30.198074175317235 31.8461
30.221135036724256 31.9103
30.24419715131772 31.8337
30.267260520236203 31.7424
30.290505341942243 31.9444
30.313571232750228 31.9937
30.336638381310948 32.0731
30.35970678876503 32.133
30.38295669299435 32.0338
30.40602763151657 32.0292
30.429099832366074 31.9926
30.452173296685572 31.8488
30.47542830191959 31.7776
30.498504306502497 31.7639
30.521581577995562 31.8087
30.544660117543582 31.7637
30.56792024229725 31.6029
30.59100133132069 31.6081
30.614083691845494 31.5737
30.637167325018545 31.5609
30.660432587840603 31.5472
30.683518779717886 31.4862
30.70660624769615 31.627
30.729694992924372 31.5273
30.75296541239743 31.538
30.77605672557558 31.7707
30.799149319462742 31.733
30.8224236211637 31.8293
30.845518789950724 31.8333
30.868615242910597 31.680999999999997
30.891712981195973 31.616999999999997
30.91499247215866 31.3803
30.938092794619365 31.4739
30.96119440587579 31.3738
30.984297307082752 31.2485
31.00758200598383 31.1681
31.030687500658694 31.0937
31.053794288760695 31.0243
31.076902371446767 30.8945
31.100192296997445 30.8513
31.12330298246119 30.9285
31.14641496599209 30.7651
31.169528248749216 30.7166
31.19282341969534 30.6746
31.215939314557186 30.5849
31.239056512134788 30.6815
31.262175013589378 30.5789
31.28547544871168 30.5253
31.30859657161541 30.3583
31.331719001892175 30.4275
31.35484274070538 30.4852
31.378148458819545 30.4428
31.401274828443725 30.3636
31.424402510106933 30.3488
31.447712205419993 30.4417
31.470842524931633 30.2816
31.493974159989783 30.2555
31.51710711176168 30.3046
31.54042212308802 30.305999999999997
31.563557722100917 30.3928
31.586694641341655 30.3731
31.609832881979628 30.3598
31.63315322823208 30.362
31.656294125521327 30.3819
31.679436347728515 30.2946
31.70257989602529 30.112
31.725905596152327 30.0287
31.74905181052835 29.9283
31.772199354521323 29.888
31.79534822930507 29.8705
31.818679302290967 29.8261
31.84183085259981 29.7675
31.864983737233473 29.6196
31.88813795736804 29.7019
31.911474422233013 29.5845
31.934631327356435 29.6415
31.9577895715215 29.6256
31.980949155906522 29.496
32.004291031706956 29.5476
32.027453310562606 29.5851
32.05061693318573 29.5486
32.07396288236386 29.5224
32.09712920658542 29.5447
32.12029687812702 29.4404
32.14346589817093 29.3906
32.166817291729984 29.3751
32.18998902288583 29.3233
32.21316210610336 29.221999999999998
32.23633654256711 29.088
32.259693399663725 29.1046
32.282870556771144 28.9348
32.30604907069099 28.980999999999998
32.329228942610065 28.8902
32.35259128243769 28.7847
32.375773884550505 28.6404
32.398957848235646 28.6104
32.422143174682176 28.5973
32.445511016471215 28.5583
32.468699082679954 28.4068
32.49188851523011 28.3888
32.51507931531304 28.346999999999998
32.538452678331 28.3837
32.56164622776311 28.2505
32.58484114831493 28.1436
32.60803744118015 28.1814
32.631416344731896 28.1266
32.654615396551876 28.1118
32.67781582427913 28.1038
32.701198898634416 28.059
32.72440209253756 28.0499
32.747606665947124 28.0283
32.77081262006088 27.8587
32.79420126883317 27.8638
32.81740999876112 27.8557
32.840620112999424 27.755
32.86383161274818 27.5902
32.88722585534586 27.5815
32.91044014056596 27.6605
32.933655814909734 27.7008
32.95687287957963 27.6762
32.98027273544904 27.6136
33.00349259526636 27.4975
33.026713849030116 27.5883
33.04993649794511 27.5158
33.073341986570746 27.4133
33.09656744032826 27.4574
33.11979429286444 27.3691
33.14302254538647 27.3188
33.166433686291185 27.2764
33.18966475336992 27.2958
33.212897224069096 27.2611
33.23613109959831 27.24
33.259547912343415 27.2001
33.2827846121627 27.2002
33.306022720453775 27.1546
33.32926223842861 27.1321
33.352684742614166 27.1155
33.37592709463173 27.1815
33.399170859982064 27.12
33.422597648419426 26.9887
33.44584425514446 26.897
33.46909227885668 26.8986
33.4923417207723 26.8478
33.51577423505344 26.8376
33.539026528130385 26.741999999999997
33.56228024307245 26.7288
33.585535381098246 26.5936
33.60897364093058 26.4155
33.63223163992385 26.4351
33.6554910656699 26.3417
33.678751919389796 26.3836
33.702195944520106 26.2883
33.72545966903325 26.2349
33.74872482519663 26.2228
33.771991414233746 26.1782
33.79544122444841 26.115
33.81871069412428 25.9847
33.84198160035767 26.0268
33.86525394437455 26.0201
33.88870955949969 25.8913
33.911984794020626 25.9085
33.93526147001624 25.8657
33.958539588715006 25.7824
33.98200102861669 25.8452
34.0052820477047 25.8046
34.02856451319451 25.7204
34.05203033759056 25.7581
34.07531571090147 25.6866
34.09860253431845 25.7609
34.121890809074316 25.6241
34.145362493118924 25.5705
34.16865368561615 25.4866
34.191946333164054 25.4213
34.21524043699793 25.4594
34.23871800066799 25.3972
34.26201503218366 25.1881
34.28531352370466 25.2159
34.30861347646881 25.2028
34.33209693978188 25.1929
34.3553998301885 25.1252
34.378704185565205 25.0539
34.402010007152356 25.0169
34.42549939016683 25.0204
34.44880815937748 25.02
34.472118398533134 24.9559
34.49543010887669 24.9482
34.51892543169198 24.8728
34.54224009966052 24.892
34.56555624255917 24.8208
34.58887386163339 24.7625
34.61237514439016 24.6772
34.6356957311114 24.6094
34.65901779775809 24.5883
34.68252356662995 24.6553
34.705848608458616 24.5663
34.72917513396849 24.484
34.75250314440949 24.474
34.77601490857862 24.3755
34.799345904259795 24.2685
34.82267838863559 24.3499
34.846012362958525 24.3098
34.869530142679984 24.3224
34.89286711232212 24.2557
34.91620557568269 24.2742
34.93954553401677 24.2443
34.9630693495876 24.1441
34.986412313340814 24.1983
35.00975677584668 24.2178
35.033102738362956 24.1301
35.05663261012228 23.9952
35.0799815881786 24.0275
35.10333207003229 24.0118
35.12668405694369 23.938000000000002
35.150220005273056 23.9078
35.17357501786656 23.9289
35.19693153931268 23.9499
35.220289570874385 23.8475
35.24383161619786 23.9087
35.267192683604904 23.7563
35.290555264930376 23.718000000000004
35.314101899412165 23.6938
35.33746752422433 23.7166
35.36083466676374 23.6444
35.38420332829803 23.6243
35.407756095629054 23.6094
35.43112781085063 23.5897
35.45450104888391 23.6005
35.477875810999194 23.5532
35.50143473172161 23.5669
35.52481255774625 23.5657
35.54819191167777 23.4798
35.57157279478914 23.428
35.595137889488406 23.4286
35.61852184675279 23.3941
35.641907337029984 23.4348
35.665294361595684 23.3876
35.68886565090076 23.2375
35.7122557598848 23.2323
35.73564740699838 23.307
35.759040593519934 23.2792
35.78261809810353 23.1958
35.80601437933051 23.0742
35.829412203814705 23.0678
35.85281157283719 22.8869
35.876395313415884 23.006
35.8997977874528 22.9144
35.92320180988546 22.8391
35.946790244133936 22.7972
35.97019737933222 22.8178
35.993606066789866 22.7711
36.01701630779276 22.8039
36.04061101440684 22.6776
36.06402437852291 22.6357
36.08743930005611 22.7128
36.1108557802951 22.5879
36.13445678011326 22.5728
36.15787639383515 22.5157
36.18129757014299 22.4655
36.20472031032821 22.4706
36.22832762423364 22.4588
36.25175350829375 22.4292
36.275180960119776 22.3308
36.298609981005924 22.4053
36.32222362992669 22.4023
36.34565580510207 22.3797
36.36908955323448 22.3111
36.39252487562093 22.1261
36.416144880530226 22.166999999999998
36.43958336764275 22.1806
36.463023432914625 22.1828
36.486465077645676 22.0566
36.51009145956204 22.1955
36.53353627947859 22.0122
36.55698268276811 22.0284
36.58043067073321 21.9973
36.60406345072071 21.8629
36.62751462435344 21.8617
36.65096738658405 21.8798
36.67460498210655 21.9144
36.69806093788647 21.872
36.72151848619297 21.7974
36.744977628333636 21.7777
36.76862165890998 21.6988
36.79208400512205 21.7503
36.81554794910557 21.6987
36.83901349217101 21.6665
36.862663978991606 21.6182
36.88613273667352 21.6395
36.90960309738324 21.4865
36.933075062434064 21.5817
36.95673202673572 21.5262
36.98020721697122 21.4366
37.003684015502365 21.337
37.027162423645365 21.3405
37.050825886711465 21.2508
37.07430753063053 21.2026
37.09779078812467 21.24
37.121275660513014 21.2219
37.144945643673694 21.1643
37.16843376245278 21.1735
37.19192350009803 21.1059
37.215414857931435 21.0316
37.239091382563885 20.986
37.262585997426164 21.0209
37.28608223645736 20.9821
37.309763684451696 20.9267
37.33326318851098 20.899
37.356764320726555 20.8518
37.380267082425526 20.8754
37.40395510942588 20.7992
37.42746114683234 20.7182
37.45096881771841 20.6814
37.474478123414166 20.709
37.49817275092816 20.7419
37.52168534303452 20.6693
37.54519957395567 20.5537
37.568715445024665 20.5772
37.592416694607714 20.5796
37.61593586281424 20.565
37.63945667518264 20.5871
37.66297913304891 20.4253
37.68668702630454 20.4921
37.710212792059274 20.4106
37.733740207334854 20.3801
37.757269273470364 20.281
37.780983832050374 20.2116
37.80451621684926 20.2962
37.82805025654007 20.2482
37.851585952464795 20.1507
37.8753071980695 20.1917
37.89884622345676 20.12
37.92238690911902 20.0248
37.94611318753442 20.0322
37.969657210779765 20.0359
37.99320289834801 19.9961
38.016750251586465 19.9207
38.04048325513017 19.8762
38.06403395679343 19.8138
38.087586328183946 19.812
38.11114037065203 19.8794
38.13488012115898 19.8623
38.1584375229181 19.8006
38.181996599821 19.7074
38.205557353221124 19.6847
38.229303872575656 19.7027
38.2528679961576 19.6413
38.27643380031219 19.6536
38.30000128639589 19.5923
38.32375459653193 19.5871
38.34732546371299 19.552
38.37089801690786 19.427
38.39447225747609 19.3874
38.418232380377425 19.3757
38.441810012983396 19.3739
38.46538933705673 19.3723
38.488970353960084 19.3584
38.51273731166058 19.2995
38.536321731567014 19.2534
38.55990784840681 19.23
38.58367995004091 19.2405
38.60726947812959 19.1281
38.63086070726198 19.148
38.654453638806274 19.166
38.678232613930824 19.1045
38.70182896773327 18.9854
38.72542702806741 19.0211
38.7490267963045 19.0241
38.77281266709232 18.9793
38.79641586862214 18.93
38.8200207821842 18.8847
38.843627409152944 18.8463
38.86742019782782 18.9062
38.891030269149255 18.8448
38.914642058016156 18.8294
38.938255565806124 18.8184
38.96205529464307 18.747
38.98567225787121 18.6981
39.00929094417078 18.6684
39.03291135492255 18.686
39.05671804624804 18.6154
39.080341923549106 18.515
39.103967529460334 18.5683
39.127594865365744 18.5022
39.15140854155791 18.4633
39.17503935514948 18.507
39.19867190290282 18.4927
39.22249083587951 18.4576
39.24612686969409 18.4485
39.269764641845306 18.3187
39.293404153722804 18.3405
39.317230110864074 18.2413
39.34087311998506 18.2527
39.36451787301696 18.2515
39.388164371352595 18.1446
39.41199737518003 18.0876
39.43564738196752 18.1269
39.45929913825317 18.1624
39.48295264543308 18.0438
39.506792718520884 18.0742
39.530449745387216 17.9781
39.55410852735203 18.0061
39.57776906581474 17.9578
39.60161623079 17.9376
39.625280300200025 17.9638
39.64894613032202 17.8079
39.67261372255866 17.7994
39.6964680021016 17.7837
39.72013913657293 17.8691
39.74381203738292 17.8437
39.76748670593756 17.7487
39.79134812278169 17.7287
39.81502634488497 17.646
39.83870633896685 17.6668
39.862388106436654 17.6076
39.88625668336918 17.5865
39.90994201572829 17.5841
39.933629125719285 17.5731
39.957503091207826 17.5498
39.9811937746168 17.5302
40.00488623990914 17.4988
40.02858048850006 17.4379
40.05246165409549 17.4413
40.076159487492085 17.3323
40.099859108448875 17.3929
40.123560518384345 17.3385
40.1474489070226 17.3419
40.171153913178564 17.2275
40.194860712584955 17.2579
40.2185693066637 17.2854
40.242464941335314 17.2336
40.26617714307655 17.1824
40.289891143772046 17.2094
40.3136069448471 17.123
40.33750984859743 17.1327
40.3612292688043 17.0358
40.3849504936829 17.0282
40.40867352466194 17.0142
40.43258372059144 17.0349
40.45631038219906 17.0197
40.48003885420956 16.9438
40.503769138055105 16.9636
40.52768664931955 16.8962
40.55142057531802 16.8794
40.57515631746428 16.8425
40.599079334038514 16.8237
40.62281872700477 16.761
40.64655994043941 16.7942
40.67030297578061 16.6612
40.69423334835778 16.6413
40.71798004609188 16.6927
40.74172857006355 16.664
40.76547892171441 16.6594
40.7894166736039 16.5841
40.813170699248566 16.5629
40.83692655691388 16.5648
40.86068424804498 16.5282
40.884629402612525 16.5303
40.908390779366385 16.5192
40.932153993938 16.4296
40.95591904777605 16.4018
40.979871628443995 16.4009
41.003640379561936 16.3195
41.02741097430883 16.3366
41.05118341413683 16.3367
41.075143444384416 16.253
41.098919593177826 16.2575
41.1226975914255 16.2445
41.14647744058318 16.1854
41.170444943946755 16.1761
41.19422851378379 16.1675
41.218013938914645 16.1231
41.24198706625173 16.1052
41.26577622087193 16.0647
41.289567235177785 16.0313
41.31336011063129 15.9739
41.337340752422875 15.9583
41.361137369129835 15.9187
41.38493585138705 15.9545
41.40873620066004 15.888
41.43272438060107 15.9039
41.45652848292052 15.8462
41.48033445666918 15.8139
41.50414230331616 15.7773
41.528138045159764 15.7355
41.551949656675205 15.7147
41.575763145513235 15.7066
41.59957851314666 15.6444
41.62358184070442 15.6558
41.64740098505737 15.5867
41.6712220126409 15.6033
41.69504492493139 15.5509
41.71905586207357 15.5256
41.74288256296395 15.5145
41.766711153007456 15.4957
41.79054163368412 15.49
41.814560204340054 15.482000000000001
41.838394485526365 15.4384
41.86223066180303 15.4026
41.88625497706819 15.3853
41.910094962812 15.3234
41.93393684811168 15.3679
41.95778063445365 15.2958
41.981812625263366 15.2585
42.00566023303407 15.199000000000002
42.029509746323676 15.1583
42.05336116662236 15.1845
42.077400857069705 15.1781
42.10125611078846 15.1409
42.12511327600405 15.0766
42.14897235421036 15.0746
42.173019768448455 15.0319
42.19688269209613 15.0321
42.22074753323349 14.9609
42.24461429335818 14.9656
42.268669455600495 14.9604
42.292540073217886 14.9289
42.31641261433284 14.9395
42.34028708044675 14.8859
42.36435001496739 14.8013
42.38822835065557 14.8026
42.41210861586426 14.8136
42.4359908120986 14.7905
42.46006154323262 14.7658
42.48394762115317 14.7145
42.507835634632315 14.708
42.531912233047436 14.738
42.55580413732265 14.684000000000001
42.579697981698 14.644
42.60359376768525 14.6007
42.62767820545945 14.6053
42.65157789440821 14.5372
42.67547952952185 14.4945
42.699383112316 14.5581
42.72347541395347 14.5032
42.74738291190531 14.4609
42.771292362102166 14.4674
42.795203766063516 14.3865
42.819303956130405 14.3754
42.843219287476536 14.4084
42.86713657716324 14.3383
42.89105582671383 14.3264
42.91516392983864 14.3118
42.939087119032166 14.2412
42.963012272677304 14.2452
42.98693939230129 14.2215
43.01105543317513 14.1833
43.034986504731386 14.175999999999998
43.05891954686589 14.1597
43.08285456110972 14.1477
43.10697856448665 14.1221
43.130917542983475 14.0651
43.15485849820081 14.0878
43.17880143167367 14.0129
43.20293342237094 14.0064
43.226880332449 13.9993
43.25082922540554 13.9886
43.27496722682525 13.9649
43.29892010567796 13.9139
43.32287497204102 13.878
43.34683182745632 13.8554
43.370977859791836 13.825999999999999
43.39493871351105 13.8088
43.41890156092628 13.8295
43.44286640358341 13.7689
43.46702049182749 13.7238
43.49098934522816 13.7081
43.51496019852649 13.6984
43.5389330532723 13.6327
43.56309522248204 13.6558
43.58707210044314 13.600999999999999
43.61105098451946 13.6284
43.63503187626491 13.5548
43.659202151562134 13.5693
43.68318707902681 13.5412
43.70717401884041 13.5138
43.731162972560874 13.4784
43.75534137913236 13.4606
43.779334381108384 13.4327
43.803329401683186 13.4238
43.82732644241872 13.3867
43.8515130055166 13.3577
43.87551410707659 13.3174
43.89951723350145 13.3375
43.923709934595614 13.3094
43.94771713129917 13.245
43.97172635758096 13.2864
43.99573761501002 13.2104
44.0199385169922 13.1888
44.04395385732619 13.1593
44.067971233533086 13.1254
44.09199064718605 13.113
44.11619977548961 13.0959
44.14022328470671 13.0879
44.16424883610785 13.0869
44.18827643127035 13.0578
44.21249381139513 13.0398
44.236525514814076 13.0078
44.26055926674478 12.9931
44.28459506876863 12.9656
44.3088207262813 12.9604
44.33286064928722 12.9179
44.35690262714919 12.8374
44.38094666145278 12.8328
44.4051806219871 12.829
44.42922879003185 12.8099
44.45327901929361 12.7301
44.477331311362136 12.7546
44.501573600619416 12.7235
44.525630039221795 12.7249
44.54968854541895 12.7176
44.573937102200176 12.6468
44.5979997645541 12.68
44.622064499300315 12.6264
44.64613130803592 12.6805
44.67038823869318 12.6225
44.69445921643748 12.5844
44.718532272981385 12.5079
44.742607409926194 12.51
44.76687274034801 12.5382
44.79095205918753 12.4932
44.81503346325094 12.4443
44.839116954143876 12.4625
44.86339071028742 12.4485
44.88747839599524 12.3729
44.91156817336837 12.349
44.93566004401666 12.3791
44.959942251908146 12.3323
44.984038330325966 12.3046
45.00813650686762 12.269
45.03223678314731 12.2665
45.05652746888232 12.2189
45.08063196592069 12.2116
45.104738567558705 12.2283
45.128847275414856 12.1682
45.15314646515866 12.1391
45.17725940679741 12.1272
45.20137445952892 12.0832
45.22568004865265 12.1049
45.24979934496396 12.0434
45.27392075725247 12.0186
45.29804428714431 12.0272
45.322358426247604 12.0123
45.346486212804315 12.0095
45.370616121861914 11.9991
45.39474815505086 11.9831
45.41907087049246 11.8971
45.4432071734666 11.912
45.46734560548283 11.8597
45.49148616817604 11.8447
45.51581748638564 11.8706
45.5399623320197 11.8267
45.56410931325473 11.7786
45.58825843173002 11.8268
45.61259837920865 11.7466
45.636751793816 11.7716
45.66090735060093 11.6769
45.68506505120716 11.6982
45.7094136545275 11.6193
45.73357566449271 11.6195
45.75773982322992 11.6036
45.78190613238733 11.6014
45.806263418194064 11.5392
45.83043404997326 11.5723
45.85460683713677 11.5688
45.87897065658495 11.5385
45.90314777634752 11.4941
45.92732705646868 11.499
45.9515084986045 11.4946
45.97588104735473 11.4332
46.00006683541565 11.4609
46.02425479047904 11.3984
46.04844491420549 11.4006
46.0728262191024 11.3637
46.09702070211635 11.3294
46.12121735879483 11.3168
46.14541619080294 11.3222
46.169806278764455 11.302
46.194009483459034 11.2582
46.21821486849841 11.2538
46.24242243555223 11.1991
46.266821333570014 11.2064
46.29103328674601 11.2019
46.31524742696538 11.1719
46.33946375590237 11.1971
46.36387149104216 11.1527
46.38809221957392 11.0703
46.41231514186606 11.0718
46.436540259597464 11.0833
46.460956858999374 11.0735
46.48518638983522 11.0439
46.509418121166966 11.0032
46.533652054678114 10.9988
46.55807754555709 10.9591
46.58231590571962 10.9655
46.60655647313217 10.9034
46.630988654873654 10.8694
46.655233659129024 10.8778
46.67948087571551 10.8645
46.70373030632484 10.8136
46.72817142736393 10.8195
46.752425308428684 10.8055
46.77668140861147 10.8078
46.80093972960865 10.7469
46.82538981736788 10.7138
46.849652602470904 10.7002
46.87391761349769 10.7337
46.8981848521493 10.7233
46.9226439341274 10.6225
46.946915650573224 10.5922
46.97118959976749 10.613
46.99546578341598 10.5835
47.019933887188216 10.5656
47.04421456235744 10.523
47.06849747711879 10.5388
47.09278263318286 10.4774
47.11725978640143 10.4999
47.14154944775105 10.4594
47.165841355555656 10.4286
47.1901355115306 10.409
47.214621741924994 10.4269
47.23892041698887 10.3376
47.26322134538975 10.3579
47.28771440635075 10.3306
47.31201986422527 10.3339
47.33632758061436 10.3683
47.360637557241866 10.2972
47.38513974410611 10.2903
47.40945426407847 10.2749
47.43377104948137 10.2741
47.45809010204344 10.2318
47.48260144275502 10.2186
47.506925052572285 10.1819
47.53125093475548 10.1541
47.55557909103813 10.1674
47.58009961361992 10.1605
47.60443234110732 10.1107
47.62876734791564 10.0949
47.65310463578333 10.0922
47.6776343683373 10.0694
47.7019762413987 10.0314
47.72632040075572 10.0119
47.75066684815169 10.0194
47.77520581885936 9.98255
47.799556865477655 9.92398
47.823910205386 9.926060000000001
47.84826584033272 9.98297
47.87281407745551 9.91933
47.89717432569297 9.90438
47.92153687423484 9.8935
47.94609208429692 9.86505
47.97045925671401 9.84783
47.99482873471275 9.825389999999999
48.01920052005013 9.78619
48.04376504619224 9.76908
48.068141469543484 9.767619999999999
48.09252020552573 9.72994
48.11690125590099 9.73805
48.1414751266064 9.708680000000001
48.16586082917454 9.71344
48.19024885144316 9.66617
48.2146391951793 9.70553
48.239222439012764 9.68261
48.26361744916137 9.63074
48.28801478610016 9.60828
48.31241445160131 9.593919999999999
48.337007097209366 9.56648
48.36141144338331 9.58358
48.38581812345755 9.55982
48.41022713920929 9.56758
48.434829215320704 9.5243
48.45924292604658 9.50263
48.48365897780325 9.46756
48.50807737237308 9.45646
48.532688907799276 9.49012
48.55711201168574 9.42533
48.581537463754074 9.41732
48.60615611725119 9.423580000000001
48.63058628942721 9.400269999999999
48.65501881516546 9.39499
48.6794536962573 9.39325
48.70408185970339 9.33849
48.72852147531801 9.31984
48.75296345168211 9.306389999999999
48.77740779059232 9.30074
48.80204549302823 9.28917
48.82649458091802 9.29181
48.85094603676547 9.26088
48.87539986237231 9.22606
48.90004713292306 9.2117
48.92450572200832 9.17106
48.94896668628025 9.15371
48.97343002754588 9.15895
48.99808689542115 9.16924
49.02255501470614 9.170739999999999
49.04702551642794 9.0977
49.0714984023988 9.09393
49.096164896893235 9.08383
49.120642575466796 9.028189999999999
49.145122643748394 9.03046
49.16960510355558 9.01568
49.19428125404938 8.969669999999999
49.2187685210852 8.998380000000001
49.243258185121555 8.97418
49.26794160167084 8.93544
49.2924360839405 8.94944
49.31693296869764 8.908669999999999
49.34143225776915 8.88909
49.36612538195438 8.8604
49.39062950396021 8.86507
49.41513603578346 8.861410000000001
49.4396449792564 8.83585
49.46434784069503 8.83716
49.488861631846454 8.78565
49.513377840166804 8.74371
49.537896467493745 8.73147
49.56260909589029 8.71805
49.587132585683285 8.734960000000001
49.611658500018365 8.70192
49.636186840738596 8.65926
49.66090926588511 8.69484
49.685442483902584 8.68259
49.70997813385706 8.626489999999999
49.734516217597076 8.62695
49.75924846937352 8.58687
49.7837914452858 8.55913
49.80833686055187 8.559560000000001
49.83288471702571 8.55157
49.85762682540054 8.55741
49.882179588965734 8.51881
49.9067347993235 8.4939
49.93129245833333 8.47875
49.95604445336378 8.46212
49.98060703442832 8.47987
50.005172069746266 8.45717
50.02993150438364 8.44122
50.05450147301533 8.42731
50.07907390151433 8.38999
50.10364879174981 8.380230000000001
50.12841816587289 8.38991
50.1529980044635 8.353660000000001
50.17758031042124 8.323360000000001
50.20216508562089 8.30678
50.22694442953363 8.29992
50.25153416817468 8.3243
50.27612638170508 8.28253
50.300721072005196 8.24508
50.325510416102105 8.21198
50.350110084975064 8.211789999999999
50.37471223628208 8.22505
50.39931687190919 8.22092
50.424116246675766 8.21411
50.44872587605249 8.18563
50.47333799543065 8.15509
50.49795260670191 8.122819999999999
50.52276204271512 8.11347
50.54738166295838 8.115219999999999
50.57200378079314 8.112219999999999
50.596628398116835 8.05945
50.62144792604559 8.07048
50.646077567609396 8.05831
50.670709714377715 8.0452
50.69553683636198 7.998889999999999
50.72017401885922 7.97244
50.7448137122895 7.9802
50.76945591856022 7.951639999999999
50.79429318636823 7.95523
50.818940443716784 7.9482800000000005
50.84359021965163 7.928660000000001
50.868242516085964 7.90128
50.893089960641895 7.8753
50.917747323549435 7.891089999999999
50.94240721271973 7.874230000000001
50.96706963007175 7.849939999999999
50.99192728239342 7.78705
51.01659478166073 7.781439999999999
51.04126481489051 7.75715
51.06593738400761 7.78595
51.090805275207074 7.8002
51.11548294172845 7.715730000000001
51.14016314993547 7.733389999999999
51.164845901758845 7.694189999999999
51.18972406304274 7.71357
51.21441192780656 7.678719999999999
51.23910234200271 7.6852100000000005
51.2637953075678 7.6435699999999995
51.288683770237945 7.61497
51.31338186432707 7.61338
51.33808251561888 7.59692
51.362978729967345 7.571210000000001
51.387684521509755 7.585780000000001
51.41239287610203 7.60002
51.437103795691165 7.54705
51.46201036644977 7.526489999999999
51.486726441956634 7.49098
51.51144508832545 7.503439999999999
51.536166307509156 7.5138
51.56108326624387 7.49216
51.58580965706056 7.48113
51.61053862657523 7.46081
51.635270176746864 7.387160000000001
51.66019755512065 7.3921
51.68493429268881 7.399089999999999
51.70967361681515 7.36425
51.73441552946465 7.359439999999999
51.759353359237934 7.3794699999999995
51.7841004750961 7.33195
51.80885018539685 7.31566
51.833602492111254 7.2874300000000005
51.8585508051424 7.286639999999999
51.883308330926425 7.27692
51.90806845906181 7.24487
51.932831191525715 7.234780000000001
51.95779001977161 7.2165
51.98255798721516 7.185389999999999
52.00732856494335 7.164839999999999
52.03229530577543 7.17097
52.057071130455945 7.14641
52.081849571391054 7.12855
52.106630630568695 7.14238
52.13160794279417 7.074389999999999
52.15639426492067 7.09455
52.18118321127822 7.09048
52.205974783860896 7.07052
52.23096269971011 7.07072
52.255759551287994 7.04564
52.280559035098186 6.99385
52.30536115314103 6.99235
52.33035970494467 6.991060000000001
52.35516711807904 6.9779800000000005
52.37997717147198 6.959689999999999
52.40478986713005 6.9570300000000005
52.42979908731974 6.92324
52.454617094216 6.93018
52.47943774942214 6.87293
52.50426105495102 6.89315
52.529280976059844 6.873480000000001
52.554109609024096 6.85118
52.57894089837482 6.85572
52.60377484613117 6.88017
52.62880550079408 6.822369999999999
52.65364479223379 6.76691
52.67848674816189 6.7651
52.70352547971946 6.80772
52.72837279155837 6.7655899999999995
52.753222773982785 6.7743899999999995
52.778075429022984 6.724239999999999
52.80312495150885 6.7053199999999995
52.827982978797436 6.70777
52.85284368481815 6.697839999999999
52.87770707160767 6.66697
52.90276741793998 6.669989999999999
52.92763619336701 6.6679699999999995
52.952507655698504 6.62294
52.977381806977576 6.6245199999999995
53.00245301017842 6.614389999999999
53.02733256653592 6.6363199999999996
53.052214817996074 6.6036399999999995
53.077099766608484 6.582330000000001
53.102181859804446 6.5517199999999995
53.127072229988265 6.55501
53.15196530349892 6.556039999999999
53.17686108239249 6.517919999999999
53.20195409881522 6.54359
53.22685531582556 6.4749300000000005
53.25175924441303 6.46391
53.27666588664027 6.45747
53.30176985962693 6.42033
53.3266819565689 6.423080000000001
53.35159677336455 6.403919999999999
53.376514312083096 6.4426
53.40162927507703 6.43701
53.42655228516116 6.36679
53.45147802340193 6.35324
53.47660125628886 6.31156
53.50153247842639 6.32228
53.52646643496923 6.29623
53.55140312799818 6.343380000000001
53.576537409691696 6.30527
53.60147960336152 6.287030000000001
53.626424539786164 6.25994
53.65137222105307 6.2482
53.67651758529126 6.24721
53.70147078399681 6.2114199999999995
53.72642673383343 6.20519
53.75138543689533 6.22041
53.776541917524526 6.1874400000000005
53.801506154876755 6.1670300000000005
53.826473151763246 6.131530000000001
53.851442910284916 6.1044
53.87661054126026 6.1308300000000004
53.9015858509782 6.08625
53.92656392866066 6.12761
53.95154477641532 6.09782
53.976723591801296 6.07191
54.00171000771266 6.0471900000000005
54.02669920004598 6.03443
54.051691170915745 6.04073
54.076881204886796 5.99423
54.101878760928514 5.98486
54.12687910187696 5.92277
54.152077577768296 5.95326
54.1770835166946 5.91947
54.20209224691339 5.96436
54.22710377055121 5.94161
54.25231352511594 5.89436
54.27733066384342 5.87862
54.30235060239643 5.86072
54.32737334290836 5.83263
54.35259441062629 5.8143400000000005
54.377622783395324 5.81314
54.40265396455061 5.83462
54.42768795623251 5.75005
54.45292037169559 5.70434
54.477960012857906 5.69859
54.50300247099511 5.67427
54.52804774825457 5.67491
54.55329154616743 5.64752
54.57834249018678 5.60046
54.6033962597977 5.5826
54.6284528571545 5.57905
54.653708072335164 5.5866
54.67877035378786 5.54443
54.70383546947698 5.50445
54.72890342156389 5.48944
54.7541700889442 5.43153
54.77924374251975 5.47616
54.8043202390049 5.41654
54.82959552413022 5.4288300000000005
54.8546777351945 5.38387
54.87976279569621 5.37515
54.90485070780914 5.38171
54.930137506558005 5.3038
54.95523115074295 5.34106
54.98032765308844 5.28121
55.005427015775496 5.27315
55.03072536339621 5.28518
55.05583047570572 5.240880000000001
55.080938454927676 5.2369
55.10604930325027 5.207730000000001
55.131359235107396 5.19271
55.15647585066083 5.08148
55.181595341907496 5.11535
55.20671771104285 5.06583
55.232039262617704 5.05109
55.25716741665048 5.003369999999999
55.28229845518636 5.04095
55.30743238042802 4.94381
55.33276558731939 4.94815
55.357905315183636 4.9618400000000005
55.383047936390035 4.89507
55.40819345314859 4.85679
55.433538351073295 4.889130000000001
55.458689688238415 4.8207699999999996
55.483843927614096 4.8163
55.509197623043605 4.82015
55.53435769621134 4.76975
55.55952067826466 4.73566
55.5846865714265 4.8114300000000005
55.61005202069737 4.75231
55.63522376553902 4.75478
55.66039842818645 4.70352
55.68557601087004 4.74524
55.7109532500271 4.63398
55.73613670233794 4.72396
