TT I
1.2716486653135266 6.964339999999999
1.2939594142134223 7.012239999999999
1.3162702121660406 6.3653699999999995
1.3385810600174564 6.4236
1.3608919586137629 6.15207
1.383202908801069 6.1341
1.405513911425503 6.36904
1.4278249673332093 6.49188
1.4501343378461518 6.0998
1.4724455028545926 5.541980000000001
1.4947567236847858 6.21496
1.517068001182951 5.8762099999999995
1.5393793361953272 5.364380000000001
1.5616907295681737 5.03891
1.5840021821477681 5.4762
1.60631369478041 4.82381
1.6286252683124185 5.12289
1.6509369035901333 4.3499300000000005
1.6732468618895553 5.18018
1.695558623192809 4.85385
1.7178704487808514 5.03639
1.7401823395001077 4.907830000000001
1.7625012545597203 5.01524
1.7848028405262486 5.5511
1.8071218901122095 4.70226
1.8294236121921872 4.52151
1.8517427996910911 4.9185099999999995
1.8740620574440425 4.79136
1.8963639900671978 4.4457
1.9186833908139995 4.58932
1.9409854680117449 4.53993
1.9633050151394713 4.91507
1.9856246367570705 5.53739
2.0079269371922672 5.32161
2.03024671027244 4.03509
2.0525491637446027 4.76776
2.074869091674931 4.40597
2.097171701569106 5.00347
2.1194917877373847 5.29052
2.141811954326636 5.42439
2.164114805233074 4.59691
2.186435135143035 5.050730000000001
2.208738150935709 9.02537
2.231058647554722 14.6575
2.2533792288321184 11.7459
2.275682498336085 7.4766699999999995
2.298003251406138 5.69929
2.3203066942619714 5.38403
2.3426276225136022 5.7096599999999995
2.3649486396617507 5.77021
2.387252348930071 6.17621
2.4095735463442893 6.284669999999999
2.4318774374315884 6.03977
2.4541988185014043 6.58265
2.476502894794693 6.55167
2.498824462909887 7.36769
2.521146125856138 7.374210000000001
2.5434504863470337 7.539289999999999
2.5657723414244717 8.50543
2.588076895590662 8.78391
2.610398946189713 8.315430000000001
2.6327210958598384 8.4373
2.6550259469304716 7.866210000000001
2.6773482972090137 8.92274
2.6996533504259 7.99988
2.7219759047039602 8.33763
2.744298562293959 8.534460000000001
2.7666039251246595 8.138919999999999
2.7889267918020164 8.102780000000001
2.8112323652516555 8.09169
2.833555444408179 8.191289999999999
2.8558786311183852 8.908439999999999
2.8781845268938557 9.1532
2.9005079311721484 9.319980000000001
2.9228140460410397 9.48431
2.9451376712799635 9.54161
2.967444008632326 9.64227
2.9897678582247247 10.5106
3.0120918213106695 10.4325
3.0343984987899373 10.2978
3.0567226913198637 10.9153
3.079029599759726 11.6523
3.101354025127254 12.4214
3.123678568232338 12.777000000000001
3.145985829517914 13.4809
3.16831061055229 14.367
3.1906181112775593 14.4974
3.212943133635653 15.3763
3.2352682779763207 15.2898
3.2575761442691227 14.9871
3.2799015350264273 15.9438
3.302209649240067 16.2162
3.3245352898092655 16.8342
3.3468436553365257 17.112000000000002
3.369169549113219 17.5126
3.3914955708171384 18.5429
3.413804319727358 19.0719
3.4361305997334863 19.1244
3.4584396084414553 19.5722
3.4807661501462652 20.2647
3.503092824025881 20.5137
3.5254022288463154 21.2567
3.5477291695206588 21.6607
3.5700388426251948 22.1655
3.5923660534916446 23.1144
3.6146934007816114 30.2416
3.637003482731501 51.4114
3.6593311053109985 54.6954
3.681641464033634 37.6221
3.7039693653009733 26.5547
3.726297407241705 25.2307
3.7486081875460804 25.2527
3.7709365132734978 25.9165
3.793247578841633 26.1793
3.8155761917550093 26.3563
3.8378875459837216 26.6732
3.8602164494827234 27.2429
3.882545499606844 27.9736
3.9048572932539183 28.3376
3.9271866390645718 28.6178
3.9494987298666713 29.3619
3.971828374764527 29.6233
3.9941581705403255 30.2743
4.016470713506008 30.8024
4.038800813471445 31.7853
4.061113662089144 32.1847
4.0834440696459176 32.9781
4.105774632334751 33.0643
4.128087945865126 34.4829
4.150418821249301 34.8796
4.172732448931298 35.6346
4.195063640413578 36.6312
4.2173775856475215 39.3261
4.239709096631102 55.5681
4.262040768704612 125.007
4.284355196706267 157.727
4.306687193387355 107.82
4.329001947444346 57.9077
4.35133427213731 44.4125
4.373666762177566 42.9793
4.395982011761091 43.2286
4.418314834921175 44.613
4.44063041906622 48.5109
4.4629635787515625 53.232
4.4852969080429785 54.0453
4.5076130004776225 52.7568
4.529946671403969 56.2792
4.552263106909177 60.1301
4.574597122877047 57.6516
4.596931312711224 53.6654
4.619248269273446 53.1332
4.6415828092605835 53.988
4.663900117405352 55.2522
4.686235010953232 56.3716
4.708552674085913 57.4427
4.730887924602802 59.163000000000004
4.753223354952695 60.922
4.775541557023902 63.9216
4.797877349456786 67.0654
4.820195915032126 67.7562
4.842532072957498 67.518
4.864868414979744 70.2642
4.88718753227192 74.8038
4.909524244902505 76.6511
4.931843734218147 75.7318
4.954180820867835 77.3151
4.976518095879839 79.8732
4.998838149695359 82.5099
5.021175803844231 85.696
5.043496238205739 89.1872
5.065834274903528 93.5063
5.088172504230693 98.0366
5.1104935158799565 104.366
5.132832132875765 122.91
5.155153533596801 153.433
5.1774925416746225 189.34400000000002
5.199814334878411 364.283
5.2221537374521505 941.65
5.244493338631803 2746.25
5.266815727034316 7953.03
5.289155727832427 13522.4
5.311478517248165 8930.71
5.333818921080011 2648.11
5.356159527788849 489.82300000000004
5.3784829252032536 189.377
5.400823940070432 150.316
5.423147747031976 127.809
5.445489173474152 118.439
5.467830807066149 117.698
5.490155234831516 116.991
5.512497285125229 110.774
5.534822130975162 104.50299999999999
5.557164601388673 100.514
5.579489868738879 97.6126
5.601832762690846 96.5327
5.6241758697774475 95.5346
5.646501775867269 95.154
5.668845311622074 93.8055
5.691171647754637 93.4526
5.713515615597765 91.6751
5.735859800852677 91.5293
5.758186788542988 92.8138
5.780531411018185 96.7331
5.802858837297399 97.2977
5.825203900414495 97.0372
5.8475491852224 100.296
5.869877275883075 99.3484
5.892223006467101 95.7166
5.914551544266608 93.7171
5.936897724049891 95.5485
5.959244129804903 101.819
5.981573344815301 126.28
6.0039202049061 223.648
6.026249875609095 442.38199999999995
6.04859719346037 921.758
6.070927323278297 2233.01
6.093275102315365 4632.83
6.115623113320588 5207.91
6.137953938319995 2980.23
6.160302415650845 806.409
6.182633708324452 191.72099999999998
6.2049826554078376 104.773
6.227331838745022 87.7995
6.249663839443684 81.8586
6.27201349767565 78.982
6.294345974611799 80.4887
6.316696111167083 83.7862
6.339046488263839 80.7471
6.361379686074702 73.58800000000001
6.383730546639482 69.9487
6.406064229255215 69.2488
6.428415576718203 70.0861
6.450749747566656 68.7332
6.47310158535871 65.9285
6.495453669698332 64.5952
6.517788579421056 63.57899999999999
6.540141159237969 62.5847
6.562476565766648 62.1861
6.5848296444934045 62.0669
6.607182974060425 62.4646
6.6295191323281015 62.1345
6.651872965955752 63.2226
6.6742096296068985 73.2479
6.6965639707294615 92.9381
6.71891856698715 90.9881
6.741255995248479 73.0506
6.763611104154477 61.6636
6.785949046381137 58.4826
6.808304671371482 58.4889
6.8306605557940046 60.4645
6.852999275508618 59.1569
6.875355681171544 57.0511
6.897694923437771 55.9067
6.92005185377892 55.6788
6.9423916220322655 55.6978
6.964749080490181 54.7649
6.987106804399774 54.8485
7.009447368180821 55.4259
7.031805625367033 55.4278
7.054146723727803 54.758
7.076505517631004 53.8606
7.098864581288365 54.3552
7.121206488070854 54.1086
7.143566093607822 54.3952
7.165908543567245 55.3481
7.188268694426048 55.7278
7.2106291193438095 54.9558
7.232972390625943 54.5522
7.255333366030969 60.3529
7.277677189091925 83.0633
7.300038718428332 101.93799999999999
7.322400526130865 90.6468
7.344745183422596 67.9502
7.367107550224791 56.4007
7.389452767901992 53.8953
7.411815697249891 53.7882
7.434161478756298 53.2667
7.456524974096713 53.2664
7.478888753837185 53.1391
7.501235387657368 53.3391
7.523599738562711 53.5328
7.545946944825532 53.6599
7.568311870344528 54.0238
7.5906770845765665 54.4039
7.613025156078678 54.6995
7.635390950099687 55.5276
7.657739602662809 55.7279
7.680105979923558 55.5034
7.702472650212829 56.3481
7.724822180948224 56.0195
7.747189439655568 55.8409
7.769539560075357 55.1912
7.791907410653562 55.7654
7.81425812420825 55.6479
7.836626570110925 55.6302
7.858995315087906 56.6607
7.881346924933401 56.7252
7.903716270417482 57.388999999999996
7.926068482028405 57.7405
7.948438431475253 57.8639
7.9708086843180235 58.5312
7.993161805171116 59.4249
8.015532667162402 59.9316
8.037886398416653 61.2348
8.060257873014221 61.9766
8.082629655331942 62.6673
8.104984308787587 63.245
8.127356708900503 65.8224
8.149711981398308 70.2142
8.172085002766314 72.3991
8.194458336181368 70.067
8.216814543847752 68.257
8.23918850371002 68.2807
8.26154533906492 69.2012
8.283919928836452 71.0241
8.306277395339652 71.6153
8.328652618483376 72.9969
8.351028159736202 74.962
8.373386579575245 77.3086
8.395762759396959 79.1691
8.418121819038275 82.5384
8.440498640894003 90.0169
8.462875785192262 101.339
8.485235811156207 123.139
8.507613602688501 169.53
8.529974277114228 245.886
8.552352719347912 364.11199999999997
8.574731488360351 624.864
8.59709314210385 1199.48
8.619472567021075 1976.14
8.64183487789147 2265.48
8.664214962183097 1715.99
8.686577933647762 839.95
8.708958680784317 301.78
8.731339760774953 141.306
8.753703729764451 104.23299999999999
8.77608547780821 95.4046
8.798450116065078 92.8659
8.820832535634787 90.9275
8.843215292401656 91.0183
8.865580941199045 91.0359
8.887964374703538 90.6792
8.910330701447199 90.91
8.932714815164482 91.1679
8.955099270424924 88.8866
8.977466620733543 85.8864
8.999851761421976 83.8809
9.022219798361645 83.0248
9.04460562795561 82.9603
9.066991803441677 82.7502
9.089360876979615 83.1359
9.111747746589993 82.9203
9.13411751544971 81.8061
9.156505082664324 80.9427
9.178875550323522 80.9096
9.20126381862328 80.7574
9.223652438908596 81.0153
9.246023961427412 81.1256
9.26841328802173 81.0203
9.290785518039224 81.5042
9.313175554425882 83.7343
9.335565947154315 85.1934
9.357939245086508 85.7857
9.380330352834827 84.8536
9.40270436697103 84.7567
9.425096193225055 84.3698
9.447488380180165 84.0738
9.469863475295412 83.4527
9.492256385987508 83.6217
9.514632206018318 84.1846
9.537025843935714 84.7099
9.559402392368193 85.9147
9.581796761000229 88.2233
9.604191496441521 90.5552
9.626569144158516 93.4572
9.648964615551032 95.0347
9.671343000390081 94.5726
9.693739211225699 93.0224
9.716135793237463 91.8609
9.738515290448102 91.931
9.760912617143402 93.3535
9.783292860202891 95.4911
9.805690935076182 97.8174
9.828089385495742 98.9734
9.850470754023561 99.8139
9.872869957865444 103.71799999999999
9.89525208097539 111.491
9.917652041736662 118.772
9.940052382417589 124.794
9.962435644102392 145.842
9.984836746950979 183.22400000000002
10.007220771957746 239.10299999999998
10.029622640473708 330.86699999999996
10.052007432299963 509.26199999999994
10.074410069984072 829.209
10.096813093716005 1311.82
10.119199042482517 1859.59
10.141602840636468 2000.6
10.163989564971628 1481.84
10.186394141051062 777.418
10.208799107559706 324.85400000000004
10.231187001965623 162.05100000000002
10.253592751657669 118.37
10.275981430388155 108.925
10.298387966769793 107.56200000000001
10.320794897965431 108.12100000000001
10.343184759907361 106.541
10.36559248305461 103.54799999999999
10.387983138083852 102.921
10.410391656691655 108.694
10.432800574501677 118.83200000000001
10.455192425893369 132.611
10.47760214443012 157.287
10.499994797678786 202.422
10.522405320453982 288.467
10.54479877906917 412.769
10.567210109595656 543.819
10.5896218454736 587.33
10.612016518879773 485.441
10.634429067781074 316.944
10.656824555333241 177.74200000000002
10.679237920773568 112.15899999999999
10.701651695961992 92.0108
10.724048411481384 87.2507
10.746463008485165 84.7566
10.768860546937125 83.0583
10.791275969274796 81.7424
10.81369180576079 80.7763
10.836090585366925 79.6293
10.858507252467449 78.5627
10.88090686379991 77.5503
10.903324365036394 76.9469
10.925724811614439 76.9202
10.948143150509463 77.3454
10.970561909719066 77.1218
10.992963615930844 75.9873
11.015383218085756 74.2171
11.037785768347074 72.5708
11.06020621697282 71.4942
11.082627090322113 71.0313
11.105030913430326 70.5376
11.12745263854165 70.3343
11.149857314510728 71.2923
11.172279894912576 73.7405
11.194702904450653 73.4573
11.217108866490921 71.3621
11.239532736615194 69.4855
11.26193956033512 68.4736
11.284364294577085 67.3638
11.306789462371718 66.3324
11.329197585398376 65.8367
11.351623622610898 66.0021
11.37403261614354 65.1711
11.396459526308487 64.7828
11.418869393879497 64.6662
11.441297180532617 64.1976
11.463725406927658 63.9581
11.486136592353875 63.4106
11.508565700543707 63.331
11.530977768845315 64.5111
11.553407762368774 64.6327
11.575838200059769 64.3653
11.598251599479612 63.3244
11.620682927815501 62.4521
11.64309721895548 62.4482
11.665529441478206 61.8886
11.687962112597958 61.6186
11.710377748130886 61.8891
11.732811318753434 61.6333
11.755227854859067 61.8504
11.777662328529495 61.7103
11.800079768750786 61.7522
11.822515149015453 61.915
11.844950984084935 62.2134
11.867369787303163 61.7221
11.889806534289491 61.5837
11.912226250487029 61.7486
11.934663912939751 62.0616
11.9571020346363 61.9006
11.979523127133968 62.3541
12.001962169624331 63.284
12.024384183972964 64.6592
12.046824150809913 67.5975
12.069264581333726 71.3396
12.091687985297767 76.994
12.11412934550045 85.7961
12.136553680195208 101.705
12.158995973632788 127.52600000000001
12.181438735204349 158.142
12.20386447284199 189.09099999999998
12.226308172985636 212.136
12.24873485024193 198.69099999999997
12.271179492516982 153.817
12.293607112949127 112.777
12.316052700916226 85.3526
12.338498763250042 71.4971
12.360927805303868 65.7044
12.383374818673879 63.8821
12.405804812803074 63.0352
12.428252780773262 63.0128
12.45070122756722 63.1916
12.473132656675375 63.1116
12.49558206341869 63.4115
12.518014453510101 63.9159
12.540464823770117 63.6987
12.562915677315177 63.9062
12.58534951575545 64.157
12.607801338171472 64.972
12.630236146511358 67.4121
12.652688941369085 69.4702
12.675124723177234 70.0161
12.697578494048786 68.5604
12.720032754458185 67.1405
12.742470003354093 66.3318
12.764925245138771 66.8548
12.787363476431278 67.1061
12.809819703166806 67.4131
12.83227642391173 68.069
12.854716135692716 68.4505
12.877173846755147 70.048
12.899614549869717 70.3351
12.9220732548287 71.4081
12.94453245827299 71.9692
12.966974655289818 72.6749
12.989434858002571 73.1618
13.011878055298721 73.7767
13.034339260862497 74.9417
13.056800969391883 76.0845
13.079245674017244 78.7615
13.101708390774869 82.8592
13.12415410463411 90.5695
13.146617833206086 99.7235
13.169064559883248 108.81200000000001
13.191529303857127 122.649
13.213994557076367 145.187
13.236442809902437 183.87900000000002
13.258909083908291 245.77200000000002
13.28135835851934 317.611
13.30382565690295 391.00699999999995
13.326293469022952 442.884
13.348744283242008 423.55199999999996
13.371213125129904 333.00199999999995
13.39366497011003 230.114
13.416134845360597 153.02100000000002
13.438605238843131 114.21799999999999
13.46105863690397 103.00399999999999
13.483530069144786 104.057
13.505984506951902 108.45299999999999
13.528456981549432 117.82
13.550929978879088 132.006
13.573385983253365 156.879
13.595860028340867 200.59900000000002
13.618317081455832 257.996
13.64079217790333 326.08299999999997
13.663250283359057 377.923
13.685726434770173 385.45099999999996
13.708203115221277 327.443
13.730662806148091 241.002
13.75314054697177 167.05700000000002
13.775601299246777 115.555
13.798080104050406 91.277
13.820559442405358 82.7574
13.843021793671388 79.8548
13.865502201420897 78.5731
13.887965623051947 78.1364
13.910447103807167 76.9836
13.932929122629764 75.7713
13.955394156785959 75.4131
13.977877254034569 74.4768
14.000343367582113 73.6881
14.022827546871707 72.9191
14.045294743423524 72.3236
14.06778000837062 71.8332
14.090265817715476 71.6825
14.112734645763819 71.1258
14.13522154619454 70.855
14.157691466286913 70.8067
14.180179461423874 70.652
14.202668005486178 70.1164
14.22513957064374 69.64699999999999
14.247629214846473 69.3272
14.270101881097517 68.9689
14.29259262906496 68.8165
14.315083930490205 69.4342
14.337558255389705 68.9892
14.360050666019726 69.0865
14.382526101071944 68.6192
14.405019624534942 68.0398
14.427513705993134 67.881
14.449990813291825 67.7513
14.47248601302899 67.916
14.49496423954951 67.7879
14.517460561197822 67.878
14.539939910570322 67.5509
14.562437357763558 67.7901
14.58493536931253 68.5313
14.607416409993311 68.8481
14.62991555254159 69.305
14.652397725157423 69.2743
14.674898002342799 69.3663
14.697398848433282 69.43
14.719882725991326 70.602
14.74238471217934 72.2353
14.764869730765593 75.3552
14.787372860692983 78.0772
14.809876564079925 81.8217
14.83236330125751 87.0859
14.854868153850365 95.6804
14.877356041159485 110.15299999999999
14.899862046604186 130.17
14.922351087688757 158.58
14.944858249632887 189.945
14.967365991421232 217.19
14.989856770231246 228.972
15.012365673994204 213.732
15.03485761569738 178.842
15.05736768508665 138.013
15.07987833888692 103.691
15.102372032001655 83.9031
15.124883856909658 73.8507
15.14737872204565 70.31
15.169891721717274 68.9978
15.192405310371893 68.7498
15.214901940621196 68.6765
15.237416709527137 68.4701
15.259914520936249 68.3789
15.282430473753607 67.6087
15.304947020131227 66.7836
15.327446610371178 66.4432
15.349964346154254 65.8438
15.372465126703139 65.5717
15.394984055556009 65.3006
15.417486030076159 65.3174
15.44000615566487 64.9134
15.462526881230803 64.9039
15.485030653812652 64.8048
15.507552581617434 64.6596
15.530057557334603 64.5896
15.55258069104857 64.7885
15.575104429329837 65.0322
15.597611216864632 64.8851
15.620136166564563 65.2398
15.6426441664095 66.7185
15.665170331202765 69.0672
15.687697105158826 71.4841
15.710206930593545 74.2968
15.732734925158933 78.4555
15.755245972089478 84.4432
15.77777519094324 93.7734
15.800287463046663 107.73
15.822817909869592 128.412
15.84534897229804 152.722
15.867863089299354 177.565
15.890395385222186 194.524
15.912910736597423 194.773
15.935444269699861 176.903
15.957978423016485 145.67700000000002
15.980495633101265 111.662
16.003031029129367 86.6126
16.02554948280019 71.33800000000001
16.048086125229432 64.7822
16.070623392487107 62.7423
16.09314371869582 62.0586
16.11568223789321 61.0516
16.13820381691126 60.4366
16.160743591742527 59.6113
16.183283996022084 59.1009
16.205807461423195 58.1827
16.228349126881973 57.8384
16.25087385432698 57.6382
16.27341678466365 56.9868
16.29594277784926 57.0236
16.31848697676433 56.852
16.341031811604868 56.5983
16.36355971058487 56.7059
16.3861058195587 56.644
16.40863499352978 55.7878
16.431182380342005 55.2088
16.453730407713202 54.8681
16.476261501364792 54.5834
16.498810812136167 54.4558
16.52134319004079 54.5061
16.54389378792203 54.3603
16.566445031001553 54.2417
16.588979342490088 54.1853
16.61153187824822 53.9393
16.634067483263312 53.8531
16.656621315414416 53.8743
16.679175797408888 53.4719
16.701713349928728 53.5784
16.72426913389191 53.5447
16.74680798922351 53.7632
16.76936507887444 53.611000000000004
16.791905240734874 53.70399999999999
16.814463639794468 53.6467
16.837022695210294 53.7526
16.859564824093756 54.1301
16.882125194503903 54.3654
16.904668639217885 54.5683
16.927230328348003 54.4011
16.949792678493612 54.6546
16.972338104193863 54.3578
16.994901778652235 54.2605
17.017448529496576 54.5387
17.040013531998152 55.1464
17.06257920018044 55.5825
17.0851279459922 56.1069
17.107694947817667 56.8504
17.130245028099072 57.3198
17.15281336730298 58.7952
17.17536478578733 60.43600000000001
17.19793446610687 63.265
17.220504818648422 66.2202
17.243058251703697 69.9348
17.265629950971032 74.479
17.288184731571736 79.49
17.310757781306908 82.9201
17.33333150794385 82.9277
17.355888317140174 79.6429
17.37846339986244 73.9333
17.401021565958885 67.3868
17.42359800851343 62.8775
17.44617513265564 59.9504
17.468735341390783 58.8161
17.491261035594565 57.9267
17.51396340099364 57.6711
17.536490463869136 57.9807
17.559018209820174 58.0536
17.58154663977963 58.1945
17.604251766089718 58.3434
17.626781572227713 58.5575
17.64931206518155 58.8234
17.671843245885103 59.1913
17.69455114821572 59.2525
17.717083712612634 59.5518
17.739616967569667 59.8318
17.762150914021706 60.3379
17.78486160749854 60.7623
17.807396945166804 61.3787
17.829932977143503 62.3929
17.85246970436452 63.9757
17.875183204129467 65.5417
17.897721330097664 66.965
17.920260154126645 69.4023
17.942799677153296 72.21
17.9655159983646 76.0997
17.988056927677544 81.9077
18.010598558807683 90.0649
18.033140892692916 101.148
18.05586005052525 113.306
18.07840379824407 125.306
18.10094825154059 134.77200000000002
18.12366954819864 139.369
18.146215420998306 136.297
18.16876200220057 125.0
18.191309292745153 110.369
18.214033452627167 96.2901
18.236582170236648 86.8656
18.259131600016456 83.6392
18.281681742907335 85.1469
18.304408781233683 90.7483
18.32696035875955 96.7836
18.349512652227624 101.921
18.372065662579683 106.236
18.394795594587553 105.527
18.41735004715306 99.169
18.43990521943684 90.6258
18.46246111238171 81.3435
18.485193953325208 72.8815
18.507751296070428 67.0026
18.530309362314178 63.6719
18.552868153000343 61.9585
18.57560391815056 60.7804
18.59816416623245 60.6442
18.620725141597372 60.1237
18.643286845190268 59.6622
18.666025549835414 59.044
18.688588718427933 58.5741
18.711152618092243 58.5525
18.73389353884365 58.4226
18.75645890921984 57.8448
18.77902501351406 57.7453
18.801591852673102 57.6483
18.824335739722738 57.1803
18.846904057212626 57.007
18.8694731124168 56.6927
18.89204290628315 56.5317
18.914789774966803 56.4841
18.937361054791623 56.2937
18.959933076131318 55.9551
18.982505839934877 55.8158
19.00525570560582 55.83
19.027829963004184 55.8069
19.05040496572238 56.0622
19.072980714710468 55.9107
19.095733592739563 56.1074
19.11831084296757 56.2251
19.140888842324735 56.62
19.16346759176222 56.5936
19.18622349753803 57.1792
19.208803755869358 58.1829
19.231384767143577 59.3919
19.253966532312948 61.0468
19.276725481241822 63.3074
19.29930876296784 66.1938
19.3218928014549 69.2194
19.34465404436217 72.1396
19.36723960516257 74.817
19.389825925592426 74.9146
19.412413006605938 73.2078
19.43517731967805 69.1456
19.457765930683355 64.7468
19.48035530514408 60.2056
19.50294544401556 57.0322
19.525712842708348 55.0455
19.54830451925909 53.7855
19.570896963095727 53.0101
19.593490175174704 52.7126
19.616260674962184 52.9266
19.638855432416964 52.4324
19.661450960992624 52.7148
19.68404726164677 52.4279
19.706820878021247 52.4186
19.729418731756834 52.5418
19.752017360452857 52.4759
19.77461676506804 52.5411
19.797393513540218 52.7773
19.819994478951667 52.7035
19.84259622316767 53.2162
19.8651987471481 53.597
19.887978643247177 53.888000000000005
19.91058273574792 54.2964
19.933187610901943 55.1899
19.955969879466828 56.3535
19.97857632894404 58.068999999999996
20.00118356396599 59.8932
20.023791585494575 62.4969
20.046577028914875 65.2321
20.069186632506966 67.54899999999999
20.091797025500632 69.3119
20.114408208858933 69.6156
20.137196842715273 67.9367
20.159809615886765 66.2285
20.18242318232135 63.2987
20.20503754298326 61.7427
20.227829382875154 60.958
20.250445341109344 61.4567
20.27306209647285 62.4937
20.29567964993108 64.1707
20.31847471147704 64.9467
20.34109387027612 65.2677
20.363713830075454 64.4837
20.386334591841646 62.3096
20.409132890679302 59.2522
20.431755265564437 55.9607
20.454378445325528 53.5681
20.477002430930366 51.9805
20.499803982716553 51.0003
20.522429589228004 50.2349
20.54505600449589 49.7669
20.567683229489194 49.6423
20.590488049900088 49.5839
20.61311690359731 49.3086
20.63574656993626 49.1746
20.658553853717297 48.8178
20.681185154618298 48.8423
20.703817271080066 48.6482
20.72645020407368 48.1977
20.749260783967177 48.1541
20.771895359337133 48.0482
20.794530754161617 48.1057
20.817166969412938 48.1196
20.83998086114876 48.0201
20.86261872660049 47.9311
20.885257415405402 48.05
20.90789692853701 47.9612
20.930714147864748 47.7586
20.953355319030678 47.8515
20.97599731745334 47.871
20.99864014410749 47.5518
21.021460706796564 47.6986
21.044105199328826 48.0122
21.06675052302631 48.2493
21.089396678865015 48.3413
21.112220600704806 48.583
21.134868430275347 48.9064
21.15751709492456 49.2289
21.180166595629693 49.6548
21.202993892429635 50.2798
21.22564507473034 50.4656
21.24829709602816 50.7149
21.27112693608965 50.7685
21.293780644891275 50.4947
21.316435195634053 49.7772
21.339090589297417 48.8739
21.361923832041875 48.4388
21.384580921090404 47.8825
21.407238856007325 47.6483
21.429897637773326 47.4849
21.45273429906592 47.7216
21.475394784108598 47.5227
21.498056118951983 47.5455
21.520718304578022 47.8244
21.543558400304388 47.9303
21.566222297108816 48.2135
21.58888704765135 48.418
21.61155265291521 48.622
21.63439619898156 48.8918
21.657063523335786 48.9811
21.67973170537063 49.4776
21.7024007460706 49.95399999999999
21.72524775840385 50.7288
21.747918526116475 51.7277
21.770590155457388 53.1707
21.79326264741238 54.773
21.816113141960237 56.9981
21.838787368860547 58.9682
21.861462461341976 60.8656
21.884315579735777 63.0274
21.90699241312273 64.0484
21.92967011506078 64.2346
21.95234868653799 63.15
21.9752053151131 61.3126
21.997885635446785 59.2872
22.020566828293532 57.4068
22.04324889464272 56.2142
22.066109049404666 55.3192
22.088792872571794 55.3118
22.111477572219204 55.5595
22.1341631493376 55.3891
22.157026846313123 54.9191
22.179714188221507 53.8701
22.202402410582668 52.7387
22.22509151438863 51.3478
22.24795876962584 49.9679
22.270649646204486 49.3055
22.293341407213727 48.7871
22.316034053646906 48.3073
22.338904883215342 48.0617
22.36159931041458 48.0527
22.38429462602756 48.0075
22.40699083104897 47.8627
22.429865251039757 47.7509
22.452563244831367 47.8839
22.47526213102522 47.9123
22.49813925616515 47.8008
22.520839937143307 47.7994
22.543541513520587 47.7618
22.56624398629403 47.5851
22.589124730075895 47.6151
22.611829005656723 47.8141
22.63453418063466 47.9275
22.657240256008077 47.9173
22.680124634582935 47.9977
22.70283252079775 48.4286
22.725541310413075 48.6467
22.74825100442868 48.8959
22.771139033969575 49.3846
22.79385054687155 49.5876
22.81656296718292 50.3441
22.83927629590484 51.1991
22.862167992606945 52.5269
22.88488314827121 53.5967
22.907599215359284 54.6712
22.93031619487366 55.9724
22.953211574954405 56.801
22.975930389478226 57.3872
22.998650119445763 57.1796
23.02137076586092 56.0252
23.044269845560063 54.3478
23.06699233506288 52.7213
23.089715744034912 51.0313
23.112617610931565 49.6291
23.135342869061212 48.6198
23.158069049684816 48.0917
23.1807961538087 47.9193
23.20370174880544 47.9991
23.226430710184808 48.0559
23.249160598093425 48.053000000000004
23.271891413539002 48.0195
23.294800752937697 47.7899
23.31753343374794 48.2079
23.340267045128353 48.4301
23.36300158808808 48.61600000000001
23.38591468821339 48.765
23.408651104658304 49.2287
23.431388455719986 49.9346
23.454126742409 50.9347
23.4770436196085 52.1756
23.499783787914662 53.5014
23.522524894889884 54.7482
23.54526694154616 55.9343
23.56818761219047 56.9068
23.59093154860734 57.1106
23.613676427751283 57.2691
23.636422250635754 56.004
23.659346731118656 53.9359
23.68209445191868 51.8968
23.704843119509587 49.7464
23.72759273490623 48.1252
23.750521041644767 46.9461
23.77327256312355 46.1516
23.796025035462787 45.5337
23.818956224555475 45.1887
23.841710609113413 45.059
23.86446594758979 44.9606
23.887222241002014 44.7885
23.910157285144578 44.586000000000006
23.932915498962537 44.4658
23.955674670778713 44.1243
23.978434801611975 44.0057
24.001373717286125 43.967
24.024135776723917 43.8525
24.046898798245582 43.7215
24.06966278287146 43.613
24.092605586582614 43.3962
24.115371508023642 43.4341
24.1381383956401 43.231
24.16090625045381 43.1489
24.183852958731244 43.0729
24.206622758582608 42.8987
24.229393528706886 42.7315
24.252165270127392 42.9533
24.27511589952438 42.846000000000004
24.297889594216997 42.5855
24.32066426328598 42.388000000000005
24.34343990775613 42.5894
24.36639447485003 42.481
24.38917208083877 42.3652
24.41195066531332 42.2027
24.43490819850244 42.2683
24.457688750692377 42.2701
24.48047028445616 42.258
24.503252800821233 42.4937
24.526214300784112 42.5047
24.548998793132213 42.3007
24.57178427117417 42.2252
24.59457073593893 42.3703
24.617536219319863 42.1122
24.64032466834748 42.1414
24.663114107195035 42.1457
24.685904536893013 41.8064
24.708874020360852 41.893
24.731666442613744 41.7568
24.754459858818787 41.6198
24.777254270007962 41.6992
24.80022777025625 41.6465
24.82302418230472 41.498999999999995
24.845821592443674 41.6054
24.86862000170663 41.6046
24.891597535453727 41.3294
24.914397953892728 41.4149
24.93719937456671 41.4849
24.96000179851076 41.628
24.98298338249997 41.8126
25.00578782394922 42.1581
25.028593271784167 42.2349
25.05157790644186 42.5482
25.07438537804115 42.6285
25.097193859145293 42.9551
25.120003350792075 43.2919
25.142992065061257 43.7083
25.165803588823465 43.7692
25.18861612625217 43.9254
25.211429678386736 43.9162
25.234422489079968 44.0129
25.257238081693636 44.093999999999994
25.280054692141732 44.1926
25.3028723214652 44.358000000000004
25.325869245420463 44.4092
25.348688923599397 44.1736
25.371509623787006 44.1746
25.394331347025812 43.6581
25.41733240110666 43.1125
25.440156181590016 42.4713
25.46298098826268 42.0154
25.48580682216873 41.4509
25.50881202326435 40.9648
25.53163992281684 40.6089
25.55446885274561 40.3937
25.577298814096377 40.0615
25.600308179121807 39.9835
25.623140214533745 40.1353
25.64597328451537 40.1292
25.66898578564376 39.8156
25.691820936010206 39.8777
25.714657124097695 39.7671
25.737494350954734 39.7485
25.760511045684957 39.6142
25.783350361364224 39.7254
25.806190718969255 39.7623
25.82903211955018 39.9427
25.852053024868923 39.8438
25.874896522722523 39.857
25.897741066713106 39.7887
25.920586657892454 39.9724
25.943611790812668 40.2399
25.966459487728237 40.3805
25.989308234998564 40.3937
26.01215803367705 40.7177
26.03518741123814 40.9002
26.05803932412957 40.9232
26.080892291600094 40.9642
26.10374631470478 40.992
26.12677995397268 40.9703
26.14963609978026 40.868
26.172493304397875 40.5606
26.19535156888223 40.3522
26.218389486949604 39.8263
26.241249882640123 39.5811
26.26411134137826 39.4202
26.28715248187403 39.605
26.31001607820869 39.481
26.3328807407756 39.1697
26.35574647063438 39.4767
26.37879191991473 39.3018
26.401659795896734 39.3925
26.424528742360263 39.5784
26.447398760366614 39.7067
26.470448535598294 39.8976
26.49332070826805 39.9294
26.516193955675355 40.4231
26.53906827888316 40.6446
26.562122397260108 40.7985
26.584998883685063 41.0757
26.607876449110325 41.4748
26.63075509460056 41.6147
26.65381357334404 41.5951
26.67669439061878 41.387
26.699576291163382 41.1514
26.722459276044212 41.1002
26.745522132402975 40.7764
26.768407297649354 40.6108
26.791293550442003 40.2827
26.814180891848974 40.0592
26.837248143099337 39.8016
26.860137673466657 39.8128
26.88302829566349 39.4494
26.90592001075963 39.265
26.92899167420566 39.1969
26.951885586870763 38.7321
26.974780595655517 38.6094
26.99785558178161 38.5827
27.020752794605112 38.3672
27.043651106772522 38.1214
27.06655051935668 38.1716
27.089629948036183 38.0521
27.112531573292053 38.0088
27.135434302194138 38.0457
27.158338135817015 37.8471
27.181422024430987 37.8154
27.204328079372566 37.5802
27.22723524226965 37.7217
27.250143514198573 37.895
27.273231880156334 37.977
27.296142382065014 37.7548
27.319053996245536 37.6441
27.341966723775965 37.8072
27.365059584515222 37.8809
27.38797455070062 37.8848
27.410890633481237 37.7874
27.433807833936918 37.7845
27.456905206923906 37.9614
27.47982465472398 37.9128
27.502745223449743 38.0009
27.525666914182825 38.150999999999996
27.548768816912457 38.0518
27.571692763693633 37.8457
27.59461783573812 37.7009
27.617723149491244 37.5113
27.640650484125285 37.5298
27.66357894728264 37.3412
27.686508540048052 37.3797
27.709618414237887 37.397
27.732550278321757 37.1885
27.755483275279115 37.1612
27.778417406196485 37.2664
27.801531858397514 37.1542
27.824468269376716 37.1599
27.847405817586786 37.2212
27.870344504116094 37.3606
27.893463551932008 37.4717
27.916404527281053 37.671
27.93934664422563 37.7276
27.962289903855886 37.92
27.98541356491974 38.1196
28.00835912214229 38.1016
28.03130582533231 38.4019
28.054253675581805 38.4782
28.077381967556104 38.5889
28.100332124185126 38.4067
28.123283431160893 38.2677
28.146235889577238 38.1426
28.169368830154156 38.019
28.192323603752033 37.7359
28.215279532083304 37.425
28.238415973016764 37.2557
28.261374223145094 37.2271
28.284333631303806 37.033
28.307294198589954 36.8796
28.330435319167677 36.5441
28.353398217078915 36.2548
28.376362277420153 35.9944
28.39932750129032 35.9576
28.422473319286713 35.7857
28.44544088262495 35.7093
28.468409612800283 35.6855
28.491379510913497 35.4377
28.51453004413313 35.3892
28.53750229057244 35.3239
28.56047570826344 35.1957
28.583450298308804 35.2915
28.606605564586562 35.1606
28.629582511831156 35.107
28.65256063474956 34.9317
28.675539934446338 35.0396
28.698699951647605 34.911
28.72168161743193 34.7621
28.74466446331978 34.8686
28.767648490417624 34.8925
28.790813276438353 34.7638
28.813799678527303 34.8697
28.836787265157085 34.8873
28.859955641890075 34.8703
28.882945610203045 34.8563
28.905936766392035 34.6492
28.928929111566863 34.757
28.952102288520145 34.6624
28.975097024308607 34.4753
28.998092952423807 34.266999999999996
29.021090073977508 34.2606
29.04426806913204 34.2113
29.067267590245258 34.0075
29.090268308143695 34.0358
29.11327022394099 34.0043
29.13645305530891 33.926
29.159457379627167 33.7394
29.18246290519685 33.8029
29.20546963313352 33.7905
29.22865731875826 33.7662
29.25166646419296 33.7276
29.27467681535305 33.6082
29.29768837335608 33.6543
29.320880931312562 33.8218
29.34389491580634 33.797
29.366910110507334 33.6713
29.38992651653503 33.6878
29.41312396492981 33.6665
29.436142806456754 33.6108
29.45916286268059 33.3762
29.48236399319994 33.3358
29.50538649169417 33.1367
29.528410208259935 33.183
29.55143514402014 32.8842
29.574641196749695 32.8129
29.597668583816574 32.681
29.6206971934585 32.5472
29.64372702680042 32.5059
29.666938019934474 32.4433
29.689970313635285 32.3201
29.713003834422636 32.4171
29.73603858342347 32.3766
29.759254535188578 32.2931
29.78229175361658 32.2141
29.80533020365064 32.2989
29.82836988641968 32.1555
29.85159081507472 32.1314
29.874632976355343 32.1503
29.89767637376955 32.1674
29.920721008448314 32.0589
29.9439469322847 32.0362
29.96699405457564 31.9665
29.9900424175358 31.9768
30.013092022298157 32.0276
30.03632295963995 31.9709
30.059375061131373 32.0166
30.08242840783577 31.9458
30.105483000888153 31.9704
30.128718970092244 31.9498
30.151776069006917 31.9875
30.17483441768648 31.9184
30.198074175317235 31.8213
30.221135036724256 31.8633
30.24419715131772 31.7911
30.267260520236203 31.7019
30.290505341942243 31.8307
30.313571232750228 31.837
30.336638381310948 31.6512
30.35970678876503 31.6136
30.38295669299435 31.705
30.40602763151657 31.6658
30.429099832366074 31.6396
30.452173296685572 31.5264
30.47542830191959 31.5824
30.498504306502497 31.5292
30.521581577995562 31.5921
30.544660117543582 31.5823
30.56792024229725 31.6201
30.59100133132069 31.5941
30.614083691845494 31.6561
30.637167325018545 31.6408
30.660432587840603 31.8365
30.683518779717886 31.5924
30.70660624769615 31.7051
30.729694992924372 31.6812
30.75296541239743 31.7158
30.77605672557558 31.5997
30.799149319462742 31.5181
30.8224236211637 31.4416
30.845518789950724 31.3749
30.868615242910597 31.3454
30.891712981195973 31.1623
30.91499247215866 31.0737
30.938092794619365 31.1152
30.96119440587579 30.9032
30.984297307082752 30.8453
31.00758200598383 30.6992
31.030687500658694 30.6639
31.053794288760695 30.6057
31.076902371446767 30.5242
31.100192296997445 30.467
31.12330298246119 30.4917
31.14641496599209 30.3915
31.169528248749216 30.5467
31.19282341969534 30.4458
31.215939314557186 30.4001
31.239056512134788 30.4018
31.262175013589378 30.3746
31.28547544871168 30.2819
31.30859657161541 30.2669
31.331719001892175 30.3671
31.35484274070538 30.4421
31.378148458819545 30.4667
31.401274828443725 30.3999
31.424402510106933 30.5028
31.447712205419993 30.5148
31.470842524931633 30.3381
31.493974159989783 30.2702
31.51710711176168 30.3769
31.54042212308802 30.2968
31.563557722100917 30.267
31.586694641341655 30.0149
31.609832881979628 29.9182
31.63315322823208 29.86
31.656294125521327 29.7595
31.679436347728515 29.7187
31.70257989602529 29.616
31.725905596152327 29.5467
31.74905181052835 29.5014
31.772199354521323 29.5954
31.79534822930507 29.6196
31.818679302290967 29.6687
31.84183085259981 29.5992
31.864983737233473 29.5871
31.88813795736804 29.6123
31.911474422233013 29.4832
31.934631327356435 29.6064
31.9577895715215 29.5814
31.980949155906522 29.6207
32.004291031706956 29.6033
32.027453310562606 29.4622
32.05061693318573 29.2789
32.07396288236386 29.2349
32.09712920658542 29.2539
32.12029687812702 29.1004
32.14346589817093 29.0302
32.166817291729984 28.9882
32.18998902288583 28.9373
32.21316210610336 28.8008
32.23633654256711 28.7102
32.259693399663725 28.7732
32.282870556771144 28.6072
32.30604907069099 28.6277
32.329228942610065 28.5119
32.35259128243769 28.4723
32.375773884550505 28.4327
32.398957848235646 28.4396
32.422143174682176 28.3672
32.445511016471215 28.2952
32.468699082679954 28.2181
32.49188851523011 28.2097
32.51507931531304 28.1573
32.538452678331 28.1567
32.56164622776311 28.1224
32.58484114831493 27.98
32.60803744118015 28.031
32.631416344731896 28.0583
32.654615396551876 28.0139
32.67781582427913 27.9244
32.701198898634416 27.8793
32.72440209253756 27.8278
32.747606665947124 27.7403
32.77081262006088 27.5945
32.79420126883317 27.6446
32.81740999876112 27.7266
32.840620112999424 27.5764
32.86383161274818 27.5025
32.88722585534586 27.5081
32.91044014056596 27.6121
32.933655814909734 27.5914
32.95687287957963 27.4905
32.98027273544904 27.4163
33.00349259526636 27.3247
33.026713849030116 27.4667
33.04993649794511 27.3967
33.073341986570746 27.2969
33.09656744032826 27.3231
33.11979429286444 27.3257
33.14302254538647 27.2685
33.166433686291185 27.2326
33.18966475336992 27.2209
33.212897224069096 27.0737
33.23613109959831 27.0792
33.259547912343415 27.1428
33.2827846121627 27.1577
33.306022720453775 26.9462
33.32926223842861 26.9083
33.352684742614166 26.9456
33.37592709463173 26.9301
33.399170859982064 26.8289
33.422597648419426 26.7332
33.44584425514446 26.5967
33.46909227885668 26.6437
33.4923417207723 26.5546
33.51577423505344 26.5265
33.539026528130385 26.4931
33.56228024307245 26.4843
33.585535381098246 26.3288
33.60897364093058 26.2954
33.63223163992385 26.3483
33.6554910656699 26.2183
33.678751919389796 26.2039
33.702195944520106 26.0868
33.72545966903325 26.125
33.74872482519663 26.0819
33.771991414233746 26.0897
33.79544122444841 26.0516
33.81871069412428 25.968000000000004
33.84198160035767 25.8418
33.86525394437455 25.8611
33.88870955949969 25.816
33.911984794020626 25.7942
33.93526147001624 25.7478
33.958539588715006 25.7536
33.98200102861669 25.6643
34.0052820477047 25.6192
34.02856451319451 25.6872
34.05203033759056 25.5263
34.07531571090147 25.5216
34.09860253431845 25.4362
34.121890809074316 25.4164
34.145362493118924 25.3942
34.16865368561615 25.343000000000004
34.191946333164054 25.2346
34.21524043699793 25.3072
34.23871800066799 25.2984
34.26201503218366 25.2459
34.28531352370466 25.213
34.30861347646881 25.1297
34.33209693978188 25.0803
34.3553998301885 25.0432
34.378704185565205 25.0072
34.402010007152356 24.8854
34.42549939016683 24.9504
34.44880815937748 24.7815
34.472118398533134 24.7933
34.49543010887669 24.7468
34.51892543169198 24.7028
34.54224009966052 24.741999999999997
34.56555624255917 24.655
34.58887386163339 24.5776
34.61237514439016 24.5688
34.6356957311114 24.5563
34.65901779775809 24.5286
34.68252356662995 24.4283
34.705848608458616 24.4874
34.72917513396849 24.3709
34.75250314440949 24.3653
34.77601490857862 24.3279
34.799345904259795 24.2668
34.82267838863559 24.296999999999997
34.846012362958525 24.2871
34.869530142679984 24.3195
34.89286711232212 24.146
34.91620557568269 24.2149
34.93954553401677 24.2255
34.9630693495876 24.0345
34.986412313340814 24.046
35.00975677584668 24.1153
35.033102738362956 24.0178
35.05663261012228 23.9623
35.0799815881786 23.9726
35.10333207003229 23.9312
35.12668405694369 23.9207
35.150220005273056 23.7673
35.17357501786656 23.8308
35.19693153931268 23.8049
35.220289570874385 23.7421
35.24383161619786 23.7197
35.267192683604904 23.7212
35.290555264930376 23.6541
35.314101899412165 23.6509
35.33746752422433 23.6479
35.36083466676374 23.6325
35.38420332829803 23.5353
35.407756095629054 23.5333
35.43112781085063 23.5625
35.45450104888391 23.5668
35.477875810999194 23.5104
35.50143473172161 23.5041
35.52481255774625 23.4729
35.54819191167777 23.3995
35.57157279478914 23.3662
35.595137889488406 23.2642
35.61852184675279 23.2657
35.641907337029984 23.1547
35.665294361595684 23.2229
35.68886565090076 23.1242
35.7122557598848 23.1729
35.73564740699838 23.1829
35.759040593519934 23.0387
35.78261809810353 23.092
35.80601437933051 22.926
35.829412203814705 22.8966
35.85281157283719 22.8744
35.876395313415884 22.8885
35.8997977874528 22.7807
35.92320180988546 22.7803
35.946790244133936 22.7029
35.97019737933222 22.736
35.993606066789866 22.6639
36.01701630779276 22.686999999999998
36.04061101440684 22.5868
36.06402437852291 22.5868
36.08743930005611 22.5808
36.1108557802951 22.485
36.13445678011326 22.4991
36.15787639383515 22.4616
36.18129757014299 22.4381
36.20472031032821 22.3907
36.22832762423364 22.3165
36.25175350829375 22.3712
36.275180960119776 22.2499
36.298609981005924 22.2251
36.32222362992669 22.3178
36.34565580510207 22.2574
36.36908955323448 22.1991
36.39252487562093 22.0962
36.416144880530226 22.0489
36.43958336764275 22.061999999999998
36.463023432914625 22.076
36.486465077645676 21.9945
36.51009145956204 22.0277
36.53353627947859 21.9868
36.55698268276811 21.9764
36.58043067073321 21.9188
36.60406345072071 21.8211
36.62751462435344 21.8306
36.65096738658405 21.7474
36.67460498210655 21.7079
36.69806093788647 21.6766
36.72151848619297 21.6415
36.744977628333636 21.686999999999998
36.76862165890998 21.4962
36.79208400512205 21.5913
36.81554794910557 21.5514
36.83901349217101 21.4586
36.862663978991606 21.4442
36.88613273667352 21.3574
36.90960309738324 21.3631
36.933075062434064 21.3288
36.95673202673572 21.3404
36.98020721697122 21.278000000000002
37.003684015502365 21.2187
37.027162423645365 21.1947
37.050825886711465 21.1508
37.07430753063053 21.1168
37.09779078812467 21.1459
37.121275660513014 21.169
37.144945643673694 21.0956
37.16843376245278 21.0318
37.19192350009803 21.0122
37.215414857931435 21.0127
37.239091382563885 20.9668
37.262585997426164 20.8972
37.28608223645736 20.9084
37.309763684451696 20.8517
37.33326318851098 20.8109
37.356764320726555 20.7767
37.380267082425526 20.7875
37.40395510942588 20.7506
37.42746114683234 20.6842
37.45096881771841 20.6056
37.474478123414166 20.590999999999998
37.49817275092816 20.5511
37.52168534303452 20.4999
37.54519957395567 20.5175
37.568715445024665 20.4597
37.592416694607714 20.4596
37.61593586281424 20.4593
37.63945667518264 20.4107
37.66297913304891 20.4061
37.68668702630454 20.3412
37.710212792059274 20.218
37.733740207334854 20.2742
37.757269273470364 20.2285
37.780983832050374 20.1506
37.80451621684926 20.1718
37.82805025654007 20.147000000000002
37.851585952464795 20.0679
37.8753071980695 20.0117
37.89884622345676 20.0425
37.92238690911902 19.8941
37.94611318753442 19.8822
37.969657210779765 19.9084
37.99320289834801 19.9153
38.016750251586465 19.9006
38.04048325513017 19.8424
38.06403395679343 19.7803
38.087586328183946 19.7706
38.11114037065203 19.6938
38.13488012115898 19.6987
38.1584375229181 19.5928
38.181996599821 19.5871
38.205557353221124 19.6171
38.229303872575656 19.5764
38.2528679961576 19.5112
38.27643380031219 19.5612
38.30000128639589 19.5069
38.32375459653193 19.4931
38.34732546371299 19.5196
38.37089801690786 19.4436
38.39447225747609 19.328
38.418232380377425 19.2933
38.441810012983396 19.3278
38.46538933705673 19.2918
38.488970353960084 19.2382
38.51273731166058 19.215999999999998
38.536321731567014 19.1762
38.55990784840681 19.0469
38.58367995004091 19.0782
38.60726947812959 19.0493
38.63086070726198 19.134
38.654453638806274 19.1152
38.678232613930824 18.9848
38.70182896773327 18.9537
38.72542702806741 18.9144
38.7490267963045 18.881
38.77281266709232 18.8786
38.79641586862214 18.8397
38.8200207821842 18.7674
38.843627409152944 18.7803
38.86742019782782 18.7285
38.891030269149255 18.7337
38.914642058016156 18.7566
38.938255565806124 18.6977
38.96205529464307 18.5967
38.98567225787121 18.5901
39.00929094417078 18.5724
39.03291135492255 18.5572
39.05671804624804 18.5771
39.080341923549106 18.5334
39.103967529460334 18.4967
39.127594865365744 18.4249
39.15140854155791 18.3469
39.17503935514948 18.3507
39.19867190290282 18.372
39.22249083587951 18.3321
39.24612686969409 18.258
39.269764641845306 18.2796
39.293404153722804 18.2462
39.317230110864074 18.1488
39.34087311998506 18.1671
39.36451787301696 18.1162
39.388164371352595 18.0946
39.41199737518003 18.0509
39.43564738196752 18.0409
39.45929913825317 18.0044
39.48295264543308 18.0425
39.506792718520884 17.9259
39.530449745387216 17.9063
39.55410852735203 17.8684
39.57776906581474 17.8829
39.60161623079 17.8325
39.625280300200025 17.8128
39.64894613032202 17.7416
39.67261372255866 17.7525
39.6964680021016 17.7954
39.72013913657293 17.769000000000002
39.74381203738292 17.7028
39.76748670593756 17.6591
39.79134812278169 17.6645
39.81502634488497 17.5753
39.83870633896685 17.5407
39.862388106436654 17.5869
39.88625668336918 17.5224
39.90994201572829 17.5139
39.933629125719285 17.4485
39.957503091207826 17.369
39.9811937746168 17.4236
40.00488623990914 17.437
40.02858048850006 17.3632
40.05246165409549 17.2992
40.076159487492085 17.2667
40.099859108448875 17.2921
40.123560518384345 17.2134
40.1474489070226 17.2354
40.171153913178564 17.1534
40.194860712584955 17.1607
40.2185693066637 17.1568
40.242464941335314 17.0752
40.26617714307655 17.1299
40.289891143772046 17.0573
40.3136069448471 17.0338
40.33750984859743 17.0406
40.3612292688043 17.024
40.3849504936829 16.984
40.40867352466194 16.96
40.43258372059144 16.8907
40.45631038219906 16.9236
40.48003885420956 16.8314
40.503769138055105 16.8828
40.52768664931955 16.8154
40.55142057531802 16.7974
40.57515631746428 16.8092
40.599079334038514 16.7587
40.62281872700477 16.7074
40.64655994043941 16.6692
40.67030297578061 16.6794
40.69423334835778 16.6574
40.71798004609188 16.5763
40.74172857006355 16.5128
40.76547892171441 16.4873
40.7894166736039 16.4974
40.813170699248566 16.5199
40.83692655691388 16.4184
40.86068424804498 16.451
40.884629402612525 16.3949
40.908390779366385 16.3956
40.932153993938 16.3242
40.95591904777605 16.269000000000002
40.979871628443995 16.3116
41.003640379561936 16.3017
41.02741097430883 16.2574
41.05118341413683 16.2159
41.075143444384416 16.1786
41.098919593177826 16.1801
41.1226975914255 16.1099
41.14647744058318 16.0786
41.170444943946755 16.0541
41.19422851378379 16.0644
41.218013938914645 16.0039
41.24198706625173 15.9585
41.26577622087193 15.9607
41.289567235177785 15.9149
41.31336011063129 15.9623
41.337340752422875 15.8613
41.361137369129835 15.8381
41.38493585138705 15.7882
41.40873620066004 15.7735
41.43272438060107 15.7403
41.45652848292052 15.7653
41.48033445666918 15.7402
41.50414230331616 15.682
41.528138045159764 15.7109
41.551949656675205 15.6508
41.575763145513235 15.6058
41.59957851314666 15.5912
41.62358184070442 15.5825
41.64740098505737 15.5594
41.6712220126409 15.5032
41.69504492493139 15.5128
41.71905586207357 15.5091
41.74288256296395 15.460999999999999
41.766711153007456 15.4209
41.79054163368412 15.3642
41.814560204340054 15.3446
41.838394485526365 15.3563
41.86223066180303 15.299000000000001
41.88625497706819 15.2604
41.910094962812 15.2868
41.93393684811168 15.2602
41.95778063445365 15.1786
41.981812625263366 15.1621
42.00566023303407 15.1027
42.029509746323676 15.1402
42.05336116662236 15.1526
42.077400857069705 15.1001
42.10125611078846 15.0988
42.12511327600405 15.0274
42.14897235421036 15.0396
42.173019768448455 14.9892
42.19688269209613 14.9417
42.22074753323349 14.9162
42.24461429335818 14.8688
42.268669455600495 14.9197
42.292540073217886 14.8515
42.31641261433284 14.8431
42.34028708044675 14.7894
42.36435001496739 14.7971
42.38822835065557 14.8069
42.41210861586426 14.7218
42.4359908120986 14.7207
42.46006154323262 14.6919
42.48394762115317 14.6489
42.507835634632315 14.6654
42.531912233047436 14.6374
42.55580413732265 14.577
42.579697981698 14.5552
42.60359376768525 14.5663
42.62767820545945 14.5248
42.65157789440821 14.5018
42.67547952952185 14.4708
42.699383112316 14.4436
42.72347541395347 14.3415
42.74738291190531 14.3373
42.771292362102166 14.4194
42.795203766063516 14.3553
42.819303956130405 14.334000000000001
42.843219287476536 14.2675
42.86713657716324 14.3094
42.89105582671383 14.2499
42.91516392983864 14.1551
42.939087119032166 14.2129
42.963012272677304 14.1818
42.98693939230129 14.1035
43.01105543317513 14.1318
43.034986504731386 14.0889
43.05891954686589 14.0646
43.08285456110972 14.0359
43.10697856448665 14.0102
43.130917542983475 14.0001
43.15485849820081 14.0151
43.17880143167367 13.9202
43.20293342237094 13.9321
43.226880332449 13.9059
43.25082922540554 13.9175
43.27496722682525 13.85
43.29892010567796 13.8883
43.32287497204102 13.7946
43.34683182745632 13.7486
43.370977859791836 13.7646
43.39493871351105 13.767999999999999
43.41890156092628 13.741
43.44286640358341 13.6704
43.46702049182749 13.6526
43.49098934522816 13.6216
43.51496019852649 13.6097
43.5389330532723 13.5985
43.56309522248204 13.5376
43.58707210044314 13.5209
43.61105098451946 13.5153
43.63503187626491 13.5112
43.659202151562134 13.4717
43.68318707902681 13.4335
43.70717401884041 13.4526
43.731162972560874 13.3952
43.75534137913236 13.3561
43.779334381108384 13.3425
43.803329401683186 13.3319
43.82732644241872 13.2907
43.8515130055166 13.2849
43.87551410707659 13.2256
43.89951723350145 13.2285
43.923709934595614 13.25
43.94771713129917 13.243
43.97172635758096 13.2119
43.99573761501002 13.1398
44.0199385169922 13.1168
44.04395385732619 13.1387
44.067971233533086 13.1018
44.09199064718605 13.0711
44.11619977548961 13.0152
44.14022328470671 13.0161
44.16424883610785 12.999
44.18827643127035 12.9895
44.21249381139513 12.9573
44.236525514814076 12.9431
44.26055926674478 12.9454
44.28459506876863 12.8935
44.3088207262813 12.8448
44.33286064928722 12.8207
44.35690262714919 12.7999
44.38094666145278 12.7657
44.4051806219871 12.8044
44.42922879003185 12.7657
44.45327901929361 12.7272
44.477331311362136 12.7024
44.501573600619416 12.6734
44.525630039221795 12.6599
44.54968854541895 12.6064
44.573937102200176 12.6166
44.5979997645541 12.6333
44.622064499300315 12.620999999999999
44.64613130803592 12.5581
44.67038823869318 12.5874
44.69445921643748 12.5327
44.718532272981385 12.45
44.742607409926194 12.4595
44.76687274034801 12.4429
44.79095205918753 12.4108
44.81503346325094 12.3871
44.839116954143876 12.3688
44.86339071028742 12.3904
44.88747839599524 12.3391
44.91156817336837 12.3199
44.93566004401666 12.2814
44.959942251908146 12.2715
44.984038330325966 12.2568
45.00813650686762 12.195
45.03223678314731 12.2059
45.05652746888232 12.1717
45.08063196592069 12.1598
45.104738567558705 12.1279
45.128847275414856 12.1263
45.15314646515866 12.0578
45.17725940679741 12.065
45.20137445952892 12.0462
45.22568004865265 12.0142
45.24979934496396 11.9961
45.27392075725247 11.9984
45.29804428714431 11.9779
45.322358426247604 11.953
45.346486212804315 11.9618
45.370616121861914 11.9529
45.39474815505086 11.8886
45.41907087049246 11.8394
45.4432071734666 11.8323
45.46734560548283 11.862
45.49148616817604 11.8098
45.51581748638564 11.7679
45.5399623320197 11.7629
45.56410931325473 11.7166
45.58825843173002 11.7427
45.61259837920865 11.6304
45.636751793816 11.6947
45.66090735060093 11.6574
45.68506505120716 11.6137
45.7094136545275 11.6453
45.73357566449271 11.5589
45.75773982322992 11.5761
45.78190613238733 11.5414
45.806263418194064 11.5284
45.83043404997326 11.522
45.85460683713677 11.4978
45.87897065658495 11.4763
45.90314777634752 11.4586
45.92732705646868 11.4312
45.9515084986045 11.3637
45.97588104735473 11.3794
46.00006683541565 11.4096
46.02425479047904 11.3829
46.04844491420549 11.3504
46.0728262191024 11.345
46.09702070211635 11.312000000000001
46.12121735879483 11.2758
46.14541619080294 11.2538
46.169806278764455 11.2316
46.194009483459034 11.1914
46.21821486849841 11.1775
46.24242243555223 11.1687
46.266821333570014 11.1565
46.29103328674601 11.1629
46.31524742696538 11.0915
46.33946375590237 11.0477
46.36387149104216 11.0789
46.38809221957392 11.0316
46.41231514186606 11.0339
46.436540259597464 11.05
46.460956858999374 10.982000000000001
46.48518638983522 10.9458
46.509418121166966 10.9514
46.533652054678114 10.9082
46.55807754555709 10.9107
46.58231590571962 10.9258
46.60655647313217 10.8722
46.630988654873654 10.8118
46.655233659129024 10.815
46.67948087571551 10.8231
46.70373030632484 10.7737
46.72817142736393 10.7465
46.752425308428684 10.7366
46.77668140861147 10.7242
46.80093972960865 10.7016
46.82538981736788 10.6938
46.849652602470904 10.6865
46.87391761349769 10.6336
46.8981848521493 10.629000000000001
46.9226439341274 10.5919
46.946915650573224 10.5705
46.97118959976749 10.567
46.99546578341598 10.5189
47.019933887188216 10.509
47.04421456235744 10.4904
47.06849747711879 10.479000000000001
47.09278263318286 10.4588
47.11725978640143 10.4594
47.14154944775105 10.4277
47.165841355555656 10.3776
47.1901355115306 10.3956
47.214621741924994 10.3895
47.23892041698887 10.3519
47.26322134538975 10.329
47.28771440635075 10.3094
47.31201986422527 10.3112
47.33632758061436 10.2789
47.360637557241866 10.2569
47.38513974410611 10.2421
47.40945426407847 10.2244
47.43377104948137 10.2122
47.45809010204344 10.1743
47.48260144275502 10.1678
47.506925052572285 10.1026
47.53125093475548 10.109
47.55557909103813 10.0868
47.58009961361992 10.064
47.60443234110732 10.0771
47.62876734791564 10.0538
47.65310463578333 10.0205
47.6776343683373 10.0198
47.7019762413987 9.99952
47.72632040075572 9.96086
47.75066684815169 9.94926
47.77520581885936 9.9289
47.799556865477655 9.89146
47.823910205386 9.93454
47.84826584033272 9.891910000000001
47.87281407745551 9.85017
47.89717432569297 9.89385
47.92153687423484 9.83871
47.94609208429692 9.88498
47.97045925671401 9.80433
47.99482873471275 9.78562
48.01920052005013 9.77177
48.04376504619224 9.7328
48.068141469543484 9.75148
48.09252020552573 9.76187
48.11690125590099 9.66197
48.1414751266064 9.69091
48.16586082917454 9.638810000000001
48.19024885144316 9.63147
48.2146391951793 9.59506
48.239222439012764 9.603539999999999
48.26361744916137 9.547989999999999
48.28801478610016 9.57594
48.31241445160131 9.57901
48.337007097209366 9.528939999999999
48.36141144338331 9.52935
48.38581812345755 9.45589
48.41022713920929 9.48954
48.434829215320704 9.462010000000001
48.45924292604658 9.46337
48.48365897780325 9.46663
48.50807737237308 9.42373
48.532688907799276 9.43175
48.55711201168574 9.39382
48.581537463754074 9.35796
48.60615611725119 9.37336
48.63058628942721 9.342880000000001
48.65501881516546 9.32124
48.6794536962573 9.31289
48.70408185970339 9.27946
48.72852147531801 9.25738
48.75296345168211 9.21985
48.77740779059232 9.2139
48.80204549302823 9.22292
48.82649458091802 9.2091
48.85094603676547 9.15077
48.87539986237231 9.15139
48.90004713292306 9.12352
48.92450572200832 9.1577
48.94896668628025 9.096260000000001
48.97343002754588 9.07775
48.99808689542115 9.08339
49.02255501470614 9.069280000000001
49.04702551642794 9.03787
49.0714984023988 9.007710000000001
49.096164896893235 9.00892
49.120642575466796 8.99542
49.145122643748394 8.96261
49.16960510355558 8.95514
49.19428125404938 8.89692
49.2187685210852 8.91618
49.243258185121555 8.90019
49.26794160167084 8.89236
49.2924360839405 8.851569999999999
49.31693296869764 8.8164
49.34143225776915 8.80132
49.36612538195438 8.7955
49.39062950396021 8.778839999999999
49.41513603578346 8.78014
49.4396449792564 8.734960000000001
49.46434784069503 8.752939999999999
49.488861631846454 8.722430000000001
49.513377840166804 8.73123
49.537896467493745 8.72632
49.56260909589029 8.66958
49.587132585683285 8.648480000000001
49.611658500018365 8.66704
49.636186840738596 8.6081
49.66090926588511 8.5835
49.685442483902584 8.59189
49.70997813385706 8.57061
49.734516217597076 8.528960000000001
49.75924846937352 8.5191
49.7837914452858 8.506160000000001
49.80833686055187 8.49417
49.83288471702571 8.49567
49.85762682540054 8.47785
49.882179588965734 8.44854
49.9067347993235 8.42501
49.93129245833333 8.43861
49.95604445336378 8.44191
49.98060703442832 8.37842
50.005172069746266 8.3563
50.02993150438364 8.33686
50.05450147301533 8.35754
50.07907390151433 8.3341
50.10364879174981 8.316939999999999
50.12841816587289 8.31996
50.1529980044635 8.312560000000001
50.17758031042124 8.264439999999999
50.20216508562089 8.261510000000001
50.22694442953363 8.213460000000001
50.25153416817468 8.23038
50.27612638170508 8.24046
50.300721072005196 8.158380000000001
50.325510416102105 8.17216
50.350110084975064 8.15923
50.37471223628208 8.14891
50.39931687190919 8.16041
50.424116246675766 8.14265
50.44872587605249 8.117280000000001
50.47333799543065 8.0668
50.49795260670191 8.0733
50.52276204271512 8.06724
50.54738166295838 8.04964
50.57200378079314 8.04154
50.596628398116835 7.999210000000001
50.62144792604559 7.98502
50.646077567609396 7.98705
50.670709714377715 7.967560000000001
50.69553683636198 7.9222399999999995
50.72017401885922 7.89922
50.7448137122895 7.8947199999999995
50.76945591856022 7.91821
50.79429318636823 7.88162
50.818940443716784 7.856739999999999
50.84359021965163 7.821219999999999
50.868242516085964 7.83863
50.893089960641895 7.8148800000000005
50.917747323549435 7.80382
50.94240721271973 7.8082899999999995
50.96706963007175 7.74569
50.99192728239342 7.75091
51.01659478166073 7.749280000000001
51.04126481489051 7.73285
51.06593738400761 7.721889999999999
51.090805275207074 7.67673
51.11548294172845 7.736560000000001
51.14016314993547 7.68934
51.164845901758845 7.66672
51.18972406304274 7.640610000000001
51.21441192780656 7.606489999999999
51.23910234200271 7.59048
51.2637953075678 7.575760000000001
51.288683770237945 7.57976
51.31338186432707 7.559069999999999
51.33808251561888 7.492710000000001
51.362978729967345 7.5175
51.387684521509755 7.527880000000001
51.41239287610203 7.5048
51.437103795691165 7.47651
51.46201036644977 7.44534
51.486726441956634 7.459060000000001
51.51144508832545 7.459969999999999
51.536166307509156 7.40362
51.56108326624387 7.40907
51.58580965706056 7.40905
51.61053862657523 7.426830000000001
51.635270176746864 7.3684199999999995
51.66019755512065 7.369330000000001
51.68493429268881 7.29825
51.70967361681515 7.332139999999999
51.73441552946465 7.34382
51.759353359237934 7.2948699999999995
51.7841004750961 7.3240300000000005
51.80885018539685 7.24303
51.833602492111254 7.233619999999999
51.8585508051424 7.241160000000001
51.883308330926425 7.18938
51.90806845906181 7.20944
51.932831191525715 7.182460000000001
51.95779001977161 7.1463
51.98255798721516 7.135160000000001
52.00732856494335 7.13618
52.03229530577543 7.1237
52.057071130455945 7.07728
52.081849571391054 7.07883
52.106630630568695 7.087960000000001
52.13160794279417 7.0355300000000005
52.15639426492067 7.06085
52.18118321127822 7.02946
52.205974783860896 7.019610000000001
52.23096269971011 7.01435
52.255759551287994 6.972910000000001
52.280559035098186 6.970039999999999
52.30536115314103 6.93855
52.33035970494467 6.93565
52.35516711807904 6.983569999999999
52.37997717147198 6.960710000000001
52.40478986713005 6.96528
52.42979908731974 6.87822
52.454617094216 6.864039999999999
52.47943774942214 6.85957
52.50426105495102 6.86017
52.529280976059844 6.83893
52.554109609024096 6.806610000000001
52.57894089837482 6.837619999999999
52.60377484613117 6.7863
52.62880550079408 6.780660000000001
52.65364479223379 6.7361699999999995
52.67848674816189 6.69862
52.70352547971946 6.74993
52.72837279155837 6.75285
52.753222773982785 6.69735
52.778075429022984 6.70587
52.80312495150885 6.71813
52.827982978797436 6.6467
52.85284368481815 6.61505
52.87770707160767 6.612239999999999
52.90276741793998 6.6104
52.92763619336701 6.57573
52.952507655698504 6.5416
52.977381806977576 6.579739999999999
53.00245301017842 6.57136
53.02733256653592 6.56442
53.052214817996074 6.53429
53.077099766608484 6.503340000000001
53.102181859804446 6.52096
53.127072229988265 6.51281
53.15196530349892 6.47821
53.17686108239249 6.452319999999999
53.20195409881522 6.46633
53.22685531582556 6.489380000000001
53.25175924441303 6.43601
53.27666588664027 6.46788
53.30176985962693 6.45036
53.3266819565689 6.40499
53.35159677336455 6.34779
53.376514312083096 6.34516
53.40162927507703 6.3945
53.42655228516116 6.33164
53.45147802340193 6.3011
53.47660125628886 6.309080000000001
53.50153247842639 6.2841
53.52646643496923 6.31104
53.55140312799818 6.2875
53.576537409691696 6.29296
53.60147960336152 6.21265
53.626424539786164 6.19645
53.65137222105307 6.20691
53.67651758529126 6.21111
53.70147078399681 6.16806
53.72642673383343 6.18256
53.75138543689533 6.193919999999999
53.776541917524526 6.14736
53.801506154876755 6.1432199999999995
53.826473151763246 6.1005199999999995
53.851442910284916 6.07808
53.87661054126026 6.08426
53.9015858509782 6.07572
53.92656392866066 6.08857
53.95154477641532 6.0812
53.976723591801296 6.0715
54.00171000771266 6.04875
54.02669920004598 6.03055
54.051691170915745 6.01831
54.076881204886796 5.98822
54.101878760928514 6.006419999999999
54.12687910187696 5.94656
54.152077577768296 5.93311
54.1770835166946 5.95894
54.20209224691339 5.92799
54.22710377055121 5.89201
54.25231352511594 5.894080000000001
54.27733066384342 5.8013699999999995
54.30235060239643 5.87737
54.32737334290836 5.88807
54.35259441062629 5.84745
54.377622783395324 5.7979
54.40265396455061 5.8026
54.42768795623251 5.78868
54.45292037169559 5.787719999999999
54.477960012857906 5.74693
54.50300247099511 5.70262
54.52804774825457 5.70288
54.55329154616743 5.68394
54.57834249018678 5.67831
54.6033962597977 5.59427
54.6284528571545 5.58084
54.653708072335164 5.554790000000001
54.67877035378786 5.59389
54.70383546947698 5.57204
54.72890342156389 5.55872
54.7541700889442 5.505730000000001
54.77924374251975 5.52043
54.8043202390049 5.5444
54.82959552413022 5.50937
54.8546777351945 5.45218
54.87976279569621 5.43886
54.90485070780914 5.44145
54.930137506558005 5.39381
54.95523115074295 5.39441
54.98032765308844 5.32953
55.005427015775496 5.31825
55.03072536339621 5.31499
55.05583047570572 5.29614
55.080938454927676 5.2506
55.10604930325027 5.25323
55.131359235107396 5.24421
55.15647585066083 5.2199
55.181595341907496 5.23894
55.20671771104285 5.21124
55.232039262617704 5.16151
55.25716741665048 5.1061
55.28229845518636 5.102469999999999
55.30743238042802 5.04122
55.33276558731939 5.03851
55.357905315183636 5.0433900000000005
55.383047936390035 5.01849
55.40819345314859 5.00681
55.433538351073295 5.0325
55.458689688238415 4.988980000000001
55.483843927614096 4.91925
55.509197623043605 4.89093
55.53435769621134 4.87824
55.55952067826466 4.8354800000000004
55.5846865714265 4.88951
55.61005202069737 4.83065
55.63522376553902 4.809069999999999
55.66039842818645 4.7586900000000005
55.68557601087004 4.73136
55.7109532500271 4.724559999999999
55.73613670233794 4.7601
