TT I
1.2716486653135266 7.54971
1.2939594142134223 7.345269999999999
1.3162702121660406 7.4234
1.3385810600174564 6.46025
1.3608919586137629 6.19691
1.383202908801069 6.61255
1.405513911425503 6.87108
1.4278249673332093 6.10047
1.4501343378461518 6.25095
1.4724455028545926 6.4352599999999995
1.4947567236847858 5.74546
1.517068001182951 5.85471
1.5393793361953272 6.26945
1.5616907295681737 6.32199
1.5840021821477681 5.4345300000000005
1.60631369478041 5.58445
1.6286252683124185 5.36298
1.6509369035901333 4.64155
1.6732468618895553 4.96963
1.695558623192809 4.90395
1.7178704487808514 4.97639
1.7401823395001077 5.55708
1.7625012545597203 4.88021
1.7848028405262486 4.8597
1.8071218901122095 4.56796
1.8294236121921872 4.3975800000000005
1.8517427996910911 4.6580900000000005
1.8740620574440425 4.44491
1.8963639900671978 5.0092300000000005
1.9186833908139995 5.201230000000001
1.9409854680117449 5.3375699999999995
1.9633050151394713 4.58534
1.9856246367570705 4.40605
2.0079269371922672 4.77283
2.03024671027244 4.70803
2.0525491637446027 4.99793
2.074869091674931 4.48724
2.097171701569106 4.42309
2.1194917877373847 4.88009
2.141811954326636 4.96253
2.164114805233074 4.65629
2.186435135143035 5.94508
2.208738150935709 13.8126
2.231058647554722 29.1717
2.2533792288321184 22.3311
2.275682498336085 9.75972
2.298003251406138 6.01858
2.3203066942619714 5.5477
2.3426276225136022 5.0995
2.3649486396617507 5.34011
2.387252348930071 5.99228
2.4095735463442893 5.13756
2.4318774374315884 5.51431
2.4541988185014043 5.86747
2.476502894794693 6.09477
2.498824462909887 6.821269999999999
2.521146125856138 7.132680000000001
2.5434504863470337 6.555560000000001
2.5657723414244717 6.72345
2.588076895590662 7.390039999999999
2.610398946189713 7.73319
2.6327210958598384 8.19003
2.6550259469304716 7.767189999999999
2.6773482972090137 8.41783
2.6996533504259 7.28342
2.7219759047039602 7.73833
2.744298562293959 7.367000000000001
2.7666039251246595 7.26002
2.7889267918020164 7.996560000000001
2.8112323652516555 8.073310000000001
2.833555444408179 7.95529
2.8558786311183852 7.64381
2.8781845268938557 8.91365
2.9005079311721484 9.068019999999999
2.9228140460410397 9.14895
2.9451376712799635 9.57046
2.967444008632326 9.532119999999999
2.9897678582247247 9.86439
3.0120918213106695 10.5015
3.0343984987899373 10.7986
3.0567226913198637 10.7344
3.079029599759726 11.8361
3.101354025127254 12.3188
3.123678568232338 12.3595
3.145985829517914 13.3789
3.16831061055229 13.5022
3.1906181112775593 13.8642
3.212943133635653 14.8833
3.2352682779763207 15.2874
3.2575761442691227 16.1653
3.2799015350264273 15.955
3.302209649240067 16.7201
3.3245352898092655 16.6879
3.3468436553365257 17.4859
3.369169549113219 18.1633
3.3914955708171384 18.7575
3.413804319727358 18.8628
3.4361305997334863 19.2959
3.4584396084414553 20.2458
3.4807661501462652 20.4068
3.503092824025881 21.1747
3.5254022288463154 21.6548
3.5477291695206588 21.9202
3.5700388426251948 22.8488
3.5923660534916446 24.6091
3.6146934007816114 39.2029
3.637003482731501 90.7903
3.6593311053109985 101.11
3.681641464033634 57.7596
3.7039693653009733 31.4182
3.726297407241705 26.3964
3.7486081875460804 25.9467
3.7709365132734978 26.3979
3.793247578841633 26.6195
3.8155761917550093 26.9764
3.8378875459837216 27.6548
3.8602164494827234 28.0552
3.882545499606844 28.9791
3.9048572932539183 29.0985
3.9271866390645718 29.6288
3.9494987298666713 29.863000000000003
3.971828374764527 29.9422
3.9941581705403255 30.6052
4.016470713506008 31.9022
4.038800813471445 32.5509
4.061113662089144 33.043
4.0834440696459176 33.3457
4.105774632334751 34.2159
4.128087945865126 35.0741
4.150418821249301 36.4239
4.172732448931298 37.3758
4.195063640413578 39.085
4.2173775856475215 43.4053
4.239709096631102 76.77
4.262040768704612 239.544
4.284355196706267 324.24
4.306687193387355 208.40599999999998
4.329001947444346 82.5374
4.35133427213731 49.2026
4.373666762177566 45.119
4.395982011761091 44.8679
4.418314834921175 46.1872
4.44063041906622 54.5292
4.4629635787515625 65.3875
4.4852969080429785 65.4353
4.5076130004776225 54.9893
4.529946671403969 51.38
4.552263106909177 50.5889
4.574597122877047 51.3268
4.596931312711224 52.4893
4.619248269273446 53.6298
4.6415828092605835 55.2445
4.663900117405352 55.7996
4.686235010953232 56.873000000000005
4.708552674085913 58.5768
4.730887924602802 60.401
4.753223354952695 61.6969
4.775541557023902 63.2293
4.797877349456786 64.2344
4.820195915032126 66.8531
4.842532072957498 68.3473
4.864868414979744 70.0723
4.88718753227192 72.1831
4.909524244902505 74.2935
4.931843734218147 76.21600000000001
4.954180820867835 78.7508
4.976518095879839 81.9177
4.998838149695359 84.5981
5.021175803844231 88.3761
5.043496238205739 91.9401
5.065834274903528 96.4317
5.088172504230693 101.315
5.1104935158799565 109.008
5.132832132875765 132.994
5.155153533596801 177.687
5.1774925416746225 216.36599999999999
5.199814334878411 395.222
5.2221537374521505 1138.37
5.244493338631803 3058.14
5.266815727034316 7479.33
5.289155727832427 11891.3
5.311478517248165 8973.49
5.333818921080011 3241.76
5.356159527788849 665.408
5.3784829252032536 205.202
5.400823940070432 153.207
5.423147747031976 134.071
5.445489173474152 123.22200000000001
5.467830807066149 117.21799999999999
5.490155234831516 111.984
5.512497285125229 108.314
5.534822130975162 106.384
5.557164601388673 103.993
5.579489868738879 100.852
5.601832762690846 100.20100000000001
5.6241758697774475 99.3874
5.646501775867269 98.0968
5.668845311622074 96.2841
5.691171647754637 95.5879
5.713515615597765 94.1422
5.735859800852677 93.73200000000001
5.758186788542988 93.089
5.780531411018185 93.441
5.802858837297399 92.6164
5.825203900414495 93.1095
5.8475491852224 93.6267
5.869877275883075 93.5364
5.892223006467101 95.1019
5.914551544266608 96.3679
5.936897724049891 99.5458
5.959244129804903 105.41799999999999
5.981573344815301 125.068
6.0039202049061 223.36700000000002
6.026249875609095 492.36300000000006
6.04859719346037 1039.22
6.070927323278297 2224.04
6.093275102315365 4148.7
6.115623113320588 5209.14
6.137953938319995 3441.08
6.160302415650845 1210.09
6.182633708324452 293.343
6.2049826554078376 124.206
6.227331838745022 97.5059
6.249663839443684 88.477
6.27201349767565 85.3365
6.294345974611799 90.9753
6.316696111167083 102.667
6.339046488263839 96.6914
6.361379686074702 81.41
6.383730546639482 73.1837
6.406064229255215 70.1453
6.428415576718203 69.6167
6.450749747566656 68.3802
6.47310158535871 66.9279
6.495453669698332 66.0847
6.517788579421056 66.0126
6.540141159237969 64.6622
6.562476565766648 64.127
6.5848296444934045 63.7767
6.607182974060425 63.4128
6.6295191323281015 63.6707
6.651872965955752 67.0479
6.6742096296068985 94.1732
6.6965639707294615 142.63
6.71891856698715 141.86700000000002
6.741255995248479 95.9898
6.763611104154477 68.9793
6.785949046381137 61.3725
6.808304671371482 59.5481
6.8306605557940046 59.0105
6.852999275508618 58.1587
6.875355681171544 57.5056
6.897694923437771 57.585
6.92005185377892 57.7866
6.9423916220322655 57.3698
6.964749080490181 56.5297
6.987106804399774 56.4573
7.009447368180821 56.6148
7.031805625367033 56.0105
7.054146723727803 56.0792
7.076505517631004 55.8378
7.098864581288365 56.2226
7.121206488070854 55.938
7.143566093607822 56.0945
7.165908543567245 56.1945
7.188268694426048 56.3436
7.2106291193438095 56.3416
7.232972390625943 57.8266
7.255333366030969 70.7243
7.277677189091925 125.315
7.300038718428332 173.357
7.322400526130865 146.809
7.344745183422596 90.3357
7.367107550224791 62.883
7.389452767901992 57.351000000000006
7.411815697249891 56.2925
7.434161478756298 55.5117
7.456524974096713 55.1083
7.478888753837185 55.1733
7.501235387657368 55.4336
7.523599738562711 55.6385
7.545946944825532 55.3538
7.568311870344528 55.9448
7.5906770845765665 56.4227
7.613025156078678 57.7037
7.635390950099687 59.1137
7.657739602662809 58.2935
7.680105979923558 57.0026
7.702472650212829 56.9869
7.724822180948224 56.8549
7.747189439655568 57.0021
7.769539560075357 56.7862
7.791907410653562 57.4915
7.81425812420825 57.4711
7.836626570110925 57.5216
7.858995315087906 58.5264
7.881346924933401 58.5721
7.903716270417482 59.1881
7.926068482028405 59.6039
7.948438431475253 60.331
7.9708086843180235 60.5255
7.993161805171116 61.2492
8.015532667162402 61.4946
8.037886398416653 62.36600000000001
8.060257873014221 63.0565
8.082629655331942 63.8996
8.104984308787587 64.7949
8.127356708900503 68.0625
8.149711981398308 74.1793
8.172085002766314 76.5326
8.194458336181368 72.8209
8.216814543847752 70.5098
8.23918850371002 70.3924
8.26154533906492 71.0533
8.283919928836452 72.5526
8.306277395339652 73.6466
8.328652618483376 75.2934
8.351028159736202 77.4035
8.373386579575245 79.6322
8.395762759396959 81.1668
8.418121819038275 86.4944
8.440498640894003 100.31
8.462875785192262 115.01899999999999
8.485235811156207 127.971
8.507613602688501 170.97099999999998
8.529974277114228 266.796
8.552352719347912 410.06800000000004
8.574731488360351 679.423
8.59709314210385 1173.21
8.619472567021075 1785.4
8.64183487789147 2142.44
8.664214962183097 1859.87
8.686577933647762 1055.65
8.708958680784317 415.977
8.731339760774953 181.125
8.753703729764451 116.935
8.77608547780821 101.90700000000001
8.798450116065078 97.5369
8.820832535634787 94.2743
8.843215292401656 92.5499
8.865580941199045 90.8013
8.887964374703538 89.7653
8.910330701447199 91.4134
8.932714815164482 93.3684
8.955099270424924 92.5075
8.977466620733543 89.1761
8.999851761421976 86.6708
9.022219798361645 84.9135
9.04460562795561 84.6274
9.066991803441677 84.3744
9.089360876979615 84.2908
9.111747746589993 83.7141
9.13411751544971 82.8041
9.156505082664324 82.64399999999999
9.178875550323522 83.4363
9.20126381862328 83.6362
9.223652438908596 83.9916
9.246023961427412 84.0246
9.26841328802173 82.9107
9.290785518039224 83.2407
9.313175554425882 83.6343
9.335565947154315 83.4262
9.357939245086508 83.8012
9.380330352834827 83.9411
9.40270436697103 84.0701
9.425096193225055 84.1336
9.447488380180165 84.9431
9.469863475295412 85.2565
9.492256385987508 85.8131
9.514632206018318 86.2199
9.537025843935714 86.7692
9.559402392368193 87.4758
9.581796761000229 88.5606
9.604191496441521 89.9456
9.626569144158516 93.1837
9.648964615551032 97.8703
9.671343000390081 99.6592
9.693739211225699 97.4792
9.716135793237463 94.9747
9.738515290448102 94.4927
9.760912617143402 95.3104
9.783292860202891 96.876
9.805690935076182 98.0063
9.828089385495742 98.8069
9.850470754023561 101.211
9.872869957865444 109.31
9.89525208097539 124.929
9.917652041736662 138.05200000000002
9.940052382417589 137.606
9.962435644102392 144.153
9.984836746950979 183.14700000000002
10.007220771957746 252.072
10.029622640473708 360.546
10.052007432299963 539.752
10.074410069984072 820.5880000000001
10.096813093716005 1234.18
10.119199042482517 1649.78
10.141602840636468 1891.39
10.163989564971628 1634.03
10.186394141051062 988.2669999999999
10.208799107559706 445.228
10.231187001965623 215.896
10.253592751657669 135.762
10.275981430388155 116.66799999999999
10.298387966769793 115.584
10.320794897965431 117.785
10.343184759907361 116.404
10.36559248305461 110.524
10.387983138083852 106.429
10.410391656691655 109.196
10.432800574501677 120.956
10.455192425893369 138.379
10.47760214443012 165.028
10.499994797678786 208.18099999999998
10.522405320453982 284.483
10.54479877906917 396.81300000000005
10.567210109595656 500.355
10.5896218454736 560.9780000000001
10.612016518879773 508.959
10.634429067781074 382.397
10.656824555333241 225.97400000000002
10.679237920773568 133.342
10.701651695961992 99.7725
10.724048411481384 91.1283
10.746463008485165 88.0451
10.768860546937125 86.0468
10.791275969274796 84.679
10.81369180576079 83.6117
10.836090585366925 82.5135
10.858507252467449 80.9429
10.88090686379991 79.953
10.903324365036394 79.585
10.925724811614439 79.4204
10.948143150509463 80.8162
10.970561909719066 79.991
10.992963615930844 77.9111
11.015383218085756 75.7166
11.037785768347074 74.2713
11.06020621697282 73.7053
11.082627090322113 73.2366
11.105030913430326 72.7189
11.12745263854165 73.346
11.149857314510728 76.5239
11.172279894912576 83.0844
11.194702904450653 83.6103
11.217108866490921 79.5099
11.239532736615194 74.8335
11.26193956033512 72.8246
11.284364294577085 71.1858
11.306789462371718 69.3484
11.329197585398376 68.1308
11.351623622610898 67.8587
11.37403261614354 66.8412
11.396459526308487 66.9443
11.418869393879497 66.6817
11.441297180532617 66.13600000000001
11.463725406927658 65.8927
11.486136592353875 65.5271
11.508565700543707 66.2386
11.530977768845315 68.4311
11.553407762368774 69.1791
11.575838200059769 68.6207
11.598251599479612 66.4322
11.620682927815501 65.0591
11.64309721895548 64.4089
11.665529441478206 64.2193
11.687962112597958 63.8135
11.710377748130886 63.9352
11.732811318753434 63.9835
11.755227854859067 63.6092
11.777662328529495 63.6329
11.800079768750786 63.2245
11.822515149015453 63.0318
11.844950984084935 63.2317
11.867369787303163 63.1185
11.889806534289491 63.3409
11.912226250487029 63.4771
11.934663912939751 63.8847
11.9571020346363 63.6221
11.979523127133968 63.9199
12.001962169624331 64.4525
12.024384183972964 65.3231
12.046824150809913 68.8079
12.069264581333726 74.2263
12.091687985297767 80.8512
12.11412934550045 90.564
12.136553680195208 106.169
12.158995973632788 127.70100000000001
12.181438735204349 153.97799999999998
12.20386447284199 178.76
12.226308172985636 200.423
12.24873485024193 201.085
12.271179492516982 171.15599999999998
12.293607112949127 134.485
12.316052700916226 102.258
12.338498763250042 82.3996
12.360927805303868 71.8935
12.383374818673879 67.5844
12.405804812803074 65.7164
12.428252780773262 65.3435
12.45070122756722 65.1854
12.473132656675375 64.7401
12.49558206341869 65.4548
12.518014453510101 65.0967
12.540464823770117 65.3794
12.562915677315177 65.7544
12.58534951575545 66.4935
12.607801338171472 68.2563
12.630236146511358 73.7018
12.652688941369085 78.96
12.675124723177234 79.1744
12.697578494048786 75.0399
12.720032754458185 70.6261
12.742470003354093 68.8399
12.764925245138771 68.4893
12.787363476431278 68.7587
12.809819703166806 69.2646
12.83227642391173 70.038
12.854716135692716 70.4027
12.877173846755147 71.6213
12.899614549869717 71.8737
12.9220732548287 72.5796
12.94453245827299 72.9134
12.966974655289818 74.0939
12.989434858002571 75.1316
13.011878055298721 75.8366
13.034339260862497 76.796
13.056800969391883 77.774
13.079245674017244 80.1696
13.101708390774869 82.2317
13.12415410463411 89.6885
13.146617833206086 102.331
13.169064559883248 115.09
13.191529303857127 129.957
13.213994557076367 153.033
13.236442809902437 188.183
13.258909083908291 238.8
13.28135835851934 298.112
13.30382565690295 360.798
13.326293469022952 412.599
13.348744283242008 422.24699999999996
13.371213125129904 370.23
13.39366497011003 278.66
13.416134845360597 189.49200000000002
13.438605238843131 131.988
13.46105863690397 110.184
13.483530069144786 108.314
13.505984506951902 113.766
13.528456981549432 124.124
13.550929978879088 138.33700000000002
13.573385983253365 162.023
13.595860028340867 197.929
13.618317081455832 245.21400000000003
13.64079217790333 291.131
13.663250283359057 335.369
13.685726434770173 359.44599999999997
13.708203115221277 338.598
13.730662806148091 273.164
13.75314054697177 201.67700000000002
13.775601299246777 140.556
13.798080104050406 102.91799999999999
13.820559442405358 87.9814
13.843021793671388 83.2469
13.865502201420897 81.4534
13.887965623051947 81.0263
13.910447103807167 79.5507
13.932929122629764 78.0681
13.955394156785959 77.8781
13.977877254034569 76.8918
14.000343367582113 76.0659
14.022827546871707 75.2416
14.045294743423524 74.7015
14.06778000837062 73.8681
14.090265817715476 73.8178
14.112734645763819 73.34899999999999
14.13522154619454 73.2085
14.157691466286913 73.1641
14.180179461423874 73.2093
14.202668005486178 72.6252
14.22513957064374 71.7908
14.247629214846473 71.339
14.270101881097517 71.3522
14.29259262906496 71.7529
14.315083930490205 72.345
14.337558255389705 72.6441
14.360050666019726 72.2651
14.382526101071944 71.2839
14.405019624534942 70.3259
14.427513705993134 69.7257
14.449990813291825 69.5127
14.47248601302899 69.4144
14.49496423954951 69.6305
14.517460561197822 69.875
14.539939910570322 69.7003
14.562437357763558 70.0458
14.58493536931253 71.1329
14.607416409993311 71.9509
14.62991555254159 72.59
14.652397725157423 72.5641
14.674898002342799 71.7324
14.697398848433282 71.3704
14.719882725991326 71.8115
14.74238471217934 72.87899999999999
14.764869730765593 76.2877
14.787372860692983 80.2586
14.809876564079925 84.8574
14.83236330125751 90.8591
14.854868153850365 99.4888
14.877356041159485 112.43
14.899862046604186 130.30100000000002
14.922351087688757 152.579
14.944858249632887 178.592
14.967365991421232 200.22
14.989856770231246 215.761
15.012365673994204 214.22099999999998
15.03485761569738 193.19799999999998
15.05736768508665 155.66
15.07987833888692 121.088
15.102372032001655 95.7452
15.124883856909658 79.3827
15.14737872204565 73.7705
15.169891721717274 71.7092
15.192405310371893 71.6197
15.214901940621196 71.9217
15.237416709527137 71.8548
15.259914520936249 72.3256
15.282430473753607 71.2097
15.304947020131227 69.7844
15.327446610371178 69.1167
15.349964346154254 68.3135
15.372465126703139 67.729
15.394984055556009 67.2886
15.417486030076159 67.4286
15.44000615566487 67.0037
15.462526881230803 66.9718
15.485030653812652 67.2268
15.507552581617434 67.2391
15.530057557334603 66.99600000000001
15.55258069104857 67.0797
15.575104429329837 67.2169
15.597611216864632 66.6657
15.620136166564563 66.8161
15.6426441664095 67.6889
15.665170331202765 69.8668
15.687697105158826 73.7039
15.710206930593545 77.3278
15.732734925158933 81.6108
15.755245972089478 87.8043
15.77777519094324 96.6243
15.800287463046663 109.493
15.822817909869592 127.281
15.84534897229804 146.097
15.867863089299354 168.067
15.890395385222186 181.578
15.912910736597423 189.783
15.935444269699861 181.87400000000002
15.957978423016485 160.27200000000002
15.980495633101265 129.315
16.003031029129367 102.537
16.02554948280019 81.0481
16.048086125229432 70.4032
16.070623392487107 66.8407
16.09314371869582 65.6932
16.11568223789321 64.7669
16.13820381691126 63.6261
16.160743591742527 62.4488
16.183283996022084 61.5575
16.205807461423195 60.4974
16.228349126881973 59.9715
16.25087385432698 59.7463
16.27341678466365 59.1593
16.29594277784926 59.1622
16.31848697676433 59.5474
16.341031811604868 59.8544
16.36355971058487 60.0074
16.3861058195587 59.8046
16.40863499352978 58.5803
16.431182380342005 57.5898
16.453730407713202 56.8556
16.476261501364792 56.7929
16.498810812136167 56.3281
16.52134319004079 56.5167
16.54389378792203 56.4019
16.566445031001553 56.2531
16.588979342490088 55.9155
16.61153187824822 55.7506
16.634067483263312 55.7629
16.656621315414416 55.5851
16.679175797408888 55.1465
16.701713349928728 55.3762
16.72426913389191 55.7477
16.74680798922351 55.5765
16.76936507887444 55.573
16.791905240734874 55.6627
16.814463639794468 55.5356
16.837022695210294 55.5955
16.859564824093756 55.9822
16.882125194503903 56.842
16.904668639217885 57.6109
16.927230328348003 57.7501
16.949792678493612 57.6001
16.972338104193863 57.1481
16.994901778652235 56.4953
17.017448529496576 56.3255
17.040013531998152 56.5021
17.06257920018044 56.9844
17.0851279459922 57.8834
17.107694947817667 58.6501
17.130245028099072 59.5342
17.15281336730298 61.0516
17.17536478578733 62.778999999999996
17.19793446610687 64.7806
17.220504818648422 67.4514
17.243058251703697 70.42
17.265629950971032 74.5995
17.288184731571736 78.5171
17.310757781306908 81.8777
17.33333150794385 83.2254
17.355888317140174 82.4205
17.37846339986244 78.9446
17.401021565958885 72.96600000000001
17.42359800851343 67.7748
17.44617513265564 63.538999999999994
17.468735341390783 61.2659
17.491261035594565 60.3803
17.51396340099364 59.6749
17.536490463869136 59.6919
17.559018209820174 59.8054
17.58154663977963 59.903999999999996
17.604251766089718 60.1379
17.626781572227713 60.1849
17.64931206518155 60.6958
17.671843245885103 61.1876
17.69455114821572 61.3211
17.717083712612634 61.6672
17.739616967569667 62.0512
17.762150914021706 62.1872
17.78486160749854 62.0397
17.807396945166804 62.6023
17.829932977143503 63.3796
17.85246970436452 65.15899999999999
17.875183204129467 67.1772
17.897721330097664 69.3623
17.920260154126645 71.8856
17.942799677153296 75.0688
17.9655159983646 78.6947
17.988056927677544 83.6858
18.010598558807683 91.0559
18.033140892692916 100.305
18.05586005052525 110.03200000000001
18.07840379824407 120.499
18.10094825154059 129.82299999999998
18.12366954819864 136.606
18.146215420998306 138.187
18.16876200220057 132.935
18.191309292745153 121.14
18.214033452627167 107.295
18.236582170236648 95.3991
18.259131600016456 89.0832
18.281681742907335 87.9305
18.304408781233683 91.3886
18.32696035875955 95.5603
18.349512652227624 99.4008
18.372065662579683 104.103
18.394795594587553 105.516
18.41735004715306 104.21600000000001
18.43990521943684 98.5308
18.46246111238171 89.9592
18.485193953325208 80.4943
18.507751296070428 72.6065
18.530309362314178 67.7671
18.552868153000343 64.6069
18.57560391815056 62.9976
18.59816416623245 62.7138
18.620725141597372 62.2009
18.643286845190268 61.4877
18.666025549835414 61.4115
18.688588718427933 60.5596
18.711152618092243 60.6408
18.73389353884365 60.458
18.75645890921984 59.7085
18.77902501351406 59.3958
18.801591852673102 59.4403
18.824335739722738 58.9304
18.846904057212626 58.9038
18.8694731124168 58.5555
18.89204290628315 58.5081
18.914789774966803 58.1733
18.937361054791623 57.9991
18.959933076131318 57.8418
18.982505839934877 57.8351
19.00525570560582 57.8591
19.027829963004184 57.5339
19.05040496572238 57.6226
19.072980714710468 57.7785
19.095733592739563 57.8835
19.11831084296757 58.206
19.140888842324735 58.669
19.16346759176222 59.2674
19.18622349753803 59.6285
19.208803755869358 60.2745
19.231384767143577 61.4712
19.253966532312948 63.0105
19.276725481241822 64.7518
19.29930876296784 66.92
19.3218928014549 69.8067
19.34465404436217 72.6589
19.36723960516257 75.1919
19.389825925592426 76.5676
19.412413006605938 76.3489
19.43517731967805 73.5371
19.457765930683355 69.3165
19.48035530514408 65.0851
19.50294544401556 61.0355
19.525712842708348 57.8417
19.54830451925909 56.3371
19.570896963095727 54.9711
19.593490175174704 54.6995
19.616260674962184 54.6225
19.638855432416964 54.1175
19.661450960992624 54.4737
19.68404726164677 54.5381
19.706820878021247 53.9986
19.729418731756834 54.3452
19.752017360452857 54.1136
19.77461676506804 54.2458
19.797393513540218 54.3233
19.819994478951667 54.7153
19.84259622316767 55.3065
19.8651987471481 55.6202
19.887978643247177 55.7319
19.91058273574792 56.0865
19.933187610901943 57.1592
19.955969879466828 58.2267
19.97857632894404 59.6144
20.00118356396599 60.9143
20.023791585494575 62.7788
20.046577028914875 65.2982
20.069186632506966 67.3198
20.091797025500632 69.0209
20.114408208858933 70.2006
20.137196842715273 70.4459
20.159809615886765 69.1019
20.18242318232135 66.9607
20.20503754298326 64.9817
20.227829382875154 63.5961
20.250445341109344 63.0371
20.27306209647285 63.313
20.29567964993108 64.002
20.31847471147704 64.8594
20.34109387027612 65.6832
20.363713830075454 65.7613
20.386334591841646 64.7473
20.409132890679302 62.8743
20.431755265564437 59.7451
20.454378445325528 56.791000000000004
20.477002430930366 54.8138
20.499803982716553 53.3984
20.522429589228004 52.481
20.54505600449589 51.9321
20.567683229489194 51.6686
20.590488049900088 51.3432
20.61311690359731 50.9332
20.63574656993626 50.691
20.658553853717297 50.2826
20.681185154618298 50.1962
20.703817271080066 50.2582
20.72645020407368 49.9355
20.749260783967177 49.7293
20.771895359337133 49.6492
20.794530754161617 49.6376
20.817166969412938 49.4768
20.83998086114876 49.5374
20.86261872660049 49.538999999999994
20.885257415405402 49.5802
20.90789692853701 49.2959
20.930714147864748 49.176
20.953355319030678 49.2719
20.97599731745334 49.3494
20.99864014410749 49.0753
21.021460706796564 49.3869
21.044105199328826 49.5283
21.06675052302631 49.6996
21.089396678865015 49.8648
21.112220600704806 50.0852
21.134868430275347 50.5202
21.15751709492456 50.7394
21.180166595629693 51.0308
21.202993892429635 51.3626
21.22564507473034 51.6616
21.24829709602816 51.9537
21.27112693608965 51.9579
21.293780644891275 52.2357
21.316435195634053 51.5135
21.339090589297417 50.9103
21.361923832041875 50.5734
21.384580921090404 49.7244
21.407238856007325 49.1467
21.429897637773326 49.1154
21.45273429906592 49.2336
21.475394784108598 48.9613
21.498056118951983 48.9606
21.520718304578022 49.1546
21.543558400304388 49.3146
21.566222297108816 49.435
21.58888704765135 49.6288
21.61155265291521 49.903
21.63439619898156 50.1566
21.657063523335786 50.523
21.67973170537063 51.2208
21.7024007460706 51.7978
21.72524775840385 52.3751
21.747918526116475 53.2341
21.770590155457388 54.5069
21.79326264741238 55.903
21.816113141960237 57.6462
21.838787368860547 59.2972
21.861462461341976 60.8701
21.884315579735777 62.8046
21.90699241312273 64.0392
21.92967011506078 64.8247
21.95234868653799 65.0187
21.9752053151131 64.2895
21.997885635446785 62.7329
22.020566828293532 60.9452
22.04324889464272 59.0491
22.066109049404666 57.5625
22.088792872571794 56.6672
22.111477572219204 56.5214
22.1341631493376 56.6342
22.157026846313123 56.5233
22.179714188221507 56.0415
22.202402410582668 55.2845
22.22509151438863 53.8939
22.24795876962584 52.3687
22.270649646204486 51.6795
22.293341407213727 50.65
22.316034053646906 50.1102
22.338904883215342 49.9151
22.36159931041458 49.8171
22.38429462602756 49.6565
22.40699083104897 49.5552
22.429865251039757 49.6335
22.452563244831367 49.748000000000005
22.47526213102522 49.7104
22.49813925616515 49.4439
22.520839937143307 49.1513
22.543541513520587 49.2607
22.56624398629403 49.0925
22.589124730075895 49.1058
22.611829005656723 49.2358
22.63453418063466 49.2977
22.657240256008077 49.4847
22.680124634582935 49.6521
22.70283252079775 49.9692
22.725541310413075 50.3301
22.74825100442868 50.4145
22.771139033969575 51.0112
22.79385054687155 51.1789
22.81656296718292 51.9245
22.83927629590484 52.7682
22.862167992606945 53.7749
22.88488314827121 54.7768
22.907599215359284 55.6876
22.93031619487366 56.4211
22.953211574954405 57.2166
22.975930389478226 58.0707
22.998650119445763 58.3301
23.02137076586092 57.9891
23.044269845560063 56.9332
23.06699233506288 55.5243
23.089715744034912 53.8036
23.112617610931565 52.065
23.135342869061212 50.9107
23.158069049684816 50.0681
23.1807961538087 49.5195
23.20370174880544 49.5277
23.226430710184808 49.6889
23.249160598093425 49.6713
23.271891413539002 49.5947
23.294800752937697 49.5421
23.31753343374794 49.8199
23.340267045128353 49.8606
23.36300158808808 50.2397
23.38591468821339 50.5144
23.408651104658304 50.8459
23.431388455719986 51.4007
23.454126742409 52.3378
23.4770436196085 53.0608
23.499783787914662 54.3402
23.522524894889884 55.2348
23.54526694154616 55.9429
23.56818761219047 57.0707
23.59093154860734 57.5855
23.613676427751283 58.1087
23.636422250635754 57.6081
23.659346731118656 56.5334
23.68209445191868 54.8634
23.704843119509587 52.6323
23.72759273490623 50.7553
23.750521041644767 49.1733
23.77327256312355 48.1791
23.796025035462787 47.4262
23.818956224555475 46.8787
23.841710609113413 46.6501
23.86446594758979 46.4834
23.887222241002014 46.1662
23.910157285144578 45.7576
23.932915498962537 45.9119
23.955674670778713 45.766000000000005
23.978434801611975 45.5154
24.001373717286125 45.4513
24.024135776723917 45.243
24.046898798245582 45.3463
24.06966278287146 45.1195
24.092605586582614 44.7794
24.115371508023642 44.6681
24.1381383956401 44.6506
24.16090625045381 44.742
24.183852958731244 44.5565
24.206622758582608 44.376999999999995
24.229393528706886 44.4539
24.252165270127392 44.4112
24.27511589952438 44.3508
24.297889594216997 44.0365
24.32066426328598 43.9028
24.34343990775613 43.9859
24.36639447485003 43.847
24.38917208083877 43.7691
24.41195066531332 43.6577
24.43490819850244 43.5809
24.457688750692377 43.4916
24.48047028445616 43.562
24.503252800821233 43.6633
24.526214300784112 43.5575
24.548998793132213 43.5845
24.57178427117417 43.5158
24.59457073593893 43.5114
24.617536219319863 43.5091
24.64032466834748 43.4919
24.663114107195035 43.4683
24.685904536893013 43.1884
24.708874020360852 43.1909
24.731666442613744 43.1751
24.754459858818787 43.0821
24.777254270007962 42.809
24.80022777025625 42.7033
24.82302418230472 42.8257
24.845821592443674 42.9392
24.86862000170663 42.935
24.891597535453727 42.6976
24.914397953892728 42.9745
24.93719937456671 42.8859
24.96000179851076 42.8687
24.98298338249997 43.1266
25.00578782394922 43.4266
25.028593271784167 43.5095
25.05157790644186 43.7272
25.07438537804115 43.8037
25.097193859145293 44.0864
25.120003350792075 44.2883
25.142992065061257 44.5873
25.165803588823465 44.8195
25.18861612625217 45.0812
25.211429678386736 45.2509
25.234422489079968 45.3548
25.257238081693636 45.4397
25.280054692141732 45.4363
25.3028723214652 45.4741
25.325869245420463 45.3565
25.348688923599397 45.3551
25.371509623787006 45.3397
25.394331347025812 45.1844
25.41733240110666 44.8683
25.440156181590016 44.2562
25.46298098826268 43.7342
25.48580682216873 43.1724
25.50881202326435 42.6158
25.53163992281684 42.1586
25.55446885274561 41.9546
25.577298814096377 41.5786
25.600308179121807 41.4224
25.623140214533745 41.5477
25.64597328451537 41.2845
25.66898578564376 41.0527
25.691820936010206 41.1203
25.714657124097695 41.003
25.737494350954734 41.0128
25.760511045684957 41.1042
25.783350361364224 41.0481
25.806190718969255 40.9873
25.82903211955018 41.239
25.852053024868923 41.3084
25.874896522722523 41.1422
25.897741066713106 41.2061
25.920586657892454 41.3552
25.943611790812668 41.5331
25.966459487728237 41.4991
25.989308234998564 41.5864
26.01215803367705 41.8148
26.03518741123814 41.7979
26.05803932412957 42.0738
26.080892291600094 42.1266
26.10374631470478 42.1115
26.12677995397268 42.2779
26.14963609978026 42.2147
26.172493304397875 41.979
26.19535156888223 41.8343
26.218389486949604 41.4293
26.241249882640123 41.2347
26.26411134137826 40.8086
26.28715248187403 40.9241
26.31001607820869 40.6703
26.3328807407756 40.5668
26.35574647063438 40.6854
26.37879191991473 40.6984
26.401659795896734 40.6713
26.424528742360263 40.7805
26.447398760366614 41.0259
26.470448535598294 40.955
26.49332070826805 41.2322
26.516193955675355 41.6643
26.53906827888316 41.7763
26.562122397260108 41.9567
26.584998883685063 42.2335
26.607876449110325 42.3668
26.63075509460056 42.3614
26.65381357334404 42.5551
26.67669439061878 42.7207
26.699576291163382 42.6728
26.722459276044212 42.6106
26.745522132402975 42.3639
26.768407297649354 41.9931
26.791293550442003 41.6205
26.814180891848974 41.4163
26.837248143099337 41.0785
26.860137673466657 41.0776
26.88302829566349 40.7325
26.90592001075963 40.714
26.92899167420566 40.4085
26.951885586870763 40.1133
26.974780595655517 39.8722
26.99785558178161 39.9024
27.020752794605112 39.4748
27.043651106772522 39.4032
27.06655051935668 39.2606
27.089629948036183 39.1656
27.112531573292053 39.2001
27.135434302194138 39.2834
27.158338135817015 39.1277
27.181422024430987 39.2147
27.204328079372566 39.0665
27.22723524226965 39.0585
27.250143514198573 39.2301
27.273231880156334 39.0837
27.296142382065014 38.9069
27.319053996245536 38.9469
27.341966723775965 39.1066
27.365059584515222 39.0683
27.38797455070062 39.0032
27.410890633481237 38.8805
27.433807833936918 38.9584
27.456905206923906 39.0689
27.47982465472398 38.946999999999996
27.502745223449743 39.0541
27.525666914182825 39.203
27.548768816912457 39.1633
27.571692763693633 38.9731
27.59461783573812 39.0207
27.617723149491244 38.8112
27.640650484125285 38.7028
27.66357894728264 38.8572
27.686508540048052 38.7807
27.709618414237887 38.6572
27.732550278321757 38.4891
27.755483275279115 38.3962
27.778417406196485 38.4682
27.801531858397514 38.3632
27.824468269376716 38.2411
27.847405817586786 38.2198
27.870344504116094 38.5427
27.893463551932008 38.5929
27.916404527281053 38.7865
27.93934664422563 38.9097
27.962289903855886 38.8652
27.98541356491974 39.1319
28.00835912214229 39.0837
28.03130582533231 39.4256
28.054253675581805 39.5503
28.077381967556104 39.5178
28.100332124185126 39.5245
28.123283431160893 39.4763
28.146235889577238 39.3837
28.169368830154156 39.2464
28.192323603752033 38.9052
28.215279532083304 38.7048
28.238415973016764 38.5286
28.261374223145094 38.316
28.284333631303806 38.2324
28.307294198589954 37.9038
28.330435319167677 37.7209
28.353398217078915 37.5038
28.376362277420153 37.23
28.39932750129032 37.1777
28.422473319286713 37.0449
28.44544088262495 36.9909
28.468409612800283 36.8473
28.491379510913497 36.5601
28.51453004413313 36.4551
28.53750229057244 36.4265
28.56047570826344 36.3321
28.583450298308804 36.3409
28.606605564586562 36.0722
28.629582511831156 36.2782
28.65256063474956 36.1917
28.675539934446338 36.2078
28.698699951647605 36.2373
28.72168161743193 36.0068
28.74466446331978 36.0139
28.767648490417624 35.9138
28.790813276438353 35.8895
28.813799678527303 35.9089
28.836787265157085 35.9107
28.859955641890075 35.9266
28.882945610203045 35.905
28.905936766392035 35.8529
28.928929111566863 35.7973
28.952102288520145 35.8233
28.975097024308607 35.6776
28.998092952423807 35.4887
29.021090073977508 35.4657
29.04426806913204 35.3895
29.067267590245258 35.1887
29.090268308143695 35.0009
29.11327022394099 34.9953
29.13645305530891 34.9643
29.159457379627167 34.9502
29.18246290519685 34.8795
29.20546963313352 34.8463
29.22865731875826 34.9258
29.25166646419296 34.834
29.27467681535305 34.7957
29.29768837335608 34.7264
29.320880931312562 34.6808
29.34389491580634 34.6522
29.366910110507334 34.5788
29.38992651653503 34.6889
29.41312396492981 34.6483
29.436142806456754 34.5953
29.45916286268059 34.3908
29.48236399319994 34.4021
29.50538649169417 34.3256
29.528410208259935 34.2357
29.55143514402014 34.0902
29.574641196749695 34.0145
29.597668583816574 33.8111
29.6206971934585 33.6766
29.64372702680042 33.6478
29.666938019934474 33.5687
29.689970313635285 33.4223
29.713003834422636 33.4451
29.73603858342347 33.3408
29.759254535188578 33.2573
29.78229175361658 33.3005
29.80533020365064 33.3557
29.82836988641968 33.2506
29.85159081507472 33.2643
29.874632976355343 33.1681
29.89767637376955 33.2394
29.920721008448314 33.0392
29.9439469322847 33.0815
29.96699405457564 33.1019
29.9900424175358 33.0627
30.013092022298157 33.0195
30.03632295963995 32.803000000000004
30.059375061131373 32.9098
30.08242840783577 32.9246
30.105483000888153 32.9124
30.128718970092244 32.751
30.151776069006917 32.84
30.17483441768648 32.8704
30.198074175317235 32.926
30.221135036724256 32.8825
30.24419715131772 32.7613
30.267260520236203 32.6463
30.290505341942243 32.8484
30.313571232750228 32.8381
30.336638381310948 32.8569
30.35970678876503 32.7613
30.38295669299435 32.6545
30.40602763151657 32.6432
30.429099832366074 32.5714
30.452173296685572 32.4905
30.47542830191959 32.4697
30.498504306502497 32.5063
30.521581577995562 32.53
30.544660117543582 32.6689
30.56792024229725 32.7392
30.59100133132069 32.5037
30.614083691845494 32.5325
30.637167325018545 32.6248
30.660432587840603 32.7971
30.683518779717886 32.4817
30.70660624769615 32.6523
30.729694992924372 32.5841
30.75296541239743 32.6218
30.77605672557558 32.6517
30.799149319462742 32.6418
30.8224236211637 32.4046
30.845518789950724 32.3309
30.868615242910597 32.2354
30.891712981195973 32.1342
30.91499247215866 32.0699
30.938092794619365 31.9977
30.96119440587579 31.9094
30.984297307082752 31.8517
31.00758200598383 31.715
31.030687500658694 31.6615
31.053794288760695 31.6577
31.076902371446767 31.5407
31.100192296997445 31.5693
31.12330298246119 31.4585
31.14641496599209 31.3777
31.169528248749216 31.4636
31.19282341969534 31.4341
31.215939314557186 31.4539
31.239056512134788 31.3688
31.262175013589378 31.3757
31.28547544871168 31.2576
31.30859657161541 31.2073
31.331719001892175 31.22
31.35484274070538 31.2957
31.378148458819545 31.2083
31.401274828443725 31.2107
31.424402510106933 31.3363
31.447712205419993 31.451
31.470842524931633 31.2242
31.493974159989783 31.2605
31.51710711176168 31.2016
31.54042212308802 31.2305
31.563557722100917 31.1606
31.586694641341655 31.0894
31.609832881979628 31.0121
31.63315322823208 30.892
31.656294125521327 30.7617
31.679436347728515 30.7031
31.70257989602529 30.6265
31.725905596152327 30.6038
31.74905181052835 30.6507
31.772199354521323 30.5761
31.79534822930507 30.6703
31.818679302290967 30.5205
31.84183085259981 30.5531
31.864983737233473 30.5221
31.88813795736804 30.6116
31.911474422233013 30.4626
31.934631327356435 30.5226
31.9577895715215 30.4691
31.980949155906522 30.4024
32.004291031706956 30.37
32.027453310562606 30.2832
32.05061693318573 30.3081
32.07396288236386 30.2798
32.09712920658542 30.1403
32.12029687812702 30.0447
32.14346589817093 30.0335
32.166817291729984 29.855
32.18998902288583 29.9361
32.21316210610336 29.7786
32.23633654256711 29.6753
32.259693399663725 29.7602
32.282870556771144 29.5534
32.30604907069099 29.6609
32.329228942610065 29.6007
32.35259128243769 29.351
32.375773884550505 29.3347
32.398957848235646 29.2058
32.422143174682176 29.1561
32.445511016471215 29.2341
32.468699082679954 29.2221
32.49188851523011 29.0735
32.51507931531304 29.1173
32.538452678331 29.1294
32.56164622776311 29.0201
32.58484114831493 28.8578
32.60803744118015 28.8525
32.631416344731896 28.8581
32.654615396551876 28.8285
32.67781582427913 28.9506
32.701198898634416 28.7739
32.72440209253756 28.6598
32.747606665947124 28.7005
32.77081262006088 28.5168
32.79420126883317 28.6172
32.81740999876112 28.5144
32.840620112999424 28.424
32.86383161274818 28.4211
32.88722585534586 28.41
32.91044014056596 28.4178
32.933655814909734 28.4408
32.95687287957963 28.421999999999997
32.98027273544904 28.3491
33.00349259526636 28.2461
33.026713849030116 28.226
33.04993649794511 28.1923
33.073341986570746 28.1347
33.09656744032826 28.2255
33.11979429286444 28.1418
33.14302254538647 28.1801
33.166433686291185 28.147
33.18966475336992 28.029
33.212897224069096 28.0155
33.23613109959831 27.9864
33.259547912343415 27.9518
33.2827846121627 28.0085
33.306022720453775 27.8864
33.32926223842861 27.7913
33.352684742614166 27.8399
33.37592709463173 27.7511
33.399170859982064 27.6982
33.422597648419426 27.5594
33.44584425514446 27.517
33.46909227885668 27.4866
33.4923417207723 27.406999999999996
33.51577423505344 27.4711
33.539026528130385 27.423000000000002
33.56228024307245 27.4099
33.585535381098246 27.2044
33.60897364093058 27.1096
33.63223163992385 27.096999999999998
33.6554910656699 27.1091
33.678751919389796 27.0239
33.702195944520106 27.0009
33.72545966903325 27.0244
33.74872482519663 26.7994
33.771991414233746 26.8488
33.79544122444841 26.8647
33.81871069412428 26.820999999999998
33.84198160035767 26.8109
33.86525394437455 26.7714
33.88870955949969 26.7147
33.911984794020626 26.6854
33.93526147001624 26.6633
33.958539588715006 26.5868
33.98200102861669 26.5477
34.0052820477047 26.4932
34.02856451319451 26.4106
34.05203033759056 26.4016
34.07531571090147 26.4145
34.09860253431845 26.3775
34.121890809074316 26.2447
34.145362493118924 26.219
34.16865368561615 26.1961
34.191946333164054 26.1669
34.21524043699793 26.1532
34.23871800066799 26.0893
34.26201503218366 25.9939
34.28531352370466 26.0522
34.30861347646881 25.8952
34.33209693978188 25.8876
34.3553998301885 25.8409
34.378704185565205 25.713
34.402010007152356 25.7206
34.42549939016683 25.7725
34.44880815937748 25.6566
34.472118398533134 25.6114
34.49543010887669 25.6017
34.51892543169198 25.5476
34.54224009966052 25.474
34.56555624255917 25.5234
34.58887386163339 25.4716
34.61237514439016 25.4339
34.6356957311114 25.4247
34.65901779775809 25.355999999999998
34.68252356662995 25.2893
34.705848608458616 25.3043
34.72917513396849 25.2602
34.75250314440949 25.1634
34.77601490857862 25.0433
34.799345904259795 25.035999999999998
34.82267838863559 24.9648
34.846012362958525 25.0185
34.869530142679984 25.0177
34.89286711232212 24.989
34.91620557568269 24.9041
34.93954553401677 24.8042
34.9630693495876 24.7983
34.986412313340814 24.8324
35.00975677584668 24.8304
35.033102738362956 24.774
35.05663261012228 24.7473
35.0799815881786 24.712
35.10333207003229 24.6869
35.12668405694369 24.6976
35.150220005273056 24.6189
35.17357501786656 24.5749
35.19693153931268 24.5468
35.220289570874385 24.4885
35.24383161619786 24.4266
35.267192683604904 24.4539
35.290555264930376 24.3962
35.314101899412165 24.3477
35.33746752422433 24.3716
35.36083466676374 24.4023
35.38420332829803 24.2554
35.407756095629054 24.2586
35.43112781085063 24.3358
35.45450104888391 24.2524
35.477875810999194 24.3215
35.50143473172161 24.293000000000003
35.52481255774625 24.2664
35.54819191167777 24.1493
35.57157279478914 24.0356
35.595137889488406 24.0266
35.61852184675279 23.9992
35.641907337029984 23.9831
35.665294361595684 23.9192
35.68886565090076 23.9212
35.7122557598848 23.8998
35.73564740699838 23.7807
35.759040593519934 23.7818
35.78261809810353 23.7004
35.80601437933051 23.6828
35.829412203814705 23.6493
35.85281157283719 23.5997
35.876395313415884 23.5587
35.8997977874528 23.5926
35.92320180988546 23.5346
35.946790244133936 23.3572
35.97019737933222 23.3822
35.993606066789866 23.4175
36.01701630779276 23.3882
36.04061101440684 23.3448
36.06402437852291 23.3642
36.08743930005611 23.2961
36.1108557802951 23.2177
36.13445678011326 23.2375
36.15787639383515 23.2027
36.18129757014299 23.1784
36.20472031032821 23.1248
36.22832762423364 23.065
36.25175350829375 23.0278
36.275180960119776 22.9447
36.298609981005924 23.0184
36.32222362992669 22.9986
36.34565580510207 22.9215
36.36908955323448 22.8634
36.39252487562093 22.7783
36.416144880530226 22.6972
36.43958336764275 22.7663
36.463023432914625 22.7339
36.486465077645676 22.6092
36.51009145956204 22.7065
36.53353627947859 22.6604
36.55698268276811 22.6402
36.58043067073321 22.5849
36.60406345072071 22.4229
36.62751462435344 22.4892
36.65096738658405 22.5043
36.67460498210655 22.4577
36.69806093788647 22.4368
36.72151848619297 22.3351
36.744977628333636 22.3763
36.76862165890998 22.3238
36.79208400512205 22.2708
36.81554794910557 22.2814
36.83901349217101 22.1499
36.862663978991606 22.041999999999998
36.88613273667352 22.1177
36.90960309738324 22.163
36.933075062434064 22.1192
36.95673202673572 22.0141
36.98020721697122 21.9956
37.003684015502365 21.9447
37.027162423645365 21.814
37.050825886711465 21.8117
37.07430753063053 21.7523
37.09779078812467 21.7967
37.121275660513014 21.8107
37.144945643673694 21.7299
37.16843376245278 21.7155
37.19192350009803 21.6651
37.215414857931435 21.5848
37.239091382563885 21.5544
37.262585997426164 21.5708
37.28608223645736 21.5423
37.309763684451696 21.4938
37.33326318851098 21.4618
37.356764320726555 21.4405
37.380267082425526 21.4235
37.40395510942588 21.4219
37.42746114683234 21.3566
37.45096881771841 21.3396
37.474478123414166 21.2822
37.49817275092816 21.2143
37.52168534303452 21.2085
37.54519957395567 21.0765
37.568715445024665 21.1546
37.592416694607714 21.1176
37.61593586281424 21.0871
37.63945667518264 21.1408
37.66297913304891 21.0698
37.68668702630454 21.0311
37.710212792059274 20.9452
37.733740207334854 20.8706
37.757269273470364 20.8187
37.780983832050374 20.8086
37.80451621684926 20.783
37.82805025654007 20.7403
37.851585952464795 20.7666
37.8753071980695 20.6502
37.89884622345676 20.5928
37.92238690911902 20.5985
37.94611318753442 20.566999999999997
37.969657210779765 20.5436
37.99320289834801 20.5716
38.016750251586465 20.4922
38.04048325513017 20.4267
38.06403395679343 20.377
38.087586328183946 20.3703
38.11114037065203 20.4394
38.13488012115898 20.4172
38.1584375229181 20.3226
38.181996599821 20.2576
38.205557353221124 20.2327
38.229303872575656 20.1927
38.2528679961576 20.1191
38.27643380031219 20.1829
38.30000128639589 20.0884
38.32375459653193 20.0841
38.34732546371299 20.0587
38.37089801690786 20.0305
38.39447225747609 19.9787
38.418232380377425 19.9462
38.441810012983396 19.9509
38.46538933705673 19.8265
38.488970353960084 19.8411
38.51273731166058 19.8528
38.536321731567014 19.8318
38.55990784840681 19.7748
38.58367995004091 19.7698
38.60726947812959 19.6778
38.63086070726198 19.7033
38.654453638806274 19.6739
38.678232613930824 19.5877
38.70182896773327 19.5325
38.72542702806741 19.5197
38.7490267963045 19.5148
38.77281266709232 19.4938
38.79641586862214 19.4811
38.8200207821842 19.4025
38.843627409152944 19.3985
38.86742019782782 19.3349
38.891030269149255 19.3152
38.914642058016156 19.2593
38.938255565806124 19.2308
38.96205529464307 19.1706
38.98567225787121 19.1577
39.00929094417078 19.2103
39.03291135492255 19.1813
39.05671804624804 19.0688
39.080341923549106 19.0968
39.103967529460334 19.048
39.127594865365744 19.0042
39.15140854155791 19.0109
39.17503935514948 19.0157
39.19867190290282 18.9715
39.22249083587951 18.8788
39.24612686969409 18.8736
39.269764641845306 18.8572
39.293404153722804 18.7931
39.317230110864074 18.7343
39.34087311998506 18.6927
39.36451787301696 18.7197
39.388164371352595 18.7475
39.41199737518003 18.6646
39.43564738196752 18.6327
39.45929913825317 18.5881
39.48295264543308 18.5395
39.506792718520884 18.5283
39.530449745387216 18.5425
39.55410852735203 18.52
39.57776906581474 18.4924
39.60161623079 18.4668
39.625280300200025 18.3802
39.64894613032202 18.2777
39.67261372255866 18.3912
39.6964680021016 18.3019
39.72013913657293 18.2552
39.74381203738292 18.2597
39.76748670593756 18.2536
39.79134812278169 18.1954
39.81502634488497 18.1866
39.83870633896685 18.1129
39.862388106436654 18.0279
39.88625668336918 18.0411
39.90994201572829 18.1017
39.933629125719285 18.0306
39.957503091207826 17.9371
39.9811937746168 18.047
40.00488623990914 17.9565
40.02858048850006 17.8662
40.05246165409549 17.9026
40.076159487492085 17.7772
40.099859108448875 17.8472
40.123560518384345 17.8194
40.1474489070226 17.7896
40.171153913178564 17.657
40.194860712584955 17.691
40.2185693066637 17.6707
40.242464941335314 17.6443
40.26617714307655 17.5977
40.289891143772046 17.5752
40.3136069448471 17.5507
40.33750984859743 17.5291
40.3612292688043 17.4575
40.3849504936829 17.4578
40.40867352466194 17.4551
40.43258372059144 17.4963
40.45631038219906 17.4507
40.48003885420956 17.3628
40.503769138055105 17.331
40.52768664931955 17.3543
40.55142057531802 17.3319
40.57515631746428 17.2481
40.599079334038514 17.1808
40.62281872700477 17.1434
40.64655994043941 17.1601
40.67030297578061 17.1678
40.69423334835778 17.156
40.71798004609188 17.0682
40.74172857006355 17.0924
40.76547892171441 17.1007
40.7894166736039 17.0281
40.813170699248566 17.0115
40.83692655691388 16.9767
40.86068424804498 17.005
40.884629402612525 16.9175
40.908390779366385 16.9007
40.932153993938 16.8639
40.95591904777605 16.8508
40.979871628443995 16.8435
41.003640379561936 16.766
41.02741097430883 16.7892
41.05118341413683 16.7334
41.075143444384416 16.7146
41.098919593177826 16.7224
41.1226975914255 16.6915
41.14647744058318 16.5868
41.170444943946755 16.6027
41.19422851378379 16.6035
41.218013938914645 16.5211
41.24198706625173 16.4265
41.26577622087193 16.5077
41.289567235177785 16.4452
41.31336011063129 16.391
41.337340752422875 16.3731
41.361137369129835 16.3683
41.38493585138705 16.3306
41.40873620066004 16.3023
41.43272438060107 16.3315
41.45652848292052 16.2732
41.48033445666918 16.2508
41.50414230331616 16.1945
41.528138045159764 16.1641
41.551949656675205 16.1149
41.575763145513235 16.104
41.59957851314666 16.102999999999998
41.62358184070442 16.0431
41.64740098505737 16.0656
41.6712220126409 16.031
41.69504492493139 15.9891
41.71905586207357 15.9373
41.74288256296395 15.9195
41.766711153007456 15.8684
41.79054163368412 15.8962
41.814560204340054 15.8357
41.838394485526365 15.8416
41.86223066180303 15.8119
41.88625497706819 15.7755
41.910094962812 15.7791
41.93393684811168 15.7288
41.95778063445365 15.6248
41.981812625263366 15.6881
42.00566023303407 15.6052
42.029509746323676 15.5836
42.05336116662236 15.53
42.077400857069705 15.5536
42.10125611078846 15.5324
42.12511327600405 15.5356
42.14897235421036 15.4519
42.173019768448455 15.49
42.19688269209613 15.4311
42.22074753323349 15.4286
42.24461429335818 15.432
42.268669455600495 15.4154
42.292540073217886 15.3328
42.31641261433284 15.3749
42.34028708044675 15.283
42.36435001496739 15.2767
42.38822835065557 15.2741
42.41210861586426 15.1646
42.4359908120986 15.2048
42.46006154323262 15.1093
42.48394762115317 15.071
42.507835634632315 15.1233
42.531912233047436 15.0486
42.55580413732265 15.073
42.579697981698 15.0395
42.60359376768525 14.9472
42.62767820545945 14.9651
42.65157789440821 14.9484
42.67547952952185 14.9585
42.699383112316 14.9583
42.72347541395347 14.8695
42.74738291190531 14.7895
42.771292362102166 14.7847
42.795203766063516 14.8018
42.819303956130405 14.7387
42.843219287476536 14.6951
42.86713657716324 14.7468
42.89105582671383 14.6999
42.91516392983864 14.7123
42.939087119032166 14.6162
42.963012272677304 14.6104
42.98693939230129 14.6224
43.01105543317513 14.5592
43.034986504731386 14.5276
43.05891954686589 14.4795
43.08285456110972 14.470999999999998
43.10697856448665 14.4237
43.130917542983475 14.4497
43.15485849820081 14.440999999999999
43.17880143167367 14.3717
43.20293342237094 14.3701
43.226880332449 14.3266
43.25082922540554 14.3143
43.27496722682525 14.2824
43.29892010567796 14.2541
43.32287497204102 14.247
43.34683182745632 14.1566
43.370977859791836 14.2024
43.39493871351105 14.2367
43.41890156092628 14.1991
43.44286640358341 14.1407
43.46702049182749 14.0903
43.49098934522816 14.0726
43.51496019852649 14.0519
43.5389330532723 14.0647
43.56309522248204 14.011
43.58707210044314 13.9838
43.61105098451946 13.9018
43.63503187626491 13.9235
43.659202151562134 13.8901
43.68318707902681 13.8776
43.70717401884041 13.8685
43.731162972560874 13.8449
43.75534137913236 13.8193
43.779334381108384 13.7845
43.803329401683186 13.7743
43.82732644241872 13.6983
43.8515130055166 13.6766
43.87551410707659 13.6537
43.89951723350145 13.6652
43.923709934595614 13.6629
43.94771713129917 13.5846
43.97172635758096 13.6455
43.99573761501002 13.5739
44.0199385169922 13.5105
44.04395385732619 13.4887
44.067971233533086 13.5266
44.09199064718605 13.4867
44.11619977548961 13.4391
44.14022328470671 13.3993
44.16424883610785 13.4501
44.18827643127035 13.4727
44.21249381139513 13.3637
44.236525514814076 13.3464
44.26055926674478 13.3318
44.28459506876863 13.2923
44.3088207262813 13.2801
44.33286064928722 13.2414
44.35690262714919 13.2098
44.38094666145278 13.2032
44.4051806219871 13.2098
44.42922879003185 13.1481
44.45327901929361 13.1101
44.477331311362136 13.119000000000002
44.501573600619416 13.0595
44.525630039221795 13.0524
44.54968854541895 13.0883
44.573937102200176 13.0477
44.5979997645541 13.0458
44.622064499300315 13.0057
44.64613130803592 12.9178
44.67038823869318 12.9458
44.69445921643748 12.9103
44.718532272981385 12.8236
44.742607409926194 12.8458
44.76687274034801 12.7797
44.79095205918753 12.8137
44.81503346325094 12.8335
44.839116954143876 12.776
44.86339071028742 12.7511
44.88747839599524 12.7592
44.91156817336837 12.7038
44.93566004401666 12.7105
44.959942251908146 12.6961
44.984038330325966 12.6607
45.00813650686762 12.6021
45.03223678314731 12.5785
45.05652746888232 12.5424
45.08063196592069 12.467
45.104738567558705 12.492
45.128847275414856 12.4916
45.15314646515866 12.4226
45.17725940679741 12.4193
45.20137445952892 12.4184
45.22568004865265 12.4285
45.24979934496396 12.4221
45.27392075725247 12.3917
45.29804428714431 12.3656
45.322358426247604 12.3145
45.346486212804315 12.2736
45.370616121861914 12.2932
45.39474815505086 12.2485
45.41907087049246 12.1939
45.4432071734666 12.2036
45.46734560548283 12.1594
45.49148616817604 12.1794
45.51581748638564 12.1603
45.5399623320197 12.1045
45.56410931325473 12.0883
45.58825843173002 12.1022
45.61259837920865 12.0654
45.636751793816 12.0483
45.66090735060093 11.9955
45.68506505120716 12.0077
45.7094136545275 11.9869
45.73357566449271 11.9056
45.75773982322992 11.9287
45.78190613238733 11.9144
45.806263418194064 11.8525
45.83043404997326 11.8813
45.85460683713677 11.8798
45.87897065658495 11.8193
45.90314777634752 11.7776
45.92732705646868 11.8041
45.9515084986045 11.8038
45.97588104735473 11.7506
46.00006683541565 11.7403
46.02425479047904 11.6853
46.04844491420549 11.6695
46.0728262191024 11.6671
46.09702070211635 11.6245
46.12121735879483 11.6284
46.14541619080294 11.6138
46.169806278764455 11.6083
46.194009483459034 11.5312
46.21821486849841 11.5543
46.24242243555223 11.5191
46.266821333570014 11.4552
46.29103328674601 11.4349
46.31524742696538 11.4359
46.33946375590237 11.4163
46.36387149104216 11.4169
46.38809221957392 11.33
46.41231514186606 11.3514
46.436540259597464 11.3868
46.460956858999374 11.3446
46.48518638983522 11.3176
46.509418121166966 11.2551
46.533652054678114 11.218
46.55807754555709 11.2247
46.58231590571962 11.2233
46.60655647313217 11.1893
46.630988654873654 11.1377
46.655233659129024 11.1585
46.67948087571551 11.1545
46.70373030632484 11.0886
46.72817142736393 11.1303
46.752425308428684 11.120999999999999
46.77668140861147 11.0581
46.80093972960865 10.9913
46.82538981736788 11.015999999999998
46.849652602470904 11.0105
46.87391761349769 10.9643
46.8981848521493 10.9377
46.9226439341274 10.9325
46.946915650573224 10.8508
46.97118959976749 10.8803
46.99546578341598 10.8232
47.019933887188216 10.8585
47.04421456235744 10.8525
47.06849747711879 10.7823
47.09278263318286 10.7815
47.11725978640143 10.744000000000002
47.14154944775105 10.7307
47.165841355555656 10.7027
47.1901355115306 10.6761
47.214621741924994 10.6962
47.23892041698887 10.6611
47.26322134538975 10.6116
47.28771440635075 10.6415
47.31201986422527 10.6001
47.33632758061436 10.592
47.360637557241866 10.5885
47.38513974410611 10.5618
47.40945426407847 10.5092
47.43377104948137 10.5093
47.45809010204344 10.4854
47.48260144275502 10.493
47.506925052572285 10.4232
47.53125093475548 10.4337
47.55557909103813 10.4241
47.58009961361992 10.41
47.60443234110732 10.3487
47.62876734791564 10.3576
47.65310463578333 10.3584
47.6776343683373 10.3537
47.7019762413987 10.3115
47.72632040075572 10.2821
47.75066684815169 10.2706
47.77520581885936 10.261
47.799556865477655 10.2166
47.823910205386 10.2158
47.84826584033272 10.2048
47.87281407745551 10.2033
47.89717432569297 10.1524
47.92153687423484 10.1462
47.94609208429692 10.1387
47.97045925671401 10.1083
47.99482873471275 10.0488
48.01920052005013 10.0488
48.04376504619224 10.0239
48.068141469543484 10.1
48.09252020552573 10.0502
48.11690125590099 10.0139
48.1414751266064 9.98813
48.16586082917454 9.95234
48.19024885144316 9.93205
48.2146391951793 9.955010000000001
48.239222439012764 9.89598
48.26361744916137 9.86101
48.28801478610016 9.886510000000001
48.31241445160131 9.87278
48.337007097209366 9.83619
48.36141144338331 9.810139999999999
48.38581812345755 9.81357
48.41022713920929 9.76092
48.434829215320704 9.79692
48.45924292604658 9.7534
48.48365897780325 9.756739999999999
48.50807737237308 9.71612
48.532688907799276 9.69085
48.55711201168574 9.69406
48.581537463754074 9.63723
48.60615611725119 9.6327
48.63058628942721 9.62439
48.65501881516546 9.60704
48.6794536962573 9.587860000000001
48.70408185970339 9.59854
48.72852147531801 9.55146
48.75296345168211 9.53316
48.77740779059232 9.51799
48.80204549302823 9.544360000000001
48.82649458091802 9.49873
48.85094603676547 9.49676
48.87539986237231 9.45832
48.90004713292306 9.42262
48.92450572200832 9.462539999999999
48.94896668628025 9.3876
48.97343002754588 9.39632
48.99808689542115 9.35905
49.02255501470614 9.34008
49.04702551642794 9.33177
49.0714984023988 9.32573
49.096164896893235 9.28174
49.120642575466796 9.25995
49.145122643748394 9.24198
49.16960510355558 9.20606
49.19428125404938 9.22183
49.2187685210852 9.21091
49.243258185121555 9.15258
49.26794160167084 9.138710000000001
49.2924360839405 9.16137
49.31693296869764 9.12275
49.34143225776915 9.05798
49.36612538195438 9.07746
49.39062950396021 9.054680000000001
49.41513603578346 9.03695
49.4396449792564 9.05363
49.46434784069503 9.05825
49.488861631846454 9.03364
49.513377840166804 8.98715
49.537896467493745 8.96077
49.56260909589029 8.91277
49.587132585683285 8.94501
49.611658500018365 8.91441
49.636186840738596 8.898639999999999
49.66090926588511 8.899289999999999
49.685442483902584 8.85909
49.70997813385706 8.819519999999999
49.734516217597076 8.85295
49.75924846937352 8.826130000000001
49.7837914452858 8.77786
49.80833686055187 8.772739999999999
49.83288471702571 8.75942
49.85762682540054 8.75643
49.882179588965734 8.72997
49.9067347993235 8.681230000000001
49.93129245833333 8.6751
49.95604445336378 8.65751
49.98060703442832 8.64002
50.005172069746266 8.654860000000001
50.02993150438364 8.646989999999999
50.05450147301533 8.61851
50.07907390151433 8.596210000000001
50.10364879174981 8.571589999999999
50.12841816587289 8.56366
50.1529980044635 8.55528
50.17758031042124 8.54018
50.20216508562089 8.522730000000001
50.22694442953363 8.47997
50.25153416817468 8.491589999999999
50.27612638170508 8.43259
50.300721072005196 8.42052
50.325510416102105 8.41113
50.350110084975064 8.42344
50.37471223628208 8.43555
50.39931687190919 8.383
50.424116246675766 8.39607
50.44872587605249 8.36942
50.47333799543065 8.37872
50.49795260670191 8.32029
50.52276204271512 8.290519999999999
50.54738166295838 8.27167
50.57200378079314 8.25366
50.596628398116835 8.24387
50.62144792604559 8.21723
50.646077567609396 8.214030000000001
50.670709714377715 8.18741
50.69553683636198 8.16235
50.72017401885922 8.15137
50.7448137122895 8.15488
50.76945591856022 8.12341
50.79429318636823 8.06581
50.818940443716784 8.11759
50.84359021965163 8.099039999999999
50.868242516085964 8.10248
50.893089960641895 8.06274
50.917747323549435 8.05978
50.94240721271973 8.03733
50.96706963007175 7.98407
50.99192728239342 7.9985100000000005
51.01659478166073 7.97688
51.04126481489051 7.9778899999999995
51.06593738400761 7.95459
51.090805275207074 7.94296
51.11548294172845 7.9629
51.14016314993547 7.91915
51.164845901758845 7.890810000000001
51.18972406304274 7.85153
51.21441192780656 7.85054
51.23910234200271 7.87525
51.2637953075678 7.83961
51.288683770237945 7.8069
51.31338186432707 7.80652
51.33808251561888 7.774769999999999
51.362978729967345 7.76233
51.387684521509755 7.73497
51.41239287610203 7.72715
51.437103795691165 7.7348300000000005
51.46201036644977 7.686210000000001
51.486726441956634 7.70253
51.51144508832545 7.67249
51.536166307509156 7.66633
51.56108326624387 7.65017
51.58580965706056 7.60487
51.61053862657523 7.6092
51.635270176746864 7.572939999999999
51.66019755512065 7.60579
51.68493429268881 7.5296899999999996
51.70967361681515 7.53936
51.73441552946465 7.49262
51.759353359237934 7.545380000000001
51.7841004750961 7.51112
51.80885018539685 7.49425
51.833602492111254 7.4939100000000005
51.8585508051424 7.47962
51.883308330926425 7.44065
51.90806845906181 7.43697
51.932831191525715 7.381810000000001
51.95779001977161 7.3522300000000005
51.98255798721516 7.3522
52.00732856494335 7.320069999999999
52.03229530577543 7.34473
52.057071130455945 7.34278
52.081849571391054 7.297219999999999
52.106630630568695 7.293589999999999
52.13160794279417 7.257810000000001
52.15639426492067 7.300089999999999
52.18118321127822 7.2817300000000005
52.205974783860896 7.26538
52.23096269971011 7.2157800000000005
52.255759551287994 7.168410000000001
52.280559035098186 7.20965
52.30536115314103 7.18669
52.33035970494467 7.18377
52.35516711807904 7.1550899999999995
52.37997717147198 7.17673
52.40478986713005 7.11497
52.42979908731974 7.054819999999999
52.454617094216 7.0912
52.47943774942214 7.047689999999999
52.50426105495102 7.058089999999999
52.529280976059844 7.08524
52.554109609024096 7.04057
52.57894089837482 6.97045
52.60377484613117 7.008589999999999
52.62880550079408 7.00977
52.65364479223379 6.96749
52.67848674816189 6.9416
52.70352547971946 6.95671
52.72837279155837 6.92611
52.753222773982785 6.896789999999999
52.778075429022984 6.84894
52.80312495150885 6.8622
52.827982978797436 6.8658399999999995
52.85284368481815 6.8596699999999995
52.87770707160767 6.82304
52.90276741793998 6.78965
52.92763619336701 6.76785
52.952507655698504 6.76213
52.977381806977576 6.808210000000001
53.00245301017842 6.802160000000001
53.02733256653592 6.78465
53.052214817996074 6.75175
53.077099766608484 6.74275
53.102181859804446 6.6977
53.127072229988265 6.697030000000001
53.15196530349892 6.6955100000000005
53.17686108239249 6.68825
53.20195409881522 6.627560000000001
53.22685531582556 6.63748
53.25175924441303 6.59276
53.27666588664027 6.595269999999999
53.30176985962693 6.57233
53.3266819565689 6.579689999999999
53.35159677336455 6.59165
53.376514312083096 6.5636600000000005
53.40162927507703 6.53714
53.42655228516116 6.56353
53.45147802340193 6.528230000000001
53.47660125628886 6.55978
53.50153247842639 6.49355
53.52646643496923 6.46066
53.55140312799818 6.4665099999999995
53.576537409691696 6.4703800000000005
53.60147960336152 6.44831
53.626424539786164 6.40298
53.65137222105307 6.39805
53.67651758529126 6.3659
53.70147078399681 6.3655
53.72642673383343 6.35577
53.75138543689533 6.3718699999999995
53.776541917524526 6.3592900000000006
53.801506154876755 6.33801
53.826473151763246 6.3133300000000006
53.851442910284916 6.22851
53.87661054126026 6.27631
53.9015858509782 6.2843599999999995
53.92656392866066 6.25216
53.95154477641532 6.24302
53.976723591801296 6.18499
54.00171000771266 6.202000000000001
54.02669920004598 6.20103
54.051691170915745 6.1513
54.076881204886796 6.13244
54.101878760928514 6.121
54.12687910187696 6.11408
54.152077577768296 6.105569999999999
54.1770835166946 6.12566
54.20209224691339 6.0761
54.22710377055121 6.06982
54.25231352511594 6.11351
54.27733066384342 6.07988
54.30235060239643 6.07442
54.32737334290836 6.01715
54.35259441062629 5.91606
54.377622783395324 5.9928300000000005
54.40265396455061 6.0273
54.42768795623251 5.92432
54.45292037169559 5.90681
54.477960012857906 5.92582
54.50300247099511 5.8991
54.52804774825457 5.89018
54.55329154616743 5.8753400000000005
54.57834249018678 5.8117
54.6033962597977 5.80261
54.6284528571545 5.79434
54.653708072335164 5.77451
54.67877035378786 5.743530000000001
54.70383546947698 5.700480000000001
54.72890342156389 5.71047
54.7541700889442 5.70965
54.77924374251975 5.68015
54.8043202390049 5.665719999999999
54.82959552413022 5.60559
54.8546777351945 5.60778
54.87976279569621 5.54467
54.90485070780914 5.55633
54.930137506558005 5.53618
54.95523115074295 5.542669999999999
54.98032765308844 5.50435
55.005427015775496 5.50378
55.03072536339621 5.5324
55.05583047570572 5.47388
55.080938454927676 5.48681
55.10604930325027 5.41397
55.131359235107396 5.43687
55.15647585066083 5.378340000000001
55.181595341907496 5.36428
55.20671771104285 5.340330000000001
55.232039262617704 5.380719999999999
55.25716741665048 5.27813
55.28229845518636 5.31113
55.30743238042802 5.22898
55.33276558731939 5.183669999999999
55.357905315183636 5.23336
55.383047936390035 5.1832199999999995
55.40819345314859 5.14241
55.433538351073295 5.09225
55.458689688238415 5.10675
55.483843927614096 5.06199
55.509197623043605 5.0483199999999995
55.53435769621134 5.04122
55.55952067826466 4.975569999999999
55.5846865714265 4.9417599999999995
55.61005202069737 4.95959
55.63522376553902 4.97551
55.66039842818645 4.94461
55.68557601087004 4.89815
55.7109532500271 4.82859
55.73613670233794 4.84415
