TT I
1.2716486653135266 7.4615
1.2939594142134223 7.09506
1.3162702121660406 6.6295
1.3385810600174564 6.99902
1.3608919586137629 6.863360000000001
1.383202908801069 6.01431
1.405513911425503 6.0892
1.4278249673332093 6.650239999999999
1.4501343378461518 6.57074
1.4724455028545926 6.04841
1.4947567236847858 6.07156
1.517068001182951 6.16491
1.5393793361953272 5.910880000000001
1.5616907295681737 5.33685
1.5840021821477681 5.21213
1.60631369478041 4.65975
1.6286252683124185 4.89174
1.6509369035901333 4.80411
1.6732468618895553 5.06238
1.695558623192809 5.261909999999999
1.7178704487808514 5.1516
1.7401823395001077 4.57571
1.7625012545597203 4.695880000000001
1.7848028405262486 4.97166
1.8071218901122095 4.54976
1.8294236121921872 4.09111
1.8517427996910911 4.5715
1.8740620574440425 4.93319
1.8963639900671978 4.82296
1.9186833908139995 5.49322
1.9409854680117449 4.50917
1.9633050151394713 4.73653
1.9856246367570705 5.06083
2.0079269371922672 5.134519999999999
2.03024671027244 4.50105
2.0525491637446027 4.7317800000000005
2.074869091674931 4.25402
2.097171701569106 4.66916
2.1194917877373847 4.71823
2.141811954326636 4.7512
2.164114805233074 5.2384900000000005
2.186435135143035 6.30432
2.208738150935709 11.9405
2.231058647554722 21.398000000000003
2.2533792288321184 16.3416
2.275682498336085 8.25649
2.298003251406138 6.00611
2.3203066942619714 6.00126
2.3426276225136022 5.73778
2.3649486396617507 5.65147
2.387252348930071 6.22307
2.4095735463442893 5.55619
2.4318774374315884 5.95919
2.4541988185014043 6.21626
2.476502894794693 6.57114
2.498824462909887 6.79445
2.521146125856138 6.7192300000000005
2.5434504863470337 7.048139999999999
2.5657723414244717 7.443960000000001
2.588076895590662 7.3083100000000005
2.610398946189713 7.810689999999999
2.6327210958598384 7.959510000000001
2.6550259469304716 8.61538
2.6773482972090137 8.52078
2.6996533504259 8.51835
2.7219759047039602 8.20241
2.744298562293959 7.719310000000001
2.7666039251246595 8.12839
2.7889267918020164 7.77583
2.8112323652516555 8.4832
2.833555444408179 8.49354
2.8558786311183852 8.14747
2.8781845268938557 8.50082
2.9005079311721484 8.73479
2.9228140460410397 8.464739999999999
2.9451376712799635 9.47816
2.967444008632326 9.53655
2.9897678582247247 9.721160000000001
3.0120918213106695 9.96481
3.0343984987899373 10.0209
3.0567226913198637 10.7772
3.079029599759726 11.4069
3.101354025127254 12.0718
3.123678568232338 12.8082
3.145985829517914 13.1263
3.16831061055229 13.0691
3.1906181112775593 13.8846
3.212943133635653 14.6461
3.2352682779763207 14.9364
3.2575761442691227 15.2336
3.2799015350264273 15.7681
3.302209649240067 15.9022
3.3245352898092655 16.7782
3.3468436553365257 17.3182
3.369169549113219 17.6892
3.3914955708171384 18.7649
3.413804319727358 19.0074
3.4361305997334863 19.3349
3.4584396084414553 19.7454
3.4807661501462652 20.4359
3.503092824025881 21.1193
3.5254022288463154 20.8547
3.5477291695206588 21.6337
3.5700388426251948 22.2676
3.5923660534916446 23.4438
3.6146934007816114 34.5168
3.637003482731501 69.9809
3.6593311053109985 78.05
3.681641464033634 46.907
3.7039693653009733 28.6273
3.726297407241705 26.1115
3.7486081875460804 25.6576
3.7709365132734978 26.2298
3.793247578841633 26.3635
3.8155761917550093 26.9371
3.8378875459837216 26.809
3.8602164494827234 27.6016
3.882545499606844 28.1594
3.9048572932539183 28.774
3.9271866390645718 29.2236
3.9494987298666713 29.6532
3.971828374764527 30.1167
3.9941581705403255 30.5936
4.016470713506008 31.0831
4.038800813471445 31.9515
4.061113662089144 32.803000000000004
4.0834440696459176 33.5567
4.105774632334751 33.7437
4.128087945865126 33.9146
4.150418821249301 35.0251
4.172732448931298 35.8778
4.195063640413578 37.7001
4.2173775856475215 41.0397
4.239709096631102 64.2494
4.262040768704612 182.137
4.284355196706267 235.55700000000002
4.306687193387355 155.303
4.329001947444346 68.7649
4.35133427213731 46.2387
4.373666762177566 43.9561
4.395982011761091 44.0935
4.418314834921175 45.2112
4.44063041906622 51.093999999999994
4.4629635787515625 59.2203
4.4852969080429785 58.7936
4.5076130004776225 52.6901
4.529946671403969 50.9368
4.552263106909177 51.7171
4.574597122877047 52.2229
4.596931312711224 52.5376
4.619248269273446 53.8487
4.6415828092605835 54.2777
4.663900117405352 55.5525
4.686235010953232 56.6672
4.708552674085913 58.269
4.730887924602802 59.5863
4.753223354952695 61.3653
4.775541557023902 62.854
4.797877349456786 64.6492
4.820195915032126 66.6255
4.842532072957498 68.0335
4.864868414979744 69.5175
4.88718753227192 71.9259
4.909524244902505 73.9064
4.931843734218147 75.3803
4.954180820867835 78.2584
4.976518095879839 81.8269
4.998838149695359 83.8075
5.021175803844231 87.7418
5.043496238205739 91.0254
5.065834274903528 95.4817
5.088172504230693 100.684
5.1104935158799565 106.64
5.132832132875765 125.585
5.155153533596801 162.17600000000002
5.1774925416746225 200.403
5.199814334878411 391.819
5.2221537374521505 1083.35
5.244493338631803 2987.46
5.266815727034316 7819.33
5.289155727832427 12428.7
5.311478517248165 8616.49
5.333818921080011 2658.92
5.356159527788849 507.969
5.3784829252032536 182.95
5.400823940070432 144.335
5.423147747031976 128.078
5.445489173474152 118.585
5.467830807066149 113.73700000000001
5.490155234831516 110.146
5.512497285125229 106.277
5.534822130975162 103.964
5.557164601388673 101.728
5.579489868738879 99.1685
5.601832762690846 97.9695
5.6241758697774475 97.5029
5.646501775867269 96.5819
5.668845311622074 95.5284
5.691171647754637 94.1457
5.713515615597765 92.8431
5.735859800852677 92.6594
5.758186788542988 92.1084
5.780531411018185 92.8196
5.802858837297399 92.3709
5.825203900414495 92.1303
5.8475491852224 93.1017
5.869877275883075 93.5425
5.892223006467101 94.3381
5.914551544266608 95.5909
5.936897724049891 98.094
5.959244129804903 104.712
5.981573344815301 128.5
6.0039202049061 230.551
6.026249875609095 491.596
6.04859719346037 1007.73
6.070927323278297 2262.71
6.093275102315365 4548.32
6.115623113320588 5274.47
6.137953938319995 3223.5
6.160302415650845 966.507
6.182633708324452 227.282
6.2049826554078376 111.79799999999999
6.227331838745022 91.3531
6.249663839443684 84.2358
6.27201349767565 81.7499
6.294345974611799 85.7126
6.316696111167083 92.9546
6.339046488263839 88.2896
6.361379686074702 77.0367
6.383730546639482 71.2304
6.406064229255215 68.8057
6.428415576718203 68.7927
6.450749747566656 67.3655
6.47310158535871 66.0227
6.495453669698332 65.3761
6.517788579421056 64.2851
6.540141159237969 63.6234
6.562476565766648 62.9225
6.5848296444934045 62.3262
6.607182974060425 62.0154
6.6295191323281015 62.0708
6.651872965955752 64.3894
6.6742096296068985 83.1068
6.6965639707294615 115.098
6.71891856698715 115.42299999999999
6.741255995248479 83.4103
6.763611104154477 65.0081
6.785949046381137 59.8278
6.808304671371482 58.1948
6.8306605557940046 58.036
6.852999275508618 57.5396
6.875355681171544 57.2461
6.897694923437771 56.5777
6.92005185377892 56.3354
6.9423916220322655 56.0275
6.964749080490181 55.6463
6.987106804399774 55.4718
7.009447368180821 55.6512
7.031805625367033 55.4794
7.054146723727803 55.1233
7.076505517631004 54.8129
7.098864581288365 54.8031
7.121206488070854 55.0243
7.143566093607822 54.8942
7.165908543567245 55.0212
7.188268694426048 54.9564
7.2106291193438095 54.8023
7.232972390625943 55.6782
7.255333366030969 65.1747
7.277677189091925 103.29
7.300038718428332 137.293
7.322400526130865 116.861
7.344745183422596 78.7747
7.367107550224791 59.8117
7.389452767901992 55.8804
7.411815697249891 55.0258
7.434161478756298 53.973
7.456524974096713 54.2417
7.478888753837185 54.2404
7.501235387657368 54.3284
7.523599738562711 54.3508
7.545946944825532 54.5107
7.568311870344528 55.1108
7.5906770845765665 55.2878
7.613025156078678 56.4894
7.635390950099687 57.3852
7.657739602662809 56.3042
7.680105979923558 55.7059
7.702472650212829 55.9524
7.724822180948224 55.6641
7.747189439655568 55.6588
7.769539560075357 56.0029
7.791907410653562 56.5403
7.81425812420825 56.5984
7.836626570110925 56.6592
7.858995315087906 57.2352
7.881346924933401 57.592
7.903716270417482 58.0972
7.926068482028405 58.6383
7.948438431475253 59.4205
7.9708086843180235 59.67
7.993161805171116 60.1791
8.015532667162402 60.6071
8.037886398416653 61.8132
8.060257873014221 62.1873
8.082629655331942 62.8158
8.104984308787587 63.8077
8.127356708900503 66.3668
8.149711981398308 70.9031
8.172085002766314 72.7864
8.194458336181368 70.4991
8.216814543847752 69.0285
8.23918850371002 69.3873
8.26154533906492 70.2522
8.283919928836452 71.7063
8.306277395339652 72.8104
8.328652618483376 74.2235
8.351028159736202 75.9735
8.373386579575245 78.437
8.395762759396959 80.2009
8.418121819038275 84.7759
8.440498640894003 95.2679
8.462875785192262 108.512
8.485235811156207 126.559
8.507613602688501 177.97099999999998
8.529974277114228 269.723
8.552352719347912 407.59
8.574731488360351 679.056
8.59709314210385 1227.35
8.619472567021075 1926.14
8.64183487789147 2215.31
8.664214962183097 1762.86
8.686577933647762 908.2260000000001
8.708958680784317 356.184
8.731339760774953 154.259
8.753703729764451 108.837
8.77608547780821 98.6089
8.798450116065078 94.7104
8.820832535634787 92.4155
8.843215292401656 90.6404
8.865580941199045 89.7647
8.887964374703538 89.084
8.910330701447199 89.3277
8.932714815164482 90.7023
8.955099270424924 89.5834
8.977466620733543 86.9576
8.999851761421976 84.8724
9.022219798361645 83.5113
9.04460562795561 83.6642
9.066991803441677 83.1622
9.089360876979615 82.8232
9.111747746589993 82.4126
9.13411751544971 81.9356
9.156505082664324 81.815
9.178875550323522 81.9348
9.20126381862328 82.3385
9.223652438908596 82.0537
9.246023961427412 82.4138
9.26841328802173 82.1831
9.290785518039224 81.7529
9.313175554425882 82.8474
9.335565947154315 82.86399999999999
9.357939245086508 83.4937
9.380330352834827 83.0759
9.40270436697103 83.7113
9.425096193225055 83.2355
9.447488380180165 84.125
9.469863475295412 84.3164
9.492256385987508 84.7723
9.514632206018318 85.2136
9.537025843935714 85.6112
9.559402392368193 86.2138
9.581796761000229 87.23700000000001
9.604191496441521 88.7311
9.626569144158516 91.6916
9.648964615551032 94.5443
9.671343000390081 95.4456
9.693739211225699 94.5108
9.716135793237463 93.1835
9.738515290448102 93.2279
9.760912617143402 94.1076
9.783292860202891 95.5184
9.805690935076182 97.3662
9.828089385495742 97.93299999999999
9.850470754023561 100.391
9.872869957865444 106.244
9.89525208097539 117.37100000000001
9.917652041736662 127.88
9.940052382417589 132.063
9.962435644102392 147.648
9.984836746950979 190.178
10.007220771957746 256.258
10.029622640473708 362.07
10.052007432299963 540.254
10.074410069984072 842.936
10.096813093716005 1298.33
10.119199042482517 1792.95
10.141602840636468 2009.23
10.163989564971628 1561.6
10.186394141051062 854.81
10.208799107559706 370.825
10.231187001965623 177.28799999999998
10.253592751657669 123.40799999999999
10.275981430388155 112.23299999999999
10.298387966769793 110.665
10.320794897965431 112.366
10.343184759907361 111.06
10.36559248305461 107.056
10.387983138083852 104.649
10.410391656691655 109.434
10.432800574501677 122.275
10.455192425893369 139.67700000000002
10.47760214443012 164.168
10.499994797678786 210.39700000000002
10.522405320453982 290.135
10.54479877906917 407.208
10.567210109595656 514.092
10.5896218454736 563.682
10.612016518879773 494.413
10.634429067781074 334.74800000000005
10.656824555333241 191.78400000000002
10.679237920773568 120.171
10.701651695961992 94.8046
10.724048411481384 88.7549
10.746463008485165 86.2442
10.768860546937125 84.3564
10.791275969274796 82.8995
10.81369180576079 81.971
10.836090585366925 80.8434
10.858507252467449 79.6359
10.88090686379991 78.6185
10.903324365036394 78.0753
10.925724811614439 77.6678
10.948143150509463 78.6113
10.970561909719066 77.8516
10.992963615930844 75.9586
11.015383218085756 74.5748
11.037785768347074 73.1375
11.06020621697282 72.4273
11.082627090322113 71.7608
11.105030913430326 71.2139
11.12745263854165 71.9671
11.149857314510728 73.8791
11.172279894912576 78.104
11.194702904450653 78.2837
11.217108866490921 75.0549
11.239532736615194 71.9715
11.26193956033512 70.3862
11.284364294577085 69.2128
11.306789462371718 67.7559
11.329197585398376 66.6822
11.351623622610898 66.7186
11.37403261614354 65.87
11.396459526308487 65.696
11.418869393879497 65.1613
11.441297180532617 65.0335
11.463725406927658 64.8507
11.486136592353875 64.6944
11.508565700543707 64.9689
11.530977768845315 66.1928
11.553407762368774 66.5154
11.575838200059769 66.5516
11.598251599479612 64.9088
11.620682927815501 63.6621
11.64309721895548 63.2778
11.665529441478206 62.9464
11.687962112597958 62.8434
11.710377748130886 62.9637
11.732811318753434 62.6231
11.755227854859067 62.6936
11.777662328529495 62.7726
11.800079768750786 62.4292
11.822515149015453 62.4443
11.844950984084935 62.608000000000004
11.867369787303163 62.1265
11.889806534289491 62.1266
11.912226250487029 62.5622
11.934663912939751 62.7534
11.9571020346363 62.8355
11.979523127133968 62.9289
12.001962169624331 63.7547
12.024384183972964 65.4436
12.046824150809913 68.4846
12.069264581333726 73.6267
12.091687985297767 79.5741
12.11412934550045 88.9651
12.136553680195208 104.67399999999999
12.158995973632788 126.654
12.181438735204349 153.885
12.20386447284199 183.29
12.226308172985636 204.162
12.24873485024193 197.92700000000002
12.271179492516982 159.79399999999998
12.293607112949127 120.23200000000001
12.316052700916226 89.9237
12.338498763250042 74.8372
12.360927805303868 68.5581
12.383374818673879 65.6821
12.405804812803074 64.09
12.428252780773262 63.9285
12.45070122756722 64.0433
12.473132656675375 63.9193
12.49558206341869 64.0026
12.518014453510101 64.3501
12.540464823770117 64.366
12.562915677315177 64.666
12.58534951575545 65.2818
12.607801338171472 66.7505
12.630236146511358 70.4046
12.652688941369085 73.6586
12.675124723177234 74.1183
12.697578494048786 72.1296
12.720032754458185 68.8365
12.742470003354093 67.382
12.764925245138771 67.753
12.787363476431278 68.0928
12.809819703166806 68.1144
12.83227642391173 69.1197
12.854716135692716 69.4962
12.877173846755147 70.8848
12.899614549869717 71.1104
12.9220732548287 71.8375
12.94453245827299 72.2308
12.966974655289818 73.4287
12.989434858002571 73.9775
13.011878055298721 74.6407
13.034339260862497 75.7045
13.056800969391883 77.3456
13.079245674017244 79.5168
13.101708390774869 82.3279
13.12415410463411 90.6803
13.146617833206086 102.581
13.169064559883248 114.16
13.191529303857127 128.623
13.213994557076367 152.236
13.236442809902437 190.19799999999998
13.258909083908291 247.234
13.28135835851934 315.858
13.30382565690295 378.70099999999996
13.326293469022952 432.32
13.348744283242008 420.973
13.371213125129904 348.00300000000004
13.39366497011003 250.88400000000001
13.416134845360597 165.843
13.438605238843131 120.46600000000001
13.46105863690397 105.829
13.483530069144786 107.43
13.505984506951902 113.08
13.528456981549432 122.631
13.550929978879088 137.57
13.573385983253365 162.38
13.595860028340867 202.695
13.618317081455832 255.11
13.64079217790333 312.879
13.663250283359057 355.63
13.685726434770173 370.186
13.708203115221277 326.692
13.730662806148091 247.282
13.75314054697177 170.771
13.775601299246777 119.851
13.798080104050406 93.4856
13.820559442405358 84.1754
13.843021793671388 81.3482
13.865502201420897 79.8175
13.887965623051947 79.5091
13.910447103807167 78.418
13.932929122629764 77.0068
13.955394156785959 76.4901
13.977877254034569 75.6157
14.000343367582113 75.0386
14.022827546871707 74.2846
14.045294743423524 73.4747
14.06778000837062 72.9133
14.090265817715476 72.7452
14.112734645763819 72.4369
14.13522154619454 72.0591
14.157691466286913 72.0004
14.180179461423874 71.6369
14.202668005486178 71.2898
14.22513957064374 70.6872
14.247629214846473 70.3402
14.270101881097517 70.0819
14.29259262906496 70.1288
14.315083930490205 70.7088
14.337558255389705 70.6631
14.360050666019726 70.3497
14.382526101071944 69.8302
14.405019624534942 69.0898
14.427513705993134 68.751
14.449990813291825 68.5529
14.47248601302899 68.6069
14.49496423954951 68.5997
14.517460561197822 68.5692
14.539939910570322 68.5922
14.562437357763558 68.9706
14.58493536931253 69.8684
14.607416409993311 70.2933
14.62991555254159 70.9149
14.652397725157423 70.9049
14.674898002342799 70.7703
14.697398848433282 70.37899999999999
14.719882725991326 71.3754
14.74238471217934 72.60300000000001
14.764869730765593 76.2619
14.787372860692983 79.8543
14.809876564079925 84.3533
14.83236330125751 89.9152
14.854868153850365 98.7972
14.877356041159485 112.57799999999999
14.899862046604186 131.894
14.922351087688757 157.64600000000002
14.944858249632887 188.31099999999998
14.967365991421232 212.90200000000002
14.989856770231246 227.873
15.012365673994204 216.399
15.03485761569738 182.827
15.05736768508665 141.028
15.07987833888692 108.48299999999999
15.102372032001655 86.6235
15.124883856909658 75.5694
15.14737872204565 71.7749
15.169891721717274 70.334
15.192405310371893 70.2046
15.214901940621196 70.207
15.237416709527137 69.7812
15.259914520936249 70.1754
15.282430473753607 69.3967
15.304947020131227 68.3166
15.327446610371178 67.547
15.349964346154254 66.9875
15.372465126703139 66.691
15.394984055556009 66.7879
15.417486030076159 66.403
15.44000615566487 65.9587
15.462526881230803 65.8342
15.485030653812652 66.0353
15.507552581617434 66.0087
15.530057557334603 65.9185
15.55258069104857 65.9463
15.575104429329837 65.9684
15.597611216864632 65.7753
15.620136166564563 66.1767
15.6426441664095 67.2497
15.665170331202765 69.9582
15.687697105158826 73.4438
15.710206930593545 76.5733
15.732734925158933 80.6822
15.755245972089478 86.8467
15.77777519094324 96.3243
15.800287463046663 110.029
15.822817909869592 129.289
15.84534897229804 150.34
15.867863089299354 175.328
15.890395385222186 190.032
15.912910736597423 194.22400000000002
15.935444269699861 177.888
15.957978423016485 151.585
15.980495633101265 117.228
16.003031029129367 92.3311
16.02554948280019 74.85
16.048086125229432 66.9404
16.070623392487107 64.5204
16.09314371869582 63.6014
16.11568223789321 62.7749
16.13820381691126 61.9534
16.160743591742527 61.1
16.183283996022084 60.0656
16.205807461423195 59.0859
16.228349126881973 58.7158
16.25087385432698 58.7313
16.27341678466365 58.1679
16.29594277784926 58.1153
16.31848697676433 57.985
16.341031811604868 58.1985
16.36355971058487 58.5878
16.3861058195587 58.1723
16.40863499352978 57.2666
16.431182380342005 56.4578
16.453730407713202 55.9483
16.476261501364792 55.6443
16.498810812136167 55.3868
16.52134319004079 55.1136
16.54389378792203 55.1899
16.566445031001553 55.0866
16.588979342490088 55.2208
16.61153187824822 54.8489
16.634067483263312 54.6072
16.656621315414416 54.6431
16.679175797408888 54.4266
16.701713349928728 54.4884
16.72426913389191 54.7374
16.74680798922351 54.8551
16.76936507887444 54.7574
16.791905240734874 54.7965
16.814463639794468 54.8071
16.837022695210294 54.6769
16.859564824093756 54.99
16.882125194503903 55.2371
16.904668639217885 56.1724
16.927230328348003 56.3581
16.949792678493612 56.2063
16.972338104193863 55.7564
16.994901778652235 55.5586
17.017448529496576 55.5268
17.040013531998152 55.7855
17.06257920018044 56.5762
17.0851279459922 57.1309
17.107694947817667 57.7971
17.130245028099072 58.8589
17.15281336730298 60.0146
17.17536478578733 61.7257
17.19793446610687 64.0648
17.220504818648422 67.0649
17.243058251703697 70.4008
17.265629950971032 74.8238
17.288184731571736 79.22399999999999
17.310757781306908 83.3677
17.33333150794385 83.8266
17.355888317140174 81.7646
17.37846339986244 75.7876
17.401021565958885 69.8771
17.42359800851343 64.5312
17.44617513265564 61.1614
17.468735341390783 59.5668
17.491261035594565 58.8937
17.51396340099364 58.806999999999995
17.536490463869136 58.8519
17.559018209820174 58.9354
17.58154663977963 59.0155
17.604251766089718 59.1418
17.626781572227713 59.4322
17.64931206518155 59.677
17.671843245885103 60.1622
17.69455114821572 60.4856
17.717083712612634 60.7467
17.739616967569667 60.8942
17.762150914021706 61.126000000000005
17.78486160749854 61.4221
17.807396945166804 62.1434
17.829932977143503 63.226000000000006
17.85246970436452 64.7761
17.875183204129467 66.7153
17.897721330097664 68.6853
17.920260154126645 70.967
17.942799677153296 74.2667
17.9655159983646 78.1183
17.988056927677544 83.4379
18.010598558807683 91.5233
18.033140892692916 101.729
18.05586005052525 112.988
18.07840379824407 124.522
18.10094825154059 134.66299999999998
18.12366954819864 142.447
18.146215420998306 140.239
18.16876200220057 130.649
18.191309292745153 115.62299999999999
18.214033452627167 100.89399999999999
18.236582170236648 90.3832
18.259131600016456 86.0597
18.281681742907335 86.9185
18.304408781233683 91.1063
18.32696035875955 96.1183
18.349512652227624 100.568
18.372065662579683 104.76299999999999
18.394795594587553 105.61
18.41735004715306 101.47399999999999
18.43990521943684 94.0918
18.46246111238171 84.605
18.485193953325208 75.529
18.507751296070428 68.8507
18.530309362314178 65.1021
18.552868153000343 63.1311
18.57560391815056 61.8436
18.59816416623245 61.6226
18.620725141597372 60.9404
18.643286845190268 60.5359
18.666025549835414 60.2239
18.688588718427933 59.6313
18.711152618092243 59.4983
18.73389353884365 59.2355
18.75645890921984 58.8042
18.77902501351406 58.5224
18.801591852673102 58.5697
18.824335739722738 57.8753
18.846904057212626 57.857
18.8694731124168 57.646
18.89204290628315 57.7398
18.914789774966803 57.4661
18.937361054791623 57.1586
18.959933076131318 56.8965
18.982505839934877 56.7854
19.00525570560582 56.7839
19.027829963004184 56.5451
19.05040496572238 56.7677
19.072980714710468 56.7782
19.095733592739563 56.968999999999994
19.11831084296757 57.2837
19.140888842324735 57.8984
19.16346759176222 58.0123
19.18622349753803 58.4785
19.208803755869358 59.4533
19.231384767143577 60.8944
19.253966532312948 62.2992
19.276725481241822 64.3707
19.29930876296784 67.1838
19.3218928014549 70.3956
19.34465404436217 73.2438
19.36723960516257 75.7725
19.389825925592426 76.4463
19.412413006605938 75.1716
19.43517731967805 71.3404
19.457765930683355 66.9258
19.48035530514408 62.3085
19.50294544401556 58.7168
19.525712842708348 56.2976
19.54830451925909 55.073
19.570896963095727 54.0114
19.593490175174704 53.6667
19.616260674962184 53.6813
19.638855432416964 53.457
19.661450960992624 53.4488
19.68404726164677 53.2621
19.706820878021247 53.2236
19.729418731756834 53.4469
19.752017360452857 53.1926
19.77461676506804 53.501000000000005
19.797393513540218 53.4707
19.819994478951667 53.9431
19.84259622316767 54.5396
19.8651987471481 54.9167
19.887978643247177 55.0295
19.91058273574792 55.4022
19.933187610901943 56.2506
19.955969879466828 57.4267
19.97857632894404 58.9523
20.00118356396599 60.7466
20.023791585494575 62.9158
20.046577028914875 65.558
20.069186632506966 67.5881
20.091797025500632 69.4002
20.114408208858933 69.8249
20.137196842715273 69.3512
20.159809615886765 67.6187
20.18242318232135 64.9333
20.20503754298326 62.9324
20.227829382875154 62.0735
20.250445341109344 62.3119
20.27306209647285 63.0189
20.29567964993108 64.257
20.31847471147704 64.9677
20.34109387027612 65.5132
20.363713830075454 64.88600000000001
20.386334591841646 63.3805
20.409132890679302 60.4392
20.431755265564437 57.3962
20.454378445325528 54.8628
20.477002430930366 52.9132
20.499803982716553 52.0171
20.522429589228004 51.132
20.54505600449589 50.8524
20.567683229489194 50.8163
20.590488049900088 50.4581
20.61311690359731 50.2385
20.63574656993626 50.0761
20.658553853717297 49.6097
20.681185154618298 49.5508
20.703817271080066 49.4195
20.72645020407368 49.1159
20.749260783967177 49.0107
20.771895359337133 49.016000000000005
20.794530754161617 48.9341
20.817166969412938 48.7231
20.83998086114876 48.7376
20.86261872660049 48.5432
20.885257415405402 48.8091
20.90789692853701 48.4849
20.930714147864748 48.5576
20.953355319030678 48.5101
20.97599731745334 48.7975
20.99864014410749 48.4361
21.021460706796564 48.5353
21.044105199328826 48.6765
21.06675052302631 48.6822
21.089396678865015 49.1268
21.112220600704806 49.3106
21.134868430275347 49.6963
21.15751709492456 49.988
21.180166595629693 50.4551
21.202993892429635 50.907
21.22564507473034 51.0961
21.24829709602816 51.343
21.27112693608965 51.364
21.293780644891275 51.1295
21.316435195634053 50.4253
21.339090589297417 49.7856
21.361923832041875 49.2763
21.384580921090404 48.5757
21.407238856007325 48.4079
21.429897637773326 48.5135
21.45273429906592 48.3075
21.475394784108598 48.3557
21.498056118951983 48.2534
21.520718304578022 48.5299
21.543558400304388 48.6285
21.566222297108816 48.8379
21.58888704765135 49.0608
21.61155265291521 49.2662
21.63439619898156 49.7556
21.657063523335786 49.7645
21.67973170537063 50.4255
21.7024007460706 50.9674
21.72524775840385 51.7242
21.747918526116475 52.8365
21.770590155457388 54.0708
21.79326264741238 55.6475
21.816113141960237 57.5546
21.838787368860547 59.3429
21.861462461341976 61.4337
21.884315579735777 63.0888
21.90699241312273 64.3769
21.92967011506078 64.9057
21.95234868653799 64.3302
21.9752053151131 62.8208
21.997885635446785 60.5654
22.020566828293532 58.8788
22.04324889464272 57.3162
22.066109049404666 56.2383
22.088792872571794 55.9697
22.111477572219204 56.14
22.1341631493376 56.1221
22.157026846313123 55.9617
22.179714188221507 55.0643
22.202402410582668 53.8825
22.22509151438863 52.4707
22.24795876962584 51.1692
22.270649646204486 50.2509
22.293341407213727 49.5894
22.316034053646906 49.0964
22.338904883215342 48.9563
22.36159931041458 48.9408
22.38429462602756 48.8013
22.40699083104897 48.724
22.429865251039757 48.6691
22.452563244831367 48.5657
22.47526213102522 48.5712
22.49813925616515 48.6304
22.520839937143307 48.3799
22.543541513520587 48.4667
22.56624398629403 48.35
22.589124730075895 48.493
22.611829005656723 48.7554
22.63453418063466 48.6128
22.657240256008077 48.9004
22.680124634582935 49.1586
22.70283252079775 49.1561
22.725541310413075 49.4674
22.74825100442868 49.8447
22.771139033969575 50.2716
22.79385054687155 50.4711
22.81656296718292 51.1651
22.83927629590484 52.258
22.862167992606945 53.2503
22.88488314827121 54.3555
22.907599215359284 55.2607
22.93031619487366 56.2132
22.953211574954405 57.2366
22.975930389478226 57.9072
22.998650119445763 57.9125
23.02137076586092 57.1923
23.044269845560063 55.6852
23.06699233506288 53.9656
23.089715744034912 52.2012
23.112617610931565 50.7352
23.135342869061212 49.7461
23.158069049684816 49.0184
23.1807961538087 48.505
23.20370174880544 48.5846
23.226430710184808 48.8414
23.249160598093425 48.8514
23.271891413539002 48.8171
23.294800752937697 48.7839
23.31753343374794 49.0277
23.340267045128353 49.0868
23.36300158808808 49.4405
23.38591468821339 49.6903
23.408651104658304 50.2724
23.431388455719986 50.8344
23.454126742409 51.8122
23.4770436196085 52.7792
23.499783787914662 54.0424
23.522524894889884 55.06
23.54526694154616 56.0985
23.56818761219047 57.2056
23.59093154860734 57.5708
23.613676427751283 57.8116
23.636422250635754 56.6917
23.659346731118656 55.2981
23.68209445191868 53.1676
23.704843119509587 50.997
23.72759273490623 49.2266
23.750521041644767 47.9223
23.77327256312355 46.9984
23.796025035462787 46.473
23.818956224555475 45.9144
23.841710609113413 45.7556
23.86446594758979 45.6387
23.887222241002014 45.551
23.910157285144578 45.1857
23.932915498962537 44.9896
23.955674670778713 44.9176
23.978434801611975 44.8579
24.001373717286125 44.6902
24.024135776723917 44.5606
24.046898798245582 44.3082
24.06966278287146 44.268
24.092605586582614 44.2331
24.115371508023642 44.0977
24.1381383956401 43.8374
24.16090625045381 43.873000000000005
24.183852958731244 43.9302
24.206622758582608 43.7189
24.229393528706886 43.641999999999996
24.252165270127392 43.5007
24.27511589952438 43.4804
24.297889594216997 43.3201
24.32066426328598 43.2299
24.34343990775613 43.2912
24.36639447485003 43.0414
24.38917208083877 42.9766
24.41195066531332 42.9017
24.43490819850244 42.9239
24.457688750692377 42.952
24.48047028445616 42.9468
24.503252800821233 43.0165
24.526214300784112 43.0665
24.548998793132213 43.037
24.57178427117417 42.902
24.59457073593893 42.8855
24.617536219319863 42.9066
24.64032466834748 42.8803
24.663114107195035 42.6411
24.685904536893013 42.3572
24.708874020360852 42.34
24.731666442613744 42.2498
24.754459858818787 42.258
24.777254270007962 42.1785
24.80022777025625 42.1152
24.82302418230472 42.1839
24.845821592443674 42.2142
24.86862000170663 42.1706
24.891597535453727 41.9717
24.914397953892728 42.2407
24.93719937456671 42.1248
24.96000179851076 42.2861
24.98298338249997 42.5544
25.00578782394922 42.788999999999994
25.028593271784167 42.8963
25.05157790644186 43.1482
25.07438537804115 43.2513
25.097193859145293 43.4873
25.120003350792075 43.6826
25.142992065061257 44.1094
25.165803588823465 44.2889
25.18861612625217 44.5546
25.211429678386736 44.628
25.234422489079968 44.6653
25.257238081693636 44.6506
25.280054692141732 44.9013
25.3028723214652 44.7799
25.325869245420463 44.7833
25.348688923599397 44.8694
25.371509623787006 44.8284
25.394331347025812 44.4957
25.41733240110666 44.021
25.440156181590016 43.2838
25.46298098826268 42.8108
25.48580682216873 42.2982
25.50881202326435 41.7626
25.53163992281684 41.2707
25.55446885274561 41.133
25.577298814096377 40.8076
25.600308179121807 40.7476
25.623140214533745 40.8481
25.64597328451537 40.6056
25.66898578564376 40.4083
25.691820936010206 40.4174
25.714657124097695 40.4207
25.737494350954734 40.507
25.760511045684957 40.3746
25.783350361364224 40.3989
25.806190718969255 40.3261
25.82903211955018 40.3912
25.852053024868923 40.6463
25.874896522722523 40.535
25.897741066713106 40.5314
25.920586657892454 40.6732
25.943611790812668 40.715
25.966459487728237 40.9318
25.989308234998564 40.8524
26.01215803367705 41.2353
26.03518741123814 41.431000000000004
26.05803932412957 41.5536
26.080892291600094 41.5969
26.10374631470478 41.5576
26.12677995397268 41.6182
26.14963609978026 41.5959
26.172493304397875 41.2372
26.19535156888223 40.9498
26.218389486949604 40.6197
26.241249882640123 40.5264
26.26411134137826 40.1902
26.28715248187403 40.0897
26.31001607820869 39.9723
26.3328807407756 39.995
26.35574647063438 40.0858
26.37879191991473 39.9975
26.401659795896734 40.1027
26.424528742360263 40.1213
26.447398760366614 40.4808
26.470448535598294 40.5244
26.49332070826805 40.5692
26.516193955675355 41.0011
26.53906827888316 41.1884
26.562122397260108 41.4308
26.584998883685063 41.7098
26.607876449110325 41.9999
26.63075509460056 42.004
26.65381357334404 42.0563
26.67669439061878 42.0667
26.699576291163382 42.0222
26.722459276044212 41.8146
26.745522132402975 41.4843
26.768407297649354 41.2701
26.791293550442003 40.9723
26.814180891848974 40.8152
26.837248143099337 40.4316
26.860137673466657 40.3713
26.88302829566349 40.1325
26.90592001075963 40.018
26.92899167420566 39.8204
26.951885586870763 39.4351
26.974780595655517 39.1397
26.99785558178161 39.1181
27.020752794605112 38.9721
27.043651106772522 38.7987
27.06655051935668 38.7386
27.089629948036183 38.7448
27.112531573292053 38.6192
27.135434302194138 38.6889
27.158338135817015 38.5171
27.181422024430987 38.459
27.204328079372566 38.4282
27.22723524226965 38.4873
27.250143514198573 38.5605
27.273231880156334 38.3707
27.296142382065014 38.3238
27.319053996245536 38.3908
27.341966723775965 38.3276
27.365059584515222 38.4403
27.38797455070062 38.5747
27.410890633481237 38.3956
27.433807833936918 38.3735
27.456905206923906 38.5581
27.47982465472398 38.4605
27.502745223449743 38.573
27.525666914182825 38.6235
27.548768816912457 38.5841
27.571692763693633 38.3565
27.59461783573812 38.2726
27.617723149491244 38.1287
27.640650484125285 38.113
27.66357894728264 38.0536
27.686508540048052 38.0483
27.709618414237887 37.9713
27.732550278321757 37.8457
27.755483275279115 37.7664
27.778417406196485 37.7681
27.801531858397514 37.6533
27.824468269376716 37.824
27.847405817586786 37.7914
27.870344504116094 37.9375
27.893463551932008 38.1421
27.916404527281053 38.3608
27.93934664422563 38.3382
27.962289903855886 38.486999999999995
27.98541356491974 38.592
28.00835912214229 38.8076
28.03130582533231 38.9925
28.054253675581805 39.0012
28.077381967556104 39.1466
28.100332124185126 39.0488
28.123283431160893 38.9472
28.146235889577238 38.6937
28.169368830154156 38.4546
28.192323603752033 38.3125
28.215279532083304 38.1506
28.238415973016764 37.9041
28.261374223145094 37.8685
28.284333631303806 37.5564
28.307294198589954 37.311
28.330435319167677 36.9173
28.353398217078915 36.7352
28.376362277420153 36.5172
28.39932750129032 36.4989
28.422473319286713 36.3387
28.44544088262495 36.2176
28.468409612800283 36.1805
28.491379510913497 36.0413
28.51453004413313 35.9017
28.53750229057244 35.9619
28.56047570826344 35.7814
28.583450298308804 35.8166
28.606605564586562 35.6947
28.629582511831156 35.7071
28.65256063474956 35.5286
28.675539934446338 35.5696
28.698699951647605 35.5957
28.72168161743193 35.4398
28.74466446331978 35.3924
28.767648490417624 35.3855
28.790813276438353 35.2601
28.813799678527303 35.3666
28.836787265157085 35.3907
28.859955641890075 35.4101
28.882945610203045 35.2705
28.905936766392035 35.1359
28.928929111566863 35.1944
28.952102288520145 35.1122
28.975097024308607 34.9642
28.998092952423807 34.9252
29.021090073977508 34.8879
29.04426806913204 34.8264
29.067267590245258 34.5652
29.090268308143695 34.5529
29.11327022394099 34.4654
29.13645305530891 34.353
29.159457379627167 34.3325
29.18246290519685 34.2045
29.20546963313352 34.2894
29.22865731875826 34.3301
29.25166646419296 34.2258
29.27467681535305 34.1104
29.29768837335608 34.3069
29.320880931312562 34.2454
29.34389491580634 34.1435
29.366910110507334 34.0984
29.38992651653503 34.1989
29.41312396492981 34.2326
29.436142806456754 34.0974
29.45916286268059 33.9534
29.48236399319994 33.9982
29.50538649169417 33.7379
29.528410208259935 33.7149
29.55143514402014 33.347
29.574641196749695 33.3124
29.597668583816574 33.2352
29.6206971934585 33.1349
29.64372702680042 33.1999
29.666938019934474 33.0287
29.689970313635285 32.994
29.713003834422636 32.8871
29.73603858342347 32.7756
29.759254535188578 32.7555
29.78229175361658 32.7728
29.80533020365064 32.7998
29.82836988641968 32.75
29.85159081507472 32.7457
29.874632976355343 32.754
29.89767637376955 32.6914
29.920721008448314 32.5658
29.9439469322847 32.5622
29.96699405457564 32.5578
29.9900424175358 32.5116
30.013092022298157 32.3424
30.03632295963995 32.3449
30.059375061131373 32.4794
30.08242840783577 32.5258
30.105483000888153 32.4321
30.128718970092244 32.318000000000005
30.151776069006917 32.3527
30.17483441768648 32.4816
30.198074175317235 32.3264
30.221135036724256 32.3649
30.24419715131772 32.2341
30.267260520236203 32.2239
30.290505341942243 32.3375
30.313571232750228 32.2958
30.336638381310948 32.2546
30.35970678876503 32.1816
30.38295669299435 32.0662
30.40602763151657 32.0931
30.429099832366074 32.1428
30.452173296685572 31.9873
30.47542830191959 32.043
30.498504306502497 32.0662
30.521581577995562 32.0899
30.544660117543582 32.1437
30.56792024229725 32.0587
30.59100133132069 32.0248
30.614083691845494 32.1081
30.637167325018545 32.2019
30.660432587840603 32.2009
30.683518779717886 32.1386
30.70660624769615 32.135999999999996
30.729694992924372 32.1602
30.75296541239743 32.249
30.77605672557558 32.0739
30.799149319462742 32.0571
30.8224236211637 31.9962
30.845518789950724 31.8674
30.868615242910597 31.7883
30.891712981195973 31.5192
30.91499247215866 31.5918
30.938092794619365 31.5997
30.96119440587579 31.4093
30.984297307082752 31.3546
31.00758200598383 31.2775
31.030687500658694 31.1669
31.053794288760695 31.1631
31.076902371446767 31.0474
31.100192296997445 31.1058
31.12330298246119 31.0213
31.14641496599209 30.8832
31.169528248749216 30.8977
31.19282341969534 30.9178
31.215939314557186 30.9658
31.239056512134788 30.9254
31.262175013589378 30.8546
31.28547544871168 30.7906
31.30859657161541 30.7408
31.331719001892175 30.912
31.35484274070538 30.9673
31.378148458819545 30.8965
31.401274828443725 30.8134
31.424402510106933 30.8458
31.447712205419993 30.9985
31.470842524931633 30.7966
31.493974159989783 30.7742
31.51710711176168 30.7188
31.54042212308802 30.8069
31.563557722100917 30.691
31.586694641341655 30.6114
31.609832881979628 30.4019
31.63315322823208 30.4314
31.656294125521327 30.3453
31.679436347728515 30.2959
31.70257989602529 30.2274
31.725905596152327 30.1408
31.74905181052835 30.0465
31.772199354521323 30.169
31.79534822930507 30.2131
31.818679302290967 30.1289
31.84183085259981 30.1251
31.864983737233473 30.0118
31.88813795736804 30.1724
31.911474422233013 29.963
31.934631327356435 29.912
31.9577895715215 29.9954
31.980949155906522 30.0115
32.004291031706956 29.9427
32.027453310562606 29.8504
32.05061693318573 29.7322
32.07396288236386 29.8063
32.09712920658542 29.7221
32.12029687812702 29.6255
32.14346589817093 29.5202
32.166817291729984 29.4061
32.18998902288583 29.4511
32.21316210610336 29.3063
32.23633654256711 29.1112
32.259693399663725 29.174
32.282870556771144 29.1222
32.30604907069099 29.1971
32.329228942610065 29.0369
32.35259128243769 28.8588
32.375773884550505 28.8514
32.398957848235646 28.8743
32.422143174682176 28.8865
32.445511016471215 28.811999999999998
32.468699082679954 28.6864
32.49188851523011 28.5787
32.51507931531304 28.6233
32.538452678331 28.614
32.56164622776311 28.5197
32.58484114831493 28.4178
32.60803744118015 28.4543
32.631416344731896 28.4674
32.654615396551876 28.4585
32.67781582427913 28.3
32.701198898634416 28.336
32.72440209253756 28.2657
32.747606665947124 28.2521
32.77081262006088 28.093000000000004
32.79420126883317 28.1207
32.81740999876112 28.1011
32.840620112999424 27.9724
32.86383161274818 28.0275
32.88722585534586 27.976
32.91044014056596 27.9687
32.933655814909734 27.9512
32.95687287957963 27.9407
32.98027273544904 27.8214
33.00349259526636 27.7562
33.026713849030116 27.855999999999998
33.04993649794511 27.8495
33.073341986570746 27.7356
33.09656744032826 27.8496
33.11979429286444 27.7447
33.14302254538647 27.8862
33.166433686291185 27.8367
33.18966475336992 27.5345
33.212897224069096 27.513
33.23613109959831 27.5473
33.259547912343415 27.495
33.2827846121627 27.5463
33.306022720453775 27.4351
33.32926223842861 27.3845
33.352684742614166 27.4079
33.37592709463173 27.337
33.399170859982064 27.3513
33.422597648419426 27.2261
33.44584425514446 27.0789
33.46909227885668 27.07
33.4923417207723 26.9926
33.51577423505344 26.9249
33.539026528130385 26.9073
33.56228024307245 26.8548
33.585535381098246 26.7435
33.60897364093058 26.7068
33.63223163992385 26.697
33.6554910656699 26.656
33.678751919389796 26.6284
33.702195944520106 26.5282
33.72545966903325 26.5003
33.74872482519663 26.4801
33.771991414233746 26.4907
33.79544122444841 26.4906
33.81871069412428 26.3661
33.84198160035767 26.3265
33.86525394437455 26.3893
33.88870955949969 26.3041
33.911984794020626 26.298000000000002
33.93526147001624 26.17
33.958539588715006 26.135
33.98200102861669 26.1552
34.0052820477047 26.0419
34.02856451319451 25.9502
34.05203033759056 25.8712
34.07531571090147 25.9581
34.09860253431845 25.9207
34.121890809074316 25.9102
34.145362493118924 25.9079
34.16865368561615 25.7896
34.191946333164054 25.7208
34.21524043699793 25.7563
34.23871800066799 25.718000000000004
34.26201503218366 25.5858
34.28531352370466 25.5817
34.30861347646881 25.53
34.33209693978188 25.4449
34.3553998301885 25.5829
34.378704185565205 25.4215
34.402010007152356 25.3892
34.42549939016683 25.4196
34.44880815937748 25.3125
34.472118398533134 25.1693
34.49543010887669 25.2079
34.51892543169198 25.0929
34.54224009966052 25.070999999999998
34.56555624255917 25.0519
34.58887386163339 25.046
34.61237514439016 24.8971
34.6356957311114 24.959
34.65901779775809 24.8276
34.68252356662995 24.9108
34.705848608458616 24.8481
34.72917513396849 24.7922
34.75250314440949 24.7826
34.77601490857862 24.7046
34.799345904259795 24.6534
34.82267838863559 24.6997
34.846012362958525 24.5856
34.869530142679984 24.5688
34.89286711232212 24.52
34.91620557568269 24.4895
34.93954553401677 24.4471
34.9630693495876 24.3683
34.986412313340814 24.4034
35.00975677584668 24.3951
35.033102738362956 24.3912
35.05663261012228 24.3495
35.0799815881786 24.2391
35.10333207003229 24.1975
35.12668405694369 24.2136
35.150220005273056 24.2468
35.17357501786656 24.2049
35.19693153931268 24.2167
35.220289570874385 24.1605
35.24383161619786 24.1516
35.267192683604904 24.1177
35.290555264930376 24.0337
35.314101899412165 24.0493
35.33746752422433 23.965
35.36083466676374 23.9491
35.38420332829803 23.8837
35.407756095629054 23.9758
35.43112781085063 23.9466
35.45450104888391 23.9703
35.477875810999194 23.9827
35.50143473172161 23.7401
35.52481255774625 23.7726
35.54819191167777 23.6888
35.57157279478914 23.6934
35.595137889488406 23.7104
35.61852184675279 23.7164
35.641907337029984 23.6331
35.665294361595684 23.5859
35.68886565090076 23.5491
35.7122557598848 23.5672
35.73564740699838 23.4477
35.759040593519934 23.3923
35.78261809810353 23.3746
35.80601437933051 23.2756
35.829412203814705 23.2919
35.85281157283719 23.1987
35.876395313415884 23.2254
35.8997977874528 23.1608
35.92320180988546 23.0735
35.946790244133936 23.1094
35.97019737933222 23.1164
35.993606066789866 23.0792
36.01701630779276 22.9509
36.04061101440684 23.0072
36.06402437852291 22.9333
36.08743930005611 22.9563
36.1108557802951 22.7546
36.13445678011326 22.8235
36.15787639383515 22.8638
36.18129757014299 22.8201
36.20472031032821 22.7466
36.22832762423364 22.6233
36.25175350829375 22.6667
36.275180960119776 22.5017
36.298609981005924 22.6104
36.32222362992669 22.6461
36.34565580510207 22.5534
36.36908955323448 22.5014
36.39252487562093 22.4011
36.416144880530226 22.3913
36.43958336764275 22.4191
36.463023432914625 22.5027
36.486465077645676 22.3228
36.51009145956204 22.3347
36.53353627947859 22.4129
36.55698268276811 22.3028
36.58043067073321 22.2415
36.60406345072071 22.1273
36.62751462435344 22.2222
36.65096738658405 22.1948
36.67460498210655 22.0836
36.69806093788647 22.0962
36.72151848619297 22.0334
36.744977628333636 22.006999999999998
36.76862165890998 21.8766
36.79208400512205 21.921999999999997
36.81554794910557 21.9442
36.83901349217101 21.8471
36.862663978991606 21.7927
36.88613273667352 21.7707
36.90960309738324 21.7314
36.933075062434064 21.6397
36.95673202673572 21.6066
36.98020721697122 21.6342
37.003684015502365 21.5407
37.027162423645365 21.5069
37.050825886711465 21.5533
37.07430753063053 21.4996
37.09779078812467 21.4639
37.121275660513014 21.4165
37.144945643673694 21.4359
37.16843376245278 21.3944
37.19192350009803 21.4369
37.215414857931435 21.3223
37.239091382563885 21.230999999999998
37.262585997426164 21.2213
37.28608223645736 21.1826
37.309763684451696 21.1008
37.33326318851098 21.180999999999997
37.356764320726555 21.0681
37.380267082425526 21.0912
37.40395510942588 21.0679
37.42746114683234 21.0125
37.45096881771841 20.9588
37.474478123414166 20.9801
37.49817275092816 20.9246
37.52168534303452 20.8784
37.54519957395567 20.7337
37.568715445024665 20.7374
37.592416694607714 20.7526
37.61593586281424 20.7896
37.63945667518264 20.8111
37.66297913304891 20.7265
37.68668702630454 20.649
37.710212792059274 20.6055
37.733740207334854 20.5271
37.757269273470364 20.4754
37.780983832050374 20.4801
37.80451621684926 20.498
37.82805025654007 20.4911
37.851585952464795 20.3997
37.8753071980695 20.3574
37.89884622345676 20.2815
37.92238690911902 20.3054
37.94611318753442 20.2807
37.969657210779765 20.2423
37.99320289834801 20.2512
38.016750251586465 20.1415
38.04048325513017 20.1582
38.06403395679343 20.1304
38.087586328183946 20.0897
38.11114037065203 20.0464
38.13488012115898 20.0631
38.1584375229181 20.033
38.181996599821 19.9443
38.205557353221124 19.9409
38.229303872575656 19.927
38.2528679961576 19.9017
38.27643380031219 19.8445
38.30000128639589 19.7761
38.32375459653193 19.8034
38.34732546371299 19.7945
38.37089801690786 19.6596
38.39447225747609 19.6182
38.418232380377425 19.6357
38.441810012983396 19.6119
38.46538933705673 19.5972
38.488970353960084 19.5494
38.51273731166058 19.5305
38.536321731567014 19.545
38.55990784840681 19.4742
38.58367995004091 19.4828
38.60726947812959 19.4376
38.63086070726198 19.3279
38.654453638806274 19.3389
38.678232613930824 19.2705
38.70182896773327 19.1949
38.72542702806741 19.243
38.7490267963045 19.2622
38.77281266709232 19.1847
38.79641586862214 19.1644
38.8200207821842 19.0907
38.843627409152944 19.1233
38.86742019782782 19.0688
38.891030269149255 19.0328
38.914642058016156 19.0476
38.938255565806124 18.9247
38.96205529464307 18.8599
38.98567225787121 18.8721
39.00929094417078 18.8605
39.03291135492255 18.8497
39.05671804624804 18.8319
39.080341923549106 18.761
39.103967529460334 18.7445
39.127594865365744 18.6557
39.15140854155791 18.6634
39.17503935514948 18.6446
39.19867190290282 18.6649
39.22249083587951 18.6101
39.24612686969409 18.5966
39.269764641845306 18.5125
39.293404153722804 18.514
39.317230110864074 18.4804
39.34087311998506 18.414
39.36451787301696 18.4878
39.388164371352595 18.4394
39.41199737518003 18.3244
39.43564738196752 18.3727
39.45929913825317 18.2636
39.48295264543308 18.2653
39.506792718520884 18.2091
39.530449745387216 18.1831
39.55410852735203 18.1598
39.57776906581474 18.1626
39.60161623079 18.1151
39.625280300200025 18.141
39.64894613032202 18.0219
39.67261372255866 18.082
39.6964680021016 18.0604
39.72013913657293 18.0325
39.74381203738292 17.9825
39.76748670593756 17.9154
39.79134812278169 17.9402
39.81502634488497 17.8505
39.83870633896685 17.8313
39.862388106436654 17.8596
39.88625668336918 17.8366
39.90994201572829 17.8583
39.933629125719285 17.7431
39.957503091207826 17.7089
39.9811937746168 17.7254
40.00488623990914 17.6732
40.02858048850006 17.6147
40.05246165409549 17.602999999999998
40.076159487492085 17.5866
40.099859108448875 17.5981
40.123560518384345 17.51
40.1474489070226 17.4874
40.171153913178564 17.4158
40.194860712584955 17.4465
40.2185693066637 17.3976
40.242464941335314 17.3595
40.26617714307655 17.3915
40.289891143772046 17.3382
40.3136069448471 17.3055
40.33750984859743 17.1952
40.3612292688043 17.2596
40.3849504936829 17.2026
40.40867352466194 17.1932
40.43258372059144 17.1245
40.45631038219906 17.1833
40.48003885420956 17.0333
40.503769138055105 17.0669
40.52768664931955 17.085
40.55142057531802 17.0058
40.57515631746428 16.9606
40.599079334038514 16.9959
40.62281872700477 16.8877
40.64655994043941 16.8732
40.67030297578061 16.9546
40.69423334835778 16.8567
40.71798004609188 16.8376
40.74172857006355 16.8255
40.76547892171441 16.7852
40.7894166736039 16.7827
40.813170699248566 16.7378
40.83692655691388 16.7084
40.86068424804498 16.7168
40.884629402612525 16.6529
40.908390779366385 16.5851
40.932153993938 16.5885
40.95591904777605 16.5441
40.979871628443995 16.5772
41.003640379561936 16.5935
41.02741097430883 16.5595
41.05118341413683 16.4971
41.075143444384416 16.5346
41.098919593177826 16.4498
41.1226975914255 16.455
41.14647744058318 16.3647
41.170444943946755 16.3071
41.19422851378379 16.3051
41.218013938914645 16.2372
41.24198706625173 16.2033
41.26577622087193 16.2099
41.289567235177785 16.1382
41.31336011063129 16.1422
41.337340752422875 16.1043
41.361137369129835 16.1472
41.38493585138705 16.1506
41.40873620066004 16.0331
41.43272438060107 16.039
41.45652848292052 16.0115
41.48033445666918 15.9541
41.50414230331616 15.9466
41.528138045159764 15.9378
41.551949656675205 15.8713
41.575763145513235 15.8336
41.59957851314666 15.7802
41.62358184070442 15.7977
41.64740098505737 15.7928
41.6712220126409 15.7517
41.69504492493139 15.7622
41.71905586207357 15.7155
41.74288256296395 15.6778
41.766711153007456 15.6621
41.79054163368412 15.6261
41.814560204340054 15.5751
41.838394485526365 15.5747
41.86223066180303 15.5182
41.88625497706819 15.4822
41.910094962812 15.5388
41.93393684811168 15.4873
41.95778063445365 15.4072
41.981812625263366 15.4045
42.00566023303407 15.3822
42.029509746323676 15.3743
42.05336116662236 15.3421
42.077400857069705 15.3013
42.10125611078846 15.3306
42.12511327600405 15.237
42.14897235421036 15.2226
42.173019768448455 15.228
42.19688269209613 15.1776
42.22074753323349 15.1595
42.24461429335818 15.1335
42.268669455600495 15.1201
42.292540073217886 15.1497
42.31641261433284 15.0865
42.34028708044675 15.0576
42.36435001496739 15.0216
42.38822835065557 15.0319
42.41210861586426 14.969000000000001
42.4359908120986 14.9489
42.46006154323262 14.9303
42.48394762115317 14.886
42.507835634632315 14.880999999999998
42.531912233047436 14.8699
42.55580413732265 14.8472
42.579697981698 14.8104
42.60359376768525 14.7688
42.62767820545945 14.6854
42.65157789440821 14.7554
42.67547952952185 14.7098
42.699383112316 14.698
42.72347541395347 14.6333
42.74738291190531 14.6475
42.771292362102166 14.6197
42.795203766063516 14.6239
42.819303956130405 14.5696
42.843219287476536 14.5374
42.86713657716324 14.4784
42.89105582671383 14.415999999999999
42.91516392983864 14.4229
42.939087119032166 14.4159
42.963012272677304 14.3921
42.98693939230129 14.4103
43.01105543317513 14.3394
43.034986504731386 14.3065
43.05891954686589 14.245999999999999
43.08285456110972 14.2733
43.10697856448665 14.2184
43.130917542983475 14.2054
43.15485849820081 14.2001
43.17880143167367 14.1708
43.20293342237094 14.1201
43.226880332449 14.0638
43.25082922540554 14.1237
43.27496722682525 14.0756
43.29892010567796 14.0517
43.32287497204102 14.0106
43.34683182745632 13.9745
43.370977859791836 13.9861
43.39493871351105 13.956
43.41890156092628 13.9753
43.44286640358341 13.8983
43.46702049182749 13.8852
43.49098934522816 13.828
43.51496019852649 13.857999999999999
43.5389330532723 13.8705
43.56309522248204 13.8244
43.58707210044314 13.7521
43.61105098451946 13.7144
43.63503187626491 13.699000000000002
43.659202151562134 13.7044
43.68318707902681 13.6653
43.70717401884041 13.6384
43.731162972560874 13.6267
43.75534137913236 13.5861
43.779334381108384 13.5954
43.803329401683186 13.536
43.82732644241872 13.5217
43.8515130055166 13.519
43.87551410707659 13.4683
43.89951723350145 13.4301
43.923709934595614 13.4599
43.94771713129917 13.4193
43.97172635758096 13.4219
43.99573761501002 13.3719
44.0199385169922 13.4006
44.04395385732619 13.3448
44.067971233533086 13.3059
44.09199064718605 13.3088
44.11619977548961 13.2726
44.14022328470671 13.2165
44.16424883610785 13.1935
44.18827643127035 13.2125
44.21249381139513 13.1389
44.236525514814076 13.1302
44.26055926674478 13.1267
44.28459506876863 13.1025
44.3088207262813 13.0874
44.33286064928722 13.0789
44.35690262714919 13.0316
44.38094666145278 12.9949
44.4051806219871 13.0074
44.42922879003185 12.9471
44.45327901929361 12.9083
44.477331311362136 12.8682
44.501573600619416 12.8344
44.525630039221795 12.8365
44.54968854541895 12.812999999999999
44.573937102200176 12.7833
44.5979997645541 12.7779
44.622064499300315 12.7467
44.64613130803592 12.7254
44.67038823869318 12.7578
44.69445921643748 12.6799
44.718532272981385 12.6156
44.742607409926194 12.6038
44.76687274034801 12.6757
44.79095205918753 12.6129
44.81503346325094 12.6216
44.839116954143876 12.6037
44.86339071028742 12.5833
44.88747839599524 12.5279
44.91156817336837 12.4618
44.93566004401666 12.4945
44.959942251908146 12.4621
44.984038330325966 12.4382
45.00813650686762 12.3668
45.03223678314731 12.3949
45.05652746888232 12.4129
45.08063196592069 12.3363
45.104738567558705 12.3061
45.128847275414856 12.2978
45.15314646515866 12.2249
45.17725940679741 12.2568
45.20137445952892 12.252
45.22568004865265 12.2024
45.24979934496396 12.1739
45.27392075725247 12.1414
45.29804428714431 12.1393
45.322358426247604 12.1079
45.346486212804315 12.0903
45.370616121861914 12.0903
45.39474815505086 12.0668
45.41907087049246 12.0275
45.4432071734666 12.0294
45.46734560548283 12.0187
45.49148616817604 11.9941
45.51581748638564 11.964
45.5399623320197 11.9105
45.56410931325473 11.9345
45.58825843173002 11.9209
45.61259837920865 11.8467
45.636751793816 11.8797
45.66090735060093 11.8278
45.68506505120716 11.8059
45.7094136545275 11.7686
45.73357566449271 11.7681
45.75773982322992 11.7597
45.78190613238733 11.6602
45.806263418194064 11.6534
45.83043404997326 11.725
45.85460683713677 11.6396
45.87897065658495 11.6597
45.90314777634752 11.6545
45.92732705646868 11.6081
45.9515084986045 11.5869
45.97588104735473 11.6011
46.00006683541565 11.5607
46.02425479047904 11.4822
46.04844491420549 11.4941
46.0728262191024 11.5225
46.09702070211635 11.4287
46.12121735879483 11.4446
46.14541619080294 11.422
46.169806278764455 11.4278
46.194009483459034 11.3752
46.21821486849841 11.3194
46.24242243555223 11.332
46.266821333570014 11.3404
46.29103328674601 11.265999999999998
46.31524742696538 11.3042
46.33946375590237 11.2806
46.36387149104216 11.2722
46.38809221957392 11.1818
46.41231514186606 11.2329
46.436540259597464 11.1844
46.460956858999374 11.1439
46.48518638983522 11.1291
46.509418121166966 11.1155
46.533652054678114 11.1188
46.55807754555709 11.075
46.58231590571962 11.0745
46.60655647313217 11.0548
46.630988654873654 11.0002
46.655233659129024 10.9543
46.67948087571551 10.9729
46.70373030632484 10.9093
46.72817142736393 10.9094
46.752425308428684 10.8745
46.77668140861147 10.8703
46.80093972960865 10.86
46.82538981736788 10.8716
46.849652602470904 10.8062
46.87391761349769 10.7829
46.8981848521493 10.762
46.9226439341274 10.7762
46.946915650573224 10.7082
46.97118959976749 10.722000000000001
46.99546578341598 10.6848
47.019933887188216 10.6664
47.04421456235744 10.665
47.06849747711879 10.6565
47.09278263318286 10.6132
47.11725978640143 10.5634
47.14154944775105 10.5909
47.165841355555656 10.5507
47.1901355115306 10.5053
47.214621741924994 10.5572
47.23892041698887 10.505999999999998
47.26322134538975 10.4895
47.28771440635075 10.4399
47.31201986422527 10.4789
47.33632758061436 10.4551
47.360637557241866 10.4117
47.38513974410611 10.4094
47.40945426407847 10.3873
47.43377104948137 10.3753
47.45809010204344 10.3465
47.48260144275502 10.3525
47.506925052572285 10.2952
47.53125093475548 10.2702
47.55557909103813 10.2525
47.58009961361992 10.222000000000001
47.60443234110732 10.2128
47.62876734791564 10.1797
47.65310463578333 10.1783
47.6776343683373 10.1637
47.7019762413987 10.1189
47.72632040075572 10.0978
47.75066684815169 10.1075
47.77520581885936 10.0888
47.799556865477655 10.0651
47.823910205386 10.0586
47.84826584033272 10.0343
47.87281407745551 10.0089
47.89717432569297 10.0067
47.92153687423484 10.0132
47.94609208429692 9.93867
47.97045925671401 9.90438
47.99482873471275 9.9263
48.01920052005013 9.914019999999999
48.04376504619224 9.915519999999999
48.068141469543484 9.87778
48.09252020552573 9.85275
48.11690125590099 9.844619999999999
48.1414751266064 9.82065
48.16586082917454 9.78951
48.19024885144316 9.74673
48.2146391951793 9.78128
48.239222439012764 9.75113
48.26361744916137 9.71413
48.28801478610016 9.67661
48.31241445160131 9.66883
48.337007097209366 9.669089999999999
48.36141144338331 9.69152
48.38581812345755 9.66665
48.41022713920929 9.66428
48.434829215320704 9.63638
48.45924292604658 9.62027
48.48365897780325 9.612160000000001
48.50807737237308 9.54635
48.532688907799276 9.57044
48.55711201168574 9.55161
48.581537463754074 9.483089999999999
48.60615611725119 9.524289999999999
48.63058628942721 9.47363
48.65501881516546 9.48086
48.6794536962573 9.464369999999999
48.70408185970339 9.46043
48.72852147531801 9.39216
48.75296345168211 9.38875
48.77740779059232 9.356710000000001
48.80204549302823 9.35277
48.82649458091802 9.34158
48.85094603676547 9.32428
48.87539986237231 9.29175
48.90004713292306 9.285169999999999
48.92450572200832 9.26701
48.94896668628025 9.21307
48.97343002754588 9.21205
48.99808689542115 9.218960000000001
49.02255501470614 9.2377
49.04702551642794 9.16898
49.0714984023988 9.14777
49.096164896893235 9.14891
49.120642575466796 9.11655
49.145122643748394 9.11634
49.16960510355558 9.07372
49.19428125404938 9.07811
49.2187685210852 9.04703
49.243258185121555 9.015089999999999
49.26794160167084 9.024939999999999
49.2924360839405 9.04342
49.31693296869764 8.9703
49.34143225776915 8.95311
49.36612538195438 8.96095
49.39062950396021 8.94598
49.41513603578346 8.92036
49.4396449792564 8.94773
49.46434784069503 8.89738
49.488861631846454 8.858080000000001
49.513377840166804 8.833060000000001
49.537896467493745 8.7859
49.56260909589029 8.77542
49.587132585683285 8.81582
49.611658500018365 8.78757
49.636186840738596 8.77706
49.66090926588511 8.77176
49.685442483902584 8.73353
49.70997813385706 8.666139999999999
49.734516217597076 8.71678
49.75924846937352 8.68392
49.7837914452858 8.6327
49.80833686055187 8.60565
49.83288471702571 8.6432
49.85762682540054 8.63348
49.882179588965734 8.560210000000001
49.9067347993235 8.53585
49.93129245833333 8.53374
49.95604445336378 8.53503
49.98060703442832 8.51975
50.005172069746266 8.50346
50.02993150438364 8.49117
50.05450147301533 8.497689999999999
50.07907390151433 8.46522
50.10364879174981 8.4797
50.12841816587289 8.435089999999999
50.1529980044635 8.43244
50.17758031042124 8.41346
50.20216508562089 8.412469999999999
50.22694442953363 8.368839999999999
50.25153416817468 8.30909
50.27612638170508 8.30565
50.300721072005196 8.30371
50.325510416102105 8.29149
50.350110084975064 8.320969999999999
50.37471223628208 8.29785
50.39931687190919 8.23652
50.424116246675766 8.2289
50.44872587605249 8.20912
50.47333799543065 8.2109
50.49795260670191 8.2136
50.52276204271512 8.17196
50.54738166295838 8.15618
50.57200378079314 8.1635
50.596628398116835 8.1188
50.62144792604559 8.087489999999999
50.646077567609396 8.07789
50.670709714377715 8.08403
50.69553683636198 8.0773
50.72017401885922 8.051839999999999
50.7448137122895 8.0158
50.76945591856022 8.00816
50.79429318636823 8.00555
50.818940443716784 7.98942
50.84359021965163 7.965910000000001
50.868242516085964 7.9401
50.893089960641895 7.915589999999999
50.917747323549435 7.91153
50.94240721271973 7.89825
50.96706963007175 7.8655100000000004
50.99192728239342 7.882339999999999
51.01659478166073 7.8979
51.04126481489051 7.86005
51.06593738400761 7.82065
51.090805275207074 7.802169999999999
51.11548294172845 7.80282
51.14016314993547 7.762810000000001
51.164845901758845 7.74985
51.18972406304274 7.76202
51.21441192780656 7.732260000000001
51.23910234200271 7.736210000000001
51.2637953075678 7.710319999999999
51.288683770237945 7.66335
51.31338186432707 7.64812
51.33808251561888 7.63495
51.362978729967345 7.6461
51.387684521509755 7.642410000000001
51.41239287610203 7.613289999999999
51.437103795691165 7.5780899999999995
51.46201036644977 7.603739999999999
51.486726441956634 7.533710000000001
51.51144508832545 7.5434399999999995
51.536166307509156 7.50731
51.56108326624387 7.50545
51.58580965706056 7.48963
51.61053862657523 7.49605
51.635270176746864 7.458539999999999
51.66019755512065 7.455830000000001
51.68493429268881 7.430510000000001
51.70967361681515 7.3878699999999995
51.73441552946465 7.38961
51.759353359237934 7.42975
51.7841004750961 7.39078
51.80885018539685 7.42815
51.833602492111254 7.33502
51.8585508051424 7.365819999999999
51.883308330926425 7.327610000000001
51.90806845906181 7.287539999999999
51.932831191525715 7.30932
51.95779001977161 7.260730000000001
51.98255798721516 7.21248
52.00732856494335 7.232939999999999
52.03229530577543 7.22087
52.057071130455945 7.2205699999999995
52.081849571391054 7.22093
52.106630630568695 7.20184
52.13160794279417 7.17523
52.15639426492067 7.149560000000001
52.18118321127822 7.135510000000001
52.205974783860896 7.10905
52.23096269971011 7.085719999999999
52.255759551287994 7.06849
52.280559035098186 7.099019999999999
52.30536115314103 7.0583100000000005
52.33035970494467 7.032710000000001
52.35516711807904 7.04985
52.37997717147198 7.03925
52.40478986713005 6.99843
52.42979908731974 6.9626399999999995
52.454617094216 6.96285
52.47943774942214 6.972989999999999
52.50426105495102 6.94285
52.529280976059844 6.9230100000000006
52.554109609024096 6.93653
52.57894089837482 6.87581
52.60377484613117 6.8981699999999995
52.62880550079408 6.894369999999999
52.65364479223379 6.86205
52.67848674816189 6.8357
52.70352547971946 6.82722
52.72837279155837 6.79588
52.753222773982785 6.80635
52.778075429022984 6.782710000000001
52.80312495150885 6.78622
52.827982978797436 6.76025
52.85284368481815 6.76395
52.87770707160767 6.705019999999999
52.90276741793998 6.74655
52.92763619336701 6.71068
52.952507655698504 6.714919999999999
52.977381806977576 6.72087
53.00245301017842 6.71518
53.02733256653592 6.68295
53.052214817996074 6.667439999999999
53.077099766608484 6.62512
53.102181859804446 6.62573
53.127072229988265 6.66356
53.15196530349892 6.61108
53.17686108239249 6.5847
53.20195409881522 6.55042
53.22685531582556 6.575660000000001
53.25175924441303 6.51577
53.27666588664027 6.5127
53.30176985962693 6.45656
53.3266819565689 6.44991
53.35159677336455 6.45788
53.376514312083096 6.43614
53.40162927507703 6.43562
53.42655228516116 6.449
53.45147802340193 6.4032800000000005
53.47660125628886 6.42207
53.50153247842639 6.40334
53.52646643496923 6.41863
53.55140312799818 6.38957
53.576537409691696 6.397869999999999
53.60147960336152 6.35591
53.626424539786164 6.31146
53.65137222105307 6.2695099999999995
53.67651758529126 6.3017
53.70147078399681 6.27556
53.72642673383343 6.277830000000001
53.75138543689533 6.241219999999999
53.776541917524526 6.23346
53.801506154876755 6.2028099999999995
53.826473151763246 6.19455
53.851442910284916 6.21649
53.87661054126026 6.18883
53.9015858509782 6.14302
53.92656392866066 6.12041
53.95154477641532 6.1231599999999995
53.976723591801296 6.09741
54.00171000771266 6.13232
54.02669920004598 6.10936
54.051691170915745 6.08371
54.076881204886796 6.06519
54.101878760928514 6.043740000000001
54.12687910187696 6.0591
54.152077577768296 6.01494
54.1770835166946 6.0003400000000005
54.20209224691339 6.00534
54.22710377055121 5.96402
54.25231352511594 5.956230000000001
54.27733066384342 5.92234
54.30235060239643 5.9391099999999994
54.32737334290836 5.96456
54.35259441062629 5.88226
54.377622783395324 5.840380000000001
54.40265396455061 5.870369999999999
54.42768795623251 5.85907
54.45292037169559 5.83629
54.477960012857906 5.8482199999999995
54.50300247099511 5.81399
54.52804774825457 5.8169
54.55329154616743 5.77942
54.57834249018678 5.731669999999999
54.6033962597977 5.69516
54.6284528571545 5.70602
54.653708072335164 5.65574
54.67877035378786 5.65958
54.70383546947698 5.631469999999999
54.72890342156389 5.60865
54.7541700889442 5.65811
54.77924374251975 5.5839
54.8043202390049 5.54518
54.82959552413022 5.5279
54.8546777351945 5.5044
54.87976279569621 5.55208
54.90485070780914 5.54486
54.930137506558005 5.44054
54.95523115074295 5.49057
54.98032765308844 5.44315
55.005427015775496 5.43633
55.03072536339621 5.43661
55.05583047570572 5.3819
55.080938454927676 5.35334
55.10604930325027 5.30084
55.131359235107396 5.34933
55.15647585066083 5.34295
55.181595341907496 5.28679
55.20671771104285 5.23139
55.232039262617704 5.24458
55.25716741665048 5.25661
55.28229845518636 5.23423
55.30743238042802 5.15045
55.33276558731939 5.131869999999999
55.357905315183636 5.165019999999999
55.383047936390035 5.1241
55.40819345314859 5.06763
55.433538351073295 5.07532
55.458689688238415 5.05164
55.483843927614096 4.96813
55.509197623043605 5.00553
55.53435769621134 4.93645
55.55952067826466 4.91069
55.5846865714265 4.93693
55.61005202069737 4.94143
55.63522376553902 4.88125
55.66039842818645 4.80612
55.68557601087004 4.82076
55.7109532500271 4.84391
55.73613670233794 4.83023
