TT I
1.2716486653135266 7.99034
1.2939594142134223 7.240239999999999
1.3162702121660406 7.07223
1.3385810600174564 7.04772
1.3608919586137629 7.01616
1.383202908801069 6.47996
1.405513911425503 6.5076
1.4278249673332093 6.6680399999999995
1.4501343378461518 6.48515
1.4724455028545926 6.4883
1.4947567236847858 6.27237
1.517068001182951 6.26253
1.5393793361953272 6.0684
1.5616907295681737 5.63507
1.5840021821477681 6.06893
1.60631369478041 5.31096
1.6286252683124185 5.18135
1.6509369035901333 5.7537199999999995
1.6732468618895553 5.67212
1.695558623192809 5.39884
1.7178704487808514 5.46871
1.7401823395001077 5.26665
1.7625012545597203 4.83667
1.7848028405262486 4.68152
1.8071218901122095 4.6382
1.8294236121921872 4.50871
1.8517427996910911 4.97581
1.8740620574440425 5.17354
1.8963639900671978 5.3747
1.9186833908139995 5.52896
1.9409854680117449 5.37101
1.9633050151394713 4.98019
1.9856246367570705 5.308269999999999
2.0079269371922672 5.03558
2.03024671027244 4.89024
2.0525491637446027 4.79775
2.074869091674931 4.4765
2.097171701569106 4.4423900000000005
2.1194917877373847 5.09582
2.141811954326636 5.60802
2.164114805233074 5.42363
2.186435135143035 6.22769
2.208738150935709 12.6108
2.231058647554722 24.8397
2.2533792288321184 19.3299
2.275682498336085 9.03935
2.298003251406138 6.3636800000000004
2.3203066942619714 5.22485
2.3426276225136022 4.30241
2.3649486396617507 4.97262
2.387252348930071 5.19341
2.4095735463442893 4.4825099999999996
2.4318774374315884 4.63203
2.4541988185014043 6.18778
2.476502894794693 6.39709
2.498824462909887 5.38173
2.521146125856138 5.32217
2.5434504863470337 6.724060000000001
2.5657723414244717 6.293080000000001
2.588076895590662 6.59081
2.610398946189713 7.275530000000001
2.6327210958598384 6.575710000000001
2.6550259469304716 6.7716199999999995
2.6773482972090137 7.044510000000001
2.6996533504259 7.2265
2.7219759047039602 7.85215
2.744298562293959 7.743339999999999
2.7666039251246595 7.395519999999999
2.7889267918020164 7.1957
2.8112323652516555 7.669910000000001
2.833555444408179 7.85185
2.8558786311183852 8.44028
2.8781845268938557 8.31348
2.9005079311721484 8.78302
2.9228140460410397 8.92804
2.9451376712799635 8.82654
2.967444008632326 9.44547
2.9897678582247247 10.2193
3.0120918213106695 10.6576
3.0343984987899373 10.1806
3.0567226913198637 10.4911
3.079029599759726 11.6002
3.101354025127254 12.5386
3.123678568232338 12.8018
3.145985829517914 13.1926
3.16831061055229 13.3359
3.1906181112775593 14.7241
3.212943133635653 15.0964
3.2352682779763207 15.5854
3.2575761442691227 15.2252
3.2799015350264273 15.8434
3.302209649240067 16.3237
3.3245352898092655 17.0554
3.3468436553365257 17.3026
3.369169549113219 18.1212
3.3914955708171384 18.6446
3.413804319727358 19.1779
3.4361305997334863 19.6274
3.4584396084414553 20.2606
3.4807661501462652 20.7018
3.503092824025881 21.2901
3.5254022288463154 21.8016
3.5477291695206588 21.6489
3.5700388426251948 22.7017
3.5923660534916446 23.6084
3.6146934007816114 36.8797
3.637003482731501 80.6855
3.6593311053109985 88.5296
3.681641464033634 53.0326
3.7039693653009733 29.9886
3.726297407241705 26.5836
3.7486081875460804 26.4721
3.7709365132734978 26.4606
3.793247578841633 27.0006
3.8155761917550093 27.3612
3.8378875459837216 27.5574
3.8602164494827234 28.1874
3.882545499606844 28.9112
3.9048572932539183 29.2383
3.9271866390645718 29.6564
3.9494987298666713 30.5186
3.971828374764527 31.0194
3.9941581705403255 31.1392
4.016470713506008 32.0171
4.038800813471445 32.5407
4.061113662089144 33.3503
4.0834440696459176 34.1319
4.105774632334751 34.2873
4.128087945865126 35.3601
4.150418821249301 36.3995
4.172732448931298 37.8235
4.195063640413578 39.4508
4.2173775856475215 42.8575
4.239709096631102 71.6744
4.262040768704612 212.585
4.284355196706267 284.285
4.306687193387355 184.79
4.329001947444346 76.7019
4.35133427213731 48.5251
4.373666762177566 45.4917
4.395982011761091 45.5054
4.418314834921175 46.7573
4.44063041906622 53.5757
4.4629635787515625 62.8967
4.4852969080429785 63.1415
4.5076130004776225 55.0596
4.529946671403969 52.5205
4.552263106909177 52.9102
4.574597122877047 52.7794
4.596931312711224 53.7723
4.619248269273446 54.5299
4.6415828092605835 55.7069
4.663900117405352 56.8113
4.686235010953232 58.3824
4.708552674085913 59.6917
4.730887924602802 61.2869
4.753223354952695 62.6909
4.775541557023902 64.3558
4.797877349456786 65.7809
4.820195915032126 68.4231
4.842532072957498 69.4792
4.864868414979744 72.1552
4.88718753227192 74.4541
4.909524244902505 76.1341
4.931843734218147 77.7339
4.954180820867835 80.8707
4.976518095879839 84.0853
4.998838149695359 87.8893
5.021175803844231 91.6313
5.043496238205739 95.5691
5.065834274903528 100.49
5.088172504230693 106.75200000000001
5.1104935158799565 115.334
5.132832132875765 140.768
5.155153533596801 186.415
5.1774925416746225 244.30200000000002
5.199814334878411 544.575
5.2221537374521505 1488.35
5.244493338631803 3485.59
5.266815727034316 7280.72
5.289155727832427 11433.7
5.311478517248165 9216.04
5.333818921080011 3588.17
5.356159527788849 781.5010000000001
5.3784829252032536 231.015
5.400823940070432 164.00400000000002
5.423147747031976 140.649
5.445489173474152 127.661
5.467830807066149 121.405
5.490155234831516 115.82799999999999
5.512497285125229 111.34200000000001
5.534822130975162 109.109
5.557164601388673 106.678
5.579489868738879 103.669
5.601832762690846 102.588
5.6241758697774475 101.656
5.646501775867269 100.655
5.668845311622074 99.1179
5.691171647754637 98.3968
5.713515615597765 96.9054
5.735859800852677 96.1577
5.758186788542988 96.0074
5.780531411018185 96.4259
5.802858837297399 95.8835
5.825203900414495 96.3203
5.8475491852224 97.3625
5.869877275883075 97.6654
5.892223006467101 99.5002
5.914551544266608 101.57700000000001
5.936897724049891 106.242
5.959244129804903 114.80799999999999
5.981573344815301 146.684
6.0039202049061 289.925
6.026249875609095 621.565
6.04859719346037 1206.41
6.070927323278297 2255.09
6.093275102315365 4012.88
6.115623113320588 4750.52
6.137953938319995 3475.92
6.160302415650845 1243.39
6.182633708324452 301.165
6.2049826554078376 130.569
6.227331838745022 101.65899999999999
6.249663839443684 90.90799999999999
6.27201349767565 86.3583
6.294345974611799 90.9323
6.316696111167083 100.493
6.339046488263839 95.3995
6.361379686074702 81.5398
6.383730546639482 74.3845
6.406064229255215 71.3026
6.428415576718203 70.9456
6.450749747566656 69.7779
6.47310158535871 68.6193
6.495453669698332 67.3466
6.517788579421056 66.6033
6.540141159237969 65.5924
6.562476565766648 64.9116
6.5848296444934045 64.8528
6.607182974060425 64.6245
6.6295191323281015 64.3272
6.651872965955752 66.8208
6.6742096296068985 89.2276
6.6965639707294615 129.249
6.71891856698715 130.056
6.741255995248479 91.3109
6.763611104154477 68.6569
6.785949046381137 61.8505
6.808304671371482 60.1939
6.8306605557940046 60.1083
6.852999275508618 59.106
6.875355681171544 58.8611
6.897694923437771 58.3761
6.92005185377892 58.1016
6.9423916220322655 58.0963
6.964749080490181 57.2852
6.987106804399774 57.0186
7.009447368180821 57.0817
7.031805625367033 56.6787
7.054146723727803 57.1953
7.076505517631004 56.5486
7.098864581288365 56.9292
7.121206488070854 56.73
7.143566093607822 56.7439
7.165908543567245 57.1946
7.188268694426048 56.9171
7.2106291193438095 56.8193
7.232972390625943 58.0845
7.255333366030969 68.9511
7.277677189091925 115.713
7.300038718428332 156.13
7.322400526130865 133.86700000000002
7.344745183422596 86.5732
7.367107550224791 62.3281
7.389452767901992 57.6485
7.411815697249891 56.5329
7.434161478756298 55.4976
7.456524974096713 55.4865
7.478888753837185 55.3915
7.501235387657368 55.7794
7.523599738562711 56.1986
7.545946944825532 55.9777
7.568311870344528 56.6402
7.5906770845765665 56.7803
7.613025156078678 58.1007
7.635390950099687 59.4683
7.657739602662809 58.716
7.680105979923558 57.6985
7.702472650212829 57.7673
7.724822180948224 57.3496
7.747189439655568 57.4628
7.769539560075357 58.0681
7.791907410653562 58.0475
7.81425812420825 58.1967
7.836626570110925 58.4364
7.858995315087906 59.2857
7.881346924933401 59.4754
7.903716270417482 59.8055
7.926068482028405 60.176
7.948438431475253 60.7327
7.9708086843180235 61.6451
7.993161805171116 62.05
8.015532667162402 62.3308
8.037886398416653 63.8138
8.060257873014221 64.1374
8.082629655331942 64.8439
8.104984308787587 65.6608
8.127356708900503 68.765
8.149711981398308 74.0921
8.172085002766314 76.3148
8.194458336181368 73.3289
8.216814543847752 71.2538
8.23918850371002 71.5615
8.26154533906492 72.1699
8.283919928836452 74.1917
8.306277395339652 75.49
8.328652618483376 76.8573
8.351028159736202 78.6546
8.373386579575245 81.3123
8.395762759396959 83.6352
8.418121819038275 88.7307
8.440498640894003 102.045
8.462875785192262 117.588
8.485235811156207 140.372
8.507613602688501 207.108
8.529974277114228 323.54900000000004
8.552352719347912 474.195
8.574731488360351 727.495
8.59709314210385 1150.51
8.619472567021075 1688.2
8.64183487789147 2120.83
8.664214962183097 1874.73
8.686577933647762 1103.97
8.708958680784317 450.664
8.731339760774953 187.295
8.753703729764451 120.023
8.77608547780821 105.088
8.798450116065078 100.25299999999999
8.820832535634787 96.4937
8.843215292401656 94.4815
8.865580941199045 92.9697
8.887964374703538 91.8903
8.910330701447199 92.3546
8.932714815164482 94.1004
8.955099270424924 93.303
8.977466620733543 90.2934
8.999851761421976 87.8026
9.022219798361645 86.3391
9.04460562795561 86.0646
9.066991803441677 85.5706
9.089360876979615 85.6302
9.111747746589993 85.1301
9.13411751544971 84.4308
9.156505082664324 84.2475
9.178875550323522 84.5938
9.20126381862328 84.5493
9.223652438908596 85.1367
9.246023961427412 84.8147
9.26841328802173 84.1883
9.290785518039224 84.2724
9.313175554425882 85.5485
9.335565947154315 85.6787
9.357939245086508 85.8755
9.380330352834827 85.6217
9.40270436697103 85.9165
9.425096193225055 85.6422
9.447488380180165 86.6138
9.469863475295412 86.5738
9.492256385987508 87.0851
9.514632206018318 87.8517
9.537025843935714 87.9023
9.559402392368193 88.8809
9.581796761000229 90.1535
9.604191496441521 91.2506
9.626569144158516 94.4549
9.648964615551032 98.3686
9.671343000390081 100.169
9.693739211225699 98.6138
9.716135793237463 96.541
9.738515290448102 96.1995
9.760912617143402 97.3745
9.783292860202891 98.5235
9.805690935076182 99.9307
9.828089385495742 101.001
9.850470754023561 103.76799999999999
9.872869957865444 111.012
9.89525208097539 124.82799999999999
9.917652041736662 137.181
9.940052382417589 141.18
9.962435644102392 162.10299999999998
9.984836746950979 217.00400000000002
10.007220771957746 298.985
10.029622640473708 415.99699999999996
10.052007432299963 593.335
10.074410069984072 839.331
10.096813093716005 1188.43
10.119199042482517 1622.25
10.141602840636468 1884.43
10.163989564971628 1706.25
10.186394141051062 1071.21
10.208799107559706 494.29
10.231187001965623 228.952
10.253592751657669 139.972
10.275981430388155 119.443
10.298387966769793 116.86
10.320794897965431 118.111
10.343184759907361 116.912
10.36559248305461 112.09299999999999
10.387983138083852 109.616
10.410391656691655 115.59
10.432800574501677 132.046
10.455192425893369 153.42600000000002
10.47760214443012 181.02599999999998
10.499994797678786 223.044
10.522405320453982 288.089
10.54479877906917 379.903
10.567210109595656 479.462
10.5896218454736 546.045
10.612016518879773 523.751
10.634429067781074 376.079
10.656824555333241 222.398
10.679237920773568 133.08700000000002
10.701651695961992 100.569
10.724048411481384 92.5106
10.746463008485165 89.5224
10.768860546937125 87.8342
10.791275969274796 85.9474
10.81369180576079 84.7096
10.836090585366925 83.3637
10.858507252467449 82.3555
10.88090686379991 81.0761
10.903324365036394 80.7664
10.925724811614439 80.4227
10.948143150509463 81.8533
10.970561909719066 80.5771
10.992963615930844 78.9714
11.015383218085756 77.0827
11.037785768347074 75.3552
11.06020621697282 74.6392
11.082627090322113 74.1908
11.105030913430326 74.0469
11.12745263854165 74.3706
11.149857314510728 77.1504
11.172279894912576 82.3302
11.194702904450653 82.7259
11.217108866490921 79.1235
11.239532736615194 75.0523
11.26193956033512 73.2027
11.284364294577085 71.8645
11.306789462371718 70.3163
11.329197585398376 69.2668
11.351623622610898 68.792
11.37403261614354 68.1062
11.396459526308487 67.9682
11.418869393879497 67.0798
11.441297180532617 66.9801
11.463725406927658 66.8988
11.486136592353875 66.5756
11.508565700543707 66.8991
11.530977768845315 68.5322
11.553407762368774 69.2083
11.575838200059769 68.7976
11.598251599479612 66.9634
11.620682927815501 65.5088
11.64309721895548 65.3342
11.665529441478206 65.0579
11.687962112597958 64.6205
11.710377748130886 64.8902
11.732811318753434 64.98100000000001
11.755227854859067 64.8177
11.777662328529495 64.5856
11.800079768750786 64.5097
11.822515149015453 64.2324
11.844950984084935 64.6309
11.867369787303163 64.2268
11.889806534289491 64.292
11.912226250487029 64.6777
11.934663912939751 64.8165
11.9571020346363 64.9167
11.979523127133968 64.9652
12.001962169624331 65.9475
12.024384183972964 67.7054
12.046824150809913 72.5468
12.069264581333726 78.8422
12.091687985297767 85.6078
12.11412934550045 94.5977
12.136553680195208 108.34
12.158995973632788 126.133
12.181438735204349 149.184
12.20386447284199 176.343
12.226308172985636 200.554
12.24873485024193 207.497
12.271179492516982 179.201
12.293607112949127 135.541
12.316052700916226 101.825
12.338498763250042 81.3258
12.360927805303868 72.3132
12.383374818673879 68.5516
12.405804812803074 66.6106
12.428252780773262 66.3337
12.45070122756722 66.1053
12.473132656675375 66.0252
12.49558206341869 66.4694
12.518014453510101 66.4585
12.540464823770117 66.6458
12.562915677315177 66.5965
12.58534951575545 67.1362
12.607801338171472 68.843
12.630236146511358 73.6815
12.652688941369085 77.9935
12.675124723177234 78.4475
12.697578494048786 75.2801
12.720032754458185 71.23100000000001
12.742470003354093 69.7243
12.764925245138771 69.9512
12.787363476431278 70.1416
12.809819703166806 70.3001
12.83227642391173 71.1282
12.854716135692716 71.7955
12.877173846755147 73.2324
12.899614549869717 73.2713
12.9220732548287 74.1289
12.94453245827299 74.5641
12.966974655289818 75.5068
12.989434858002571 76.6702
13.011878055298721 77.3138
13.034339260862497 78.3383
13.056800969391883 79.7074
13.079245674017244 82.2342
13.101708390774869 85.9265
13.12415410463411 95.9643
13.146617833206086 110.744
13.169064559883248 124.65
13.191529303857127 141.251
13.213994557076367 163.384
13.236442809902437 196.1
13.258909083908291 240.265
13.28135835851934 291.244
13.30382565690295 348.64099999999996
13.326293469022952 405.14599999999996
13.348744283242008 429.004
13.371213125129904 381.126
13.39366497011003 287.246
13.416134845360597 191.986
13.438605238843131 134.14700000000002
13.46105863690397 114.61399999999999
13.483530069144786 115.385
13.505984506951902 122.001
13.528456981549432 133.477
13.550929978879088 148.38299999999998
13.573385983253365 169.077
13.595860028340867 200.75099999999998
13.618317081455832 238.679
13.64079217790333 284.1
13.663250283359057 329.00800000000004
13.685726434770173 358.079
13.708203115221277 344.963
13.730662806148091 281.35200000000003
13.75314054697177 204.313
13.775601299246777 139.405
13.798080104050406 103.536
13.820559442405358 89.1043
13.843021793671388 84.5518
13.865502201420897 82.7914
13.887965623051947 82.2386
13.910447103807167 81.2552
13.932929122629764 79.6812
13.955394156785959 78.8834
13.977877254034569 78.0486
14.000343367582113 77.1582
14.022827546871707 76.6727
14.045294743423524 75.9213
14.06778000837062 75.3976
14.090265817715476 75.348
14.112734645763819 74.6857
14.13522154619454 74.5445
14.157691466286913 74.5355
14.180179461423874 74.3573
14.202668005486178 73.831
14.22513957064374 72.7313
14.247629214846473 72.4799
14.270101881097517 72.4109
14.29259262906496 72.7371
14.315083930490205 73.4635
14.337558255389705 73.3886
14.360050666019726 73.1358
14.382526101071944 72.1664
14.405019624534942 71.3845
14.427513705993134 70.9341
14.449990813291825 71.0572
14.47248601302899 70.8848
14.49496423954951 71.0939
14.517460561197822 70.8693
14.539939910570322 70.9576
14.562437357763558 71.0166
14.58493536931253 72.0732
14.607416409993311 72.9278
14.62991555254159 73.7387
14.652397725157423 73.8058
14.674898002342799 73.5044
14.697398848433282 72.8798
14.719882725991326 73.7004
14.74238471217934 75.5677
14.764869730765593 80.2512
14.787372860692983 84.7146
14.809876564079925 90.1911
14.83236330125751 96.4552
14.854868153850365 105.208
14.877356041159485 117.367
14.899862046604186 132.326
14.922351087688757 152.08100000000002
14.944858249632887 174.187
14.967365991421232 198.582
14.989856770231246 216.926
15.012365673994204 219.391
15.03485761569738 195.727
15.05736768508665 157.83
15.07987833888692 121.714
15.102372032001655 95.236
15.124883856909658 80.2019
15.14737872204565 74.8176
15.169891721717274 72.7722
15.192405310371893 72.6699
15.214901940621196 73.1278
15.237416709527137 73.0197
15.259914520936249 73.111
15.282430473753607 71.9775
15.304947020131227 70.8089
15.327446610371178 69.9805
15.349964346154254 69.259
15.372465126703139 69.0134
15.394984055556009 68.5784
15.417486030076159 68.3855
15.44000615566487 68.0739
15.462526881230803 68.1233
15.485030653812652 68.4117
15.507552581617434 68.3561
15.530057557334603 68.3716
15.55258069104857 68.2746
15.575104429329837 68.337
15.597611216864632 68.1115
15.620136166564563 68.4762
15.6426441664095 70.1287
15.665170331202765 73.5163
15.687697105158826 77.545
15.710206930593545 81.8127
15.732734925158933 86.3095
15.755245972089478 92.3133
15.77777519094324 101.01700000000001
15.800287463046663 112.149
15.822817909869592 126.861
15.84534897229804 143.362
15.867863089299354 162.739
15.890395385222186 180.774
15.912910736597423 193.428
15.935444269699861 191.643
15.957978423016485 167.546
15.980495633101265 134.961
16.003031029129367 104.35799999999999
16.02554948280019 81.5443
16.048086125229432 70.8956
16.070623392487107 67.4465
16.09314371869582 66.3749
16.11568223789321 65.3975
16.13820381691126 64.3727
16.160743591742527 63.4255
16.183283996022084 62.4771
16.205807461423195 61.263999999999996
16.228349126881973 60.6855
16.25087385432698 60.6326
16.27341678466365 60.1186
16.29594277784926 59.9563
16.31848697676433 60.1489
16.341031811604868 60.4425
16.36355971058487 60.6781
16.3861058195587 60.5864
16.40863499352978 59.5264
16.431182380342005 58.5932
16.453730407713202 58.1607
16.476261501364792 57.6411
16.498810812136167 57.0464
16.52134319004079 57.2794
16.54389378792203 57.2464
16.566445031001553 56.9647
16.588979342490088 56.9263
16.61153187824822 56.7909
16.634067483263312 56.6143
16.656621315414416 56.4771
16.679175797408888 56.3112
16.701713349928728 56.4281
16.72426913389191 56.5039
16.74680798922351 56.5401
16.76936507887444 56.6573
16.791905240734874 56.7956
16.814463639794468 56.4258
16.837022695210294 56.6124
16.859564824093756 56.7931
16.882125194503903 57.5534
16.904668639217885 58.0903
16.927230328348003 58.2436
16.949792678493612 58.5365
16.972338104193863 57.7513
16.994901778652235 57.3259
17.017448529496576 57.5986
17.040013531998152 57.7414
17.06257920018044 58.5175
17.0851279459922 59.592
17.107694947817667 60.5888
17.130245028099072 61.4154
17.15281336730298 62.7296
17.17536478578733 64.3636
17.19793446610687 66.5168
17.220504818648422 68.8797
17.243058251703697 71.2454
17.265629950971032 74.7562
17.288184731571736 78.5649
17.310757781306908 83.155
17.33333150794385 84.7735
17.355888317140174 84.1761
17.37846339986244 80.3485
17.401021565958885 74.4013
17.42359800851343 68.3575
17.44617513265564 64.5664
17.468735341390783 62.196000000000005
17.491261035594565 61.0484
17.51396340099364 60.8013
17.536490463869136 60.9681
17.559018209820174 61.0476
17.58154663977963 61.0479
17.604251766089718 61.3048
17.626781572227713 61.4458
17.64931206518155 61.5214
17.671843245885103 62.082
17.69455114821572 62.4125
17.717083712612634 62.7515
17.739616967569667 62.9088
17.762150914021706 63.222
17.78486160749854 63.2073
17.807396945166804 64.1628
17.829932977143503 65.2866
17.85246970436452 67.4517
17.875183204129467 69.9651
17.897721330097664 72.5058
17.920260154126645 74.9545
17.942799677153296 78.1532
17.9655159983646 81.7735
17.988056927677544 86.585
18.010598558807683 93.1472
18.033140892692916 101.096
18.05586005052525 109.47399999999999
18.07840379824407 119.068
18.10094825154059 129.47799999999998
18.12366954819864 139.778
18.146215420998306 144.283
18.16876200220057 139.031
18.191309292745153 126.15
18.214033452627167 112.166
18.236582170236648 98.4006
18.259131600016456 90.8313
18.281681742907335 89.1157
18.304408781233683 91.2325
18.32696035875955 94.8636
18.349512652227624 99.0436
18.372065662579683 104.50399999999999
18.394795594587553 107.405
18.41735004715306 106.464
18.43990521943684 100.10700000000001
18.46246111238171 91.4997
18.485193953325208 81.1542
18.507751296070428 72.9926
18.530309362314178 68.4081
18.552868153000343 65.482
18.57560391815056 64.1894
18.59816416623245 63.7167
18.620725141597372 63.2502
18.643286845190268 62.7035
18.666025549835414 62.3662
18.688588718427933 61.879
18.711152618092243 61.6615
18.73389353884365 61.4162
18.75645890921984 60.8801
18.77902501351406 60.5397
18.801591852673102 60.4212
18.824335739722738 59.9551
18.846904057212626 59.7596
18.8694731124168 59.6255
18.89204290628315 59.5995
18.914789774966803 59.3818
18.937361054791623 59.2197
18.959933076131318 58.8313
18.982505839934877 58.7436
19.00525570560582 58.9392
19.027829963004184 58.7074
19.05040496572238 58.9467
19.072980714710468 58.8484
19.095733592739563 59.3195
19.11831084296757 59.4965
19.140888842324735 60.1366
19.16346759176222 60.5551
19.18622349753803 61.1641
19.208803755869358 61.8671
19.231384767143577 62.8915
19.253966532312948 64.1853
19.276725481241822 66.0213
19.29930876296784 67.7732
19.3218928014549 70.2238
19.34465404436217 72.9679
19.36723960516257 75.5586
19.389825925592426 77.5523
19.412413006605938 77.7438
19.43517731967805 75.0974
19.457765930683355 70.9341
19.48035530514408 66.1384
19.50294544401556 62.18
19.525712842708348 58.9458
19.54830451925909 57.2911
19.570896963095727 56.1901
19.593490175174704 55.6378
19.616260674962184 55.7866
19.638855432416964 55.2798
19.661450960992624 55.4262
19.68404726164677 55.2445
19.706820878021247 55.0716
19.729418731756834 55.4011
19.752017360452857 54.9405
19.77461676506804 55.3012
19.797393513540218 55.5035
19.819994478951667 55.8222
19.84259622316767 56.5025
19.8651987471481 56.9014
19.887978643247177 57.2682
19.91058273574792 57.6152
19.933187610901943 58.4232
19.955969879466828 59.4082
19.97857632894404 60.8276
20.00118356396599 62.077
20.023791585494575 63.6805
20.046577028914875 65.7884
20.069186632506966 67.6672
20.091797025500632 69.7946
20.114408208858933 71.4953
20.137196842715273 72.1189
20.159809615886765 71.3772
20.18242318232135 68.545
20.20503754298326 66.1659
20.227829382875154 64.2895
20.250445341109344 63.6396
20.27306209647285 63.7926
20.29567964993108 64.4398
20.31847471147704 65.5057
20.34109387027612 66.733
20.363713830075454 67.1456
20.386334591841646 66.3589
20.409132890679302 64.0329
20.431755265564437 60.9282
20.454378445325528 57.8356
20.477002430930366 55.653999999999996
20.499803982716553 54.1935
20.522429589228004 53.19
20.54505600449589 52.6595
20.567683229489194 52.5596
20.590488049900088 52.388000000000005
20.61311690359731 51.8679
20.63574656993626 51.6489
20.658553853717297 51.2347
20.681185154618298 51.205
20.703817271080066 51.0954
20.72645020407368 50.8212
20.749260783967177 50.5303
20.771895359337133 50.6239
20.794530754161617 50.6254
20.817166969412938 50.5231
20.83998086114876 50.3393
20.86261872660049 50.1745
20.885257415405402 50.4128
20.90789692853701 50.1872
20.930714147864748 50.1285
20.953355319030678 50.2392
20.97599731745334 50.2696
20.99864014410749 50.1027
21.021460706796564 50.1923
21.044105199328826 50.4464
21.06675052302631 50.4528
21.089396678865015 50.7255
21.112220600704806 51.2555
21.134868430275347 51.4824
21.15751709492456 51.416000000000004
21.180166595629693 51.8484
21.202993892429635 52.1376
21.22564507473034 52.4838
21.24829709602816 52.6687
21.27112693608965 52.9948
21.293780644891275 53.2198
21.316435195634053 52.6989
21.339090589297417 51.7086
21.361923832041875 51.3276
21.384580921090404 50.5518
21.407238856007325 49.9957
21.429897637773326 49.9737
21.45273429906592 49.9193
21.475394784108598 49.8975
21.498056118951983 49.8358
21.520718304578022 50.1298
21.543558400304388 50.269
21.566222297108816 50.3784
21.58888704765135 50.7696
21.61155265291521 51.2878
21.63439619898156 51.6597
21.657063523335786 51.9278
21.67973170537063 52.2608
21.7024007460706 52.8756
21.72524775840385 53.5919
21.747918526116475 54.6211
21.770590155457388 55.5859
21.79326264741238 57.034
21.816113141960237 58.5897
21.838787368860547 59.9938
21.861462461341976 61.6985
21.884315579735777 63.5066
21.90699241312273 64.932
21.92967011506078 66.3309
21.95234868653799 66.8596
21.9752053151131 65.9414
21.997885635446785 63.9702
22.020566828293532 61.8737
22.04324889464272 59.7962
22.066109049404666 58.1124
22.088792872571794 57.4177
22.111477572219204 57.2809
22.1341631493376 57.4859
22.157026846313123 57.5357
22.179714188221507 57.0465
22.202402410582668 56.1193
22.22509151438863 54.7707
22.24795876962584 53.42
22.270649646204486 52.4798
22.293341407213727 51.4934
22.316034053646906 50.937
22.338904883215342 50.6837
22.36159931041458 50.6434
22.38429462602756 50.5918
22.40699083104897 50.3078
22.429865251039757 50.3852
22.452563244831367 50.4525
22.47526213102522 50.4298
22.49813925616515 50.3052
22.520839937143307 50.1943
22.543541513520587 50.1917
22.56624398629403 50.0273
22.589124730075895 50.1294
22.611829005656723 50.2124
22.63453418063466 50.1772
22.657240256008077 50.3694
22.680124634582935 50.619
22.70283252079775 50.9971
22.725541310413075 51.551
22.74825100442868 51.5109
22.771139033969575 52.0845
22.79385054687155 52.2258
22.81656296718292 52.8805
22.83927629590484 53.5608
22.862167992606945 54.3261
22.88488314827121 55.206
22.907599215359284 56.1076
22.93031619487366 56.7726
22.953211574954405 57.8048
22.975930389478226 59.091
22.998650119445763 59.5636
23.02137076586092 59.0943
23.044269845560063 58.2931
23.06699233506288 56.5877
23.089715744034912 54.7209
23.112617610931565 52.8961
23.135342869061212 51.6228
23.158069049684816 50.9766
23.1807961538087 50.4693
23.20370174880544 50.3821
23.226430710184808 50.4578
23.249160598093425 50.543
23.271891413539002 50.448
23.294800752937697 50.6413
23.31753343374794 50.9562
23.340267045128353 50.9135
23.36300158808808 51.431000000000004
23.38591468821339 51.6636
23.408651104658304 52.0424
23.431388455719986 52.5706
23.454126742409 53.2871
23.4770436196085 54.0076
23.499783787914662 55.0229
23.522524894889884 55.5929
23.54526694154616 56.4675
23.56818761219047 57.6267
23.59093154860734 58.4114
23.613676427751283 59.4187
23.636422250635754 58.86600000000001
23.659346731118656 57.8996
23.68209445191868 56.1617
23.704843119509587 53.9162
23.72759273490623 51.6328
23.750521041644767 50.0827
23.77327256312355 48.8445
23.796025035462787 48.2083
23.818956224555475 47.7413
23.841710609113413 47.5817
23.86446594758979 47.2567
23.887222241002014 47.0052
23.910157285144578 46.5809
23.932915498962537 46.6135
23.955674670778713 46.5872
23.978434801611975 46.3708
24.001373717286125 46.1195
24.024135776723917 46.1334
24.046898798245582 45.9832
24.06966278287146 46.0181
24.092605586582614 45.5846
24.115371508023642 45.4305
24.1381383956401 45.3415
24.16090625045381 45.3869
24.183852958731244 45.3539
24.206622758582608 45.2008
24.229393528706886 45.0031
24.252165270127392 45.1692
24.27511589952438 45.0866
24.297889594216997 44.8368
24.32066426328598 44.5541
24.34343990775613 44.7105
24.36639447485003 44.5526
24.38917208083877 44.5897
24.41195066531332 44.3352
24.43490819850244 44.3554
24.457688750692377 44.3439
24.48047028445616 44.3278
24.503252800821233 44.3826
24.526214300784112 44.38
24.548998793132213 44.4051
24.57178427117417 44.1797
24.59457073593893 44.1677
24.617536219319863 44.173
24.64032466834748 44.2788
24.663114107195035 44.2276
24.685904536893013 43.924
24.708874020360852 43.8752
24.731666442613744 43.8171
24.754459858818787 43.8126
24.777254270007962 43.5498
24.80022777025625 43.5477
24.82302418230472 43.5527
24.845821592443674 43.5169
24.86862000170663 43.5129
24.891597535453727 43.4536
24.914397953892728 43.6376
24.93719937456671 43.6807
24.96000179851076 43.7181
24.98298338249997 44.0109
25.00578782394922 44.1483
25.028593271784167 44.2105
25.05157790644186 44.6335
25.07438537804115 44.5991
25.097193859145293 44.7296
25.120003350792075 44.9442
25.142992065061257 45.3561
25.165803588823465 45.6734
25.18861612625217 45.9663
25.211429678386736 46.0918
25.234422489079968 46.1017
25.257238081693636 46.1266
25.280054692141732 46.0159
25.3028723214652 45.9824
25.325869245420463 46.0316
25.348688923599397 46.0132
25.371509623787006 46.2019
25.394331347025812 46.0892
25.41733240110666 45.8291
25.440156181590016 45.1781
25.46298098826268 44.7382
25.48580682216873 43.9939
25.50881202326435 43.3023
25.53163992281684 42.7446
25.55446885274561 42.4959
25.577298814096377 42.1438
25.600308179121807 42.0847
25.623140214533745 42.0675
25.64597328451537 41.99100000000001
25.66898578564376 41.6963
25.691820936010206 41.8155
25.714657124097695 41.8221
25.737494350954734 41.8813
25.760511045684957 41.6897
25.783350361364224 41.8222
25.806190718969255 41.8751
25.82903211955018 41.8573
25.852053024868923 41.8764
25.874896522722523 41.9173
25.897741066713106 41.9591
25.920586657892454 42.0773
25.943611790812668 42.1546
25.966459487728237 42.1916
25.989308234998564 41.9356
26.01215803367705 42.3643
26.03518741123814 42.6682
26.05803932412957 42.7901
26.080892291600094 42.8167
26.10374631470478 42.9264
26.12677995397268 42.897
26.14963609978026 42.9228
26.172493304397875 42.7919
26.19535156888223 42.5324
26.218389486949604 42.2023
26.241249882640123 42.0132
26.26411134137826 41.7179
26.28715248187403 41.4731
26.31001607820869 41.4515
26.3328807407756 41.2991
26.35574647063438 41.4617
26.37879191991473 41.4561
26.401659795896734 41.3948
26.424528742360263 41.5787
26.447398760366614 41.7773
26.470448535598294 41.8816
26.49332070826805 42.0014
26.516193955675355 42.3026
26.53906827888316 42.4142
26.562122397260108 42.5972
26.584998883685063 42.8058
26.607876449110325 42.9421
26.63075509460056 43.1235
26.65381357334404 43.2991
26.67669439061878 43.3354
26.699576291163382 43.3973
26.722459276044212 43.3379
26.745522132402975 43.1342
26.768407297649354 42.8144
26.791293550442003 42.409
26.814180891848974 42.257
26.837248143099337 41.7015
26.860137673466657 41.6927
26.88302829566349 41.4084
26.90592001075963 41.3806
26.92899167420566 41.2799
26.951885586870763 40.8437
26.974780595655517 40.6238
26.99785558178161 40.5115
27.020752794605112 40.3096
27.043651106772522 40.1241
27.06655051935668 40.0925
27.089629948036183 40.0182
27.112531573292053 39.9076
27.135434302194138 39.9605
27.158338135817015 39.788000000000004
27.181422024430987 39.8643
27.204328079372566 39.6992
27.22723524226965 39.7476
27.250143514198573 39.8416
27.273231880156334 39.7699
27.296142382065014 39.6819
27.319053996245536 39.5722
27.341966723775965 39.6705
27.365059584515222 39.6479
27.38797455070062 39.7441
27.410890633481237 39.5508
27.433807833936918 39.5653
27.456905206923906 39.6638
27.47982465472398 39.7137
27.502745223449743 39.6395
27.525666914182825 39.9214
27.548768816912457 39.9103
27.571692763693633 39.8013
27.59461783573812 39.6258
27.617723149491244 39.4583
27.640650484125285 39.4362
27.66357894728264 39.3615
27.686508540048052 39.3318
27.709618414237887 39.2772
27.732550278321757 39.044000000000004
27.755483275279115 38.9919
27.778417406196485 39.1381
27.801531858397514 39.0389
27.824468269376716 38.9123
27.847405817586786 38.9818
27.870344504116094 39.2206
27.893463551932008 39.2519
27.916404527281053 39.4625
27.93934664422563 39.4615
27.962289903855886 39.3957
27.98541356491974 39.7339
28.00835912214229 39.7644
28.03130582533231 39.971
28.054253675581805 40.3055
28.077381967556104 40.2811
28.100332124185126 40.2748
28.123283431160893 40.1058
28.146235889577238 40.0496
28.169368830154156 39.8145
28.192323603752033 39.6378
28.215279532083304 39.3437
28.238415973016764 39.0575
28.261374223145094 39.0203
28.284333631303806 38.7659
28.307294198589954 38.6474
28.330435319167677 38.4116
28.353398217078915 38.2851
28.376362277420153 37.9789
28.39932750129032 37.738
28.422473319286713 37.582
28.44544088262495 37.5542
28.468409612800283 37.4047
28.491379510913497 37.0961
28.51453004413313 37.1048
28.53750229057244 36.9913
28.56047570826344 36.9637
28.583450298308804 36.9426
28.606605564586562 36.7829
28.629582511831156 36.7987
28.65256063474956 36.7126
28.675539934446338 36.7391
28.698699951647605 36.6569
28.72168161743193 36.6015
28.74466446331978 36.6934
28.767648490417624 36.5865
28.790813276438353 36.5306
28.813799678527303 36.6241
28.836787265157085 36.4698
28.859955641890075 36.505
28.882945610203045 36.596
28.905936766392035 36.4103
28.928929111566863 36.4303
28.952102288520145 36.3659
28.975097024308607 36.2306
28.998092952423807 36.1055
29.021090073977508 36.0378
29.04426806913204 36.0177
29.067267590245258 35.7285
29.090268308143695 35.6832
29.11327022394099 35.5621
29.13645305530891 35.556
29.159457379627167 35.4604
29.18246290519685 35.4158
29.20546963313352 35.2958
29.22865731875826 35.393
29.25166646419296 35.3922
29.27467681535305 35.2926
29.29768837335608 35.3727
29.320880931312562 35.3113
29.34389491580634 35.2401
29.366910110507334 35.3055
29.38992651653503 35.2504
29.41312396492981 35.2511
29.436142806456754 35.2113
29.45916286268059 35.1076
29.48236399319994 35.0115
29.50538649169417 34.8909
29.528410208259935 34.8724
29.55143514402014 34.6129
29.574641196749695 34.5783
29.597668583816574 34.4363
29.6206971934585 34.2153
29.64372702680042 34.2018
29.666938019934474 34.0278
29.689970313635285 34.0389
29.713003834422636 34.0007
29.73603858342347 33.8861
29.759254535188578 33.9054
29.78229175361658 33.8652
29.80533020365064 33.9852
29.82836988641968 33.9327
29.85159081507472 33.8561
29.874632976355343 33.9141
29.89767637376955 33.8426
29.920721008448314 33.5963
29.9439469322847 33.6976
29.96699405457564 33.4645
29.9900424175358 33.5948
30.013092022298157 33.5699
30.03632295963995 33.4831
30.059375061131373 33.5019
30.08242840783577 33.5092
30.105483000888153 33.4736
30.128718970092244 33.4143
30.151776069006917 33.3121
30.17483441768648 33.4713
30.198074175317235 33.3848
30.221135036724256 33.4504
30.24419715131772 33.2586
30.267260520236203 33.1884
30.290505341942243 33.3123
30.313571232750228 33.4062
30.336638381310948 33.334
30.35970678876503 33.271
30.38295669299435 33.2859
30.40602763151657 33.2971
30.429099832366074 33.2637
30.452173296685572 33.1232
30.47542830191959 33.1297
30.498504306502497 33.0489
30.521581577995562 33.1633
30.544660117543582 33.1833
30.56792024229725 33.1807
30.59100133132069 33.0758
30.614083691845494 33.1906
30.637167325018545 33.2339
30.660432587840603 33.2806
30.683518779717886 33.1842
30.70660624769615 33.0952
30.729694992924372 33.1519
30.75296541239743 33.1965
30.77605672557558 33.1673
30.799149319462742 33.0819
30.8224236211637 32.9192
30.845518789950724 32.83
30.868615242910597 32.8686
30.891712981195973 32.7762
30.91499247215866 32.632
30.938092794619365 32.6616
30.96119440587579 32.5507
30.984297307082752 32.4026
31.00758200598383 32.2781
31.030687500658694 32.1779
31.053794288760695 32.0881
31.076902371446767 32.064
31.100192296997445 32.0881
31.12330298246119 32.0513
31.14641496599209 31.9233
31.169528248749216 31.9014
31.19282341969534 31.8321
31.215939314557186 31.9663
31.239056512134788 31.8372
31.262175013589378 31.7808
31.28547544871168 31.8265
31.30859657161541 31.7501
31.331719001892175 31.8056
31.35484274070538 31.8996
31.378148458819545 31.8726
31.401274828443725 31.8056
31.424402510106933 31.8036
31.447712205419993 31.9305
31.470842524931633 31.7277
31.493974159989783 31.7267
31.51710711176168 31.7271
31.54042212308802 31.7967
31.563557722100917 31.7905
31.586694641341655 31.6073
31.609832881979628 31.5472
31.63315322823208 31.4492
31.656294125521327 31.3939
31.679436347728515 31.2067
31.70257989602529 31.1937
31.725905596152327 31.0829
31.74905181052835 31.005
31.772199354521323 31.0812
31.79534822930507 31.0551
31.818679302290967 31.1192
31.84183085259981 31.064
31.864983737233473 30.9632
31.88813795736804 31.093000000000004
31.911474422233013 30.9094
31.934631327356435 31.0645
31.9577895715215 30.9695
31.980949155906522 30.9353
32.004291031706956 30.8738
32.027453310562606 30.7592
32.05061693318573 30.6906
32.07396288236386 30.7339
32.09712920658542 30.6558
32.12029687812702 30.5488
32.14346589817093 30.4018
32.166817291729984 30.4142
32.18998902288583 30.3672
32.21316210610336 30.2595
32.23633654256711 30.1668
32.259693399663725 30.0625
32.282870556771144 30.0484
32.30604907069099 30.0324
32.329228942610065 30.0024
32.35259128243769 29.9241
32.375773884550505 29.8227
32.398957848235646 29.8353
32.422143174682176 29.779
32.445511016471215 29.6356
32.468699082679954 29.6789
32.49188851523011 29.6535
32.51507931531304 29.6118
32.538452678331 29.5375
32.56164622776311 29.428
32.58484114831493 29.4383
32.60803744118015 29.3343
32.631416344731896 29.4113
32.654615396551876 29.4481
32.67781582427913 29.3418
32.701198898634416 29.2041
32.72440209253756 29.1276
32.747606665947124 29.2228
32.77081262006088 28.9979
32.79420126883317 29.003
32.81740999876112 28.9678
32.840620112999424 28.9381
32.86383161274818 28.8888
32.88722585534586 28.9304
32.91044014056596 28.893
32.933655814909734 28.8507
32.95687287957963 28.8594
32.98027273544904 28.7258
33.00349259526636 28.7446
33.026713849030116 28.633000000000003
33.04993649794511 28.5918
33.073341986570746 28.7021
33.09656744032826 28.6902
33.11979429286444 28.6317
33.14302254538647 28.5259
33.166433686291185 28.5307
33.18966475336992 28.5403
33.212897224069096 28.4068
33.23613109959831 28.5033
33.259547912343415 28.3474
33.2827846121627 28.351
33.306022720453775 28.2977
33.32926223842861 28.2784
33.352684742614166 28.3086
33.37592709463173 28.2454
33.399170859982064 28.2379
33.422597648419426 28.0857
33.44584425514446 27.9755
33.46909227885668 28.0483
33.4923417207723 27.9183
33.51577423505344 27.8436
33.539026528130385 27.7221
33.56228024307245 27.778000000000002
33.585535381098246 27.6694
33.60897364093058 27.6052
33.63223163992385 27.568
33.6554910656699 27.5606
33.678751919389796 27.5368
33.702195944520106 27.4398
33.72545966903325 27.4112
33.74872482519663 27.2447
33.771991414233746 27.2352
33.79544122444841 27.2624
33.81871069412428 27.1755
33.84198160035767 27.1568
33.86525394437455 27.1627
33.88870955949969 27.0967
33.911984794020626 27.0442
33.93526147001624 27.1276
33.958539588715006 26.9849
33.98200102861669 26.9349
34.0052820477047 26.8417
34.02856451319451 26.7804
34.05203033759056 26.7802
34.07531571090147 26.824
34.09860253431845 26.8039
34.121890809074316 26.7135
34.145362493118924 26.6127
34.16865368561615 26.5774
34.191946333164054 26.5358
34.21524043699793 26.5821
34.23871800066799 26.5395
34.26201503218366 26.447
34.28531352370466 26.5065
34.30861347646881 26.3821
34.33209693978188 26.3784
34.3553998301885 26.3115
34.378704185565205 26.1978
34.402010007152356 26.1633
34.42549939016683 26.2781
34.44880815937748 26.1752
34.472118398533134 26.0781
34.49543010887669 26.0788
34.51892543169198 25.9218
34.54224009966052 25.9038
34.56555624255917 25.9163
34.58887386163339 25.8726
34.61237514439016 25.7392
34.6356957311114 25.7994
34.65901779775809 25.7508
34.68252356662995 25.6147
34.705848608458616 25.7068
34.72917513396849 25.5759
34.75250314440949 25.5172
34.77601490857862 25.5213
34.799345904259795 25.4405
34.82267838863559 25.4912
34.846012362958525 25.4839
34.869530142679984 25.4502
34.89286711232212 25.3282
34.91620557568269 25.3527
34.93954553401677 25.4035
34.9630693495876 25.273000000000003
34.986412313340814 25.1666
35.00975677584668 25.1952
35.033102738362956 25.2255
35.05663261012228 25.1275
35.0799815881786 25.0522
35.10333207003229 24.9618
35.12668405694369 25.0641
35.150220005273056 25.0146
35.17357501786656 24.980999999999998
35.19693153931268 24.9358
35.220289570874385 24.8862
35.24383161619786 24.8215
35.267192683604904 24.906
35.290555264930376 24.7749
35.314101899412165 24.7827
35.33746752422433 24.7598
35.36083466676374 24.7597
35.38420332829803 24.7553
35.407756095629054 24.7411
35.43112781085063 24.7561
35.45450104888391 24.6491
35.477875810999194 24.5989
35.50143473172161 24.5959
35.52481255774625 24.6269
35.54819191167777 24.546
35.57157279478914 24.5554
35.595137889488406 24.4852
35.61852184675279 24.4204
35.641907337029984 24.3795
35.665294361595684 24.3272
35.68886565090076 24.2718
35.7122557598848 24.2741
35.73564740699838 24.1989
35.759040593519934 24.2071
35.78261809810353 24.173000000000002
35.80601437933051 24.1696
35.829412203814705 24.0648
35.85281157283719 23.9192
35.876395313415884 23.9571
35.8997977874528 23.951999999999998
35.92320180988546 23.8697
35.946790244133936 23.826
35.97019737933222 23.7989
35.993606066789866 23.7487
36.01701630779276 23.7516
36.04061101440684 23.6731
36.06402437852291 23.7121
36.08743930005611 23.6524
36.1108557802951 23.5594
36.13445678011326 23.5399
36.15787639383515 23.5166
36.18129757014299 23.5427
36.20472031032821 23.4841
36.22832762423364 23.4069
36.25175350829375 23.4144
36.275180960119776 23.3007
36.298609981005924 23.3545
36.32222362992669 23.3316
36.34565580510207 23.2894
36.36908955323448 23.2704
36.39252487562093 23.1733
36.416144880530226 23.0964
36.43958336764275 23.1332
36.463023432914625 23.1072
36.486465077645676 22.9675
36.51009145956204 23.0804
36.53353627947859 23.1309
36.55698268276811 23.0667
36.58043067073321 22.9154
36.60406345072071 22.9248
36.62751462435344 22.9141
36.65096738658405 22.9004
36.67460498210655 22.8286
36.69806093788647 22.7728
36.72151848619297 22.6609
36.744977628333636 22.6788
36.76862165890998 22.5991
36.79208400512205 22.6005
36.81554794910557 22.6258
36.83901349217101 22.6039
36.862663978991606 22.5623
36.88613273667352 22.4816
36.90960309738324 22.4087
36.933075062434064 22.3112
36.95673202673572 22.3869
36.98020721697122 22.2902
37.003684015502365 22.3269
37.027162423645365 22.2689
37.050825886711465 22.2407
37.07430753063053 22.1668
37.09779078812467 22.1638
37.121275660513014 22.1419
37.144945643673694 22.0848
37.16843376245278 22.111
37.19192350009803 22.1375
37.215414857931435 22.0068
37.239091382563885 21.9525
37.262585997426164 21.9078
37.28608223645736 21.8974
37.309763684451696 21.8636
37.33326318851098 21.828000000000003
37.356764320726555 21.730999999999998
37.380267082425526 21.811
37.40395510942588 21.7887
37.42746114683234 21.709
37.45096881771841 21.6194
37.474478123414166 21.6814
37.49817275092816 21.5364
37.52168534303452 21.6113
37.54519957395567 21.5255
37.568715445024665 21.4991
37.592416694607714 21.4429
37.61593586281424 21.4654
37.63945667518264 21.4897
37.66297913304891 21.4019
37.68668702630454 21.3576
37.710212792059274 21.2523
37.733740207334854 21.1966
37.757269273470364 21.2503
37.780983832050374 21.1512
37.80451621684926 21.1423
37.82805025654007 21.1677
37.851585952464795 21.0164
37.8753071980695 20.9863
37.89884622345676 20.9906
37.92238690911902 20.959
37.94611318753442 20.9293
37.969657210779765 20.904
37.99320289834801 20.9242
38.016750251586465 20.8258
38.04048325513017 20.7613
38.06403395679343 20.6942
38.087586328183946 20.754
38.11114037065203 20.7007
38.13488012115898 20.7465
38.1584375229181 20.6605
38.181996599821 20.5838
38.205557353221124 20.5392
38.229303872575656 20.5134
38.2528679961576 20.5214
38.27643380031219 20.4785
38.30000128639589 20.4309
38.32375459653193 20.4401
38.34732546371299 20.4457
38.37089801690786 20.301
38.39447225747609 20.308
38.418232380377425 20.223
38.441810012983396 20.2082
38.46538933705673 20.2984
38.488970353960084 20.2381
38.51273731166058 20.1347
38.536321731567014 20.0901
38.55990784840681 20.0633
38.58367995004091 20.0392
38.60726947812959 19.9439
38.63086070726198 19.9692
38.654453638806274 19.9944
38.678232613930824 19.9297
38.70182896773327 19.8384
38.72542702806741 19.8151
38.7490267963045 19.7408
38.77281266709232 19.7503
38.79641586862214 19.7952
38.8200207821842 19.6956
38.843627409152944 19.6924
38.86742019782782 19.692
38.891030269149255 19.6626
38.914642058016156 19.6487
38.938255565806124 19.6072
38.96205529464307 19.5403
38.98567225787121 19.4687
39.00929094417078 19.4625
39.03291135492255 19.5001
39.05671804624804 19.4262
39.080341923549106 19.428
39.103967529460334 19.3994
39.127594865365744 19.2898
39.15140854155791 19.2488
39.17503935514948 19.2774
39.19867190290282 19.267
39.22249083587951 19.2608
39.24612686969409 19.2245
39.269764641845306 19.213
39.293404153722804 19.1325
39.317230110864074 19.1131
39.34087311998506 19.0615
39.36451787301696 19.0673
39.388164371352595 18.9465
39.41199737518003 18.9398
39.43564738196752 18.92
39.45929913825317 18.9017
39.48295264543308 18.8795
39.506792718520884 18.8149
39.530449745387216 18.8533
39.55410852735203 18.7337
39.57776906581474 18.7787
39.60161623079 18.7214
39.625280300200025 18.6918
39.64894613032202 18.6368
39.67261372255866 18.5836
39.6964680021016 18.6165
39.72013913657293 18.5703
39.74381203738292 18.5441
39.76748670593756 18.5198
39.79134812278169 18.5314
39.81502634488497 18.462
39.83870633896685 18.4002
39.862388106436654 18.3791
39.88625668336918 18.3265
39.90994201572829 18.3802
39.933629125719285 18.3113
39.957503091207826 18.3031
39.9811937746168 18.3083
40.00488623990914 18.2086
40.02858048850006 18.1728
40.05246165409549 18.185
40.076159487492085 18.0938
40.099859108448875 18.1093
40.123560518384345 18.1281
40.1474489070226 18.0887
40.171153913178564 17.9738
40.194860712584955 18.0115
40.2185693066637 18.0013
40.242464941335314 17.9154
40.26617714307655 17.9065
40.289891143772046 17.9212
40.3136069448471 17.8715
40.33750984859743 17.8529
40.3612292688043 17.7981
40.3849504936829 17.7526
40.40867352466194 17.7635
40.43258372059144 17.6689
40.45631038219906 17.6792
40.48003885420956 17.6634
40.503769138055105 17.6531
40.52768664931955 17.6364
40.55142057531802 17.6128
40.57515631746428 17.5023
40.599079334038514 17.5487
40.62281872700477 17.4626
40.64655994043941 17.4435
40.67030297578061 17.3968
40.69423334835778 17.4238
40.71798004609188 17.4208
40.74172857006355 17.3972
40.76547892171441 17.3643
40.7894166736039 17.2564
40.813170699248566 17.2521
40.83692655691388 17.2478
40.86068424804498 17.2535
40.884629402612525 17.1748
40.908390779366385 17.1959
40.932153993938 17.1601
40.95591904777605 17.1425
40.979871628443995 17.0729
41.003640379561936 17.0612
41.02741097430883 17.016
41.05118341413683 17.0038
41.075143444384416 17.0022
41.098919593177826 16.9255
41.1226975914255 16.9371
41.14647744058318 16.8434
41.170444943946755 16.8669
41.19422851378379 16.8589
41.218013938914645 16.7734
41.24198706625173 16.7119
41.26577622087193 16.701
41.289567235177785 16.665
41.31336011063129 16.6393
41.337340752422875 16.6735
41.361137369129835 16.6748
41.38493585138705 16.6418
41.40873620066004 16.5774
41.43272438060107 16.5497
41.45652848292052 16.4956
41.48033445666918 16.437
41.50414230331616 16.4118
41.528138045159764 16.465
41.551949656675205 16.3755
41.575763145513235 16.3655
41.59957851314666 16.2772
41.62358184070442 16.2696
41.64740098505737 16.2714
41.6712220126409 16.234
41.69504492493139 16.2783
41.71905586207357 16.1838
41.74288256296395 16.1569
41.766711153007456 16.1104
41.79054163368412 16.1865
41.814560204340054 16.1269
41.838394485526365 16.1517
41.86223066180303 16.0364
41.88625497706819 16.0283
41.910094962812 16.0151
41.93393684811168 15.9838
41.95778063445365 15.9254
41.981812625263366 15.9291
42.00566023303407 15.8749
42.029509746323676 15.8567
42.05336116662236 15.8225
42.077400857069705 15.8293
42.10125611078846 15.8275
42.12511327600405 15.7837
42.14897235421036 15.7445
42.173019768448455 15.6953
42.19688269209613 15.6794
42.22074753323349 15.6794
42.24461429335818 15.5948
42.268669455600495 15.5892
42.292540073217886 15.538
42.31641261433284 15.5442
42.34028708044675 15.5794
42.36435001496739 15.4979
42.38822835065557 15.5271
42.41210861586426 15.4356
42.4359908120986 15.433
42.46006154323262 15.392000000000001
42.48394762115317 15.3715
42.507835634632315 15.357000000000001
42.531912233047436 15.3426
42.55580413732265 15.315
42.579697981698 15.2563
42.60359376768525 15.2119
42.62767820545945 15.1895
42.65157789440821 15.2062
42.67547952952185 15.2079
42.699383112316 15.1657
42.72347541395347 15.1026
42.74738291190531 15.0192
42.771292362102166 15.0934
42.795203766063516 15.0231
42.819303956130405 15.0335
42.843219287476536 15.020999999999999
42.86713657716324 14.9476
42.89105582671383 14.9046
42.91516392983864 14.9082
42.939087119032166 14.9026
42.963012272677304 14.8804
42.98693939230129 14.8197
43.01105543317513 14.7926
43.034986504731386 14.7986
43.05891954686589 14.7049
43.08285456110972 14.7821
43.10697856448665 14.6846
43.130917542983475 14.6726
43.15485849820081 14.668
43.17880143167367 14.6465
43.20293342237094 14.6014
43.226880332449 14.6265
43.25082922540554 14.5649
43.27496722682525 14.5476
43.29892010567796 14.4753
43.32287497204102 14.4673
43.34683182745632 14.4479
43.370977859791836 14.4281
43.39493871351105 14.3935
43.41890156092628 14.3866
43.44286640358341 14.3528
43.46702049182749 14.2997
43.49098934522816 14.2329
43.51496019852649 14.3051
43.5389330532723 14.2426
43.56309522248204 14.2074
43.58707210044314 14.183
43.61105098451946 14.1557
43.63503187626491 14.1593
43.659202151562134 14.0916
43.68318707902681 14.1139
43.70717401884041 14.0993
43.731162972560874 14.094000000000001
43.75534137913236 14.0653
43.779334381108384 13.9929
43.803329401683186 13.9843
43.82732644241872 13.9862
43.8515130055166 13.9577
43.87551410707659 13.923
43.89951723350145 13.8911
43.923709934595614 13.8521
43.94771713129917 13.8879
43.97172635758096 13.8373
43.99573761501002 13.8085
44.0199385169922 13.7966
44.04395385732619 13.6879
44.067971233533086 13.7144
44.09199064718605 13.6846
44.11619977548961 13.6553
44.14022328470671 13.6122
44.16424883610785 13.6484
44.18827643127035 13.6152
44.21249381139513 13.6334
44.236525514814076 13.5832
44.26055926674478 13.5769
44.28459506876863 13.5643
44.3088207262813 13.448
44.33286064928722 13.4777
44.35690262714919 13.4416
44.38094666145278 13.4054
44.4051806219871 13.3672
44.42922879003185 13.3207
44.45327901929361 13.3025
44.477331311362136 13.2901
44.501573600619416 13.2805
44.525630039221795 13.2813
44.54968854541895 13.2504
44.573937102200176 13.2208
44.5979997645541 13.2335
44.622064499300315 13.1913
44.64613130803592 13.1521
44.67038823869318 13.1921
44.69445921643748 13.140999999999998
44.718532272981385 13.0971
44.742607409926194 13.0686
44.76687274034801 13.0578
44.79095205918753 12.9877
44.81503346325094 12.9759
44.839116954143876 12.9634
44.86339071028742 12.9363
44.88747839599524 12.9646
44.91156817336837 12.9147
44.93566004401666 12.8625
44.959942251908146 12.8706
44.984038330325966 12.8399
45.00813650686762 12.7875
45.03223678314731 12.8036
45.05652746888232 12.7681
45.08063196592069 12.7788
45.104738567558705 12.7386
45.128847275414856 12.7264
45.15314646515866 12.6277
45.17725940679741 12.6688
45.20137445952892 12.6366
45.22568004865265 12.6345
45.24979934496396 12.5807
45.27392075725247 12.5523
45.29804428714431 12.5443
45.322358426247604 12.49
45.346486212804315 12.5132
45.370616121861914 12.4961
45.39474815505086 12.4992
45.41907087049246 12.44
45.4432071734666 12.4307
45.46734560548283 12.4461
45.49148616817604 12.3954
45.51581748638564 12.3572
45.5399623320197 12.3034
45.56410931325473 12.3267
45.58825843173002 12.3021
45.61259837920865 12.2702
45.636751793816 12.2767
45.66090735060093 12.2306
45.68506505120716 12.1391
45.7094136545275 12.1677
45.73357566449271 12.1647
45.75773982322992 12.1471
45.78190613238733 12.1457
45.806263418194064 12.06
45.83043404997326 12.0733
45.85460683713677 12.0319
45.87897065658495 12.0132
45.90314777634752 11.9782
45.92732705646868 11.9562
45.9515084986045 11.9058
45.97588104735473 11.9545
46.00006683541565 11.9248
46.02425479047904 11.9057
46.04844491420549 11.8705
46.0728262191024 11.8263
46.09702070211635 11.8193
46.12121735879483 11.8129
46.14541619080294 11.7899
46.169806278764455 11.7955
46.194009483459034 11.7496
46.21821486849841 11.7393
46.24242243555223 11.7175
46.266821333570014 11.6952
46.29103328674601 11.6253
46.31524742696538 11.6544
46.33946375590237 11.6134
46.36387149104216 11.5888
46.38809221957392 11.5681
46.41231514186606 11.5656
46.436540259597464 11.52
46.460956858999374 11.4668
46.48518638983522 11.4953
46.509418121166966 11.464
46.533652054678114 11.4437
46.55807754555709 11.3823
46.58231590571962 11.4131
46.60655647313217 11.3941
46.630988654873654 11.3443
46.655233659129024 11.3412
46.67948087571551 11.3441
46.70373030632484 11.3318
46.72817142736393 11.2871
46.752425308428684 11.2364
46.77668140861147 11.2233
46.80093972960865 11.2116
46.82538981736788 11.2189
46.849652602470904 11.1755
46.87391761349769 11.1283
46.8981848521493 11.1229
46.9226439341274 11.116
46.946915650573224 11.0703
46.97118959976749 11.0347
46.99546578341598 11.0229
47.019933887188216 11.0159
47.04421456235744 11.0117
47.06849747711879 10.9696
47.09278263318286 10.9254
47.11725978640143 10.9703
47.14154944775105 10.9533
47.165841355555656 10.9179
47.1901355115306 10.8882
47.214621741924994 10.8729
47.23892041698887 10.8471
47.26322134538975 10.7982
47.28771440635075 10.8104
47.31201986422527 10.7939
47.33632758061436 10.7896
47.360637557241866 10.7428
47.38513974410611 10.7558
47.40945426407847 10.7053
47.43377104948137 10.6926
47.45809010204344 10.6878
47.48260144275502 10.6203
47.506925052572285 10.6258
47.53125093475548 10.5882
47.55557909103813 10.582
47.58009961361992 10.534
47.60443234110732 10.5459
47.62876734791564 10.4997
47.65310463578333 10.4897
47.6776343683373 10.497
47.7019762413987 10.440999999999999
47.72632040075572 10.4289
47.75066684815169 10.415999999999999
47.77520581885936 10.3811
47.799556865477655 10.4025
47.823910205386 10.3607
47.84826584033272 10.3344
47.87281407745551 10.323
47.89717432569297 10.3481
47.92153687423484 10.3011
47.94609208429692 10.2615
47.97045925671401 10.2289
47.99482873471275 10.2436
48.01920052005013 10.2269
48.04376504619224 10.2019
48.068141469543484 10.2409
48.09252020552573 10.2163
48.11690125590099 10.1627
48.1414751266064 10.1555
48.16586082917454 10.1109
48.19024885144316 10.0712
48.2146391951793 10.0906
48.239222439012764 10.097000000000001
48.26361744916137 10.0661
48.28801478610016 10.0592
48.31241445160131 10.0156
48.337007097209366 10.0042
48.36141144338331 9.96486
48.38581812345755 9.97085
48.41022713920929 9.933760000000001
48.434829215320704 9.89842
48.45924292604658 9.929210000000001
48.48365897780325 9.89151
48.50807737237308 9.82559
48.532688907799276 9.83886
48.55711201168574 9.838189999999999
48.581537463754074 9.77592
48.60615611725119 9.787239999999999
48.63058628942721 9.7946
48.65501881516546 9.75785
48.6794536962573 9.74949
48.70408185970339 9.72206
48.72852147531801 9.70614
48.75296345168211 9.6885
48.77740779059232 9.657169999999999
48.80204549302823 9.63776
48.82649458091802 9.6365
48.85094603676547 9.62428
48.87539986237231 9.61004
48.90004713292306 9.570219999999999
48.92450572200832 9.56745
48.94896668628025 9.50314
48.97343002754588 9.539010000000001
48.99808689542115 9.55203
49.02255501470614 9.50278
49.04702551642794 9.48297
49.0714984023988 9.46455
49.096164896893235 9.39224
49.120642575466796 9.426680000000001
49.145122643748394 9.41968
49.16960510355558 9.38337
49.19428125404938 9.35661
49.2187685210852 9.35915
49.243258185121555 9.36894
49.26794160167084 9.2753
49.2924360839405 9.276769999999999
49.31693296869764 9.25737
49.34143225776915 9.23542
49.36612538195438 9.24803
49.39062950396021 9.19849
49.41513603578346 9.17489
49.4396449792564 9.19922
49.46434784069503 9.17474
49.488861631846454 9.16746
49.513377840166804 9.16423
49.537896467493745 9.12133
49.56260909589029 9.06683
49.587132585683285 9.077160000000001
49.611658500018365 9.06581
49.636186840738596 8.999419999999999
49.66090926588511 9.0353
49.685442483902584 9.009139999999999
49.70997813385706 8.95036
49.734516217597076 8.96901
49.75924846937352 8.93544
49.7837914452858 8.926110000000001
49.80833686055187 8.89758
49.83288471702571 8.88296
49.85762682540054 8.91916
49.882179588965734 8.86553
49.9067347993235 8.83334
49.93129245833333 8.84637
49.95604445336378 8.83066
49.98060703442832 8.80482
50.005172069746266 8.79652
50.02993150438364 8.75947
50.05450147301533 8.7517
50.07907390151433 8.73343
50.10364879174981 8.72907
50.12841816587289 8.68267
50.1529980044635 8.665460000000001
50.17758031042124 8.647689999999999
50.20216508562089 8.657060000000001
50.22694442953363 8.617510000000001
50.25153416817468 8.60132
50.27612638170508 8.58478
50.300721072005196 8.553230000000001
50.325510416102105 8.533430000000001
50.350110084975064 8.52408
50.37471223628208 8.54374
50.39931687190919 8.50186
50.424116246675766 8.4987
50.44872587605249 8.49559
50.47333799543065 8.46902
50.49795260670191 8.50296
50.52276204271512 8.43309
50.54738166295838 8.41202
50.57200378079314 8.393239999999999
50.596628398116835 8.37626
50.62144792604559 8.37955
50.646077567609396 8.33805
50.670709714377715 8.34775
50.69553683636198 8.33099
50.72017401885922 8.29739
50.7448137122895 8.294319999999999
50.76945591856022 8.25959
50.79429318636823 8.29005
50.818940443716784 8.25416
50.84359021965163 8.27919
50.868242516085964 8.25464
50.893089960641895 8.22644
50.917747323549435 8.15908
50.94240721271973 8.16668
50.96706963007175 8.128060000000001
50.99192728239342 8.12647
51.01659478166073 8.15617
51.04126481489051 8.10218
51.06593738400761 8.08243
51.090805275207074 8.054910000000001
51.11548294172845 8.02314
51.14016314993547 8.01225
51.164845901758845 8.03202
51.18972406304274 7.98314
51.21441192780656 7.97836
51.23910234200271 7.995089999999999
51.2637953075678 7.9576899999999995
51.288683770237945 7.93585
51.31338186432707 7.90528
51.33808251561888 7.90446
51.362978729967345 7.89525
51.387684521509755 7.90873
51.41239287610203 7.887569999999999
51.437103795691165 7.8527
51.46201036644977 7.84294
51.486726441956634 7.80703
51.51144508832545 7.800160000000001
51.536166307509156 7.747539999999999
51.56108326624387 7.7830699999999995
51.58580965706056 7.737839999999999
51.61053862657523 7.72933
51.635270176746864 7.6852800000000006
51.66019755512065 7.696969999999999
51.68493429268881 7.673139999999999
51.70967361681515 7.687180000000001
51.73441552946465 7.68312
51.759353359237934 7.64503
51.7841004750961 7.63202
51.80885018539685 7.6079
51.833602492111254 7.613589999999999
51.8585508051424 7.60082
51.883308330926425 7.54529
51.90806845906181 7.518439999999999
51.932831191525715 7.51721
51.95779001977161 7.529789999999999
51.98255798721516 7.45759
52.00732856494335 7.48623
52.03229530577543 7.469589999999999
52.057071130455945 7.4104
52.081849571391054 7.40154
52.106630630568695 7.420889999999999
52.13160794279417 7.381660000000001
52.15639426492067 7.36609
52.18118321127822 7.353960000000001
52.205974783860896 7.35697
52.23096269971011 7.31314
52.255759551287994 7.3259300000000005
52.280559035098186 7.2891699999999995
52.30536115314103 7.2539
52.33035970494467 7.26139
52.35516711807904 7.274489999999999
52.37997717147198 7.26932
52.40478986713005 7.23885
52.42979908731974 7.21738
52.454617094216 7.17841
52.47943774942214 7.1775
52.50426105495102 7.199110000000001
52.529280976059844 7.14238
52.554109609024096 7.13395
52.57894089837482 7.16305
52.60377484613117 7.1245
52.62880550079408 7.1092699999999995
52.65364479223379 7.0926
52.67848674816189 7.0812800000000005
52.70352547971946 7.06198
52.72837279155837 7.07903
52.753222773982785 7.03032
52.778075429022984 7.04703
52.80312495150885 7.00712
52.827982978797436 6.99552
52.85284368481815 6.9504
52.87770707160767 6.94566
52.90276741793998 6.9556
52.92763619336701 6.89655
52.952507655698504 6.911860000000001
52.977381806977576 6.89797
53.00245301017842 6.86635
53.02733256653592 6.836119999999999
53.052214817996074 6.83552
53.077099766608484 6.857289999999999
53.102181859804446 6.82579
53.127072229988265 6.81105
53.15196530349892 6.764869999999999
53.17686108239249 6.780189999999999
53.20195409881522 6.754410000000001
53.22685531582556 6.76082
53.25175924441303 6.72215
53.27666588664027 6.7126600000000005
53.30176985962693 6.71705
53.3266819565689 6.6932100000000005
53.35159677336455 6.6607
53.376514312083096 6.6543600000000005
53.40162927507703 6.632619999999999
53.42655228516116 6.647010000000001
53.45147802340193 6.595510000000001
53.47660125628886 6.60071
53.50153247842639 6.55397
53.52646643496923 6.51756
53.55140312799818 6.56177
53.576537409691696 6.5712
53.60147960336152 6.54419
53.626424539786164 6.51805
53.65137222105307 6.50685
53.67651758529126 6.51853
53.70147078399681 6.45688
53.72642673383343 6.46786
53.75138543689533 6.4583900000000005
53.776541917524526 6.45953
53.801506154876755 6.42861
53.826473151763246 6.418819999999999
53.851442910284916 6.36296
53.87661054126026 6.34386
53.9015858509782 6.37849
53.92656392866066 6.364669999999999
53.95154477641532 6.34673
53.976723591801296 6.3381300000000005
54.00171000771266 6.33745
54.02669920004598 6.32448
54.051691170915745 6.27519
54.076881204886796 6.25207
54.101878760928514 6.2226300000000005
54.12687910187696 6.22867
54.152077577768296 6.22807
54.1770835166946 6.20361
54.20209224691339 6.16248
54.22710377055121 6.12322
54.25231352511594 6.13476
54.27733066384342 6.06734
54.30235060239643 6.08407
54.32737334290836 6.1166
54.35259441062629 6.07386
54.377622783395324 6.04853
54.40265396455061 6.05128
54.42768795623251 6.02646
54.45292037169559 6.01256
54.477960012857906 5.9992
54.50300247099511 6.00553
54.52804774825457 5.96905
54.55329154616743 5.92629
54.57834249018678 5.924919999999999
54.6033962597977 5.90131
54.6284528571545 5.874140000000001
54.653708072335164 5.87296
54.67877035378786 5.83784
54.70383546947698 5.8015300000000005
54.72890342156389 5.80863
54.7541700889442 5.76641
54.77924374251975 5.733630000000001
54.8043202390049 5.7481599999999995
54.82959552413022 5.73566
54.8546777351945 5.65119
54.87976279569621 5.6861
54.90485070780914 5.66691
54.930137506558005 5.62784
54.95523115074295 5.6348
54.98032765308844 5.62174
55.005427015775496 5.5839300000000005
55.03072536339621 5.57558
55.05583047570572 5.55258
55.080938454927676 5.5616699999999994
55.10604930325027 5.5406
55.131359235107396 5.50284
55.15647585066083 5.42815
55.181595341907496 5.44955
55.20671771104285 5.42361
55.232039262617704 5.4053
55.25716741665048 5.353619999999999
55.28229845518636 5.36907
55.30743238042802 5.31415
55.33276558731939 5.31878
55.357905315183636 5.29371
55.383047936390035 5.25593
55.40819345314859 5.21785
55.433538351073295 5.18806
55.458689688238415 5.204219999999999
55.483843927614096 5.15459
55.509197623043605 5.12139
55.53435769621134 5.12817
55.55952067826466 5.06605
55.5846865714265 5.051080000000001
55.61005202069737 5.063269999999999
55.63522376553902 5.0349699999999995
55.66039842818645 5.01492
55.68557601087004 4.98548
55.7109532500271 4.92811
55.73613670233794 4.9139800000000005
