TT I
1.2716486653135266 6.923430000000001
1.2939594142134223 6.670660000000001
1.3162702121660406 6.6520399999999995
1.3385810600174564 6.44758
1.3608919586137629 6.28733
1.383202908801069 6.49987
1.405513911425503 6.2535
1.4278249673332093 6.31617
1.4501343378461518 6.28305
1.4724455028545926 6.15165
1.4947567236847858 6.38167
1.517068001182951 6.2535300000000005
1.5393793361953272 5.7453199999999995
1.5616907295681737 5.6622699999999995
1.5840021821477681 5.72693
1.60631369478041 5.45299
1.6286252683124185 5.1602
1.6509369035901333 5.60798
1.6732468618895553 5.19316
1.695558623192809 4.35211
1.7178704487808514 4.4021
1.7401823395001077 5.315580000000001
1.7625012545597203 5.157030000000001
1.7848028405262486 4.41993
1.8071218901122095 4.75788
1.8294236121921872 4.53029
1.8517427996910911 4.13454
1.8740620574440425 4.58036
1.8963639900671978 4.74573
1.9186833908139995 4.4886099999999995
1.9409854680117449 4.678999999999999
1.9633050151394713 4.93173
1.9856246367570705 4.56145
2.0079269371922672 4.3538
2.03024671027244 4.47555
2.0525491637446027 4.14844
2.074869091674931 4.0107800000000005
2.097171701569106 4.248480000000001
2.1194917877373847 4.44635
2.141811954326636 4.3666
2.164114805233074 3.89543
2.186435135143035 4.58364
2.208738150935709 5.94321
2.231058647554722 7.29743
2.2533792288321184 6.2419199999999995
2.275682498336085 5.13229
2.298003251406138 5.13266
2.3203066942619714 5.2226
2.3426276225136022 4.91001
2.3649486396617507 5.60856
2.387252348930071 5.9235
2.4095735463442893 5.52471
2.4318774374315884 6.09176
2.4541988185014043 6.35299
2.476502894794693 7.426360000000001
2.498824462909887 7.37258
2.521146125856138 6.746510000000001
2.5434504863470337 7.85514
2.5657723414244717 7.97708
2.588076895590662 8.29341
2.610398946189713 8.213510000000001
2.6327210958598384 7.478280000000001
2.6550259469304716 7.846760000000001
2.6773482972090137 8.932080000000001
2.6996533504259 8.54861
2.7219759047039602 8.69634
2.744298562293959 8.275780000000001
2.7666039251246595 7.993010000000001
2.7889267918020164 8.31681
2.8112323652516555 8.474160000000001
2.833555444408179 8.38236
2.8558786311183852 8.30016
2.8781845268938557 8.49122
2.9005079311721484 8.52577
2.9228140460410397 8.8038
2.9451376712799635 8.71348
2.967444008632326 9.42637
2.9897678582247247 9.39665
3.0120918213106695 10.0379
3.0343984987899373 10.2771
3.0567226913198637 10.7694
3.079029599759726 11.27
3.101354025127254 11.6315
3.123678568232338 12.7029
3.145985829517914 12.8567
3.16831061055229 13.0612
3.1906181112775593 13.6228
3.212943133635653 14.812999999999999
3.2352682779763207 14.7921
3.2575761442691227 14.7783
3.2799015350264273 15.7602
3.302209649240067 15.7352
3.3245352898092655 16.235
3.3468436553365257 16.9237
3.369169549113219 17.5236
3.3914955708171384 18.034000000000002
3.413804319727358 18.2376
3.4361305997334863 18.4327
3.4584396084414553 19.0607
3.4807661501462652 19.7271
3.503092824025881 19.9864
3.5254022288463154 20.5071
3.5477291695206588 20.9202
3.5700388426251948 21.4252
3.5923660534916446 21.7792
3.6146934007816114 23.314
3.637003482731501 28.0865
3.6593311053109985 30.1012
3.681641464033634 26.3685
3.7039693653009733 24.0749
3.726297407241705 24.0528
3.7486081875460804 24.4624
3.7709365132734978 25.1582
3.793247578841633 25.7302
3.8155761917550093 25.4899
3.8378875459837216 26.1372
3.8602164494827234 26.6583
3.882545499606844 27.5304
3.9048572932539183 28.4067
3.9271866390645718 28.3313
3.9494987298666713 28.9422
3.971828374764527 29.5477
3.9941581705403255 29.9933
4.016470713506008 30.5373
4.038800813471445 31.1236
4.061113662089144 32.1579
4.0834440696459176 32.467
4.105774632334751 33.0054
4.128087945865126 33.5196
4.150418821249301 33.8226
4.172732448931298 34.8503
4.195063640413578 35.3377
4.2173775856475215 36.6716
4.239709096631102 40.0138
4.262040768704612 54.6794
4.284355196706267 64.2958
4.306687193387355 55.2942
4.329001947444346 43.788000000000004
4.35133427213731 41.5401
4.373666762177566 42.0822
4.395982011761091 42.3304
4.418314834921175 44.0445
4.44063041906622 45.2486
4.4629635787515625 46.8985
4.4852969080429785 48.5954
4.5076130004776225 49.9518
4.529946671403969 54.2324
4.552263106909177 57.5451
4.574597122877047 55.6498
4.596931312711224 53.2923
4.619248269273446 53.3881
4.6415828092605835 54.1401
4.663900117405352 55.65
4.686235010953232 56.3628
4.708552674085913 57.3497
4.730887924602802 59.0765
4.753223354952695 61.2549
4.775541557023902 63.8492
4.797877349456786 67.2018
4.820195915032126 67.8264
4.842532072957498 67.6896
4.864868414979744 70.4386
4.88718753227192 74.303
4.909524244902505 76.569
4.931843734218147 75.7949
4.954180820867835 77.6383
4.976518095879839 80.4016
4.998838149695359 82.9917
5.021175803844231 86.2432
5.043496238205739 89.4107
5.065834274903528 93.5637
5.088172504230693 98.5091
5.1104935158799565 104.454
5.132832132875765 116.477
5.155153533596801 136.81799999999998
5.1774925416746225 176.065
5.199814334878411 380.44699999999995
5.2221537374521505 1001.34
5.244493338631803 2814.46
5.266815727034316 8006.9
5.289155727832427 13889.7
5.311478517248165 8295.04
5.333818921080011 2229.76
5.356159527788849 416.616
5.3784829252032536 175.985
5.400823940070432 144.053
5.423147747031976 125.23
5.445489173474152 117.25299999999999
5.467830807066149 116.181
5.490155234831516 117.014
5.512497285125229 110.571
5.534822130975162 104.352
5.557164601388673 101.551
5.579489868738879 98.7828
5.601832762690846 96.9948
5.6241758697774475 95.5224
5.646501775867269 94.9957
5.668845311622074 94.2375
5.691171647754637 93.5183
5.713515615597765 92.4333
5.735859800852677 92.2314
5.758186788542988 93.4118
5.780531411018185 96.8557
5.802858837297399 96.4772
5.825203900414495 96.1417
5.8475491852224 97.4319
5.869877275883075 97.154
5.892223006467101 94.6615
5.914551544266608 93.6976
5.936897724049891 96.9226
5.959244129804903 103.851
5.981573344815301 132.591
6.0039202049061 242.49200000000002
6.026249875609095 474.60699999999997
6.04859719346037 972.905
6.070927323278297 2283.74
6.093275102315365 4809.47
6.115623113320588 5656.28
6.137953938319995 2970.85
6.160302415650845 821.37
6.182633708324452 193.898
6.2049826554078376 101.823
6.227331838745022 86.72399999999999
6.249663839443684 80.6237
6.27201349767565 77.311
6.294345974611799 76.1003
6.316696111167083 75.2511
6.339046488263839 73.6788
6.361379686074702 71.2377
6.383730546639482 69.0949
6.406064229255215 68.2528
6.428415576718203 69.3197
6.450749747566656 68.385
6.47310158535871 65.9115
6.495453669698332 64.4883
6.517788579421056 63.9582
6.540141159237969 62.7117
6.562476565766648 62.211999999999996
6.5848296444934045 62.0477
6.607182974060425 61.6304
6.6295191323281015 61.4358
6.651872965955752 60.2692
6.6742096296068985 61.3922
6.6965639707294615 65.5894
6.71891856698715 65.7518
6.741255995248479 61.3986
6.763611104154477 58.3077
6.785949046381137 57.5428
6.808304671371482 57.8317
6.8306605557940046 59.0773
6.852999275508618 58.42
6.875355681171544 56.9664
6.897694923437771 55.6618
6.92005185377892 55.1969
6.9423916220322655 55.239
6.964749080490181 54.5165
6.987106804399774 55.0201
7.009447368180821 55.5229
7.031805625367033 54.7415
7.054146723727803 54.8504
7.076505517631004 53.8895
7.098864581288365 53.9845
7.121206488070854 53.5306
7.143566093607822 53.9329
7.165908543567245 55.0998
7.188268694426048 54.7106
7.2106291193438095 53.5317
7.232972390625943 53.302
7.255333366030969 54.0742
7.277677189091925 58.2783
7.300038718428332 63.623000000000005
7.322400526130865 61.1081
7.344745183422596 56.3106
7.367107550224791 53.6715
7.389452767901992 53.2509
7.411815697249891 53.3832
7.434161478756298 52.8492
7.456524974096713 52.7033
7.478888753837185 52.7434
7.501235387657368 53.2048
7.523599738562711 53.922
7.545946944825532 54.5064
7.568311870344528 55.0686
7.5906770845765665 54.4043
7.613025156078678 54.3974
7.635390950099687 54.7192
7.657739602662809 54.8376
7.680105979923558 55.1725
7.702472650212829 56.1744
7.724822180948224 56.0321
7.747189439655568 55.5931
7.769539560075357 55.2954
7.791907410653562 55.1467
7.81425812420825 55.6223
7.836626570110925 56.1054
7.858995315087906 56.748000000000005
7.881346924933401 56.8532
7.903716270417482 57.5881
7.926068482028405 57.9106
7.948438431475253 58.5843
7.9708086843180235 58.9098
7.993161805171116 59.5093
8.015532667162402 59.9476
8.037886398416653 61.4188
8.060257873014221 61.8808
8.082629655331942 62.5201
8.104984308787587 63.3254
8.127356708900503 64.6379
8.149711981398308 67.8239
8.172085002766314 69.0163
8.194458336181368 68.0947
8.216814543847752 67.9634
8.23918850371002 68.5447
8.26154533906492 69.5384
8.283919928836452 71.2095
8.306277395339652 72.0804
8.328652618483376 73.682
8.351028159736202 75.8311
8.373386579575245 78.1087
8.395762759396959 79.5485
8.418121819038275 82.0953
8.440498640894003 86.6028
8.462875785192262 96.8157
8.485235811156207 124.311
8.507613602688501 178.287
8.529974277114228 268.72900000000004
8.552352719347912 402.39099999999996
8.574731488360351 664.2239999999999
8.59709314210385 1251.9
8.619472567021075 2048.75
8.64183487789147 2380.54
8.664214962183097 1766.51
8.686577933647762 806.4739999999999
8.708958680784317 300.495
8.731339760774953 139.424
8.753703729764451 103.17
8.77608547780821 95.5612
8.798450116065078 92.9611
8.820832535634787 91.1877
8.843215292401656 91.2225
8.865580941199045 90.8167
8.887964374703538 90.20200000000001
8.910330701447199 90.0933
8.932714815164482 89.1585
8.955099270424924 86.6752
8.977466620733543 85.0572
8.999851761421976 84.2235
9.022219798361645 83.7108
9.04460562795561 83.2551
9.066991803441677 83.46799999999999
9.089360876979615 84.1395
9.111747746589993 84.134
9.13411751544971 82.61
9.156505082664324 81.8017
9.178875550323522 81.5292
9.20126381862328 81.0325
9.223652438908596 82.3196
9.246023961427412 83.0427
9.26841328802173 83.0984
9.290785518039224 82.9686
9.313175554425882 84.1794
9.335565947154315 85.4023
9.357939245086508 85.7923
9.380330352834827 84.9152
9.40270436697103 84.8807
9.425096193225055 84.4607
9.447488380180165 84.3704
9.469863475295412 84.0209
9.492256385987508 84.1104
9.514632206018318 84.8734
9.537025843935714 85.34899999999999
9.559402392368193 86.1043
9.581796761000229 88.7264
9.604191496441521 90.3694
9.626569144158516 92.3084
9.648964615551032 92.6711
9.671343000390081 92.1745
9.693739211225699 91.2294
9.716135793237463 91.6013
9.738515290448102 92.5653
9.760912617143402 94.1839
9.783292860202891 96.4147
9.805690935076182 98.2552
9.828089385495742 99.4973
9.850470754023561 100.12899999999999
9.872869957865444 101.775
9.89525208097539 105.493
9.917652041736662 110.421
9.940052382417589 121.89200000000001
9.962435644102392 151.035
9.984836746950979 194.28400000000002
10.007220771957746 257.44
10.029622640473708 363.539
10.052007432299963 544.399
10.074410069984072 853.597
10.096813093716005 1362.56
10.119199042482517 1910.98
10.141602840636468 2059.91
10.163989564971628 1454.32
10.186394141051062 731.6610000000001
10.208799107559706 301.41900000000004
10.231187001965623 154.577
10.253592751657669 116.23700000000001
10.275981430388155 108.084
10.298387966769793 105.559
10.320794897965431 105.185
10.343184759907361 103.75399999999999
10.36559248305461 102.745
10.387983138083852 104.693
10.410391656691655 111.50299999999999
10.432800574501677 123.374
10.455192425893369 139.595
10.47760214443012 166.25799999999998
10.499994797678786 212.50599999999997
10.522405320453982 297.872
10.54479877906917 419.333
10.567210109595656 555.0219999999999
10.5896218454736 588.317
10.612016518879773 468.61699999999996
10.634429067781074 291.061
10.656824555333241 166.645
10.679237920773568 110.443
10.701651695961992 92.3389
10.724048411481384 87.5963
10.746463008485165 84.8962
10.768860546937125 83.4679
10.791275969274796 81.7762
10.81369180576079 81.2564
10.836090585366925 80.0479
10.858507252467449 78.8266
10.88090686379991 78.0605
10.903324365036394 77.3464
10.925724811614439 76.4873
10.948143150509463 76.6337
10.970561909719066 76.3841
10.992963615930844 75.887
11.015383218085756 74.2797
11.037785768347074 72.6452
11.06020621697282 71.4077
11.082627090322113 71.3997
11.105030913430326 70.2873
11.12745263854165 69.6472
11.149857314510728 69.3488
11.172279894912576 70.0835
11.194702904450653 69.3529
11.217108866490921 68.4407
11.239532736615194 67.5954
11.26193956033512 66.9905
11.284364294577085 66.9176
11.306789462371718 66.3619
11.329197585398376 65.6754
11.351623622610898 65.9929
11.37403261614354 65.3131
11.396459526308487 65.3035
11.418869393879497 64.8741
11.441297180532617 64.3662
11.463725406927658 64.0898
11.486136592353875 63.5914
11.508565700543707 63.3304
11.530977768845315 63.568000000000005
11.553407762368774 63.3319
11.575838200059769 63.1651
11.598251599479612 62.6032
11.620682927815501 62.5305
11.64309721895548 62.7973
11.665529441478206 62.0747
11.687962112597958 61.8377
11.710377748130886 62.0874
11.732811318753434 61.9205
11.755227854859067 62.0728
11.777662328529495 61.7244
11.800079768750786 61.9126
11.822515149015453 61.7996
11.844950984084935 62.0252
11.867369787303163 61.4518
11.889806534289491 61.5807
11.912226250487029 62.0831
11.934663912939751 62.2953
11.9571020346363 62.6166
11.979523127133968 62.9602
12.001962169624331 64.2618
12.024384183972964 65.9312
12.046824150809913 69.2032
12.069264581333726 73.718
12.091687985297767 79.5596
12.11412934550045 88.8362
12.136553680195208 104.463
12.158995973632788 127.01100000000001
12.181438735204349 159.217
12.20386447284199 194.55200000000002
12.226308172985636 209.41299999999998
12.24873485024193 192.952
12.271179492516982 150.346
12.293607112949127 107.928
12.316052700916226 80.9835
12.338498763250042 68.5385
12.360927805303868 64.3804
12.383374818673879 63.3278
12.405804812803074 62.8705
12.428252780773262 63.0006
12.45070122756722 63.269
12.473132656675375 63.2519
12.49558206341869 63.9387
12.518014453510101 63.9191
12.540464823770117 63.8694
12.562915677315177 63.971000000000004
12.58534951575545 64.3928
12.607801338171472 64.168
12.630236146511358 64.8828
12.652688941369085 65.8404
12.675124723177234 66.1452
12.697578494048786 66.3687
12.720032754458185 66.1889
12.742470003354093 66.4646
12.764925245138771 66.798
12.787363476431278 67.0328
12.809819703166806 67.4213
12.83227642391173 68.3366
12.854716135692716 68.8046
12.877173846755147 70.0327
12.899614549869717 70.6531
12.9220732548287 71.4113
12.94453245827299 72.2604
12.966974655289818 73.0925
12.989434858002571 73.7821
13.011878055298721 74.4921
13.034339260862497 75.2292
13.056800969391883 76.9807
13.079245674017244 80.4543
13.101708390774869 84.6212
13.12415410463411 92.8551
13.146617833206086 102.736
13.169064559883248 113.36
13.191529303857127 128.809
13.213994557076367 152.248
13.236442809902437 190.195
13.258909083908291 251.412
13.28135835851934 325.336
13.30382565690295 400.147
13.326293469022952 446.13599999999997
13.348744283242008 412.374
13.371213125129904 316.533
13.39366497011003 214.502
13.416134845360597 144.981
13.438605238843131 111.54299999999999
13.46105863690397 103.58
13.483530069144786 106.131
13.505984506951902 112.667
13.528456981549432 123.31299999999999
13.550929978879088 138.862
13.573385983253365 163.45
13.595860028340867 203.155
13.618317081455832 259.325
13.64079217790333 328.061
13.663250283359057 380.024
13.685726434770173 385.408
13.708203115221277 326.767
13.730662806148091 239.36599999999999
13.75314054697177 161.585
13.775601299246777 114.40700000000001
13.798080104050406 91.2024
13.820559442405358 82.5795
13.843021793671388 80.1915
13.865502201420897 78.9092
13.887965623051947 78.359
13.910447103807167 77.3916
13.932929122629764 76.0685
13.955394156785959 75.8033
13.977877254034569 75.1175
14.000343367582113 74.2467
14.022827546871707 73.4925
14.045294743423524 72.781
14.06778000837062 71.9179
14.090265817715476 71.9559
14.112734645763819 71.7727
14.13522154619454 71.0761
14.157691466286913 71.1135
14.180179461423874 70.7989
14.202668005486178 70.5187
14.22513957064374 69.9351
14.247629214846473 69.6095
14.270101881097517 69.1844
14.29259262906496 68.9396
14.315083930490205 69.1296
14.337558255389705 68.8002
14.360050666019726 68.9599
14.382526101071944 68.6274
14.405019624534942 68.4629
14.427513705993134 68.10600000000001
14.449990813291825 68.0113
14.47248601302899 67.8663
14.49496423954951 67.9686
14.517460561197822 68.3601
14.539939910570322 67.9653
14.562437357763558 68.0472
14.58493536931253 68.6081
14.607416409993311 68.6266
14.62991555254159 68.9095
14.652397725157423 68.9827
14.674898002342799 69.499
14.697398848433282 69.8165
14.719882725991326 71.3329
14.74238471217934 73.5546
14.764869730765593 76.8819
14.787372860692983 79.5866
14.809876564079925 84.3349
14.83236330125751 90.5245
14.854868153850365 99.7092
14.877356041159485 114.14299999999999
14.899862046604186 133.12
14.922351087688757 161.221
14.944858249632887 195.28
14.967365991421232 223.29
14.989856770231246 231.77599999999998
15.012365673994204 213.68599999999998
15.03485761569738 174.91099999999997
15.05736768508665 131.722
15.07987833888692 101.116
15.102372032001655 82.5665
15.124883856909658 73.2606
15.14737872204565 70.608
15.169891721717274 69.3289
15.192405310371893 68.9566
15.214901940621196 68.5334
15.237416709527137 67.8886
15.259914520936249 67.6683
15.282430473753607 66.9219
15.304947020131227 66.4117
15.327446610371178 66.0766
15.349964346154254 66.0736
15.372465126703139 65.9519
15.394984055556009 65.3437
15.417486030076159 65.4641
15.44000615566487 65.0917
15.462526881230803 64.9079
15.485030653812652 64.8451
15.507552581617434 64.5467
15.530057557334603 64.7169
15.55258069104857 65.0296
15.575104429329837 65.1063
15.597611216864632 65.3538
15.620136166564563 66.0919
15.6426441664095 67.8132
15.665170331202765 70.0156
15.687697105158826 72.9569
15.710206930593545 76.3296
15.732734925158933 81.0861
15.755245972089478 87.5142
15.77777519094324 96.7009
15.800287463046663 109.929
15.822817909869592 130.132
15.84534897229804 153.136
15.867863089299354 180.518
15.890395385222186 198.171
15.912910736597423 196.23
15.935444269699861 174.97400000000002
15.957978423016485 138.893
15.980495633101265 107.76700000000001
16.003031029129367 84.3062
16.02554948280019 70.4989
16.048086125229432 64.3485
16.070623392487107 62.3616
16.09314371869582 61.3639
16.11568223789321 60.498999999999995
16.13820381691126 59.9244
16.160743591742527 59.5455
16.183283996022084 59.0648
16.205807461423195 58.3393
16.228349126881973 57.7924
16.25087385432698 57.7842
16.27341678466365 57.2067
16.29594277784926 56.9362
16.31848697676433 56.5579
16.341031811604868 56.1353
16.36355971058487 55.9557
16.3861058195587 55.8804
16.40863499352978 55.4791
16.431182380342005 55.4453
16.453730407713202 55.0533
16.476261501364792 54.8656
16.498810812136167 54.4069
16.52134319004079 54.5848
16.54389378792203 54.5196
16.566445031001553 54.4006
16.588979342490088 54.2653
16.61153187824822 54.1352
16.634067483263312 53.9164
16.656621315414416 53.8204
16.679175797408888 53.4894
16.701713349928728 53.6677
16.72426913389191 53.9044
16.74680798922351 53.7769
16.76936507887444 53.6924
16.791905240734874 53.6624
16.814463639794468 53.6973
16.837022695210294 54.0076
16.859564824093756 54.0933
16.882125194503903 54.092
16.904668639217885 54.0855
16.927230328348003 54.0899
16.949792678493612 54.418
16.972338104193863 54.4283
16.994901778652235 54.4257
17.017448529496576 54.9255
17.040013531998152 55.4703
17.06257920018044 55.8148
17.0851279459922 56.6899
17.107694947817667 57.2522
17.130245028099072 58.161
17.15281336730298 59.3772
17.17536478578733 61.0909
17.19793446610687 63.5762
17.220504818648422 66.7667
17.243058251703697 70.1354
17.265629950971032 75.2081
17.288184731571736 80.5896
17.310757781306908 83.6563
17.33333150794385 83.1318
17.355888317140174 79.3142
17.37846339986244 72.8096
17.401021565958885 66.9868
17.42359800851343 62.6174
17.44617513265564 60.0509
17.468735341390783 58.8859
17.491261035594565 58.2271
17.51396340099364 58.1175
17.536490463869136 58.1668
17.559018209820174 58.0874
17.58154663977963 58.3957
17.604251766089718 58.6623
17.626781572227713 58.8681
17.64931206518155 58.986000000000004
17.671843245885103 59.3124
17.69455114821572 59.5663
17.717083712612634 59.6729
17.739616967569667 60.0716
17.762150914021706 60.5631
17.78486160749854 60.7353
17.807396945166804 61.9505
17.829932977143503 63.3508
17.85246970436452 64.8783
17.875183204129467 66.3838
17.897721330097664 68.27199999999999
17.920260154126645 70.8036
17.942799677153296 73.9363
17.9655159983646 77.7947
17.988056927677544 83.4668
18.010598558807683 91.4735
18.033140892692916 102.48299999999999
18.05586005052525 114.969
18.07840379824407 128.126
18.10094825154059 138.49
18.12366954819864 142.158
18.146215420998306 136.47799999999998
18.16876200220057 123.699
18.191309292745153 108.104
18.214033452627167 94.8373
18.236582170236648 86.1797
18.259131600016456 83.4107
18.281681742907335 85.4
18.304408781233683 90.6306
18.32696035875955 97.5618
18.349512652227624 102.611
18.372065662579683 106.837
18.394795594587553 104.891
18.41735004715306 97.7009
18.43990521943684 89.3583
18.46246111238171 80.0889
18.485193953325208 71.4448
18.507751296070428 66.0777
18.530309362314178 63.4277
18.552868153000343 62.0586
18.57560391815056 61.1177
18.59816416623245 60.733000000000004
18.620725141597372 60.1533
18.643286845190268 59.7437
18.666025549835414 59.3998
18.688588718427933 58.8689
18.711152618092243 58.6236
18.73389353884365 58.3373
18.75645890921984 58.1088
18.77902501351406 57.9131
18.801591852673102 57.8164
18.824335739722738 57.3412
18.846904057212626 57.0358
18.8694731124168 56.8863
18.89204290628315 57.0586
18.914789774966803 56.7183
18.937361054791623 56.4784
18.959933076131318 56.1283
18.982505839934877 56.1116
19.00525570560582 56.06399999999999
19.027829963004184 55.9267
19.05040496572238 56.1885
19.072980714710468 56.265
19.095733592739563 56.5136
19.11831084296757 56.4327
19.140888842324735 56.8388
19.16346759176222 56.9352
19.18622349753803 57.5425
19.208803755869358 58.4789
19.231384767143577 59.9023
19.253966532312948 61.5568
19.276725481241822 63.6534
19.29930876296784 66.4167
19.3218928014549 69.7721
19.34465404436217 72.7452
19.36723960516257 74.9071
19.389825925592426 75.2673
19.412413006605938 72.7014
19.43517731967805 68.411
19.457765930683355 63.7783
19.48035530514408 59.718999999999994
19.50294544401556 56.6824
19.525712842708348 54.876000000000005
19.54830451925909 53.7471
19.570896963095727 53.0233
19.593490175174704 53.1538
19.616260674962184 53.0743
19.638855432416964 52.7564
19.661450960992624 52.9798
19.68404726164677 52.7019
19.706820878021247 52.5715
19.729418731756834 52.9258
19.752017360452857 52.6092
19.77461676506804 52.8391
19.797393513540218 52.9603
19.819994478951667 53.1273
19.84259622316767 53.7227
19.8651987471481 53.8962
19.887978643247177 54.2998
19.91058273574792 54.7733
19.933187610901943 55.4897
19.955969879466828 56.9226
19.97857632894404 58.4756
20.00118356396599 60.2064
20.023791585494575 62.7619
20.046577028914875 65.8431
20.069186632506966 68.183
20.091797025500632 69.8129
20.114408208858933 69.6235
20.137196842715273 68.8023
20.159809615886765 66.1023
20.18242318232135 63.2008
20.20503754298326 61.3082
20.227829382875154 60.8176
20.250445341109344 61.3749
20.27306209647285 62.7385
20.29567964993108 64.0458
20.31847471147704 64.6017
20.34109387027612 65.5426
20.363713830075454 64.193
20.386334591841646 61.9699
20.409132890679302 58.7306
20.431755265564437 55.6403
20.454378445325528 53.3951
20.477002430930366 51.731
20.499803982716553 50.6469
20.522429589228004 50.0167
20.54505600449589 49.7595
20.567683229489194 49.7406
20.590488049900088 49.4533
20.61311690359731 49.2267
20.63574656993626 49.2142
20.658553853717297 48.8124
20.681185154618298 49.0051
20.703817271080066 48.6963
20.72645020407368 48.4201
20.749260783967177 48.3846
20.771895359337133 48.3569
20.794530754161617 48.2296
20.817166969412938 48.1029
20.83998086114876 48.0506
20.86261872660049 47.9042
20.885257415405402 47.9651
20.90789692853701 47.8852
20.930714147864748 47.9339
20.953355319030678 47.8403
20.97599731745334 48.159
20.99864014410749 47.9044
21.021460706796564 47.9974
21.044105199328826 48.2119
21.06675052302631 48.3105
21.089396678865015 48.513000000000005
21.112220600704806 48.7791
21.134868430275347 49.0503
21.15751709492456 49.4307
21.180166595629693 50.0228
21.202993892429635 50.44
21.22564507473034 50.7463
21.24829709602816 50.7873
21.27112693608965 50.6725
21.293780644891275 50.573
21.316435195634053 49.7075
21.339090589297417 49.07
21.361923832041875 48.6886
21.384580921090404 48.0111
21.407238856007325 47.6829
21.429897637773326 47.6149
21.45273429906592 47.6551
21.475394784108598 47.8282
21.498056118951983 47.7268
21.520718304578022 47.9119
21.543558400304388 48.1933
21.566222297108816 48.3503
21.58888704765135 48.458
21.61155265291521 48.7054
21.63439619898156 49.0709
21.657063523335786 49.2947
21.67973170537063 49.9159
21.7024007460706 50.4653
21.72524775840385 51.1317
21.747918526116475 52.1079
21.770590155457388 53.3927
21.79326264741238 55.1983
21.816113141960237 57.0621
21.838787368860547 59.0815
21.861462461341976 61.2917
21.884315579735777 63.4751
21.90699241312273 64.4805
21.92967011506078 64.0633
21.95234868653799 62.8969
21.9752053151131 60.8507
21.997885635446785 58.467
22.020566828293532 56.9191
22.04324889464272 55.8233
22.066109049404666 55.1934
22.088792872571794 55.2789
22.111477572219204 55.5117
22.1341631493376 55.6409
22.157026846313123 55.0612
22.179714188221507 53.9448
22.202402410582668 52.8562
22.22509151438863 51.1395
22.24795876962584 50.0951
22.270649646204486 49.1672
22.293341407213727 48.5825
22.316034053646906 48.1173
22.338904883215342 48.0798
22.36159931041458 48.2118
22.38429462602756 48.0635
22.40699083104897 47.7008
22.429865251039757 47.9446
22.452563244831367 47.8335
22.47526213102522 47.977
22.49813925616515 47.7684
22.520839937143307 47.735
22.543541513520587 47.7475
22.56624398629403 47.6783
22.589124730075895 47.8152
22.611829005656723 48.095
22.63453418063466 48.1138
22.657240256008077 48.1943
22.680124634582935 48.3596
22.70283252079775 48.6977
22.725541310413075 48.8443
22.74825100442868 49.012
22.771139033969575 49.5777
22.79385054687155 49.9181
22.81656296718292 50.6178
22.83927629590484 51.5686
22.862167992606945 52.706
22.88488314827121 54.0716
22.907599215359284 54.9824
22.93031619487366 56.2404
22.953211574954405 57.1613
22.975930389478226 57.4557
22.998650119445763 57.2424
23.02137076586092 56.0355
23.044269845560063 54.1229
23.06699233506288 52.3092
23.089715744034912 50.8052
23.112617610931565 49.4818
23.135342869061212 48.6016
23.158069049684816 48.2469
23.1807961538087 47.9661
23.20370174880544 47.965
23.226430710184808 48.1295
23.249160598093425 48.0981
23.271891413539002 48.0875
23.294800752937697 48.2369
23.31753343374794 48.6189
23.340267045128353 48.5275
23.36300158808808 48.7692
23.38591468821339 49.3378
23.408651104658304 49.7826
23.431388455719986 50.461999999999996
23.454126742409 51.2135
23.4770436196085 52.335
23.499783787914662 53.9435
23.522524894889884 55.0483
23.54526694154616 56.2546
23.56818761219047 57.2746
23.59093154860734 57.6765
23.613676427751283 57.1482
23.636422250635754 55.7228
23.659346731118656 53.6795
23.68209445191868 51.6361
23.704843119509587 49.6072
23.72759273490623 47.9103
23.750521041644767 46.8475
23.77327256312355 46.1592
23.796025035462787 45.6793
23.818956224555475 45.3727
23.841710609113413 45.2893
23.86446594758979 45.0386
23.887222241002014 44.7841
23.910157285144578 44.4831
23.932915498962537 44.559
23.955674670778713 44.3308
23.978434801611975 44.1898
24.001373717286125 43.8721
24.024135776723917 43.8569
24.046898798245582 43.7905
24.06966278287146 43.7731
24.092605586582614 43.5147
24.115371508023642 43.349
24.1381383956401 43.2047
24.16090625045381 43.2579
24.183852958731244 43.1721
24.206622758582608 43.0573
24.229393528706886 42.9391
24.252165270127392 42.8595
24.27511589952438 42.8538
24.297889594216997 42.5862
24.32066426328598 42.5087
24.34343990775613 42.7234
24.36639447485003 42.5443
24.38917208083877 42.5387
24.41195066531332 42.3405
24.43490819850244 42.3846
24.457688750692377 42.3605
24.48047028445616 42.1965
24.503252800821233 42.3722
24.526214300784112 42.5813
24.548998793132213 42.4431
24.57178427117417 42.4247
24.59457073593893 42.4673
24.617536219319863 42.3024
24.64032466834748 42.2828
24.663114107195035 42.1199
24.685904536893013 41.8204
24.708874020360852 41.7591
24.731666442613744 41.5934
24.754459858818787 41.6616
24.777254270007962 41.5895
24.80022777025625 41.4026
24.82302418230472 41.4171
24.845821592443674 41.6668
24.86862000170663 41.5853
24.891597535453727 41.396
24.914397953892728 41.6616
24.93719937456671 41.6529
24.96000179851076 41.8434
24.98298338249997 42.0252
25.00578782394922 42.1409
25.028593271784167 42.2829
25.05157790644186 42.6588
25.07438537804115 42.858999999999995
25.097193859145293 43.0366
25.120003350792075 43.3398
25.142992065061257 43.6954
25.165803588823465 43.8543
25.18861612625217 44.005
25.211429678386736 44.021
25.234422489079968 44.019
25.257238081693636 44.0047
25.280054692141732 44.1771
25.3028723214652 44.1494
25.325869245420463 44.2904
25.348688923599397 44.4228
25.371509623787006 44.2235
25.394331347025812 43.7298
25.41733240110666 43.0637
25.440156181590016 42.3303
25.46298098826268 41.8596
25.48580682216873 41.4715
25.50881202326435 41.0817
25.53163992281684 40.7853
25.55446885274561 40.4324
25.577298814096377 40.1858
25.600308179121807 40.2037
25.623140214533745 40.2955
25.64597328451537 40.1856
25.66898578564376 39.9464
25.691820936010206 39.9343
25.714657124097695 39.8616
25.737494350954734 39.9241
25.760511045684957 39.8317
25.783350361364224 39.7452
25.806190718969255 39.7469
25.82903211955018 39.8663
25.852053024868923 39.8306
25.874896522722523 39.8882
25.897741066713106 40.0044
25.920586657892454 40.0796
25.943611790812668 40.1501
25.966459487728237 40.3016
25.989308234998564 40.3871
26.01215803367705 40.844
26.03518741123814 40.9512
26.05803932412957 41.0608
26.080892291600094 41.0346
26.10374631470478 41.1115
26.12677995397268 41.2264
26.14963609978026 40.9194
26.172493304397875 40.4544
26.19535156888223 40.3023
26.218389486949604 39.8205
26.241249882640123 39.705999999999996
26.26411134137826 39.6228
26.28715248187403 39.5384
26.31001607820869 39.4016
26.3328807407756 39.2313
26.35574647063438 39.4974
26.37879191991473 39.4817
26.401659795896734 39.6294
26.424528742360263 39.6808
26.447398760366614 39.8758
26.470448535598294 39.9745
26.49332070826805 40.1289
26.516193955675355 40.3636
26.53906827888316 40.583
26.562122397260108 40.8983
26.584998883685063 41.1907
26.607876449110325 41.5806
26.63075509460056 41.655
26.65381357334404 41.7169
26.67669439061878 41.6802
26.699576291163382 41.3208
26.722459276044212 41.141999999999996
26.745522132402975 40.9462
26.768407297649354 40.6926
26.791293550442003 40.4044
26.814180891848974 40.1289
26.837248143099337 39.8524
26.860137673466657 39.7768
26.88302829566349 39.4973
26.90592001075963 39.3122
26.92899167420566 39.0378
26.951885586870763 38.7042
26.974780595655517 38.5288
26.99785558178161 38.4226
27.020752794605112 38.3814
27.043651106772522 38.2626
27.06655051935668 38.2903
27.089629948036183 38.134
27.112531573292053 38.1115
27.135434302194138 38.1855
27.158338135817015 37.9242
27.181422024430987 38.0282
27.204328079372566 37.9417
27.22723524226965 37.8548
27.250143514198573 37.9182
27.273231880156334 37.9479
27.296142382065014 37.7584
27.319053996245536 37.7611
27.341966723775965 37.8387
27.365059584515222 37.8446
27.38797455070062 37.9291
27.410890633481237 37.814
27.433807833936918 37.8993
27.456905206923906 37.9144
27.47982465472398 37.8513
27.502745223449743 38.0275
27.525666914182825 38.1547
27.548768816912457 37.9791
27.571692763693633 37.9727
27.59461783573812 37.8068
27.617723149491244 37.6413
27.640650484125285 37.5221
27.66357894728264 37.5108
27.686508540048052 37.5347
27.709618414237887 37.3802
27.732550278321757 37.2565
27.755483275279115 37.2089
27.778417406196485 37.2964
27.801531858397514 37.3382
27.824468269376716 37.1343
27.847405817586786 37.2111
27.870344504116094 37.3869
27.893463551932008 37.5749
27.916404527281053 37.84
27.93934664422563 37.9726
27.962289903855886 38.0793
27.98541356491974 38.1556
28.00835912214229 38.1716
28.03130582533231 38.4155
28.054253675581805 38.6136
28.077381967556104 38.3327
28.100332124185126 38.2718
28.123283431160893 38.2905
28.146235889577238 38.1693
28.169368830154156 37.9364
28.192323603752033 37.7799
28.215279532083304 37.6022
28.238415973016764 37.2013
28.261374223145094 37.2197
28.284333631303806 36.8839
28.307294198589954 36.6826
28.330435319167677 36.365
28.353398217078915 36.1605
28.376362277420153 35.9519
28.39932750129032 35.8835
28.422473319286713 35.8186
28.44544088262495 35.7988
28.468409612800283 35.7495
28.491379510913497 35.4976
28.51453004413313 35.4418
28.53750229057244 35.4077
28.56047570826344 35.1657
28.583450298308804 35.2443
28.606605564586562 35.1005
28.629582511831156 35.1697
28.65256063474956 35.0982
28.675539934446338 35.04
28.698699951647605 35.0993
28.72168161743193 34.9808
28.74466446331978 34.9302
28.767648490417624 34.8723
28.790813276438353 34.8845
28.813799678527303 34.8907
28.836787265157085 34.9165
28.859955641890075 34.9537
28.882945610203045 34.9356
28.905936766392035 34.7583
28.928929111566863 34.606
28.952102288520145 34.7341
28.975097024308607 34.5547
28.998092952423807 34.4211
29.021090073977508 34.3229
29.04426806913204 34.1193
29.067267590245258 34.0214
29.090268308143695 33.9055
29.11327022394099 33.9034
29.13645305530891 33.9624
29.159457379627167 33.7373
29.18246290519685 33.775999999999996
29.20546963313352 33.7135
29.22865731875826 33.873000000000005
29.25166646419296 33.7672
29.27467681535305 33.6905
29.29768837335608 33.7747
29.320880931312562 33.6685
29.34389491580634 33.6872
29.366910110507334 33.7709
29.38992651653503 33.7898
29.41312396492981 33.6684
29.436142806456754 33.6225
29.45916286268059 33.4275
29.48236399319994 33.3182
29.50538649169417 33.0569
29.528410208259935 33.121
29.55143514402014 32.9144
29.574641196749695 32.7767
29.597668583816574 32.7272
29.6206971934585 32.5235
29.64372702680042 32.5976
29.666938019934474 32.4796
29.689970313635285 32.4134
29.713003834422636 32.3967
29.73603858342347 32.3951
29.759254535188578 32.2926
29.78229175361658 32.294000000000004
29.80533020365064 32.2838
29.82836988641968 32.2761
29.85159081507472 32.2602
29.874632976355343 32.2279
29.89767637376955 32.3042
29.920721008448314 32.1969
29.9439469322847 32.1615
29.96699405457564 31.9615
29.9900424175358 32.0243
30.013092022298157 32.0689
30.03632295963995 31.9805
30.059375061131373 32.0861
30.08242840783577 31.9942
30.105483000888153 31.9922
30.128718970092244 31.9278
30.151776069006917 31.9149
30.17483441768648 31.9202
30.198074175317235 31.9142
30.221135036724256 31.8718
30.24419715131772 31.77
30.267260520236203 31.6511
30.290505341942243 31.7611
30.313571232750228 31.8227
30.336638381310948 31.7273
30.35970678876503 31.5881
30.38295669299435 31.5466
30.40602763151657 31.5768
30.429099832366074 31.7822
30.452173296685572 31.6572
30.47542830191959 31.6136
30.498504306502497 31.5966
30.521581577995562 31.6323
30.544660117543582 31.6909
30.56792024229725 31.7149
30.59100133132069 31.5653
30.614083691845494 31.6276
30.637167325018545 31.7525
30.660432587840603 31.7718
30.683518779717886 31.7694
30.70660624769615 31.7435
30.729694992924372 31.6084
30.75296541239743 31.6469
30.77605672557558 31.6312
30.799149319462742 31.6068
30.8224236211637 31.3129
30.845518789950724 31.2841
30.868615242910597 31.2744
30.891712981195973 31.1002
30.91499247215866 31.0856
30.938092794619365 31.0116
30.96119440587579 30.9897
30.984297307082752 30.8278
31.00758200598383 30.7767
31.030687500658694 30.7054
31.053794288760695 30.5667
31.076902371446767 30.5623
31.100192296997445 30.6249
31.12330298246119 30.614
31.14641496599209 30.4926
31.169528248749216 30.4318
31.19282341969534 30.4407
31.215939314557186 30.5128
31.239056512134788 30.5376
31.262175013589378 30.5161
31.28547544871168 30.3139
31.30859657161541 30.3676
31.331719001892175 30.4006
31.35484274070538 30.3924
31.378148458819545 30.5438
31.401274828443725 30.4572
31.424402510106933 30.4581
31.447712205419993 30.5223
31.470842524931633 30.3545
31.493974159989783 30.3227
31.51710711176168 30.3213
31.54042212308802 30.3914
31.563557722100917 30.2311
31.586694641341655 30.1021
31.609832881979628 29.9353
31.63315322823208 29.9598
31.656294125521327 29.8115
31.679436347728515 29.7677
31.70257989602529 29.6841
31.725905596152327 29.7431
31.74905181052835 29.7051
31.772199354521323 29.65
31.79534822930507 29.6527
31.818679302290967 29.6503
31.84183085259981 29.7152
31.864983737233473 29.6712
31.88813795736804 29.5984
31.911474422233013 29.6114
31.934631327356435 29.645
31.9577895715215 29.6274
31.980949155906522 29.5532
32.004291031706956 29.5583
32.027453310562606 29.4328
32.05061693318573 29.3392
32.07396288236386 29.2048
32.09712920658542 29.2141
32.12029687812702 29.0641
32.14346589817093 29.0599
32.166817291729984 28.983
32.18998902288583 28.9821
32.21316210610336 28.8328
32.23633654256711 28.7581
32.259693399663725 28.7097
32.282870556771144 28.7037
32.30604907069099 28.6885
32.329228942610065 28.633000000000003
32.35259128243769 28.4927
32.375773884550505 28.4503
32.398957848235646 28.4283
32.422143174682176 28.45
32.445511016471215 28.4007
32.468699082679954 28.2394
32.49188851523011 28.2445
32.51507931531304 28.1558
32.538452678331 28.1963
32.56164622776311 28.1948
32.58484114831493 28.1334
32.60803744118015 28.1041
32.631416344731896 28.078000000000003
32.654615396551876 28.0743
32.67781582427913 27.9544
32.701198898634416 27.8086
32.72440209253756 27.7268
32.747606665947124 27.7695
32.77081262006088 27.7066
32.79420126883317 27.747
32.81740999876112 27.8164
32.840620112999424 27.5838
32.86383161274818 27.6018
32.88722585534586 27.5023
32.91044014056596 27.5832
32.933655814909734 27.5083
32.95687287957963 27.5335
32.98027273544904 27.5006
33.00349259526636 27.4744
33.026713849030116 27.4437
33.04993649794511 27.4628
33.073341986570746 27.4131
33.09656744032826 27.3683
33.11979429286444 27.3457
33.14302254538647 27.3026
33.166433686291185 27.2944
33.18966475336992 27.2261
33.212897224069096 27.1149
33.23613109959831 27.1757
33.259547912343415 27.1453
33.2827846121627 27.1392
33.306022720453775 27.0375
33.32926223842861 27.0125
33.352684742614166 26.9443
33.37592709463173 26.9558
33.399170859982064 26.7313
33.422597648419426 26.7817
33.44584425514446 26.6455
33.46909227885668 26.6658
33.4923417207723 26.570999999999998
33.51577423505344 26.6315
33.539026528130385 26.5063
33.56228024307245 26.5186
33.585535381098246 26.2249
33.60897364093058 26.2763
33.63223163992385 26.3039
33.6554910656699 26.2095
33.678751919389796 26.169
33.702195944520106 26.1396
33.72545966903325 26.1974
33.74872482519663 26.0997
33.771991414233746 26.1875
33.79544122444841 26.0103
33.81871069412428 26.0277
33.84198160035767 25.9347
33.86525394437455 25.8635
33.88870955949969 25.8953
33.911984794020626 25.8536
33.93526147001624 25.8683
33.958539588715006 25.7789
33.98200102861669 25.7004
34.0052820477047 25.5757
34.02856451319451 25.6333
34.05203033759056 25.5773
34.07531571090147 25.5289
34.09860253431845 25.5326
34.121890809074316 25.5544
34.145362493118924 25.459
34.16865368561615 25.4352
34.191946333164054 25.3964
34.21524043699793 25.3357
34.23871800066799 25.3189
34.26201503218366 25.1531
34.28531352370466 25.2292
34.30861347646881 25.169
34.33209693978188 25.1241
34.3553998301885 25.1346
34.378704185565205 25.0445
34.402010007152356 25.0672
34.42549939016683 24.9744
34.44880815937748 24.9987
34.472118398533134 24.8263
34.49543010887669 24.8685
34.51892543169198 24.7785
34.54224009966052 24.7429
34.56555624255917 24.7895
34.58887386163339 24.7301
34.61237514439016 24.6024
34.6356957311114 24.5447
34.65901779775809 24.4909
34.68252356662995 24.5163
34.705848608458616 24.555
34.72917513396849 24.4223
34.75250314440949 24.3487
34.77601490857862 24.365
34.799345904259795 24.3296
34.82267838863559 24.250999999999998
34.846012362958525 24.2594
34.869530142679984 24.291
34.89286711232212 24.1417
34.91620557568269 24.189
34.93954553401677 24.164
34.9630693495876 24.0841
34.986412313340814 24.1253
35.00975677584668 24.0283
35.033102738362956 24.0396
35.05663261012228 23.9304
35.0799815881786 23.9264
35.10333207003229 23.9383
35.12668405694369 23.956
35.150220005273056 23.9065
35.17357501786656 23.8284
35.19693153931268 23.7958
35.220289570874385 23.7701
35.24383161619786 23.7778
35.267192683604904 23.818
35.290555264930376 23.7289
35.314101899412165 23.7523
35.33746752422433 23.7067
35.36083466676374 23.6528
35.38420332829803 23.5875
35.407756095629054 23.6546
35.43112781085063 23.59
35.45450104888391 23.4877
35.477875810999194 23.5588
35.50143473172161 23.5003
35.52481255774625 23.568
35.54819191167777 23.4032
35.57157279478914 23.3988
35.595137889488406 23.3531
35.61852184675279 23.336
35.641907337029984 23.2844
35.665294361595684 23.2266
35.68886565090076 23.1595
35.7122557598848 23.1406
35.73564740699838 23.0817
35.759040593519934 23.1074
35.78261809810353 23.0531
35.80601437933051 22.9808
35.829412203814705 22.901
35.85281157283719 22.8484
35.876395313415884 22.9322
35.8997977874528 22.873
35.92320180988546 22.8139
35.946790244133936 22.7658
35.97019737933222 22.7276
35.993606066789866 22.7036
36.01701630779276 22.7148
36.04061101440684 22.647
36.06402437852291 22.6927
36.08743930005611 22.6384
36.1108557802951 22.5478
36.13445678011326 22.5849
36.15787639383515 22.476999999999997
36.18129757014299 22.4582
36.20472031032821 22.4221
36.22832762423364 22.3612
36.25175350829375 22.2637
36.275180960119776 22.2432
36.298609981005924 22.342
36.32222362992669 22.2713
36.34565580510207 22.2462
36.36908955323448 22.2165
36.39252487562093 22.2043
36.416144880530226 22.1542
36.43958336764275 22.1624
36.463023432914625 22.1375
36.486465077645676 22.0077
36.51009145956204 22.0906
36.53353627947859 22.0289
36.55698268276811 21.9566
36.58043067073321 21.9862
36.60406345072071 21.8479
36.62751462435344 21.8633
36.65096738658405 21.8355
36.67460498210655 21.715999999999998
36.69806093788647 21.7484
36.72151848619297 21.6881
36.744977628333636 21.6577
36.76862165890998 21.5897
36.79208400512205 21.5886
36.81554794910557 21.595
36.83901349217101 21.503
36.862663978991606 21.5013
36.88613273667352 21.4521
36.90960309738324 21.3649
36.933075062434064 21.4038
36.95673202673572 21.3735
36.98020721697122 21.2772
37.003684015502365 21.271
37.027162423645365 21.2644
37.050825886711465 21.2152
37.07430753063053 21.2094
37.09779078812467 21.1264
37.121275660513014 21.1329
37.144945643673694 21.0402
37.16843376245278 21.0522
37.19192350009803 21.0541
37.215414857931435 21.0461
37.239091382563885 20.924
37.262585997426164 20.910999999999998
37.28608223645736 20.976
37.309763684451696 20.8373
37.33326318851098 20.7941
37.356764320726555 20.7728
37.380267082425526 20.8448
37.40395510942588 20.6915
37.42746114683234 20.6745
37.45096881771841 20.6384
37.474478123414166 20.622
37.49817275092816 20.5848
37.52168534303452 20.5787
37.54519957395567 20.4623
37.568715445024665 20.4701
37.592416694607714 20.4684
37.61593586281424 20.469
37.63945667518264 20.5025
37.66297913304891 20.4042
37.68668702630454 20.3623
37.710212792059274 20.2934
37.733740207334854 20.2886
37.757269273470364 20.2669
37.780983832050374 20.1727
37.80451621684926 20.1017
37.82805025654007 20.1354
37.851585952464795 20.1056
37.8753071980695 20.0667
37.89884622345676 20.0068
37.92238690911902 20.0543
37.94611318753442 19.9849
37.969657210779765 19.9601
37.99320289834801 19.9503
38.016750251586465 19.8684
38.04048325513017 19.8482
38.06403395679343 19.785999999999998
38.087586328183946 19.7648
38.11114037065203 19.8158
38.13488012115898 19.7718
38.1584375229181 19.7149
38.181996599821 19.6703
38.205557353221124 19.6651
38.229303872575656 19.6407
38.2528679961576 19.6018
38.27643380031219 19.5295
38.30000128639589 19.5317
38.32375459653193 19.4721
38.34732546371299 19.4313
38.37089801690786 19.4007
38.39447225747609 19.3881
38.418232380377425 19.3275
38.441810012983396 19.3463
38.46538933705673 19.3069
38.488970353960084 19.269000000000002
38.51273731166058 19.2151
38.536321731567014 19.2342
38.55990784840681 19.107
38.58367995004091 19.1414
38.60726947812959 19.0824
38.63086070726198 19.0953
38.654453638806274 19.1126
38.678232613930824 19.04
38.70182896773327 18.9212
38.72542702806741 18.918
38.7490267963045 18.9264
38.77281266709232 18.8781
38.79641586862214 18.8392
38.8200207821842 18.8747
38.843627409152944 18.8104
38.86742019782782 18.805
38.891030269149255 18.7482
38.914642058016156 18.7309
38.938255565806124 18.7031
38.96205529464307 18.6074
38.98567225787121 18.6463
39.00929094417078 18.5847
39.03291135492255 18.6369
39.05671804624804 18.5222
39.080341923549106 18.4872
39.103967529460334 18.4517
39.127594865365744 18.3693
39.15140854155791 18.3979
39.17503935514948 18.4342
39.19867190290282 18.4137
39.22249083587951 18.3218
39.24612686969409 18.3211
39.269764641845306 18.2761
39.293404153722804 18.2454
39.317230110864074 18.1871
39.34087311998506 18.2263
39.36451787301696 18.2076
39.388164371352595 18.1223
39.41199737518003 18.1171
39.43564738196752 18.0863
39.45929913825317 18.0535
39.48295264543308 18.0201
39.506792718520884 17.9528
39.530449745387216 17.9481
39.55410852735203 17.8628
39.57776906581474 17.9029
39.60161623079 17.9099
39.625280300200025 17.8689
39.64894613032202 17.7379
39.67261372255866 17.7892
39.6964680021016 17.7318
39.72013913657293 17.6983
39.74381203738292 17.7391
39.76748670593756 17.6742
39.79134812278169 17.6602
39.81502634488497 17.5931
39.83870633896685 17.5899
39.862388106436654 17.4881
39.88625668336918 17.5398
39.90994201572829 17.5179
39.933629125719285 17.4635
39.957503091207826 17.4734
39.9811937746168 17.4886
40.00488623990914 17.3989
40.02858048850006 17.3739
40.05246165409549 17.3154
40.076159487492085 17.3202
40.099859108448875 17.3018
40.123560518384345 17.2599
40.1474489070226 17.2231
40.171153913178564 17.1178
40.194860712584955 17.122
40.2185693066637 17.201
40.242464941335314 17.1612
40.26617714307655 17.0728
40.289891143772046 17.0757
40.3136069448471 17.0416
40.33750984859743 17.033
40.3612292688043 16.9443
40.3849504936829 16.9398
40.40867352466194 16.9036
40.43258372059144 16.8661
40.45631038219906 16.8882
40.48003885420956 16.8289
40.503769138055105 16.834
40.52768664931955 16.8318
40.55142057531802 16.8334
40.57515631746428 16.6989
40.599079334038514 16.7073
40.62281872700477 16.6743
40.64655994043941 16.5862
40.67030297578061 16.6572
40.69423334835778 16.6428
40.71798004609188 16.6179
40.74172857006355 16.5652
40.76547892171441 16.5739
40.7894166736039 16.5697
40.813170699248566 16.4398
40.83692655691388 16.4205
40.86068424804498 16.4601
40.884629402612525 16.4168
40.908390779366385 16.4194
40.932153993938 16.3552
40.95591904777605 16.3374
40.979871628443995 16.3317
41.003640379561936 16.3324
41.02741097430883 16.2733
41.05118341413683 16.2186
41.075143444384416 16.2312
41.098919593177826 16.2058
41.1226975914255 16.1786
41.14647744058318 16.1548
41.170444943946755 16.0914
41.19422851378379 16.1209
41.218013938914645 16.0594
41.24198706625173 16.0105
41.26577622087193 15.8925
41.289567235177785 15.905999999999999
41.31336011063129 15.9314
41.337340752422875 15.9398
41.361137369129835 15.9423
41.38493585138705 15.8767
41.40873620066004 15.8458
41.43272438060107 15.787
41.45652848292052 15.7829
41.48033445666918 15.7142
41.50414230331616 15.7132
41.528138045159764 15.694
41.551949656675205 15.630999999999998
41.575763145513235 15.6296
41.59957851314666 15.5954
41.62358184070442 15.5879
41.64740098505737 15.5615
41.6712220126409 15.5682
41.69504492493139 15.488
41.71905586207357 15.455
41.74288256296395 15.4512
41.766711153007456 15.4285
41.79054163368412 15.3543
41.814560204340054 15.3806
41.838394485526365 15.3577
41.86223066180303 15.2946
41.88625497706819 15.2847
41.910094962812 15.2864
41.93393684811168 15.261
41.95778063445365 15.1683
41.981812625263366 15.1085
42.00566023303407 15.1302
42.029509746323676 15.1332
42.05336116662236 15.0745
42.077400857069705 15.1163
42.10125611078846 15.0746
42.12511327600405 15.0287
42.14897235421036 15.0333
42.173019768448455 15.0129
42.19688269209613 14.985
42.22074753323349 14.9622
42.24461429335818 14.9107
42.268669455600495 14.8786
42.292540073217886 14.8705
42.31641261433284 14.8618
42.34028708044675 14.8191
42.36435001496739 14.7773
42.38822835065557 14.809000000000001
42.41210861586426 14.7507
42.4359908120986 14.8105
42.46006154323262 14.7282
42.48394762115317 14.6893
42.507835634632315 14.6353
42.531912233047436 14.6002
42.55580413732265 14.6197
42.579697981698 14.655
42.60359376768525 14.5559
42.62767820545945 14.5248
42.65157789440821 14.4769
42.67547952952185 14.4741
42.699383112316 14.4642
42.72347541395347 14.3543
42.74738291190531 14.365
42.771292362102166 14.3939
42.795203766063516 14.3472
42.819303956130405 14.3116
42.843219287476536 14.2968
42.86713657716324 14.2712
42.89105582671383 14.2228
42.91516392983864 14.2267
42.939087119032166 14.2256
42.963012272677304 14.1633
42.98693939230129 14.1284
43.01105543317513 14.0873
43.034986504731386 14.0727
43.05891954686589 14.0704
43.08285456110972 14.1084
43.10697856448665 14.0593
43.130917542983475 14.0206
43.15485849820081 13.9908
43.17880143167367 13.9798
43.20293342237094 13.9854
43.226880332449 13.872
43.25082922540554 13.8765
43.27496722682525 13.8468
43.29892010567796 13.8449
43.32287497204102 13.7994
43.34683182745632 13.7629
43.370977859791836 13.7691
43.39493871351105 13.7754
43.41890156092628 13.7804
43.44286640358341 13.7392
43.46702049182749 13.7308
43.49098934522816 13.6746
43.51496019852649 13.6073
43.5389330532723 13.6069
43.56309522248204 13.5007
43.58707210044314 13.5836
43.61105098451946 13.5256
43.63503187626491 13.5189
43.659202151562134 13.4695
43.68318707902681 13.4677
43.70717401884041 13.415
43.731162972560874 13.3793
43.75534137913236 13.3531
43.779334381108384 13.4052
43.803329401683186 13.4387
43.82732644241872 13.3382
43.8515130055166 13.2757
43.87551410707659 13.2858
43.89951723350145 13.2555
43.923709934595614 13.2066
43.94771713129917 13.2231
43.97172635758096 13.1904
43.99573761501002 13.1627
44.0199385169922 13.1221
44.04395385732619 13.0799
44.067971233533086 13.1148
44.09199064718605 13.0845
44.11619977548961 13.0871
44.14022328470671 13.0019
44.16424883610785 13.0442
44.18827643127035 13.029000000000002
44.21249381139513 12.9617
44.236525514814076 12.9374
44.26055926674478 12.9468
44.28459506876863 12.9333
44.3088207262813 12.8687
44.33286064928722 12.860999999999999
44.35690262714919 12.8325
44.38094666145278 12.7818
44.4051806219871 12.8009
44.42922879003185 12.7484
44.45327901929361 12.7452
44.477331311362136 12.7178
44.501573600619416 12.6923
44.525630039221795 12.7
44.54968854541895 12.6702
44.573937102200176 12.625
44.5979997645541 12.6288
44.622064499300315 12.5549
44.64613130803592 12.5401
44.67038823869318 12.5609
44.69445921643748 12.5025
44.718532272981385 12.4851
44.742607409926194 12.4611
44.76687274034801 12.4829
44.79095205918753 12.3799
44.81503346325094 12.4178
44.839116954143876 12.3954
44.86339071028742 12.3527
44.88747839599524 12.3705
44.91156817336837 12.3457
44.93566004401666 12.2909
44.959942251908146 12.2749
44.984038330325966 12.264000000000001
45.00813650686762 12.2
45.03223678314731 12.2141
45.05652746888232 12.182
45.08063196592069 12.1483
45.104738567558705 12.1787
45.128847275414856 12.1315
45.15314646515866 12.1014
45.17725940679741 12.0683
45.20137445952892 12.1072
45.22568004865265 12.0708
45.24979934496396 12.0447
45.27392075725247 11.9932
45.29804428714431 11.9947
45.322358426247604 11.9713
45.346486212804315 11.9357
45.370616121861914 11.8697
45.39474815505086 11.9
45.41907087049246 11.8622
45.4432071734666 11.83
45.46734560548283 11.8674
45.49148616817604 11.8677
45.51581748638564 11.7971
45.5399623320197 11.7564
45.56410931325473 11.7319
45.58825843173002 11.7427
45.61259837920865 11.7027
45.636751793816 11.6641
45.66090735060093 11.6701
45.68506505120716 11.6445
45.7094136545275 11.6332
45.73357566449271 11.5852
45.75773982322992 11.5954
45.78190613238733 11.5898
45.806263418194064 11.5302
45.83043404997326 11.5389
45.85460683713677 11.5311
45.87897065658495 11.4864
45.90314777634752 11.4079
45.92732705646868 11.4361
45.9515084986045 11.4238
45.97588104735473 11.3931
46.00006683541565 11.3895
46.02425479047904 11.3491
46.04844491420549 11.3356
46.0728262191024 11.3342
46.09702070211635 11.31
46.12121735879483 11.3125
46.14541619080294 11.2851
46.169806278764455 11.2474
46.194009483459034 11.2686
46.21821486849841 11.235999999999999
46.24242243555223 11.2076
46.266821333570014 11.1485
46.29103328674601 11.1054
46.31524742696538 11.1094
46.33946375590237 11.0799
46.36387149104216 11.0817
46.38809221957392 11.0988
46.41231514186606 11.0629
46.436540259597464 11.029000000000002
46.460956858999374 10.9897
46.48518638983522 10.9719
46.509418121166966 10.9435
46.533652054678114 10.892999999999999
46.55807754555709 10.8654
46.58231590571962 10.8749
46.60655647313217 10.8424
46.630988654873654 10.8003
46.655233659129024 10.802
46.67948087571551 10.8158
46.70373030632484 10.7551
46.72817142736393 10.8097
46.752425308428684 10.7622
46.77668140861147 10.7061
46.80093972960865 10.707
46.82538981736788 10.7075
46.849652602470904 10.6395
46.87391761349769 10.6062
46.8981848521493 10.6311
46.9226439341274 10.6013
46.946915650573224 10.5747
46.97118959976749 10.5637
46.99546578341598 10.5402
47.019933887188216 10.5219
47.04421456235744 10.5095
47.06849747711879 10.4792
47.09278263318286 10.4388
47.11725978640143 10.4444
47.14154944775105 10.4239
47.165841355555656 10.4402
47.1901355115306 10.3964
47.214621741924994 10.38
47.23892041698887 10.3443
47.26322134538975 10.3157
47.28771440635075 10.3166
47.31201986422527 10.3188
47.33632758061436 10.2872
47.360637557241866 10.2566
47.38513974410611 10.2056
47.40945426407847 10.1867
47.43377104948137 10.1623
47.45809010204344 10.2016
47.48260144275502 10.1689
47.506925052572285 10.172
47.53125093475548 10.1358
47.55557909103813 10.1123
47.58009961361992 10.0567
47.60443234110732 10.0946
47.62876734791564 10.082
47.65310463578333 10.0266
47.6776343683373 10.0523
47.7019762413987 9.99061
47.72632040075572 9.96975
47.75066684815169 9.9714
47.77520581885936 9.941510000000001
47.799556865477655 9.92914
47.823910205386 9.91835
47.84826584033272 9.91766
47.87281407745551 9.864180000000001
47.89717432569297 9.86769
47.92153687423484 9.83142
47.94609208429692 9.80879
47.97045925671401 9.81921
47.99482873471275 9.76932
48.01920052005013 9.751339999999999
48.04376504619224 9.741489999999999
48.068141469543484 9.712810000000001
48.09252020552573 9.74629
48.11690125590099 9.707989999999999
48.1414751266064 9.6672
48.16586082917454 9.66269
48.19024885144316 9.615739999999999
48.2146391951793 9.58568
48.239222439012764 9.61963
48.26361744916137 9.56241
48.28801478610016 9.57484
48.31241445160131 9.55269
48.337007097209366 9.51828
48.36141144338331 9.51808
48.38581812345755 9.47677
48.41022713920929 9.5036
48.434829215320704 9.49869
48.45924292604658 9.44006
48.48365897780325 9.46632
48.50807737237308 9.42676
48.532688907799276 9.35852
48.55711201168574 9.35177
48.581537463754074 9.3616
48.60615611725119 9.35851
48.63058628942721 9.34888
48.65501881516546 9.31375
48.6794536962573 9.29807
48.70408185970339 9.27257
48.72852147531801 9.27537
48.75296345168211 9.2449
48.77740779059232 9.24112
48.80204549302823 9.25432
48.82649458091802 9.26427
48.85094603676547 9.178230000000001
48.87539986237231 9.14818
48.90004713292306 9.123569999999999
48.92450572200832 9.13695
48.94896668628025 9.108080000000001
48.97343002754588 9.126
48.99808689542115 9.10502
49.02255501470614 9.07963
49.04702551642794 9.047419999999999
49.0714984023988 9.03397
49.096164896893235 9.00227
49.120642575466796 9.00624
49.145122643748394 8.96226
49.16960510355558 8.94797
49.19428125404938 8.91491
49.2187685210852 8.91098
49.243258185121555 8.91512
49.26794160167084 8.900739999999999
49.2924360839405 8.87772
49.31693296869764 8.80959
49.34143225776915 8.80973
49.36612538195438 8.77816
49.39062950396021 8.80365
49.41513603578346 8.7617
49.4396449792564 8.75614
49.46434784069503 8.73814
49.488861631846454 8.729610000000001
49.513377840166804 8.73846
49.537896467493745 8.67446
49.56260909589029 8.65536
49.587132585683285 8.66287
49.611658500018365 8.63975
49.636186840738596 8.63263
49.66090926588511 8.625
49.685442483902584 8.58561
49.70997813385706 8.57597
49.734516217597076 8.53245
49.75924846937352 8.52266
49.7837914452858 8.5316
49.80833686055187 8.5287
49.83288471702571 8.506310000000001
49.85762682540054 8.50339
49.882179588965734 8.50603
49.9067347993235 8.476989999999999
49.93129245833333 8.40495
49.95604445336378 8.41533
49.98060703442832 8.39021
50.005172069746266 8.39126
50.02993150438364 8.421510000000001
50.05450147301533 8.35825
50.07907390151433 8.35482
50.10364879174981 8.33276
50.12841816587289 8.29957
50.1529980044635 8.2952
50.17758031042124 8.28615
50.20216508562089 8.25865
50.22694442953363 8.2374
50.25153416817468 8.24202
50.27612638170508 8.26362
50.300721072005196 8.21538
50.325510416102105 8.18565
50.350110084975064 8.14742
50.37471223628208 8.212489999999999
50.39931687190919 8.0921
50.424116246675766 8.13088
50.44872587605249 8.11673
50.47333799543065 8.111360000000001
50.49795260670191 8.09414
50.52276204271512 8.050939999999999
50.54738166295838 8.0407
50.57200378079314 8.05752
50.596628398116835 8.00324
50.62144792604559 7.99211
50.646077567609396 7.96811
50.670709714377715 7.979019999999999
50.69553683636198 7.9781699999999995
50.72017401885922 7.933439999999999
50.7448137122895 7.87525
50.76945591856022 7.913010000000001
50.79429318636823 7.9169
50.818940443716784 7.8928
50.84359021965163 7.856739999999999
50.868242516085964 7.8393
50.893089960641895 7.826060000000001
50.917747323549435 7.81238
50.94240721271973 7.8183
50.96706963007175 7.758030000000001
50.99192728239342 7.742030000000001
51.01659478166073 7.72997
51.04126481489051 7.713939999999999
51.06593738400761 7.7218100000000005
51.090805275207074 7.746569999999999
51.11548294172845 7.68952
51.14016314993547 7.67
51.164845901758845 7.69348
51.18972406304274 7.669239999999999
51.21441192780656 7.64728
51.23910234200271 7.6085199999999995
51.2637953075678 7.5952399999999995
51.288683770237945 7.57988
51.31338186432707 7.5492300000000006
51.33808251561888 7.51685
51.362978729967345 7.54639
51.387684521509755 7.507160000000001
51.41239287610203 7.472739999999999
51.437103795691165 7.47098
51.46201036644977 7.45078
51.486726441956634 7.451280000000001
51.51144508832545 7.42952
51.536166307509156 7.44853
51.56108326624387 7.42085
51.58580965706056 7.429710000000001
51.61053862657523 7.3796100000000004
51.635270176746864 7.3741699999999994
51.66019755512065 7.36556
51.68493429268881 7.31778
51.70967361681515 7.3147199999999994
51.73441552946465 7.3017
51.759353359237934 7.281839999999999
51.7841004750961 7.277260000000001
51.80885018539685 7.25432
51.833602492111254 7.23756
51.8585508051424 7.24529
51.883308330926425 7.1879100000000005
51.90806845906181 7.2106
51.932831191525715 7.17093
51.95779001977161 7.150760000000001
51.98255798721516 7.1292100000000005
52.00732856494335 7.14815
52.03229530577543 7.16427
52.057071130455945 7.11722
52.081849571391054 7.07447
52.106630630568695 7.070289999999999
52.13160794279417 7.05515
52.15639426492067 7.027660000000001
52.18118321127822 7.01058
52.205974783860896 7.003939999999999
52.23096269971011 7.01158
52.255759551287994 6.995080000000001
52.280559035098186 6.971710000000001
52.30536115314103 6.94827
52.33035970494467 6.95567
52.35516711807904 6.9470600000000005
52.37997717147198 6.93032
52.40478986713005 6.91568
52.42979908731974 6.87858
52.454617094216 6.87125
52.47943774942214 6.86307
52.50426105495102 6.84179
52.529280976059844 6.87413
52.554109609024096 6.80456
52.57894089837482 6.8044
52.60377484613117 6.7837
52.62880550079408 6.7828100000000004
52.65364479223379 6.78145
52.67848674816189 6.6928399999999995
52.70352547971946 6.74022
52.72837279155837 6.724819999999999
52.753222773982785 6.70472
52.778075429022984 6.67311
52.80312495150885 6.69152
52.827982978797436 6.65118
52.85284368481815 6.66449
52.87770707160767 6.64115
52.90276741793998 6.6539600000000005
52.92763619336701 6.617430000000001
52.952507655698504 6.61688
52.977381806977576 6.5980300000000005
53.00245301017842 6.57415
53.02733256653592 6.54809
53.052214817996074 6.55234
53.077099766608484 6.51701
53.102181859804446 6.53089
53.127072229988265 6.5404599999999995
53.15196530349892 6.5041199999999995
53.17686108239249 6.428730000000001
53.20195409881522 6.4309
53.22685531582556 6.46164
53.25175924441303 6.42697
53.27666588664027 6.41726
53.30176985962693 6.41005
53.3266819565689 6.37615
53.35159677336455 6.40065
53.376514312083096 6.36676
53.40162927507703 6.34046
53.42655228516116 6.333069999999999
53.45147802340193 6.29585
53.47660125628886 6.30769
53.50153247842639 6.33021
53.52646643496923 6.27154
53.55140312799818 6.24953
53.576537409691696 6.26961
53.60147960336152 6.26802
53.626424539786164 6.2327
53.65137222105307 6.22639
53.67651758529126 6.26584
53.70147078399681 6.18434
53.72642673383343 6.19233
53.75138543689533 6.1646
53.776541917524526 6.125719999999999
53.801506154876755 6.15266
53.826473151763246 6.09989
53.851442910284916 6.10026
53.87661054126026 6.09995
53.9015858509782 6.07251
53.92656392866066 6.1147800000000005
53.95154477641532 6.08906
53.976723591801296 6.053730000000001
54.00171000771266 6.04516
54.02669920004598 6.03751
54.051691170915745 6.0045
54.076881204886796 6.01965
54.101878760928514 5.99293
54.12687910187696 5.951969999999999
54.152077577768296 5.93697
54.1770835166946 5.9136
54.20209224691339 5.9046
54.22710377055121 5.90078
54.25231352511594 5.8474900000000005
54.27733066384342 5.80451
54.30235060239643 5.85754
54.32737334290836 5.826169999999999
54.35259441062629 5.77881
54.377622783395324 5.7826699999999995
54.40265396455061 5.80425
54.42768795623251 5.74391
54.45292037169559 5.74915
54.477960012857906 5.74432
54.50300247099511 5.72505
54.52804774825457 5.75289
54.55329154616743 5.669630000000001
54.57834249018678 5.65056
54.6033962597977 5.63258
54.6284528571545 5.6770000000000005
54.653708072335164 5.59807
54.67877035378786 5.598669999999999
54.70383546947698 5.5907800000000005
54.72890342156389 5.53996
54.7541700889442 5.4889
54.77924374251975 5.50001
54.8043202390049 5.4347199999999996
54.82959552413022 5.43878
54.8546777351945 5.43021
54.87976279569621 5.39419
54.90485070780914 5.3857800000000005
54.930137506558005 5.41111
54.95523115074295 5.4122699999999995
54.98032765308844 5.34342
55.005427015775496 5.30804
55.03072536339621 5.32987
55.05583047570572 5.28052
55.080938454927676 5.2611300000000005
55.10604930325027 5.2527800000000004
55.131359235107396 5.29128
55.15647585066083 5.231240000000001
55.181595341907496 5.15658
55.20671771104285 5.15216
55.232039262617704 5.15079
55.25716741665048 5.12918
55.28229845518636 5.13328
55.30743238042802 5.0528699999999995
55.33276558731939 5.08089
55.357905315183636 5.06051
55.383047936390035 4.99517
55.40819345314859 4.9711099999999995
55.433538351073295 4.96783
55.458689688238415 4.95222
55.483843927614096 4.858219999999999
55.509197623043605 4.91576
55.53435769621134 4.85312
55.55952067826466 4.84488
55.5846865714265 4.87001
55.61005202069737 4.83661
55.63522376553902 4.839980000000001
55.66039842818645 4.82372
55.68557601087004 4.84164
55.7109532500271 4.75462
55.73613670233794 4.7154
