TT I
1.2716486653135266 7.246010000000001
1.2939594142134223 6.781810000000001
1.3162702121660406 6.02455
1.3385810600174564 5.97952
1.3608919586137629 6.14676
1.383202908801069 5.99482
1.405513911425503 6.2428099999999995
1.4278249673332093 5.97885
1.4501343378461518 5.7903
1.4724455028545926 5.31879
1.4947567236847858 5.114719999999999
1.517068001182951 5.58426
1.5393793361953272 5.34492
1.5616907295681737 5.35193
1.5840021821477681 5.06976
1.60631369478041 4.65269
1.6286252683124185 4.68928
1.6509369035901333 4.39896
1.6732468618895553 4.54322
1.695558623192809 4.16685
1.7178704487808514 4.26414
1.7401823395001077 4.07245
1.7625012545597203 4.03864
1.7848028405262486 3.9100800000000002
1.8071218901122095 4.35476
1.8294236121921872 4.18513
1.8517427996910911 4.37124
1.8740620574440425 3.93035
1.8963639900671978 4.0126
1.9186833908139995 4.23519
1.9409854680117449 4.27124
1.9633050151394713 4.35722
1.9856246367570705 4.410069999999999
2.0079269371922672 4.0490900000000005
2.03024671027244 3.96095
2.0525491637446027 3.7656099999999997
2.074869091674931 4.13215
2.097171701569106 4.1121099999999995
2.1194917877373847 4.1921
2.141811954326636 4.3285
2.164114805233074 4.20858
2.186435135143035 4.627669999999999
2.208738150935709 5.13261
2.231058647554722 6.74978
2.2533792288321184 6.361759999999999
2.275682498336085 5.11745
2.298003251406138 4.77073
2.3203066942619714 5.2527
2.3426276225136022 5.4821
2.3649486396617507 5.29981
2.387252348930071 6.0595099999999995
2.4095735463442893 5.5978699999999995
2.4318774374315884 5.7394099999999995
2.4541988185014043 6.3143199999999995
2.476502894794693 6.41794
2.498824462909887 6.74355
2.521146125856138 7.5355300000000005
2.5434504863470337 7.69885
2.5657723414244717 7.704510000000001
2.588076895590662 8.2885
2.610398946189713 8.67389
2.6327210958598384 8.3328
2.6550259469304716 7.594310000000001
2.6773482972090137 8.655569999999999
2.6996533504259 8.8946
2.7219759047039602 8.17985
2.744298562293959 7.69663
2.7666039251246595 7.85953
2.7889267918020164 8.36936
2.8112323652516555 9.00792
2.833555444408179 9.30185
2.8558786311183852 8.659289999999999
2.8781845268938557 9.31921
2.9005079311721484 9.26568
2.9228140460410397 9.45964
2.9451376712799635 9.67418
2.967444008632326 9.57921
2.9897678582247247 10.1374
3.0120918213106695 10.2592
3.0343984987899373 10.2092
3.0567226913198637 10.8099
3.079029599759726 11.2491
3.101354025127254 12.3117
3.123678568232338 12.8114
3.145985829517914 12.7771
3.16831061055229 13.4757
3.1906181112775593 14.1332
3.212943133635653 14.4192
3.2352682779763207 14.4162
3.2575761442691227 15.1813
3.2799015350264273 15.4852
3.302209649240067 16.0514
3.3245352898092655 15.8881
3.3468436553365257 16.5791
3.369169549113219 17.1645
3.3914955708171384 18.1834
3.413804319727358 18.3485
3.4361305997334863 18.396
3.4584396084414553 18.8301
3.4807661501462652 19.4497
3.503092824025881 19.7901
3.5254022288463154 20.4495
3.5477291695206588 20.4957
3.5700388426251948 20.5545
3.5923660534916446 21.4318
3.6146934007816114 23.0289
3.637003482731501 28.4386
3.6593311053109985 30.5842
3.681641464033634 26.8273
3.7039693653009733 24.0418
3.726297407241705 23.8912
3.7486081875460804 23.4136
3.7709365132734978 24.4324
3.793247578841633 25.369
3.8155761917550093 25.4651
3.8378875459837216 25.8451
3.8602164494827234 26.3852
3.882545499606844 26.9348
3.9048572932539183 27.5527
3.9271866390645718 27.8465
3.9494987298666713 28.5209
3.971828374764527 29.0002
3.9941581705403255 29.2866
4.016470713506008 29.8112
4.038800813471445 30.1411
4.061113662089144 30.2435
4.0834440696459176 31.5446
4.105774632334751 31.6071
4.128087945865126 32.6208
4.150418821249301 32.81
4.172732448931298 33.9049
4.195063640413578 34.536
4.2173775856475215 35.2351
4.239709096631102 38.2837
4.262040768704612 52.2948
4.284355196706267 64.4537
4.306687193387355 56.8884
4.329001947444346 44.2803
4.35133427213731 40.5426
4.373666762177566 40.6366
4.395982011761091 41.1157
4.418314834921175 41.8567
4.44063041906622 43.4372
4.4629635787515625 45.0328
4.4852969080429785 46.4997
4.5076130004776225 46.5449
4.529946671403969 47.0456
4.552263106909177 47.2159
4.574597122877047 48.505
4.596931312711224 49.8758
4.619248269273446 50.9826
4.6415828092605835 51.4779
4.663900117405352 52.6656
4.686235010953232 54.1737
4.708552674085913 55.3387
4.730887924602802 57.0102
4.753223354952695 58.1204
4.775541557023902 59.2866
4.797877349456786 60.9847
4.820195915032126 62.8148
4.842532072957498 63.9032
4.864868414979744 66.1095
4.88718753227192 68.1422
4.909524244902505 70.0267
4.931843734218147 71.4207
4.954180820867835 74.0177
4.976518095879839 76.9746
4.998838149695359 79.5356
5.021175803844231 83.396
5.043496238205739 86.2075
5.065834274903528 89.4148
5.088172504230693 93.5878
5.1104935158799565 97.8849
5.132832132875765 105.639
5.155153533596801 118.616
5.1774925416746225 138.27200000000002
5.199814334878411 234.167
5.2221537374521505 804.9760000000001
5.244493338631803 2509.27
5.266815727034316 7184.65
5.289155727832427 13559.9
5.311478517248165 9527.73
5.333818921080011 3249.67
5.356159527788849 677.26
5.3784829252032536 212.262
5.400823940070432 145.721
5.423147747031976 124.49600000000001
5.445489173474152 113.721
5.467830807066149 107.883
5.490155234831516 104.161
5.512497285125229 100.53200000000001
5.534822130975162 99.2945
5.557164601388673 97.4031
5.579489868738879 94.439
5.601832762690846 93.3813
5.6241758697774475 92.1046
5.646501775867269 91.2171
5.668845311622074 90.7035
5.691171647754637 89.7196
5.713515615597765 88.5921
5.735859800852677 87.7331
5.758186788542988 87.3003
5.780531411018185 87.2045
5.802858837297399 86.2086
5.825203900414495 86.652
5.8475491852224 86.5187
5.869877275883075 87.083
5.892223006467101 88.0829
5.914551544266608 89.2308
5.936897724049891 91.324
5.959244129804903 94.9276
5.981573344815301 106.655
6.0039202049061 163.781
6.026249875609095 395.778
6.04859719346037 898.039
6.070927323278297 2056.52
6.093275102315365 4543.72
6.115623113320588 5581.76
6.137953938319995 3587.63
6.160302415650845 1070.77
6.182633708324452 238.002
6.2049826554078376 109.21600000000001
6.227331838745022 87.2086
6.249663839443684 79.7491
6.27201349767565 76.1426
6.294345974611799 73.9935
6.316696111167083 72.9392
6.339046488263839 71.9168
6.361379686074702 68.8874
6.383730546639482 66.8281
6.406064229255215 64.4979
6.428415576718203 64.487
6.450749747566656 63.4179
6.47310158535871 62.4366
6.495453669698332 62.0056
6.517788579421056 61.2591
6.540141159237969 60.1395
6.562476565766648 59.8183
6.5848296444934045 58.9697
6.607182974060425 58.2981
6.6295191323281015 58.2854
6.651872965955752 57.8249
6.6742096296068985 58.7305
6.6965639707294615 63.038999999999994
6.71891856698715 64.2924
6.741255995248479 60.1007
6.763611104154477 56.5842
6.785949046381137 55.185
6.808304671371482 54.4016
6.8306605557940046 54.305
6.852999275508618 53.9371
6.875355681171544 53.6641
6.897694923437771 53.5133
6.92005185377892 53.6905
6.9423916220322655 53.269
6.964749080490181 52.7615
6.987106804399774 52.3723
7.009447368180821 52.5373
7.031805625367033 52.4041
7.054146723727803 52.2985
7.076505517631004 52.2471
7.098864581288365 51.9681
7.121206488070854 51.9834
7.143566093607822 51.3838
7.165908543567245 51.568999999999996
7.188268694426048 51.5612
7.2106291193438095 51.1723
7.232972390625943 51.1743
7.255333366030969 51.6606
7.277677189091925 55.4938
7.300038718428332 61.7211
7.322400526130865 61.1972
7.344745183422596 55.6874
7.367107550224791 52.3204
7.389452767901992 51.5662
7.411815697249891 51.5935
7.434161478756298 51.3808
7.456524974096713 51.3518
7.478888753837185 51.1763
7.501235387657368 52.7684
7.523599738562711 59.4575
7.545946944825532 69.7821
7.568311870344528 73.7653
7.5906770845765665 65.8216
7.613025156078678 56.7687
7.635390950099687 53.9358
7.657739602662809 52.7257
7.680105979923558 52.8785
7.702472650212829 53.2302
7.724822180948224 53.0022
7.747189439655568 53.3434
7.769539560075357 53.2049
7.791907410653562 53.8191
7.81425812420825 53.6572
7.836626570110925 53.8094
7.858995315087906 54.7149
7.881346924933401 54.7963
7.903716270417482 55.3265
7.926068482028405 55.9182
7.948438431475253 56.2049
7.9708086843180235 56.7263
7.993161805171116 57.2983
8.015532667162402 57.6675
8.037886398416653 58.6647
8.060257873014221 58.8635
8.082629655331942 59.3818
8.104984308787587 59.9663
8.127356708900503 61.1005
8.149711981398308 62.4999
8.172085002766314 63.453
8.194458336181368 64.0966
8.216814543847752 64.8533
8.23918850371002 66.1308
8.26154533906492 66.7384
8.283919928836452 68.2139
8.306277395339652 69.2092
8.328652618483376 70.491
8.351028159736202 72.3163
8.373386579575245 74.2164
8.395762759396959 75.5385
8.418121819038275 77.9685
8.440498640894003 81.6229
8.462875785192262 85.8968
8.485235811156207 94.4656
8.507613602688501 129.576
8.529974277114228 230.368
8.552352719347912 371.397
8.574731488360351 617.563
8.59709314210385 1090.25
8.619472567021075 1846.61
8.64183487789147 2271.97
8.664214962183097 1980.76
8.686577933647762 1086.71
8.708958680784317 414.092
8.731339760774953 175.58900000000003
8.753703729764451 109.568
8.77608547780821 95.0273
8.798450116065078 91.0655
8.820832535634787 88.2392
8.843215292401656 86.95700000000001
8.865580941199045 85.8066
8.887964374703538 84.1547
8.910330701447199 83.5119
8.932714815164482 82.9481
8.955099270424924 82.5898
8.977466620733543 81.9317
8.999851761421976 81.1843
9.022219798361645 80.3435
9.04460562795561 80.3065
9.066991803441677 79.8226
9.089360876979615 79.7276
9.111747746589993 79.4426
9.13411751544971 78.8962
9.156505082664324 78.8934
9.178875550323522 79.6226
9.20126381862328 81.8726
9.223652438908596 92.4762
9.246023961427412 109.148
9.26841328802173 115.148
9.290785518039224 104.29
9.313175554425882 89.7922
9.335565947154315 82.2059
9.357939245086508 80.3237
9.380330352834827 79.9692
9.40270436697103 80.0689
9.425096193225055 79.9642
9.447488380180165 80.568
9.469863475295412 80.6491
9.492256385987508 80.8047
9.514632206018318 81.3984
9.537025843935714 81.4742
9.559402392368193 82.0087
9.581796761000229 83.1561
9.604191496441521 83.8671
9.626569144158516 84.421
9.648964615551032 85.434
9.671343000390081 86.5552
9.693739211225699 87.3494
9.716135793237463 87.9617
9.738515290448102 88.6391
9.760912617143402 89.4324
9.783292860202891 90.7967
9.805690935076182 91.7231
9.828089385495742 92.1199
9.850470754023561 94.1353
9.872869957865444 96.1052
9.89525208097539 98.8371
9.917652041736662 102.915
9.940052382417589 106.22
9.962435644102392 115.734
9.984836746950979 148.142
10.007220771957746 228.986
10.029622640473708 350.31199999999995
10.052007432299963 516.795
10.074410069984072 777.5
10.096813093716005 1201.01
10.119199042482517 1757.63
10.141602840636468 2078.01
10.163989564971628 1672.74
10.186394141051062 989.658
10.208799107559706 436.38800000000003
10.231187001965623 199.98
10.253592751657669 124.854
10.275981430388155 107.13799999999999
10.298387966769793 103.065
10.320794897965431 101.744
10.343184759907361 100.875
10.36559248305461 98.7818
10.387983138083852 97.898
10.410391656691655 98.7104
10.432800574501677 107.807
10.455192425893369 130.214
10.47760214443012 161.666
10.499994797678786 201.99099999999999
10.522405320453982 271.145
10.54479877906917 379.147
10.567210109595656 506.541
10.5896218454736 583.898
10.612016518879773 563.411
10.634429067781074 396.663
10.656824555333241 229.142
10.679237920773568 141.58100000000002
10.701651695961992 104.87700000000001
10.724048411481384 92.8532
10.746463008485165 86.4286
10.768860546937125 82.8996
10.791275969274796 80.3111
10.81369180576079 78.5599
10.836090585366925 77.3429
10.858507252467449 76.7159
10.88090686379991 75.5459
10.903324365036394 74.3923
10.925724811614439 73.4076
10.948143150509463 73.3485
10.970561909719066 72.4749
10.992963615930844 71.7054
11.015383218085756 70.78
11.037785768347074 69.7113
11.06020621697282 69.5624
11.082627090322113 68.9074
11.105030913430326 68.0555
11.12745263854165 67.5745
11.149857314510728 66.9383
11.172279894912576 67.9413
11.194702904450653 67.1797
11.217108866490921 66.3044
11.239532736615194 65.6025
11.26193956033512 65.2936
11.284364294577085 64.7849
11.306789462371718 64.1158
11.329197585398376 63.7543
11.351623622610898 63.6476
11.37403261614354 63.0042
11.396459526308487 62.9886
11.418869393879497 62.6843
11.441297180532617 62.3304
11.463725406927658 62.2045
11.486136592353875 61.7471
11.508565700543707 61.2598
11.530977768845315 61.4555
11.553407762368774 61.2273
11.575838200059769 61.1055
11.598251599479612 60.9102
11.620682927815501 60.6826
11.64309721895548 60.565
11.665529441478206 60.4219
11.687962112597958 60.0188
11.710377748130886 59.9887
11.732811318753434 59.8286
11.755227854859067 59.8719
11.777662328529495 59.9326
11.800079768750786 59.6027
11.822515149015453 59.946000000000005
11.844950984084935 60.1691
11.867369787303163 60.1451
11.889806534289491 60.3678
11.912226250487029 62.0219
11.934663912939751 65.4857
11.9571020346363 68.4862
11.979523127133968 68.8356
12.001962169624331 66.6298
12.024384183972964 63.9244
12.046824150809913 64.29899999999999
12.069264581333726 69.4954
12.091687985297767 76.6617
12.11412934550045 86.1761
12.136553680195208 98.9225
12.158995973632788 119.21
12.181438735204349 146.049
12.20386447284199 180.199
12.226308172985636 204.115
12.24873485024193 213.96099999999998
12.271179492516982 175.1
12.293607112949127 134.36700000000002
12.316052700916226 98.7502
12.338498763250042 74.0773
12.360927805303868 64.4957
12.383374818673879 61.9833
12.405804812803074 61.0939
12.428252780773262 61.1027
12.45070122756722 61.1055
12.473132656675375 61.1166
12.49558206341869 61.3396
12.518014453510101 61.2964
12.540464823770117 61.4524
12.562915677315177 61.43899999999999
12.58534951575545 61.8904
12.607801338171472 62.0029
12.630236146511358 62.6891
12.652688941369085 63.754
12.675124723177234 64.2126
12.697578494048786 64.3474
12.720032754458185 64.1397
12.742470003354093 64.2618
12.764925245138771 64.7289
12.787363476431278 65.1231
12.809819703166806 65.2551
12.83227642391173 66.1871
12.854716135692716 66.8496
12.877173846755147 67.5558
12.899614549869717 68.0414
12.9220732548287 68.9116
12.94453245827299 69.2312
12.966974655289818 70.3078
12.989434858002571 70.7964
13.011878055298721 71.77600000000001
13.034339260862497 72.8154
13.056800969391883 74.1482
13.079245674017244 76.5369
13.101708390774869 78.4458
13.12415410463411 82.6368
13.146617833206086 92.9308
13.169064559883248 108.164
13.191529303857127 125.64
13.213994557076367 147.835
13.236442809902437 180.709
13.258909083908291 228.96900000000002
13.28135835851934 291.365
13.30382565690295 365.37
13.326293469022952 429.653
13.348744283242008 443.92800000000005
13.371213125129904 379.37699999999995
13.39366497011003 279.421
13.416134845360597 183.97299999999998
13.438605238843131 126.855
13.46105863690397 102.64299999999999
13.483530069144786 99.5903
13.505984506951902 107.57600000000001
13.528456981549432 119.99799999999999
13.550929978879088 135.718
13.573385983253365 157.0
13.595860028340867 188.908
13.618317081455832 237.05900000000003
13.64079217790333 295.835
13.663250283359057 357.403
13.685726434770173 388.292
13.708203115221277 358.876
13.730662806148091 287.356
13.75314054697177 204.49099999999999
13.775601299246777 137.89700000000002
13.798080104050406 100.445
13.820559442405358 84.9778
13.843021793671388 79.6567
13.865502201420897 77.4324
13.887965623051947 77.1106
13.910447103807167 76.0019
13.932929122629764 74.5033
13.955394156785959 74.2115
13.977877254034569 73.3616
14.000343367582113 72.6015
14.022827546871707 71.8815
14.045294743423524 71.3625
14.06778000837062 70.8388
14.090265817715476 71.0136
14.112734645763819 72.2351
14.13522154619454 74.0914
14.157691466286913 75.6212
14.180179461423874 75.7027
14.202668005486178 73.6892
14.22513957064374 70.8883
14.247629214846473 69.20100000000001
14.270101881097517 67.9605
14.29259262906496 67.5981
14.315083930490205 67.3867
14.337558255389705 67.2714
14.360050666019726 67.0397
14.382526101071944 66.7233
14.405019624534942 66.57
14.427513705993134 66.4409
14.449990813291825 66.1485
14.47248601302899 66.2243
14.49496423954951 66.332
14.517460561197822 66.656
14.539939910570322 66.1712
14.562437357763558 66.4463
14.58493536931253 66.6377
14.607416409993311 66.655
14.62991555254159 67.2419
14.652397725157423 67.382
14.674898002342799 67.3211
14.697398848433282 67.5088
14.719882725991326 68.211
14.74238471217934 68.5789
14.764869730765593 70.7969
14.787372860692983 74.5643
14.809876564079925 81.1724
14.83236330125751 88.79
14.854868153850365 97.7543
14.877356041159485 109.87200000000001
14.899862046604186 125.729
14.922351087688757 148.424
14.944858249632887 179.081
14.967365991421232 208.84
14.989856770231246 227.72799999999998
15.012365673994204 227.36599999999999
15.03485761569738 199.34799999999998
15.05736768508665 159.869
15.07987833888692 121.611
15.102372032001655 93.514
15.124883856909658 77.2604
15.14737872204565 71.0183
15.169891721717274 68.6846
15.192405310371893 67.8931
15.214901940621196 67.2493
15.237416709527137 66.5412
15.259914520936249 66.4168
15.282430473753607 65.8305
15.304947020131227 65.0658
15.327446610371178 64.7332
15.349964346154254 64.5477
15.372465126703139 64.482
15.394984055556009 64.5006
15.417486030076159 64.2578
15.44000615566487 63.9232
15.462526881230803 63.7212
15.485030653812652 63.5769
15.507552581617434 63.3737
15.530057557334603 63.4192
15.55258069104857 63.4232
15.575104429329837 63.863
15.597611216864632 63.4978
15.620136166564563 63.4963
15.6426441664095 64.0306
15.665170331202765 65.327
15.687697105158826 68.7414
15.710206930593545 73.8493
15.732734925158933 79.4896
15.755245972089478 86.6778
15.77777519094324 94.43299999999999
15.800287463046663 105.54799999999999
15.822817909869592 121.954
15.84534897229804 143.107
15.867863089299354 169.114
15.890395385222186 190.553
15.912910736597423 202.00599999999997
15.935444269699861 191.51
15.957978423016485 167.68900000000002
15.980495633101265 132.876
16.003031029129367 103.01799999999999
16.02554948280019 80.8545
16.048086125229432 69.2698
16.070623392487107 64.7431
16.09314371869582 62.9437
16.11568223789321 61.4565
16.13820381691126 60.1158
16.160743591742527 59.0312
16.183283996022084 58.4281
16.205807461423195 57.4905
16.228349126881973 56.8934
16.25087385432698 56.9461
16.27341678466365 56.3007
16.29594277784926 55.8792
16.31848697676433 55.7264
16.341031811604868 55.17100000000001
16.36355971058487 55.196999999999996
16.3861058195587 54.9576
16.40863499352978 54.3508
16.431182380342005 54.1085
16.453730407713202 53.8968
16.476261501364792 53.887
16.498810812136167 53.6739
16.52134319004079 53.6022
16.54389378792203 53.6221
16.566445031001553 53.4226
16.588979342490088 53.233999999999995
16.61153187824822 53.181999999999995
16.634067483263312 52.7338
16.656621315414416 52.851000000000006
16.679175797408888 52.6079
16.701713349928728 52.7483
16.72426913389191 52.7801
16.74680798922351 52.8596
16.76936507887444 52.9363
16.791905240734874 52.8004
16.814463639794468 52.6052
16.837022695210294 52.9478
16.859564824093756 53.0531
16.882125194503903 53.1099
16.904668639217885 53.5555
16.927230328348003 53.8478
16.949792678493612 54.2248
16.972338104193863 54.1782
16.994901778652235 54.0678
17.017448529496576 53.7629
17.040013531998152 53.8617
17.06257920018044 53.9799
17.0851279459922 54.7454
17.107694947817667 55.9968
17.130245028099072 57.0943
17.15281336730298 58.4894
17.17536478578733 60.073
17.19793446610687 62.1885
17.220504818648422 64.8714
17.243058251703697 68.0552
17.265629950971032 72.2508
17.288184731571736 77.3556
17.310757781306908 81.4609
17.33333150794385 83.0279
17.355888317140174 82.6507
17.37846339986244 78.7195
17.401021565958885 71.8827
17.42359800851343 65.8009
17.44617513265564 61.3737
17.468735341390783 58.7984
17.491261035594565 57.7468
17.51396340099364 57.2989
17.536490463869136 57.381
17.559018209820174 57.1701
17.58154663977963 57.451
17.604251766089718 57.488
17.626781572227713 57.6868
17.64931206518155 57.7535
17.671843245885103 58.1782
17.69455114821572 58.3202
17.717083712612634 58.7088
17.739616967569667 59.3979
17.762150914021706 60.0405
17.78486160749854 60.3329
17.807396945166804 60.9802
17.829932977143503 61.3081
17.85246970436452 61.8755
17.875183204129467 63.5488
17.897721330097664 66.52
17.920260154126645 69.704
17.942799677153296 73.2621
17.9655159983646 77.1397
17.988056927677544 81.9127
18.010598558807683 88.7619
18.033140892692916 97.7391
18.05586005052525 109.00299999999999
18.07840379824407 121.229
18.10094825154059 133.121
18.12366954819864 141.686
18.146215420998306 142.972
18.16876200220057 136.736
18.191309292745153 123.056
18.214033452627167 108.30799999999999
18.236582170236648 95.4973
18.259131600016456 88.2279
18.281681742907335 85.9125
18.304408781233683 89.0056
18.32696035875955 94.4993
18.349512652227624 99.4436
18.372065662579683 105.26799999999999
18.394795594587553 107.781
18.41735004715306 104.969
18.43990521943684 98.3933
18.46246111238171 89.0892
18.485193953325208 79.2
18.507751296070428 70.93
18.530309362314178 65.6787
18.552868153000343 63.003
18.57560391815056 61.143
18.59816416623245 60.6579
18.620725141597372 60.2575
18.643286845190268 59.4901
18.666025549835414 58.9736
18.688588718427933 58.3557
18.711152618092243 58.1966
18.73389353884365 57.7856
18.75645890921984 57.4806
18.77902501351406 57.0627
18.801591852673102 56.9911
18.824335739722738 56.5026
18.846904057212626 56.3827
18.8694731124168 56.0561
18.89204290628315 55.9339
18.914789774966803 55.8806
18.937361054791623 55.558
18.959933076131318 55.1928
18.982505839934877 55.2727
19.00525570560582 55.2933
19.027829963004184 55.0502
19.05040496572238 55.1051
19.072980714710468 54.8268
19.095733592739563 54.9993
19.11831084296757 55.1775
19.140888842324735 55.9107
19.16346759176222 56.2622
19.18622349753803 56.9775
19.208803755869358 58.0081
19.231384767143577 59.1289
19.253966532312948 60.5671
19.276725481241822 62.7445
19.29930876296784 65.6831
19.3218928014549 69.123
19.34465404436217 72.0962
19.36723960516257 74.8898
19.389825925592426 76.1744
19.412413006605938 75.263
19.43517731967805 72.2592
19.457765930683355 67.7595
19.48035530514408 63.3801
19.50294544401556 59.3855
19.525712842708348 56.1958
19.54830451925909 54.2328
19.570896963095727 53.1019
19.593490175174704 52.5282
19.616260674962184 52.5972
19.638855432416964 52.2602
19.661450960992624 52.3724
19.68404726164677 52.2108
19.706820878021247 51.7477
19.729418731756834 52.0331
19.752017360452857 51.8982
19.77461676506804 51.9835
19.797393513540218 51.8373
19.819994478951667 52.0062
19.84259622316767 52.6892
19.8651987471481 53.375
19.887978643247177 53.6043
19.91058273574792 54.39
19.933187610901943 55.1178
19.955969879466828 56.1407
19.97857632894404 57.687
20.00118356396599 58.9888
20.023791585494575 61.0365
20.046577028914875 63.9831
20.069186632506966 66.4276
20.091797025500632 69.1462
20.114408208858933 70.362
20.137196842715273 70.7811
20.159809615886765 69.1602
20.18242318232135 66.5519
20.20503754298326 64.0471
20.227829382875154 62.3302
20.250445341109344 61.6598
20.27306209647285 62.1838
20.29567964993108 63.3723
20.31847471147704 64.6163
20.34109387027612 65.5277
20.363713830075454 65.3206
20.386334591841646 64.0305
20.409132890679302 61.5814
20.431755265564437 58.2549
20.454378445325528 55.2844
20.477002430930366 52.9178
20.499803982716553 51.0551
20.522429589228004 49.9507
20.54505600449589 49.361000000000004
20.567683229489194 49.2201
20.590488049900088 48.9001
20.61311690359731 48.8234
20.63574656993626 48.7475
20.658553853717297 48.4331
20.681185154618298 48.4779
20.703817271080066 48.3126
20.72645020407368 47.9438
20.749260783967177 47.902
20.771895359337133 48.0368
20.794530754161617 48.0475
20.817166969412938 47.9558
20.83998086114876 47.7234
20.86261872660049 47.4834
20.885257415405402 47.4837
20.90789692853701 47.3771
20.930714147864748 47.2644
20.953355319030678 47.2803
20.97599731745334 47.312
20.99864014410749 47.2958
21.021460706796564 47.3233
21.044105199328826 47.5651
21.06675052302631 47.7138
21.089396678865015 47.8078
21.112220600704806 48.2175
21.134868430275347 48.6049
21.15751709492456 48.5353
21.180166595629693 48.8701
21.202993892429635 49.5545
21.22564507473034 50.0709
21.24829709602816 50.4662
21.27112693608965 50.4596
21.293780644891275 50.5074
21.316435195634053 49.9778
21.339090589297417 49.1575
21.361923832041875 48.6809
21.384580921090404 47.8884
21.407238856007325 47.3628
21.429897637773326 47.4148
21.45273429906592 47.3029
21.475394784108598 47.2621
21.498056118951983 47.0829
21.520718304578022 47.2961
21.543558400304388 47.5075
21.566222297108816 47.5666
21.58888704765135 47.6228
21.61155265291521 47.9181
21.63439619898156 48.5914
21.657063523335786 48.8268
21.67973170537063 49.4211
21.7024007460706 50.1962
21.72524775840385 50.6714
21.747918526116475 51.7069
21.770590155457388 52.7394
21.79326264741238 54.1447
21.816113141960237 55.8731
21.838787368860547 57.9477
21.861462461341976 60.2035
21.884315579735777 62.7566
21.90699241312273 64.5451
21.92967011506078 65.2439
21.95234868653799 65.1402
21.9752053151131 63.9109
21.997885635446785 61.8214
22.020566828293532 59.6184
22.04324889464272 57.7797
22.066109049404666 56.4592
22.088792872571794 55.7703
22.111477572219204 55.8422
22.1341631493376 56.0268
22.157026846313123 55.9366
22.179714188221507 55.2485
22.202402410582668 54.1445
22.22509151438863 52.5747
22.24795876962584 51.0497
22.270649646204486 49.9517
22.293341407213727 49.1193
22.316034053646906 48.3519
22.338904883215342 47.9481
22.36159931041458 47.8712
22.38429462602756 47.6453
22.40699083104897 47.4837
22.429865251039757 47.5415
22.452563244831367 47.4802
22.47526213102522 47.3942
22.49813925616515 47.4881
22.520839937143307 47.355
22.543541513520587 47.3762
22.56624398629403 47.2212
22.589124730075895 47.5215
22.611829005656723 47.5682
22.63453418063466 47.4104
22.657240256008077 47.7029
22.680124634582935 47.9051
22.70283252079775 48.3036
22.725541310413075 48.9099
22.74825100442868 48.9694
22.771139033969575 49.641000000000005
22.79385054687155 49.8402
22.81656296718292 50.4262
22.83927629590484 51.1505
22.862167992606945 52.1251
22.88488314827121 53.4117
22.907599215359284 54.4218
22.93031619487366 55.6622
22.953211574954405 56.7913
22.975930389478226 57.7557
22.998650119445763 58.1311
23.02137076586092 57.5121
23.044269845560063 56.3103
23.06699233506288 54.6331
23.089715744034912 52.6068
23.112617610931565 50.9555
23.135342869061212 49.5168
23.158069049684816 48.623000000000005
23.1807961538087 48.0187
23.20370174880544 47.661
23.226430710184808 47.7645
23.249160598093425 47.6396
23.271891413539002 47.8113
23.294800752937697 47.9615
23.31753343374794 48.2499
23.340267045128353 48.5576
23.36300158808808 48.9905
23.38591468821339 49.273999999999994
23.408651104658304 49.9544
23.431388455719986 50.4192
23.454126742409 51.1603
23.4770436196085 52.2995
23.499783787914662 53.4536
23.522524894889884 54.6069
23.54526694154616 55.9244
23.56818761219047 57.3456
23.59093154860734 57.9451
23.613676427751283 58.3452
23.636422250635754 57.7943
23.659346731118656 56.5032
23.68209445191868 54.4195
23.704843119509587 51.9971
23.72759273490623 49.9434
23.750521041644767 48.1691
23.77327256312355 46.9007
23.796025035462787 45.9454
23.818956224555475 45.2505
23.841710609113413 45.2145
23.86446594758979 44.94
23.887222241002014 44.5903
23.910157285144578 44.17100000000001
23.932915498962537 44.3128
23.955674670778713 44.0617
23.978434801611975 43.8538
24.001373717286125 43.8108
24.024135776723917 43.732
24.046898798245582 43.5435
24.06966278287146 43.4738
24.092605586582614 43.248999999999995
24.115371508023642 43.1768
24.1381383956401 42.9135
24.16090625045381 42.9477
24.183852958731244 42.8793
24.206622758582608 42.7191
24.229393528706886 42.5892
24.252165270127392 42.7094
24.27511589952438 42.586999999999996
24.297889594216997 42.376999999999995
24.32066426328598 42.2884
24.34343990775613 42.2562
24.36639447485003 42.1954
24.38917208083877 42.1369
24.41195066531332 42.0134
24.43490819850244 42.1697
24.457688750692377 41.9857
24.48047028445616 41.9664
24.503252800821233 41.8959
24.526214300784112 42.2007
24.548998793132213 42.1942
24.57178427117417 42.1198
24.59457073593893 42.175
24.617536219319863 42.1694
24.64032466834748 42.2508
24.663114107195035 41.8988
24.685904536893013 41.7185
24.708874020360852 41.701
24.731666442613744 41.4954
24.754459858818787 41.3801
24.777254270007962 41.4184
24.80022777025625 41.31100000000001
24.82302418230472 41.2885
24.845821592443674 41.2217
24.86862000170663 41.3327
24.891597535453727 41.1652
24.914397953892728 41.3966
24.93719937456671 41.3383
24.96000179851076 41.4315
24.98298338249997 41.6146
25.00578782394922 41.882
25.028593271784167 42.0389
25.05157790644186 42.381
25.07438537804115 42.5109
25.097193859145293 42.9273
25.120003350792075 43.2265
25.142992065061257 43.6511
25.165803588823465 43.8321
25.18861612625217 43.9384
25.211429678386736 44.1769
25.234422489079968 44.2801
25.257238081693636 44.4794
25.280054692141732 44.5817
25.3028723214652 44.5266
25.325869245420463 44.5103
25.348688923599397 44.5746
25.371509623787006 44.4552
25.394331347025812 44.4046
25.41733240110666 43.894
25.440156181590016 43.1643
25.46298098826268 42.4497
25.48580682216873 41.9727
25.50881202326435 41.2086
25.53163992281684 40.8614
25.55446885274561 40.4767
25.577298814096377 40.0059
25.600308179121807 39.9197
25.623140214533745 39.9137
25.64597328451537 39.7869
25.66898578564376 39.5837
25.691820936010206 39.7745
25.714657124097695 39.6643
25.737494350954734 39.6608
25.760511045684957 39.6348
25.783350361364224 39.6897
25.806190718969255 39.5933
25.82903211955018 39.8475
25.852053024868923 39.8654
25.874896522722523 40.001999999999995
25.897741066713106 39.7443
25.920586657892454 39.9041
25.943611790812668 40.1009
25.966459487728237 40.279
25.989308234998564 40.3034
26.01215803367705 40.6551
26.03518741123814 40.7551
26.05803932412957 40.9265
26.080892291600094 40.9211
26.10374631470478 41.0603
26.12677995397268 41.278
26.14963609978026 41.2076
26.172493304397875 40.866
26.19535156888223 40.7696
26.218389486949604 40.2657
26.241249882640123 39.8712
26.26411134137826 39.5809
26.28715248187403 39.5071
26.31001607820869 39.4157
26.3328807407756 39.2373
26.35574647063438 39.4429
26.37879191991473 39.4318
26.401659795896734 39.5447
26.424528742360263 39.585
26.447398760366614 39.7085
26.470448535598294 39.8517
26.49332070826805 40.0078
26.516193955675355 40.385999999999996
26.53906827888316 40.5826
26.562122397260108 40.7962
26.584998883685063 41.1421
26.607876449110325 41.4331
26.63075509460056 41.7126
26.65381357334404 41.9242
26.67669439061878 41.9135
26.699576291163382 41.891999999999996
26.722459276044212 41.799
26.745522132402975 41.3112
26.768407297649354 41.1903
26.791293550442003 40.775999999999996
26.814180891848974 40.4255
26.837248143099337 40.1574
26.860137673466657 40.0763
26.88302829566349 39.894
26.90592001075963 39.6085
26.92899167420566 39.3625
26.951885586870763 38.9359
26.974780595655517 38.8364
26.99785558178161 38.7937
27.020752794605112 38.5785
27.043651106772522 38.2428
27.06655051935668 38.1605
27.089629948036183 38.1466
27.112531573292053 37.9486
27.135434302194138 37.9794
27.158338135817015 37.8301
27.181422024430987 38.0058
27.204328079372566 37.9336
27.22723524226965 37.8715
27.250143514198573 37.8644
27.273231880156334 37.9313
27.296142382065014 37.7481
27.319053996245536 37.7919
27.341966723775965 37.7989
27.365059584515222 37.7622
27.38797455070062 37.7499
27.410890633481237 37.722
27.433807833936918 37.7529
27.456905206923906 37.9819
27.47982465472398 37.9156
27.502745223449743 38.0119
27.525666914182825 38.1676
27.548768816912457 37.9354
27.571692763693633 37.7955
27.59461783573812 37.768
27.617723149491244 37.6619
27.640650484125285 37.6078
27.66357894728264 37.6311
27.686508540048052 37.5654
27.709618414237887 37.4628
27.732550278321757 37.2701
27.755483275279115 37.4286
27.778417406196485 37.2308
27.801531858397514 37.2114
27.824468269376716 37.2777
27.847405817586786 37.2657
27.870344504116094 37.4917
27.893463551932008 37.510999999999996
27.916404527281053 37.7617
27.93934664422563 37.8648
27.962289903855886 37.8964
27.98541356491974 38.2705
28.00835912214229 38.4115
28.03130582533231 38.6286
28.054253675581805 38.7756
28.077381967556104 38.8623
28.100332124185126 38.8538
28.123283431160893 38.7734
28.146235889577238 38.5875
28.169368830154156 38.6283
28.192323603752033 38.2581
28.215279532083304 37.8809
28.238415973016764 37.6537
28.261374223145094 37.562
28.284333631303806 37.2584
28.307294198589954 37.2882
28.330435319167677 36.9026
28.353398217078915 36.3884
28.376362277420153 36.3149
28.39932750129032 36.0656
28.422473319286713 35.8131
28.44544088262495 35.9097
28.468409612800283 35.8387
28.491379510913497 35.5171
28.51453004413313 35.3833
28.53750229057244 35.3569
28.56047570826344 35.3602
28.583450298308804 35.2968
28.606605564586562 35.1158
28.629582511831156 35.0708
28.65256063474956 35.1416
28.675539934446338 35.082
28.698699951647605 35.0082
28.72168161743193 34.8033
28.74466446331978 35.0303
28.767648490417624 34.7947
28.790813276438353 34.8108
28.813799678527303 34.8229
28.836787265157085 34.8862
28.859955641890075 34.9517
28.882945610203045 34.8813
28.905936766392035 34.7969
28.928929111566863 34.7826
28.952102288520145 34.6719
28.975097024308607 34.576
28.998092952423807 34.4948
29.021090073977508 34.4284
29.04426806913204 34.3587
29.067267590245258 34.1289
29.090268308143695 34.1422
29.11327022394099 33.9853
29.13645305530891 33.9343
29.159457379627167 33.8453
29.18246290519685 33.7434
29.20546963313352 33.6789
29.22865731875826 33.8256
29.25166646419296 33.7586
29.27467681535305 33.5351
29.29768837335608 33.6269
29.320880931312562 33.7628
29.34389491580634 33.6691
29.366910110507334 33.696
29.38992651653503 33.6085
29.41312396492981 33.7852
29.436142806456754 33.6174
29.45916286268059 33.5399
29.48236399319994 33.5027
29.50538649169417 33.2867
29.528410208259935 33.3067
29.55143514402014 33.0684
29.574641196749695 32.9216
29.597668583816574 32.7696
29.6206971934585 32.5911
29.64372702680042 32.4807
29.666938019934474 32.4465
29.689970313635285 32.3615
29.713003834422636 32.3168
29.73603858342347 32.3511
29.759254535188578 32.2724
29.78229175361658 32.2006
29.80533020365064 32.2776
29.82836988641968 32.2868
29.85159081507472 32.1937
29.874632976355343 32.1177
29.89767637376955 32.1177
29.920721008448314 32.046
29.9439469322847 32.0484
29.96699405457564 31.9817
29.9900424175358 31.9245
30.013092022298157 31.9514
30.03632295963995 31.8919
30.059375061131373 31.9858
30.08242840783577 31.9237
30.105483000888153 31.8994
30.128718970092244 31.7845
30.151776069006917 31.8393
30.17483441768648 31.8566
30.198074175317235 31.8819
30.221135036724256 31.9574
30.24419715131772 31.8563
30.267260520236203 31.7176
30.290505341942243 31.829
30.313571232750228 31.8097
30.336638381310948 31.7199
30.35970678876503 31.6901
30.38295669299435 31.6455
30.40602763151657 31.6474
30.429099832366074 31.6135
30.452173296685572 31.5562
30.47542830191959 31.5753
30.498504306502497 31.5184
30.521581577995562 31.5891
30.544660117543582 31.7162
30.56792024229725 31.6339
30.59100133132069 31.6648
30.614083691845494 31.7371
30.637167325018545 31.7446
30.660432587840603 31.811
30.683518779717886 31.7801
30.70660624769615 31.8546
30.729694992924372 31.8917
30.75296541239743 31.8318
30.77605672557558 31.8401
30.799149319462742 31.6806
30.8224236211637 31.6649
30.845518789950724 31.5049
30.868615242910597 31.5842
30.891712981195973 31.3503
30.91499247215866 31.2523
30.938092794619365 31.0899
30.96119440587579 31.107
30.984297307082752 30.9426
31.00758200598383 30.8637
31.030687500658694 30.7494
31.053794288760695 30.7612
31.076902371446767 30.5775
31.100192296997445 30.6943
31.12330298246119 30.5887
31.14641496599209 30.4791
31.169528248749216 30.4198
31.19282341969534 30.4836
31.215939314557186 30.5757
31.239056512134788 30.5064
31.262175013589378 30.4366
31.28547544871168 30.3603
31.30859657161541 30.3312
31.331719001892175 30.4284
31.35484274070538 30.4932
31.378148458819545 30.5085
31.401274828443725 30.4235
31.424402510106933 30.4648
31.447712205419993 30.5555
31.470842524931633 30.4494
31.493974159989783 30.3382
31.51710711176168 30.4756
31.54042212308802 30.5108
31.563557722100917 30.3722
31.586694641341655 30.1885
31.609832881979628 30.153000000000002
31.63315322823208 30.0751
31.656294125521327 29.9611
31.679436347728515 29.9364
31.70257989602529 29.834
31.725905596152327 29.7592
31.74905181052835 29.6805
31.772199354521323 29.6726
31.79534822930507 29.7149
31.818679302290967 29.6683
31.84183085259981 29.7752
31.864983737233473 29.6816
31.88813795736804 29.7429
31.911474422233013 29.6233
31.934631327356435 29.7199
31.9577895715215 29.614
31.980949155906522 29.6561
32.004291031706956 29.6505
32.027453310562606 29.5936
32.05061693318573 29.5002
32.07396288236386 29.4724
32.09712920658542 29.3607
32.12029687812702 29.1824
32.14346589817093 29.1225
32.166817291729984 29.059
32.18998902288583 29.054000000000002
32.21316210610336 28.9442
32.23633654256711 28.894000000000002
32.259693399663725 28.8454
32.282870556771144 28.7038
32.30604907069099 28.7604
32.329228942610065 28.7454
32.35259128243769 28.5231
32.375773884550505 28.4604
32.398957848235646 28.5089
32.422143174682176 28.3521
32.445511016471215 28.3058
32.468699082679954 28.2961
32.49188851523011 28.241
32.51507931531304 28.2006
32.538452678331 28.2037
32.56164622776311 28.1623
32.58484114831493 27.9905
32.60803744118015 28.078000000000003
32.631416344731896 28.0664
32.654615396551876 28.0594
32.67781582427913 27.991
32.701198898634416 27.8166
32.72440209253756 27.8024
32.747606665947124 27.8503
32.77081262006088 27.7231
32.79420126883317 27.7597
32.81740999876112 27.8291
32.840620112999424 27.6097
32.86383161274818 27.5984
32.88722585534586 27.4241
32.91044014056596 27.5711
32.933655814909734 27.6381
32.95687287957963 27.5539
32.98027273544904 27.434
33.00349259526636 27.4598
33.026713849030116 27.4687
33.04993649794511 27.462
33.073341986570746 27.3823
33.09656744032826 27.4509
33.11979429286444 27.4209
33.14302254538647 27.3349
33.166433686291185 27.3627
33.18966475336992 27.2997
33.212897224069096 27.1021
33.23613109959831 27.2244
33.259547912343415 27.2038
33.2827846121627 27.2971
33.306022720453775 27.1441
33.32926223842861 27.0195
33.352684742614166 27.0074
33.37592709463173 26.9895
33.399170859982064 26.918000000000003
33.422597648419426 26.851999999999997
33.44584425514446 26.7054
33.46909227885668 26.6958
33.4923417207723 26.5992
33.51577423505344 26.6694
33.539026528130385 26.4665
33.56228024307245 26.4378
33.585535381098246 26.309
33.60897364093058 26.3436
33.63223163992385 26.3797
33.6554910656699 26.2649
33.678751919389796 26.2996
33.702195944520106 26.2093
33.72545966903325 26.1537
33.74872482519663 26.0973
33.771991414233746 26.121
33.79544122444841 25.9881
33.81871069412428 25.9071
33.84198160035767 25.967
33.86525394437455 25.9907
33.88870955949969 25.9901
33.911984794020626 25.9683
33.93526147001624 25.8413
33.958539588715006 25.835
33.98200102861669 25.6936
34.0052820477047 25.5667
34.02856451319451 25.6465
34.05203033759056 25.5527
34.07531571090147 25.6198
34.09860253431845 25.5276
34.121890809074316 25.5027
34.145362493118924 25.436
34.16865368561615 25.4214
34.191946333164054 25.3581
34.21524043699793 25.3272
34.23871800066799 25.3497
34.26201503218366 25.2518
34.28531352370466 25.2605
34.30861347646881 25.1297
34.33209693978188 25.0907
34.3553998301885 25.1086
34.378704185565205 25.003
34.402010007152356 24.9856
34.42549939016683 24.9835
34.44880815937748 24.8516
34.472118398533134 24.8536
34.49543010887669 24.8542
34.51892543169198 24.745
34.54224009966052 24.7476
34.56555624255917 24.7687
34.58887386163339 24.6789
34.61237514439016 24.5855
34.6356957311114 24.5852
34.65901779775809 24.5556
34.68252356662995 24.4941
34.705848608458616 24.4483
34.72917513396849 24.3582
34.75250314440949 24.377
34.77601490857862 24.3125
34.799345904259795 24.2223
34.82267838863559 24.3065
34.846012362958525 24.2888
34.869530142679984 24.214000000000002
34.89286711232212 24.2036
34.91620557568269 24.1343
34.93954553401677 24.1748
34.9630693495876 24.0926
34.986412313340814 24.0873
35.00975677584668 24.0081
35.033102738362956 24.0452
35.05663261012228 24.0477
35.0799815881786 23.9804
35.10333207003229 23.9505
35.12668405694369 23.9217
35.150220005273056 23.9025
35.17357501786656 23.8819
35.19693153931268 23.8169
35.220289570874385 23.7819
35.24383161619786 23.768
35.267192683604904 23.7884
35.290555264930376 23.6831
35.314101899412165 23.7001
35.33746752422433 23.6468
35.36083466676374 23.62
35.38420332829803 23.703000000000003
35.407756095629054 23.6717
35.43112781085063 23.6435
35.45450104888391 23.535999999999998
35.477875810999194 23.6084
35.50143473172161 23.5032
35.52481255774625 23.5249
35.54819191167777 23.4609
35.57157279478914 23.3918
35.595137889488406 23.4332
35.61852184675279 23.4039
35.641907337029984 23.3629
35.665294361595684 23.3116
35.68886565090076 23.2607
35.7122557598848 23.101
35.73564740699838 23.0978
35.759040593519934 23.0912
35.78261809810353 23.1583
35.80601437933051 23.051
35.829412203814705 22.9931
35.85281157283719 22.831
35.876395313415884 22.8688
35.8997977874528 22.8875
35.92320180988546 22.8296
35.946790244133936 22.7569
35.97019737933222 22.7473
35.993606066789866 22.7555
36.01701630779276 22.7623
36.04061101440684 22.6773
36.06402437852291 22.5747
36.08743930005611 22.5853
36.1108557802951 22.5059
36.13445678011326 22.6233
36.15787639383515 22.4868
36.18129757014299 22.4577
36.20472031032821 22.4314
36.22832762423364 22.3252
36.25175350829375 22.3691
36.275180960119776 22.256999999999998
36.298609981005924 22.291
36.32222362992669 22.3481
36.34565580510207 22.2431
36.36908955323448 22.2805
36.39252487562093 22.1074
36.416144880530226 22.1108
36.43958336764275 22.0809
36.463023432914625 22.1237
36.486465077645676 22.0227
36.51009145956204 22.136999999999997
36.53353627947859 22.0605
36.55698268276811 22.0347
36.58043067073321 22.0303
36.60406345072071 21.9793
36.62751462435344 21.8934
36.65096738658405 21.8137
36.67460498210655 21.8282
36.69806093788647 21.8072
36.72151848619297 21.6833
36.744977628333636 21.7638
36.76862165890998 21.651999999999997
36.79208400512205 21.6312
36.81554794910557 21.6051
36.83901349217101 21.5118
36.862663978991606 21.5277
36.88613273667352 21.5105
36.90960309738324 21.4441
36.933075062434064 21.4329
36.95673202673572 21.3401
36.98020721697122 21.3437
37.003684015502365 21.2529
37.027162423645365 21.2928
37.050825886711465 21.2428
37.07430753063053 21.1782
37.09779078812467 21.1063
37.121275660513014 21.1355
37.144945643673694 21.1014
37.16843376245278 21.1272
37.19192350009803 21.0035
37.215414857931435 20.9668
37.239091382563885 20.9664
37.262585997426164 20.9444
37.28608223645736 20.9297
37.309763684451696 20.8146
37.33326318851098 20.8174
37.356764320726555 20.8814
37.380267082425526 20.8017
37.40395510942588 20.724
37.42746114683234 20.7244
37.45096881771841 20.6558
37.474478123414166 20.6629
37.49817275092816 20.6024
37.52168534303452 20.6106
37.54519957395567 20.4793
37.568715445024665 20.4545
37.592416694607714 20.4134
37.61593586281424 20.5523
37.63945667518264 20.561
37.66297913304891 20.392
37.68668702630454 20.3929
37.710212792059274 20.3329
37.733740207334854 20.3161
37.757269273470364 20.2191
37.780983832050374 20.1987
37.80451621684926 20.1945
37.82805025654007 20.1251
37.851585952464795 20.1368
37.8753071980695 20.0294
37.89884622345676 20.0116
37.92238690911902 20.0261
37.94611318753442 19.9698
37.969657210779765 19.945999999999998
37.99320289834801 19.9204
38.016750251586465 19.9065
38.04048325513017 19.8768
38.06403395679343 19.8178
38.087586328183946 19.8168
38.11114037065203 19.807000000000002
38.13488012115898 19.8737
38.1584375229181 19.65
38.181996599821 19.6622
38.205557353221124 19.6877
38.229303872575656 19.6644
38.2528679961576 19.5331
38.27643380031219 19.553
38.30000128639589 19.5445
38.32375459653193 19.5069
38.34732546371299 19.4912
38.37089801690786 19.4737
38.39447225747609 19.402
38.418232380377425 19.3789
38.441810012983396 19.3793
38.46538933705673 19.354
38.488970353960084 19.3615
38.51273731166058 19.2431
38.536321731567014 19.1397
38.55990784840681 19.1485
38.58367995004091 19.1223
38.60726947812959 19.0775
38.63086070726198 19.0933
38.654453638806274 19.1515
38.678232613930824 19.042
38.70182896773327 18.9753
38.72542702806741 18.9322
38.7490267963045 18.905
38.77281266709232 18.9253
38.79641586862214 18.8409
38.8200207821842 18.8229
38.843627409152944 18.8213
38.86742019782782 18.7863
38.891030269149255 18.7521
38.914642058016156 18.7388
38.938255565806124 18.7153
38.96205529464307 18.6839
38.98567225787121 18.6966
39.00929094417078 18.6562
39.03291135492255 18.618
39.05671804624804 18.5071
39.080341923549106 18.4482
39.103967529460334 18.4953
39.127594865365744 18.4317
39.15140854155791 18.3822
39.17503935514948 18.386
39.19867190290282 18.369
39.22249083587951 18.3543
39.24612686969409 18.3378
39.269764641845306 18.295
39.293404153722804 18.2558
39.317230110864074 18.2545
39.34087311998506 18.1768
39.36451787301696 18.2007
39.388164371352595 18.0827
39.41199737518003 18.0793
39.43564738196752 18.0736
39.45929913825317 18.0692
39.48295264543308 18.0299
39.506792718520884 17.9054
39.530449745387216 17.980999999999998
39.55410852735203 17.9559
39.57776906581474 17.8885
39.60161623079 17.8839
39.625280300200025 17.851
39.64894613032202 17.8272
39.67261372255866 17.7885
39.6964680021016 17.7853
39.72013913657293 17.7516
39.74381203738292 17.7488
39.76748670593756 17.7642
39.79134812278169 17.6596
39.81502634488497 17.6599
39.83870633896685 17.6034
39.862388106436654 17.5407
39.88625668336918 17.5292
39.90994201572829 17.5022
39.933629125719285 17.5452
39.957503091207826 17.4833
39.9811937746168 17.4773
40.00488623990914 17.4467
40.02858048850006 17.3709
40.05246165409549 17.3217
40.076159487492085 17.2828
40.099859108448875 17.3036
40.123560518384345 17.2726
40.1474489070226 17.316
40.171153913178564 17.2444
40.194860712584955 17.1882
40.2185693066637 17.1695
40.242464941335314 17.0822
40.26617714307655 17.102
40.289891143772046 17.087
40.3136069448471 17.0206
40.33750984859743 17.0697
40.3612292688043 17.0069
40.3849504936829 16.9344
40.40867352466194 16.9537
40.43258372059144 16.9283
40.45631038219906 16.9157
40.48003885420956 16.8703
40.503769138055105 16.8645
40.52768664931955 16.7783
40.55142057531802 16.7598
40.57515631746428 16.7054
40.599079334038514 16.689
40.62281872700477 16.698
40.64655994043941 16.7087
40.67030297578061 16.684
40.69423334835778 16.5925
40.71798004609188 16.5158
40.74172857006355 16.5417
40.76547892171441 16.4989
40.7894166736039 16.5426
40.813170699248566 16.4734
40.83692655691388 16.5065
40.86068424804498 16.5117
40.884629402612525 16.3989
40.908390779366385 16.4042
40.932153993938 16.3725
40.95591904777605 16.3441
40.979871628443995 16.3202
41.003640379561936 16.3217
41.02741097430883 16.2833
41.05118341413683 16.261
41.075143444384416 16.2081
41.098919593177826 16.2345
41.1226975914255 16.1935
41.14647744058318 16.1655
41.170444943946755 16.1207
41.19422851378379 16.0756
41.218013938914645 16.0463
41.24198706625173 16.0086
41.26577622087193 16.0351
41.289567235177785 15.9802
41.31336011063129 15.9253
41.337340752422875 15.9164
41.361137369129835 15.9006
41.38493585138705 15.9258
41.40873620066004 15.8523
41.43272438060107 15.7909
41.45652848292052 15.7744
41.48033445666918 15.7365
41.50414230331616 15.7466
41.528138045159764 15.7273
41.551949656675205 15.6614
41.575763145513235 15.6765
41.59957851314666 15.6571
41.62358184070442 15.5849
41.64740098505737 15.5106
41.6712220126409 15.5148
41.69504492493139 15.5324
41.71905586207357 15.4737
41.74288256296395 15.5166
41.766711153007456 15.4718
41.79054163368412 15.399000000000001
41.814560204340054 15.425
41.838394485526365 15.4127
41.86223066180303 15.3681
41.88625497706819 15.2599
41.910094962812 15.2182
41.93393684811168 15.2831
41.95778063445365 15.151
41.981812625263366 15.1794
42.00566023303407 15.1791
42.029509746323676 15.196
42.05336116662236 15.1572
42.077400857069705 15.1542
42.10125611078846 15.061
42.12511327600405 15.0633
42.14897235421036 15.0428
42.173019768448455 15.0174
42.19688269209613 14.9861
42.22074753323349 14.954
42.24461429335818 14.9458
42.268669455600495 14.9318
42.292540073217886 14.8593
42.31641261433284 14.9113
42.34028708044675 14.8941
42.36435001496739 14.7977
42.38822835065557 14.783
42.41210861586426 14.7128
42.4359908120986 14.748
42.46006154323262 14.689
42.48394762115317 14.6833
42.507835634632315 14.6455
42.531912233047436 14.6403
42.55580413732265 14.6065
42.579697981698 14.5685
42.60359376768525 14.5617
42.62767820545945 14.5117
42.65157789440821 14.5178
42.67547952952185 14.4863
42.699383112316 14.5254
42.72347541395347 14.4241
42.74738291190531 14.3593
42.771292362102166 14.4243
42.795203766063516 14.3564
42.819303956130405 14.3562
42.843219287476536 14.3271
42.86713657716324 14.324000000000002
42.89105582671383 14.2686
42.91516392983864 14.2199
42.939087119032166 14.1882
42.963012272677304 14.1594
42.98693939230129 14.1482
43.01105543317513 14.1341
43.034986504731386 14.1429
43.05891954686589 14.1036
43.08285456110972 14.0779
43.10697856448665 14.0406
43.130917542983475 13.9936
43.15485849820081 14.0173
43.17880143167367 13.9787
43.20293342237094 13.9843
43.226880332449 13.9845
43.25082922540554 13.8896
43.27496722682525 13.9167
43.29892010567796 13.847999999999999
43.32287497204102 13.8615
43.34683182745632 13.790999999999999
43.370977859791836 13.7267
43.39493871351105 13.7761
43.41890156092628 13.759
43.44286640358341 13.6963
43.46702049182749 13.6974
43.49098934522816 13.66
43.51496019852649 13.622
43.5389330532723 13.5894
43.56309522248204 13.6177
43.58707210044314 13.5717
43.61105098451946 13.4987
43.63503187626491 13.526
43.659202151562134 13.4911
43.68318707902681 13.513
43.70717401884041 13.4732
43.731162972560874 13.4247
43.75534137913236 13.4107
43.779334381108384 13.3866
43.803329401683186 13.4026
43.82732644241872 13.319
43.8515130055166 13.2981
43.87551410707659 13.27
43.89951723350145 13.2831
43.923709934595614 13.2688
43.94771713129917 13.2001
43.97172635758096 13.198
43.99573761501002 13.1608
44.0199385169922 13.1498
44.04395385732619 13.0724
44.067971233533086 13.1519
44.09199064718605 13.1002
44.11619977548961 13.0791
44.14022328470671 13.0015
44.16424883610785 13.0952
44.18827643127035 13.0566
44.21249381139513 13.0115
44.236525514814076 12.9725
44.26055926674478 12.9671
44.28459506876863 12.9373
44.3088207262813 12.8693
44.33286064928722 12.8241
44.35690262714919 12.8539
44.38094666145278 12.8046
44.4051806219871 12.8432
44.42922879003185 12.790999999999999
44.45327901929361 12.7076
44.477331311362136 12.7243
44.501573600619416 12.7103
44.525630039221795 12.6851
44.54968854541895 12.6875
44.573937102200176 12.6584
44.5979997645541 12.6497
44.622064499300315 12.6343
44.64613130803592 12.6109
44.67038823869318 12.5666
44.69445921643748 12.5379
44.718532272981385 12.5031
44.742607409926194 12.5086
44.76687274034801 12.4918
44.79095205918753 12.4144
44.81503346325094 12.3885
44.839116954143876 12.3851
44.86339071028742 12.3859
44.88747839599524 12.347000000000001
44.91156817336837 12.3065
44.93566004401666 12.3442
44.959942251908146 12.3045
44.984038330325966 12.2894
45.00813650686762 12.2388
45.03223678314731 12.2044
45.05652746888232 12.2215
45.08063196592069 12.181
45.104738567558705 12.1636
45.128847275414856 12.1648
45.15314646515866 12.0685
45.17725940679741 12.0889
45.20137445952892 12.0875
45.22568004865265 12.0759
45.24979934496396 12.0854
45.27392075725247 11.9917
45.29804428714431 12.0273
45.322358426247604 11.9616
45.346486212804315 11.9544
45.370616121861914 11.9707
45.39474815505086 11.9114
45.41907087049246 11.8834
45.4432071734666 11.8548
45.46734560548283 11.8254
45.49148616817604 11.8212
45.51581748638564 11.8241
45.5399623320197 11.7762
45.56410931325473 11.7594
45.58825843173002 11.7791
45.61259837920865 11.7227
45.636751793816 11.7158
45.66090735060093 11.671
45.68506505120716 11.6456
45.7094136545275 11.6023
45.73357566449271 11.616
45.75773982322992 11.5912
45.78190613238733 11.5721
45.806263418194064 11.5166
45.83043404997326 11.527999999999999
45.85460683713677 11.5355
45.87897065658495 11.5158
45.90314777634752 11.449000000000002
45.92732705646868 11.4522
45.9515084986045 11.4201
45.97588104735473 11.3923
46.00006683541565 11.3972
46.02425479047904 11.3873
46.04844491420549 11.3372
46.0728262191024 11.3395
46.09702070211635 11.3142
46.12121735879483 11.2779
46.14541619080294 11.2896
46.169806278764455 11.2358
46.194009483459034 11.2478
46.21821486849841 11.1914
46.24242243555223 11.1974
46.266821333570014 11.192
46.29103328674601 11.1659
46.31524742696538 11.1743
46.33946375590237 11.1078
46.36387149104216 11.1017
46.38809221957392 11.050999999999998
46.41231514186606 11.0594
46.436540259597464 11.0667
46.460956858999374 11.0001
46.48518638983522 10.9916
46.509418121166966 10.9699
46.533652054678114 10.9523
46.55807754555709 10.9138
46.58231590571962 10.9138
46.60655647313217 10.8716
46.630988654873654 10.9025
46.655233659129024 10.8446
46.67948087571551 10.8438
46.70373030632484 10.8
46.72817142736393 10.8381
46.752425308428684 10.7518
46.77668140861147 10.7158
46.80093972960865 10.7355
46.82538981736788 10.6219
46.849652602470904 10.6684
46.87391761349769 10.663
46.8981848521493 10.6654
46.9226439341274 10.642000000000001
46.946915650573224 10.5886
46.97118959976749 10.5176
46.99546578341598 10.5326
47.019933887188216 10.5037
47.04421456235744 10.5265
47.06849747711879 10.5093
47.09278263318286 10.4981
47.11725978640143 10.4515
47.14154944775105 10.3945
47.165841355555656 10.432
47.1901355115306 10.3826
47.214621741924994 10.3764
47.23892041698887 10.3694
47.26322134538975 10.2875
47.28771440635075 10.3285
47.31201986422527 10.3789
47.33632758061436 10.2855
47.360637557241866 10.2462
47.38513974410611 10.2518
47.40945426407847 10.2235
47.43377104948137 10.2086
47.45809010204344 10.2047
47.48260144275502 10.1682
47.506925052572285 10.1339
47.53125093475548 10.1477
47.55557909103813 10.1299
47.58009961361992 10.0849
47.60443234110732 10.0461
47.62876734791564 10.0534
47.65310463578333 10.0276
47.6776343683373 10.0302
47.7019762413987 10.0306
47.72632040075572 9.98043
47.75066684815169 9.93432
47.77520581885936 9.939739999999999
47.799556865477655 9.93713
47.823910205386 9.93183
47.84826584033272 9.9389
47.87281407745551 9.8651
47.89717432569297 9.90217
47.92153687423484 9.86225
47.94609208429692 9.82594
47.97045925671401 9.80091
47.99482873471275 9.78773
48.01920052005013 9.78043
48.04376504619224 9.7559
48.068141469543484 9.76084
48.09252020552573 9.72693
48.11690125590099 9.695960000000001
48.1414751266064 9.724219999999999
48.16586082917454 9.661769999999999
48.19024885144316 9.6356
48.2146391951793 9.60905
48.239222439012764 9.59632
48.26361744916137 9.59944
48.28801478610016 9.62318
48.31241445160131 9.5873
48.337007097209366 9.55434
48.36141144338331 9.53377
48.38581812345755 9.51499
48.41022713920929 9.53095
48.434829215320704 9.5108
48.45924292604658 9.45786
48.48365897780325 9.45898
48.50807737237308 9.47614
48.532688907799276 9.42232
48.55711201168574 9.38814
48.581537463754074 9.39814
48.60615611725119 9.40282
48.63058628942721 9.39064
48.65501881516546 9.35389
48.6794536962573 9.3206
48.70408185970339 9.29907
48.72852147531801 9.29753
48.75296345168211 9.24955
48.77740779059232 9.27201
48.80204549302823 9.23572
48.82649458091802 9.19815
48.85094603676547 9.13645
48.87539986237231 9.14603
48.90004713292306 9.16109
48.92450572200832 9.139
48.94896668628025 9.118310000000001
48.97343002754588 9.11702
48.99808689542115 9.090539999999999
49.02255501470614 9.10586
49.04702551642794 9.033
49.0714984023988 9.03561
49.096164896893235 9.0449
49.120642575466796 8.99762
49.145122643748394 8.96165
49.16960510355558 8.94859
49.19428125404938 8.952639999999999
49.2187685210852 8.94329
49.243258185121555 8.95208
49.26794160167084 8.90932
49.2924360839405 8.869019999999999
49.31693296869764 8.81397
49.34143225776915 8.81643
49.36612538195438 8.80707
49.39062950396021 8.80938
49.41513603578346 8.77458
49.4396449792564 8.80814
49.46434784069503 8.79096
49.488861631846454 8.723360000000001
49.513377840166804 8.73352
49.537896467493745 8.73605
49.56260909589029 8.66974
49.587132585683285 8.65633
49.611658500018365 8.6375
49.636186840738596 8.67258
49.66090926588511 8.64611
49.685442483902584 8.61198
49.70997813385706 8.55425
49.734516217597076 8.58463
49.75924846937352 8.57274
49.7837914452858 8.5448
49.80833686055187 8.50157
49.83288471702571 8.48612
49.85762682540054 8.50833
49.882179588965734 8.47265
49.9067347993235 8.46696
49.93129245833333 8.44905
49.95604445336378 8.44152
49.98060703442832 8.39857
50.005172069746266 8.349839999999999
50.02993150438364 8.3759
50.05450147301533 8.36515
50.07907390151433 8.33862
50.10364879174981 8.31586
50.12841816587289 8.30109
50.1529980044635 8.26023
50.17758031042124 8.257539999999999
50.20216508562089 8.28105
50.22694442953363 8.24873
50.25153416817468 8.22251
50.27612638170508 8.22565
50.300721072005196 8.199589999999999
50.325510416102105 8.19022
50.350110084975064 8.12214
50.37471223628208 8.16595
50.39931687190919 8.12252
50.424116246675766 8.106
50.44872587605249 8.11398
50.47333799543065 8.08273
50.49795260670191 8.08233
50.52276204271512 8.06222
50.54738166295838 8.03093
50.57200378079314 8.10823
50.596628398116835 8.02857
50.62144792604559 8.01776
50.646077567609396 8.0013
50.670709714377715 8.0053
50.69553683636198 7.9751
50.72017401885922 7.984539999999999
50.7448137122895 7.9336
50.76945591856022 7.89675
50.79429318636823 7.89975
50.818940443716784 7.90375
50.84359021965163 7.88505
50.868242516085964 7.87153
50.893089960641895 7.86682
50.917747323549435 7.814089999999999
50.94240721271973 7.78285
50.96706963007175 7.76306
50.99192728239342 7.78044
51.01659478166073 7.73469
51.04126481489051 7.722169999999999
51.06593738400761 7.756710000000001
51.090805275207074 7.72225
51.11548294172845 7.69923
51.14016314993547 7.68735
51.164845901758845 7.69147
51.18972406304274 7.62936
51.21441192780656 7.665210000000001
51.23910234200271 7.6581399999999995
51.2637953075678 7.614910000000001
51.288683770237945 7.57695
51.31338186432707 7.548489999999999
51.33808251561888 7.58512
51.362978729967345 7.551880000000001
51.387684521509755 7.5513699999999995
51.41239287610203 7.49675
51.437103795691165 7.51087
51.46201036644977 7.4936300000000005
51.486726441956634 7.4603
51.51144508832545 7.4283399999999995
51.536166307509156 7.433330000000001
51.56108326624387 7.42214
51.58580965706056 7.413060000000001
51.61053862657523 7.396160000000001
51.635270176746864 7.408060000000001
51.66019755512065 7.3773800000000005
51.68493429268881 7.35272
51.70967361681515 7.3411100000000005
51.73441552946465 7.32558
51.759353359237934 7.32181
51.7841004750961 7.29016
51.80885018539685 7.335719999999999
51.833602492111254 7.2370399999999995
51.8585508051424 7.235939999999999
51.883308330926425 7.197039999999999
51.90806845906181 7.219289999999999
51.932831191525715 7.195239999999999
51.95779001977161 7.1638399999999995
51.98255798721516 7.15567
52.00732856494335 7.1342
52.03229530577543 7.11296
52.057071130455945 7.08391
52.081849571391054 7.0674399999999995
52.106630630568695 7.08829
52.13160794279417 7.058110000000001
52.15639426492067 7.0597
52.18118321127822 7.09387
52.205974783860896 7.06405
52.23096269971011 7.0458300000000005
52.255759551287994 7.0365899999999995
52.280559035098186 7.010839999999999
52.30536115314103 6.97003
52.33035970494467 6.981319999999999
52.35516711807904 6.965560000000001
52.37997717147198 6.932510000000001
52.40478986713005 6.928610000000001
52.42979908731974 6.906219999999999
52.454617094216 6.86798
52.47943774942214 6.82815
52.50426105495102 6.84627
52.529280976059844 6.83615
52.554109609024096 6.82529
52.57894089837482 6.803610000000001
52.60377484613117 6.817480000000001
52.62880550079408 6.7972600000000005
52.65364479223379 6.72777
52.67848674816189 6.74302
52.70352547971946 6.700589999999999
52.72837279155837 6.737010000000001
52.753222773982785 6.695119999999999
52.778075429022984 6.68947
52.80312495150885 6.6947399999999995
52.827982978797436 6.696739999999999
52.85284368481815 6.6661
52.87770707160767 6.64898
52.90276741793998 6.60986
52.92763619336701 6.604589999999999
52.952507655698504 6.609030000000001
52.977381806977576 6.55837
53.00245301017842 6.559819999999999
53.02733256653592 6.56319
53.052214817996074 6.5512
53.077099766608484 6.52088
53.102181859804446 6.52881
53.127072229988265 6.53972
53.15196530349892 6.50085
53.17686108239249 6.49541
53.20195409881522 6.46985
53.22685531582556 6.47013
53.25175924441303 6.4088
53.27666588664027 6.39705
53.30176985962693 6.3788
53.3266819565689 6.4111400000000005
53.35159677336455 6.37884
53.376514312083096 6.3776
53.40162927507703 6.36383
53.42655228516116 6.3430800000000005
53.45147802340193 6.33686
53.47660125628886 6.33235
53.50153247842639 6.301419999999999
53.52646643496923 6.27974
53.55140312799818 6.29379
53.576537409691696 6.23811
53.60147960336152 6.20185
53.626424539786164 6.22698
53.65137222105307 6.19779
53.67651758529126 6.18699
53.70147078399681 6.1557699999999995
53.72642673383343 6.14468
53.75138543689533 6.18417
53.776541917524526 6.17842
53.801506154876755 6.1714
53.826473151763246 6.15559
53.851442910284916 6.11527
53.87661054126026 6.0650900000000005
53.9015858509782 6.07153
53.92656392866066 6.05783
53.95154477641532 6.07138
53.976723591801296 6.03647
54.00171000771266 6.0147
54.02669920004598 5.99943
54.051691170915745 5.98385
54.076881204886796 6.00675
54.101878760928514 5.97577
54.12687910187696 5.9574
54.152077577768296 5.97313
54.1770835166946 5.93682
54.20209224691339 5.94201
54.22710377055121 5.8922099999999995
54.25231352511594 5.90393
54.27733066384342 5.8646400000000005
54.30235060239643 5.8514800000000005
54.32737334290836 5.83174
54.35259441062629 5.82739
54.377622783395324 5.778980000000001
54.40265396455061 5.81051
54.42768795623251 5.7965599999999995
54.45292037169559 5.80161
54.477960012857906 5.73228
54.50300247099511 5.71276
54.52804774825457 5.68067
54.55329154616743 5.68915
54.57834249018678 5.70515
54.6033962597977 5.685569999999999
54.6284528571545 5.667680000000001
54.653708072335164 5.57916
54.67877035378786 5.63004
54.70383546947698 5.59365
54.72890342156389 5.51775
54.7541700889442 5.4980199999999995
54.77924374251975 5.4907
54.8043202390049 5.50659
54.82959552413022 5.5048900000000005
54.8546777351945 5.49697
54.87976279569621 5.42747
54.90485070780914 5.464180000000001
54.930137506558005 5.4093599999999995
54.95523115074295 5.4209
54.98032765308844 5.37829
55.005427015775496 5.36375
55.03072536339621 5.38353
55.05583047570572 5.3235
55.080938454927676 5.31318
55.10604930325027 5.28533
55.131359235107396 5.234319999999999
55.15647585066083 5.2420599999999995
55.181595341907496 5.187530000000001
55.20671771104285 5.16713
55.232039262617704 5.1643099999999995
55.25716741665048 5.16775
55.28229845518636 5.11484
55.30743238042802 5.0903
55.33276558731939 5.07681
55.357905315183636 5.07584
55.383047936390035 5.01123
55.40819345314859 5.03598
55.433538351073295 5.08169
55.458689688238415 4.97086
55.483843927614096 4.8829
55.509197623043605 4.96444
55.53435769621134 4.87519
55.55952067826466 4.900519999999999
55.5846865714265 4.85248
55.61005202069737 4.83006
55.63522376553902 4.82233
55.66039842818645 4.8240099999999995
55.68557601087004 4.76914
55.7109532500271 4.67776
55.73613670233794 4.7192
