TT I
1.2716486653135266 7.72624
1.2939594142134223 7.24596
1.3162702121660406 6.84647
1.3385810600174564 6.61476
1.3608919586137629 6.28138
1.383202908801069 6.31954
1.405513911425503 5.86723
1.4278249673332093 5.99186
1.4501343378461518 6.51023
1.4724455028545926 5.9764
1.4947567236847858 6.57989
1.517068001182951 6.5360000000000005
1.5393793361953272 5.6647099999999995
1.5616907295681737 5.35722
1.5840021821477681 5.153980000000001
1.60631369478041 5.235869999999999
1.6286252683124185 5.29924
1.6509369035901333 4.5944400000000005
1.6732468618895553 5.52285
1.695558623192809 4.33859
1.7178704487808514 5.43403
1.7401823395001077 5.33164
1.7625012545597203 4.7966
1.7848028405262486 4.91085
1.8071218901122095 4.96167
1.8294236121921872 4.47936
1.8517427996910911 4.56489
1.8740620574440425 5.13931
1.8963639900671978 5.23897
1.9186833908139995 4.63927
1.9409854680117449 5.33715
1.9633050151394713 4.70801
1.9856246367570705 4.916930000000001
2.0079269371922672 5.05489
2.03024671027244 4.4833099999999995
2.0525491637446027 4.24294
2.074869091674931 4.616619999999999
2.097171701569106 4.65196
2.1194917877373847 5.40949
2.141811954326636 5.32678
2.164114805233074 4.914280000000001
2.186435135143035 6.19358
2.208738150935709 12.455
2.231058647554722 23.5131
2.2533792288321184 17.9534
2.275682498336085 9.54187
2.298003251406138 5.931769999999999
2.3203066942619714 5.56008
2.3426276225136022 5.90796
2.3649486396617507 5.8339099999999995
2.387252348930071 5.48778
2.4095735463442893 5.31036
2.4318774374315884 5.75399
2.4541988185014043 6.42962
2.476502894794693 7.0105699999999995
2.498824462909887 6.48915
2.521146125856138 6.32327
2.5434504863470337 6.984389999999999
2.5657723414244717 7.60323
2.588076895590662 8.68413
2.610398946189713 7.97518
2.6327210958598384 7.435980000000001
2.6550259469304716 7.54501
2.6773482972090137 7.57112
2.6996533504259 8.52861
2.7219759047039602 8.34882
2.744298562293959 8.231810000000001
2.7666039251246595 8.273639999999999
2.7889267918020164 7.62483
2.8112323652516555 8.15893
2.833555444408179 8.52122
2.8558786311183852 8.207239999999999
2.8781845268938557 9.02374
2.9005079311721484 8.97478
2.9228140460410397 8.43385
2.9451376712799635 9.2579
2.967444008632326 9.35422
2.9897678582247247 9.84822
3.0120918213106695 10.2802
3.0343984987899373 10.5921
3.0567226913198637 11.0329
3.079029599759726 11.3608
3.101354025127254 12.5593
3.123678568232338 12.9544
3.145985829517914 13.1609
3.16831061055229 13.4307
3.1906181112775593 14.2192
3.212943133635653 14.7781
3.2352682779763207 15.4006
3.2575761442691227 15.1706
3.2799015350264273 15.5439
3.302209649240067 16.5268
3.3245352898092655 16.8585
3.3468436553365257 17.2416
3.369169549113219 17.6643
3.3914955708171384 18.9065
3.413804319727358 18.8865
3.4361305997334863 19.2202
3.4584396084414553 19.6563
3.4807661501462652 19.9911
3.503092824025881 20.6274
3.5254022288463154 20.6152
3.5477291695206588 21.9709
3.5700388426251948 22.0997
3.5923660534916446 23.2773
3.6146934007816114 36.6578
3.637003482731501 76.7076
3.6593311053109985 84.1187
3.681641464033634 50.0409
3.7039693653009733 29.4862
3.726297407241705 26.3075
3.7486081875460804 25.7922
3.7709365132734978 26.1039
3.793247578841633 26.7042
3.8155761917550093 27.09
3.8378875459837216 27.099
3.8602164494827234 27.5537
3.882545499606844 28.5835
3.9048572932539183 28.6554
3.9271866390645718 29.3768
3.9494987298666713 29.9525
3.971828374764527 30.6741
3.9941581705403255 30.6765
4.016470713506008 31.281
4.038800813471445 32.2165
4.061113662089144 33.1002
4.0834440696459176 33.832
4.105774632334751 34.4635
4.128087945865126 34.4251
4.150418821249301 35.7629
4.172732448931298 36.558
4.195063640413578 38.4828
4.2173775856475215 42.4338
4.239709096631102 69.2465
4.262040768704612 200.657
4.284355196706267 259.517
4.306687193387355 169.523
4.329001947444346 72.8873
4.35133427213731 47.8665
4.373666762177566 44.8639
4.395982011761091 44.9698
4.418314834921175 45.7122
4.44063041906622 52.574
4.4629635787515625 61.4251
4.4852969080429785 61.1054
4.5076130004776225 53.4523
4.529946671403969 50.9633
4.552263106909177 51.2531
4.574597122877047 51.8425
4.596931312711224 53.1078
4.619248269273446 53.9036
4.6415828092605835 55.0591
4.663900117405352 55.7809
4.686235010953232 56.7706
4.708552674085913 58.3945
4.730887924602802 59.9736
4.753223354952695 61.663000000000004
4.775541557023902 62.7539
4.797877349456786 64.6901
4.820195915032126 66.8812
4.842532072957498 67.8561
4.864868414979744 69.7232
4.88718753227192 72.0918
4.909524244902505 74.2606
4.931843734218147 76.1516
4.954180820867835 78.2347
4.976518095879839 81.3113
4.998838149695359 83.9996
5.021175803844231 87.8745
5.043496238205739 90.9992
5.065834274903528 95.6575
5.088172504230693 100.691
5.1104935158799565 107.641
5.132832132875765 128.083
5.155153533596801 166.22
5.1774925416746225 204.308
5.199814334878411 381.634
5.2221537374521505 1092.54
5.244493338631803 3028.45
5.266815727034316 7551.36
5.289155727832427 12265.6
5.311478517248165 8440.52
5.333818921080011 2961.64
5.356159527788849 621.244
5.3784829252032536 196.271
5.400823940070432 148.12
5.423147747031976 130.995
5.445489173474152 120.596
5.467830807066149 115.28299999999999
5.490155234831516 111.81200000000001
5.512497285125229 107.81700000000001
5.534822130975162 106.178
5.557164601388673 103.883
5.579489868738879 100.32700000000001
5.601832762690846 99.3205
5.6241758697774475 98.5
5.646501775867269 97.7515
5.668845311622074 95.943
5.691171647754637 95.3196
5.713515615597765 94.5381
5.735859800852677 93.4297
5.758186788542988 92.2838
5.780531411018185 93.0933
5.802858837297399 92.6624
5.825203900414495 92.4137
5.8475491852224 93.03200000000001
5.869877275883075 93.6748
5.892223006467101 94.3567
5.914551544266608 95.9205
5.936897724049891 98.8562
5.959244129804903 104.48299999999999
5.981573344815301 124.84899999999999
6.0039202049061 223.204
6.026249875609095 490.069
6.04859719346037 1031.62
6.070927323278297 2282.49
6.093275102315365 4284.06
6.115623113320588 5370.28
6.137953938319995 3468.17
6.160302415650845 1085.4
6.182633708324452 255.632
6.2049826554078376 117.494
6.227331838745022 94.3415
6.249663839443684 86.5422
6.27201349767565 83.2732
6.294345974611799 87.6585
6.316696111167083 96.1021
6.339046488263839 90.8985
6.361379686074702 78.7971
6.383730546639482 72.32600000000001
6.406064229255215 69.0407
6.428415576718203 68.7827
6.450749747566656 67.7765
6.47310158535871 66.5931
6.495453669698332 65.9242
6.517788579421056 65.1048
6.540141159237969 64.0572
6.562476565766648 63.7713
6.5848296444934045 63.1646
6.607182974060425 62.9322
6.6295191323281015 63.0594
6.651872965955752 65.9992
6.6742096296068985 87.9368
6.6965639707294615 124.59100000000001
6.71891856698715 123.74
6.741255995248479 87.9913
6.763611104154477 66.8269
6.785949046381137 60.3905
6.808304671371482 59.1329
6.8306605557940046 58.3583
6.852999275508618 57.4994
6.875355681171544 57.0174
6.897694923437771 56.9209
6.92005185377892 56.8349
6.9423916220322655 56.9548
6.964749080490181 56.2548
6.987106804399774 55.8773
7.009447368180821 56.2414
7.031805625367033 55.61600000000001
7.054146723727803 55.9048
7.076505517631004 55.4603
7.098864581288365 55.4661
7.121206488070854 55.5384
7.143566093607822 55.3525
7.165908543567245 55.5935
7.188268694426048 55.6442
7.2106291193438095 55.7223
7.232972390625943 57.1642
7.255333366030969 67.6619
7.277677189091925 111.822
7.300038718428332 149.532
7.322400526130865 125.25399999999999
7.344745183422596 82.04799999999999
7.367107550224791 60.6497
7.389452767901992 56.6202
7.411815697249891 55.8956
7.434161478756298 54.745
7.456524974096713 54.6239
7.478888753837185 54.7438
7.501235387657368 55.0787
7.523599738562711 55.1965
7.545946944825532 55.3088
7.568311870344528 55.3343
7.5906770845765665 55.8681
7.613025156078678 56.8471
7.635390950099687 57.6748
7.657739602662809 57.1197
7.680105979923558 56.1
7.702472650212829 56.5834
7.724822180948224 56.3081
7.747189439655568 56.623000000000005
7.769539560075357 56.3858
7.791907410653562 56.9874
7.81425812420825 57.1313
7.836626570110925 57.407
7.858995315087906 58.0652
7.881346924933401 58.1777
7.903716270417482 58.5461
7.926068482028405 59.0566
7.948438431475253 60.0023
7.9708086843180235 60.3048
7.993161805171116 60.8593
8.015532667162402 61.2734
8.037886398416653 62.2372
8.060257873014221 62.7135
8.082629655331942 63.1621
8.104984308787587 64.5176
8.127356708900503 67.0508
8.149711981398308 71.9727
8.172085002766314 74.0891
8.194458336181368 71.6167
8.216814543847752 69.7023
8.23918850371002 69.7445
8.26154533906492 70.6953
8.283919928836452 72.4838
8.306277395339652 73.4069
8.328652618483376 74.4762
8.351028159736202 76.7931
8.373386579575245 79.009
8.395762759396959 81.1142
8.418121819038275 85.7661
8.440498640894003 97.1865
8.462875785192262 109.87299999999999
8.485235811156207 124.944
8.507613602688501 171.838
8.529974277114228 264.619
8.552352719347912 407.72900000000004
8.574731488360351 688.2689999999999
8.59709314210385 1224.83
8.619472567021075 1854.56
8.64183487789147 2170.66
8.664214962183097 1797.3
8.686577933647762 991.297
8.708958680784317 432.164
8.731339760774953 181.459
8.753703729764451 114.726
8.77608547780821 100.55799999999999
8.798450116065078 96.5788
8.820832535634787 93.6276
8.843215292401656 91.8762
8.865580941199045 90.5457
8.887964374703538 89.4203
8.910330701447199 89.9793
8.932714815164482 91.7959
8.955099270424924 90.5064
8.977466620733543 88.2946
8.999851761421976 85.9838
9.022219798361645 84.1081
9.04460562795561 84.4427
9.066991803441677 83.7083
9.089360876979615 83.5405
9.111747746589993 83.2006
9.13411751544971 82.6853
9.156505082664324 82.4904
9.178875550323522 82.8559
9.20126381862328 82.7242
9.223652438908596 83.0057
9.246023961427412 83.315
9.26841328802173 82.9214
9.290785518039224 82.7908
9.313175554425882 83.4648
9.335565947154315 83.7325
9.357939245086508 83.8717
9.380330352834827 83.9537
9.40270436697103 83.9963
9.425096193225055 83.9649
9.447488380180165 85.2755
9.469863475295412 85.4922
9.492256385987508 85.4007
9.514632206018318 85.8079
9.537025843935714 86.0884
9.559402392368193 87.0775
9.581796761000229 88.0519
9.604191496441521 89.0211
9.626569144158516 92.0639
9.648964615551032 95.8801
9.671343000390081 97.3074
9.693739211225699 95.5122
9.716135793237463 93.4727
9.738515290448102 93.8522
9.760912617143402 94.9254
9.783292860202891 96.1719
9.805690935076182 97.5702
9.828089385495742 98.0965
9.850470754023561 101.088
9.872869957865444 107.51799999999999
9.89525208097539 120.5
9.917652041736662 130.799
9.940052382417589 132.336
9.962435644102392 143.548
9.984836746950979 185.85299999999998
10.007220771957746 252.34799999999998
10.029622640473708 360.713
10.052007432299963 550.044
10.074410069984072 854.199
10.096813093716005 1277.19
10.119199042482517 1685.55
10.141602840636468 1861.48
10.163989564971628 1548.28
10.186394141051062 911.7560000000001
10.208799107559706 415.45099999999996
10.231187001965623 195.58599999999998
10.253592751657669 129.425
10.275981430388155 114.335
10.298387966769793 113.40799999999999
10.320794897965431 114.70100000000001
10.343184759907361 113.061
10.36559248305461 108.60700000000001
10.387983138083852 105.21700000000001
10.410391656691655 109.322
10.432800574501677 120.889
10.455192425893369 138.748
10.47760214443012 165.049
10.499994797678786 212.50099999999998
10.522405320453982 292.79400000000004
10.54479877906917 407.162
10.567210109595656 504.974
10.5896218454736 556.373
10.612016518879773 489.95099999999996
10.634429067781074 340.709
10.656824555333241 206.748
10.679237920773568 126.773
10.701651695961992 97.7836
10.724048411481384 90.0975
10.746463008485165 87.2557
10.768860546937125 85.4044
10.791275969274796 83.8033
10.81369180576079 82.7719
10.836090585366925 81.7757
10.858507252467449 80.5052
10.88090686379991 79.4635
10.903324365036394 79.1188
10.925724811614439 78.7386
10.948143150509463 79.5694
10.970561909719066 78.8227
10.992963615930844 77.3156
11.015383218085756 75.2246
11.037785768347074 73.9763
11.06020621697282 73.362
11.082627090322113 72.7209
11.105030913430326 72.2162
11.12745263854165 72.9014
11.149857314510728 75.3975
11.172279894912576 80.1023
11.194702904450653 80.432
11.217108866490921 76.8958
11.239532736615194 73.2712
11.26193956033512 71.6042
11.284364294577085 70.1326
11.306789462371718 68.3605
11.329197585398376 67.5837
11.351623622610898 67.3462
11.37403261614354 66.4872
11.396459526308487 66.4973
11.418869393879497 66.2669
11.441297180532617 65.5655
11.463725406927658 65.4822
11.486136592353875 65.2718
11.508565700543707 65.9628
11.530977768845315 67.3623
11.553407762368774 67.5576
11.575838200059769 67.0524
11.598251599479612 65.7377
11.620682927815501 64.2763
11.64309721895548 64.0849
11.665529441478206 63.5241
11.687962112597958 63.3288
11.710377748130886 63.5853
11.732811318753434 63.373999999999995
11.755227854859067 63.2832
11.777662328529495 63.2104
11.800079768750786 63.4394
11.822515149015453 63.0058
11.844950984084935 63.2159
11.867369787303163 62.6863
11.889806534289491 62.8902
11.912226250487029 63.4002
11.934663912939751 63.2673
11.9571020346363 63.3147
11.979523127133968 63.2645
12.001962169624331 63.9477
12.024384183972964 65.4565
12.046824150809913 68.7893
12.069264581333726 74.2039
12.091687985297767 80.3355
12.11412934550045 90.2226
12.136553680195208 105.545
12.158995973632788 128.253
12.181438735204349 154.325
12.20386447284199 183.588
12.226308172985636 200.782
12.24873485024193 196.796
12.271179492516982 164.791
12.293607112949127 131.421
12.316052700916226 96.6212
12.338498763250042 78.6953
12.360927805303868 70.1688
12.383374818673879 66.4372
12.405804812803074 64.8383
12.428252780773262 64.6224
12.45070122756722 64.6668
12.473132656675375 64.5588
12.49558206341869 64.9613
12.518014453510101 65.0482
12.540464823770117 64.695
12.562915677315177 65.3514
12.58534951575545 65.8613
12.607801338171472 67.4038
12.630236146511358 71.9167
12.652688941369085 75.727
12.675124723177234 76.0416
12.697578494048786 73.2591
12.720032754458185 69.5095
12.742470003354093 68.1826
12.764925245138771 68.0526
12.787363476431278 68.4373
12.809819703166806 68.9337
12.83227642391173 69.6526
12.854716135692716 70.2951
12.877173846755147 71.1926
12.899614549869717 71.4039
12.9220732548287 72.2935
12.94453245827299 72.8183
12.966974655289818 73.9055
12.989434858002571 74.8709
13.011878055298721 75.2782
13.034339260862497 76.4375
13.056800969391883 77.7767
13.079245674017244 79.5891
13.101708390774869 82.3172
13.12415410463411 90.2854
13.146617833206086 101.804
13.169064559883248 113.522
13.191529303857127 129.10399999999998
13.213994557076367 153.372
13.236442809902437 192.572
13.258909083908291 248.09599999999998
13.28135835851934 309.759
13.30382565690295 370.295
13.326293469022952 413.064
13.348744283242008 417.801
13.371213125129904 364.345
13.39366497011003 269.765
13.416134845360597 181.43099999999998
13.438605238843131 128.94
13.46105863690397 108.39399999999999
13.483530069144786 107.65700000000001
13.505984506951902 113.12100000000001
13.528456981549432 123.147
13.550929978879088 138.928
13.573385983253365 164.08599999999998
13.595860028340867 202.571
13.618317081455832 252.24599999999998
13.64079217790333 303.638
13.663250283359057 342.35
13.685726434770173 361.435
13.708203115221277 334.49199999999996
13.730662806148091 263.421
13.75314054697177 192.877
13.775601299246777 134.796
13.798080104050406 100.71
13.820559442405358 86.9144
13.843021793671388 82.4864
13.865502201420897 80.7141
13.887965623051947 80.1673
13.910447103807167 78.8806
13.932929122629764 77.4858
13.955394156785959 77.3923
13.977877254034569 76.486
14.000343367582113 75.8221
14.022827546871707 75.0568
14.045294743423524 74.5518
14.06778000837062 73.6806
14.090265817715476 73.5774
14.112734645763819 72.8179
14.13522154619454 72.9577
14.157691466286913 72.8606
14.180179461423874 72.4755
14.202668005486178 71.866
14.22513957064374 71.4023
14.247629214846473 71.2448
14.270101881097517 70.7361
14.29259262906496 70.9586
14.315083930490205 71.7061
14.337558255389705 71.8451
14.360050666019726 71.6612
14.382526101071944 70.7268
14.405019624534942 69.796
14.427513705993134 69.527
14.449990813291825 69.4901
14.47248601302899 69.0898
14.49496423954951 69.6138
14.517460561197822 69.3705
14.539939910570322 69.1522
14.562437357763558 69.4555
14.58493536931253 70.5754
14.607416409993311 71.0644
14.62991555254159 71.8979
14.652397725157423 71.7538
14.674898002342799 71.4796
14.697398848433282 70.9708
14.719882725991326 71.8581
14.74238471217934 72.8326
14.764869730765593 76.6321
14.787372860692983 80.2704
14.809876564079925 84.9744
14.83236330125751 90.8304
14.854868153850365 99.7347
14.877356041159485 113.961
14.899862046604186 133.024
14.922351087688757 157.468
14.944858249632887 184.27200000000002
14.967365991421232 206.768
14.989856770231246 215.551
15.012365673994204 212.87
15.03485761569738 186.75
15.05736768508665 151.03799999999998
15.07987833888692 117.603
15.102372032001655 93.3317
15.124883856909658 78.6489
15.14737872204565 73.2223
15.169891721717274 71.152
15.192405310371893 70.9683
15.214901940621196 71.3031
15.237416709527137 71.1582
15.259914520936249 71.0382
15.282430473753607 70.1848
15.304947020131227 69.2345
15.327446610371178 68.6004
15.349964346154254 67.6653
15.372465126703139 67.3898
15.394984055556009 67.0109
15.417486030076159 66.8366
15.44000615566487 66.5123
15.462526881230803 66.6843
15.485030653812652 66.6415
15.507552581617434 66.5602
15.530057557334603 66.76899999999999
15.55258069104857 66.6155
15.575104429329837 66.8816
15.597611216864632 66.294
15.620136166564563 66.5137
15.6426441664095 67.7822
15.665170331202765 70.0837
15.687697105158826 73.2445
15.710206930593545 76.7045
15.732734925158933 81.1178
15.755245972089478 87.7807
15.77777519094324 97.5504
15.800287463046663 110.823
15.822817909869592 129.135
15.84534897229804 148.975
15.867863089299354 169.123
15.890395385222186 184.095
15.912910736597423 188.782
15.935444269699861 179.82299999999998
15.957978423016485 154.839
15.980495633101265 124.32700000000001
16.003031029129367 98.2757
16.02554948280019 78.9333
16.048086125229432 68.8616
16.070623392487107 65.6215
16.09314371869582 64.5287
16.11568223789321 63.8229
16.13820381691126 62.6321
16.160743591742527 61.8
16.183283996022084 60.8089
16.205807461423195 59.7702
16.228349126881973 59.4021
16.25087385432698 59.181999999999995
16.27341678466365 58.7732
16.29594277784926 58.7867
16.31848697676433 58.9573
16.341031811604868 59.0702
16.36355971058487 59.2423
16.3861058195587 59.0226
16.40863499352978 57.6142
16.431182380342005 57.1062
16.453730407713202 56.7621
16.476261501364792 56.3515
16.498810812136167 56.0176
16.52134319004079 56.0167
16.54389378792203 55.9589
16.566445031001553 55.7611
16.588979342490088 55.4518
16.61153187824822 55.3864
16.634067483263312 55.2844
16.656621315414416 55.2754
16.679175797408888 55.0557
16.701713349928728 55.1946
16.72426913389191 55.2803
16.74680798922351 55.3424
16.76936507887444 55.3593
16.791905240734874 55.402
16.814463639794468 55.1467
16.837022695210294 55.268
16.859564824093756 55.5471
16.882125194503903 56.0487
16.904668639217885 56.4896
16.927230328348003 56.8671
16.949792678493612 57.0151
16.972338104193863 56.3863
16.994901778652235 56.2075
17.017448529496576 56.0143
17.040013531998152 56.4021
17.06257920018044 56.8221
17.0851279459922 57.766999999999996
17.107694947817667 58.433
17.130245028099072 59.4332
17.15281336730298 60.6675
17.17536478578733 62.4009
17.19793446610687 64.5687
17.220504818648422 67.555
17.243058251703697 70.7915
17.265629950971032 74.7528
17.288184731571736 78.4109
17.310757781306908 81.5398
17.33333150794385 83.5278
17.355888317140174 81.9378
17.37846339986244 78.2637
17.401021565958885 72.7194
17.42359800851343 67.1629
17.44617513265564 63.1576
17.468735341390783 60.8078
17.491261035594565 59.7368
17.51396340099364 59.4902
17.536490463869136 59.4946
17.559018209820174 59.5191
17.58154663977963 59.6979
17.604251766089718 59.9644
17.626781572227713 60.1269
17.64931206518155 60.2687
17.671843245885103 60.8775
17.69455114821572 61.0017
17.717083712612634 61.161
17.739616967569667 61.4898
17.762150914021706 61.6709
17.78486160749854 61.773999999999994
17.807396945166804 62.5899
17.829932977143503 63.4277
17.85246970436452 64.9144
17.875183204129467 66.7932
17.897721330097664 69.1412
17.920260154126645 71.5363
17.942799677153296 74.6759
17.9655159983646 78.5727
17.988056927677544 84.2194
18.010598558807683 92.0783
18.033140892692916 102.094
18.05586005052525 112.398
18.07840379824407 122.367
18.10094825154059 131.662
18.12366954819864 137.84799999999998
18.146215420998306 139.19
18.16876200220057 131.829
18.191309292745153 118.916
18.214033452627167 106.479
18.236582170236648 94.7369
18.259131600016456 88.8144
18.281681742907335 88.4881
18.304408781233683 92.0783
18.32696035875955 95.904
18.349512652227624 99.7528
18.372065662579683 103.709
18.394795594587553 104.569
18.41735004715306 102.587
18.43990521943684 96.4665
18.46246111238171 87.8699
18.485193953325208 79.4438
18.507751296070428 71.4213
18.530309362314178 66.848
18.552868153000343 64.0786
18.57560391815056 62.7589
18.59816416623245 62.1577
18.620725141597372 61.82
18.643286845190268 61.3337
18.666025549835414 61.1059
18.688588718427933 60.5567
18.711152618092243 60.1581
18.73389353884365 59.9397
18.75645890921984 59.5782
18.77902501351406 59.2232
18.801591852673102 59.0638
18.824335739722738 58.488
18.846904057212626 58.2486
18.8694731124168 58.125
18.89204290628315 58.021
18.914789774966803 58.0154
18.937361054791623 57.6437
18.959933076131318 57.6021
18.982505839934877 57.5003
19.00525570560582 57.6803
19.027829963004184 57.2826
19.05040496572238 57.2729
19.072980714710468 57.27
19.095733592739563 57.8054
19.11831084296757 57.9144
19.140888842324735 58.3785
19.16346759176222 58.6962
19.18622349753803 59.1458
19.208803755869358 60.0413
19.231384767143577 61.238
19.253966532312948 63.0553
19.276725481241822 64.8405
19.29930876296784 67.4771
19.3218928014549 70.1926
19.34465404436217 72.7098
19.36723960516257 75.111
19.389825925592426 75.9603
19.412413006605938 75.3192
19.43517731967805 72.5977
19.457765930683355 68.4867
19.48035530514408 64.2331
19.50294544401556 60.3573
19.525712842708348 57.6471
19.54830451925909 55.8707
19.570896963095727 54.8201
19.593490175174704 54.3571
19.616260674962184 54.1248
19.638855432416964 54.1215
19.661450960992624 54.1096
19.68404726164677 53.8999
19.706820878021247 53.8002
19.729418731756834 54.0199
19.752017360452857 53.8053
19.77461676506804 53.9556
19.797393513540218 54.1096
19.819994478951667 54.284
19.84259622316767 54.7712
19.8651987471481 55.1385
19.887978643247177 55.4316
19.91058273574792 56.005
19.933187610901943 56.9212
19.955969879466828 57.9359
19.97857632894404 59.4703
20.00118356396599 61.0014
20.023791585494575 62.9623
20.046577028914875 65.4428
20.069186632506966 67.2767
20.091797025500632 68.8447
20.114408208858933 69.5239
20.137196842715273 69.4269
20.159809615886765 68.4919
20.18242318232135 66.3339
20.20503754298326 64.3104
20.227829382875154 63.2646
20.250445341109344 62.917
20.27306209647285 63.2804
20.29567964993108 63.9953
20.31847471147704 64.6613
20.34109387027612 65.0279
20.363713830075454 65.0853
20.386334591841646 63.9358
20.409132890679302 61.6088
20.431755265564437 58.8435
20.454378445325528 56.25899999999999
20.477002430930366 54.1764
20.499803982716553 52.926
20.522429589228004 52.0469
20.54505600449589 51.341
20.567683229489194 51.3262
20.590488049900088 50.6857
20.61311690359731 50.5426
20.63574656993626 50.4524
20.658553853717297 50.0258
20.681185154618298 50.2118
20.703817271080066 49.8008
20.72645020407368 49.4782
20.749260783967177 49.4409
20.771895359337133 49.34
20.794530754161617 49.2384
20.817166969412938 49.1718
20.83998086114876 49.2375
20.86261872660049 49.0841
20.885257415405402 49.0436
20.90789692853701 48.9242
20.930714147864748 48.9795
20.953355319030678 48.9986
20.97599731745334 49.1838
20.99864014410749 48.7443
21.021460706796564 48.9724
21.044105199328826 49.1485
21.06675052302631 49.1778
21.089396678865015 49.5344
21.112220600704806 49.8108
21.134868430275347 50.2016
21.15751709492456 50.3729
21.180166595629693 50.6945
21.202993892429635 51.1257
21.22564507473034 51.2515
21.24829709602816 51.5942
21.27112693608965 51.6116
21.293780644891275 51.4275
21.316435195634053 50.795
21.339090589297417 50.3431
21.361923832041875 50.1016
21.384580921090404 49.442
21.407238856007325 48.6095
21.429897637773326 48.8144
21.45273429906592 48.7925
21.475394784108598 48.8976
21.498056118951983 48.4979
21.520718304578022 48.8252
21.543558400304388 48.9258
21.566222297108816 49.0947
21.58888704765135 49.1923
21.61155265291521 49.6672
21.63439619898156 50.1161
21.657063523335786 50.3617
21.67973170537063 50.8258
21.7024007460706 51.2231
21.72524775840385 52.0979
21.747918526116475 53.1626
21.770590155457388 54.3575
21.79326264741238 55.9503
21.816113141960237 57.7566
21.838787368860547 59.6647
21.861462461341976 61.0652
21.884315579735777 62.4711
21.90699241312273 63.6527
21.92967011506078 64.3664
21.95234868653799 64.2492
21.9752053151131 63.4289
21.997885635446785 62.0093
22.020566828293532 60.2237
22.04324889464272 58.4441
22.066109049404666 57.2124
22.088792872571794 56.508
22.111477572219204 56.32899999999999
22.1341631493376 56.3334
22.157026846313123 55.9703
22.179714188221507 55.4577
22.202402410582668 54.5532
22.22509151438863 53.0709
22.24795876962584 52.0287
22.270649646204486 51.0273
22.293341407213727 50.253
22.316034053646906 49.6906
22.338904883215342 49.4954
22.36159931041458 49.2953
22.38429462602756 49.2586
22.40699083104897 49.0263
22.429865251039757 49.2732
22.452563244831367 49.2779
22.47526213102522 49.2005
22.49813925616515 49.1844
22.520839937143307 49.0729
22.543541513520587 48.8982
22.56624398629403 48.7136
22.589124730075895 48.6946
22.611829005656723 48.9214
22.63453418063466 48.9032
22.657240256008077 49.2833
22.680124634582935 49.5332
22.70283252079775 49.8051
22.725541310413075 50.0171
22.74825100442868 50.1937
22.771139033969575 50.6169
22.79385054687155 50.8331
22.81656296718292 51.6214
22.83927629590484 52.426
22.862167992606945 53.3748
22.88488314827121 54.5261
22.907599215359284 55.431999999999995
22.93031619487366 56.31399999999999
22.953211574954405 57.0706
22.975930389478226 57.9046
22.998650119445763 57.9481
23.02137076586092 57.285
23.044269845560063 56.2365
23.06699233506288 54.9762
23.089715744034912 53.2956
23.112617610931565 51.6615
23.135342869061212 50.3213
23.158069049684816 49.583999999999996
23.1807961538087 49.2927
23.20370174880544 49.0852
23.226430710184808 49.0058
23.249160598093425 49.2768
23.271891413539002 49.1742
23.294800752937697 49.2623
23.31753343374794 49.3506
23.340267045128353 49.4156
23.36300158808808 49.8234
23.38591468821339 50.2149
23.408651104658304 50.608999999999995
23.431388455719986 51.4619
23.454126742409 52.1137
23.4770436196085 53.2466
23.499783787914662 54.3099
23.522524894889884 55.2152
23.54526694154616 55.9122
23.56818761219047 56.8932
23.59093154860734 57.2067
23.613676427751283 57.6804
23.636422250635754 57.0922
23.659346731118656 55.9614
23.68209445191868 54.196000000000005
23.704843119509587 52.0753
23.72759273490623 50.2819
23.750521041644767 48.9983
23.77327256312355 47.8339
23.796025035462787 47.0605
23.818956224555475 46.3977
23.841710609113413 46.3232
23.86446594758979 46.083
23.887222241002014 45.8246
23.910157285144578 45.4782
23.932915498962537 45.5147
23.955674670778713 45.3148
23.978434801611975 45.1472
24.001373717286125 44.9536
24.024135776723917 44.9172
24.046898798245582 44.7803
24.06966278287146 44.8098
24.092605586582614 44.5875
24.115371508023642 44.3984
24.1381383956401 44.4309
24.16090625045381 44.2109
24.183852958731244 44.293
24.206622758582608 44.1557
24.229393528706886 43.9352
24.252165270127392 44.1115
24.27511589952438 44.0097
24.297889594216997 43.7608
24.32066426328598 43.6383
24.34343990775613 43.475
24.36639447485003 43.4808
24.38917208083877 43.5021
24.41195066531332 43.3734
24.43490819850244 43.4095
24.457688750692377 43.2339
24.48047028445616 43.2967
24.503252800821233 43.3936
24.526214300784112 43.4799
24.548998793132213 43.3858
24.57178427117417 43.0585
24.59457073593893 43.2125
24.617536219319863 43.1378
24.64032466834748 43.1525
24.663114107195035 43.1053
24.685904536893013 42.8378
24.708874020360852 42.748000000000005
24.731666442613744 42.6363
24.754459858818787 42.7303
24.777254270007962 42.6606
24.80022777025625 42.5386
24.82302418230472 42.411
24.845821592443674 42.3779
24.86862000170663 42.651
24.891597535453727 42.3183
24.914397953892728 42.5513
24.93719937456671 42.4789
24.96000179851076 42.608000000000004
24.98298338249997 42.8179
25.00578782394922 43.0463
25.028593271784167 43.1774
25.05157790644186 43.5457
25.07438537804115 43.631
25.097193859145293 43.9011
25.120003350792075 43.9181
25.142992065061257 44.4124
25.165803588823465 44.5501
25.18861612625217 44.8525
25.211429678386736 45.1306
25.234422489079968 45.1356
25.257238081693636 45.181999999999995
25.280054692141732 45.1276
25.3028723214652 45.1454
25.325869245420463 45.1016
25.348688923599397 45.1993
25.371509623787006 44.996
25.394331347025812 44.7532
25.41733240110666 44.428000000000004
25.440156181590016 43.9128
25.46298098826268 43.3963
25.48580682216873 42.7853
25.50881202326435 42.1474
25.53163992281684 41.7863
25.55446885274561 41.3392
25.577298814096377 41.2132
25.600308179121807 41.0989
25.623140214533745 41.1287
25.64597328451537 41.108000000000004
25.66898578564376 40.7506
25.691820936010206 40.8285
25.714657124097695 40.884
25.737494350954734 40.8065
25.760511045684957 40.6593
25.783350361364224 40.7467
25.806190718969255 40.8056
25.82903211955018 40.918
25.852053024868923 40.8561
25.874896522722523 40.8902
25.897741066713106 40.9369
25.920586657892454 40.9992
25.943611790812668 41.1456
25.966459487728237 41.3064
25.989308234998564 41.3253
26.01215803367705 41.5481
26.03518741123814 41.7501
26.05803932412957 41.7217
26.080892291600094 41.7886
26.10374631470478 41.8333
26.12677995397268 41.9696
26.14963609978026 41.8665
26.172493304397875 41.5441
26.19535156888223 41.4528
26.218389486949604 41.0275
26.241249882640123 40.8338
26.26411134137826 40.6012
26.28715248187403 40.5446
26.31001607820869 40.3209
26.3328807407756 40.2286
26.35574647063438 40.5067
26.37879191991473 40.4865
26.401659795896734 40.446999999999996
26.424528742360263 40.4536
26.447398760366614 40.6381
26.470448535598294 40.7966
26.49332070826805 41.0197
26.516193955675355 41.3538
26.53906827888316 41.5285
26.562122397260108 41.717
26.584998883685063 42.035
26.607876449110325 42.1544
26.63075509460056 42.256
26.65381357334404 42.4315
26.67669439061878 42.3772
26.699576291163382 42.2983
26.722459276044212 42.3884
26.745522132402975 42.1249
26.768407297649354 41.6573
26.791293550442003 41.396
26.814180891848974 41.1442
26.837248143099337 40.9243
26.860137673466657 40.7388
26.88302829566349 40.4951
26.90592001075963 40.3485
26.92899167420566 40.1633
26.951885586870763 39.8717
26.974780595655517 39.5286
26.99785558178161 39.5689
27.020752794605112 39.3095
27.043651106772522 39.0875
27.06655051935668 39.1219
27.089629948036183 39.0319
27.112531573292053 39.038000000000004
27.135434302194138 39.1318
27.158338135817015 38.9543
27.181422024430987 39.0032
27.204328079372566 38.8336
27.22723524226965 38.7543
27.250143514198573 38.9815
27.273231880156334 38.9224
27.296142382065014 38.7196
27.319053996245536 38.678000000000004
27.341966723775965 38.7002
27.365059584515222 38.7483
27.38797455070062 38.7454
27.410890633481237 38.8544
27.433807833936918 38.7052
27.456905206923906 38.7651
27.47982465472398 38.6975
27.502745223449743 38.6742
27.525666914182825 38.753
27.548768816912457 38.859
27.571692763693633 38.797
27.59461783573812 38.6326
27.617723149491244 38.5969
27.640650484125285 38.5368
27.66357894728264 38.477
27.686508540048052 38.2954
27.709618414237887 38.393
27.732550278321757 38.1111
27.755483275279115 38.0342
27.778417406196485 38.1374
27.801531858397514 38.1481
27.824468269376716 38.1219
27.847405817586786 38.007
27.870344504116094 38.3
27.893463551932008 38.463
27.916404527281053 38.5922
27.93934664422563 38.7258
27.962289903855886 38.7091
27.98541356491974 38.9376
28.00835912214229 39.0305
28.03130582533231 39.1778
28.054253675581805 39.378
28.077381967556104 39.2157
28.100332124185126 39.2633
28.123283431160893 39.2358
28.146235889577238 39.1066
28.169368830154156 38.9509
28.192323603752033 38.7945
28.215279532083304 38.4918
28.238415973016764 38.2532
28.261374223145094 38.0999
28.284333631303806 37.8388
28.307294198589954 37.6273
28.330435319167677 37.371
28.353398217078915 37.2022
28.376362277420153 36.9576
28.39932750129032 36.8763
28.422473319286713 36.7075
28.44544088262495 36.6479
28.468409612800283 36.493
28.491379510913497 36.3509
28.51453004413313 36.28
28.53750229057244 36.2224
28.56047570826344 36.2243
28.583450298308804 36.181999999999995
28.606605564586562 35.9965
28.629582511831156 36.0323
28.65256063474956 35.9191
28.675539934446338 35.8407
28.698699951647605 35.8974
28.72168161743193 35.6823
28.74466446331978 35.7303
28.767648490417624 35.659
28.790813276438353 35.6689
28.813799678527303 35.650999999999996
28.836787265157085 35.6499
28.859955641890075 35.6875
28.882945610203045 35.5958
28.905936766392035 35.5794
28.928929111566863 35.5452
28.952102288520145 35.4626
28.975097024308607 35.4411
28.998092952423807 35.3567
29.021090073977508 35.2598
29.04426806913204 35.0596
29.067267590245258 34.8933
29.090268308143695 34.9574
29.11327022394099 34.6928
29.13645305530891 34.5982
29.159457379627167 34.5991
29.18246290519685 34.6872
29.20546963313352 34.6617
29.22865731875826 34.6943
29.25166646419296 34.5489
29.27467681535305 34.4254
29.29768837335608 34.5219
29.320880931312562 34.4947
29.34389491580634 34.4893
29.366910110507334 34.3936
29.38992651653503 34.4801
29.41312396492981 34.4028
29.436142806456754 34.3642
29.45916286268059 34.2242
29.48236399319994 34.2207
29.50538649169417 34.013000000000005
29.528410208259935 33.9995
29.55143514402014 33.7941
29.574641196749695 33.7507
29.597668583816574 33.5733
29.6206971934585 33.4719
29.64372702680042 33.5319
29.666938019934474 33.3015
29.689970313635285 33.3325
29.713003834422636 33.1791
29.73603858342347 33.188
29.759254535188578 33.1138
29.78229175361658 33.005
29.80533020365064 33.0317
29.82836988641968 33.0357
29.85159081507472 33.1288
29.874632976355343 32.9727
29.89767637376955 32.9664
29.920721008448314 32.867
29.9439469322847 32.8312
29.96699405457564 32.7993
29.9900424175358 32.7761
30.013092022298157 32.6668
30.03632295963995 32.6757
30.059375061131373 32.7418
30.08242840783577 32.8439
30.105483000888153 32.7467
30.128718970092244 32.5939
30.151776069006917 32.7335
30.17483441768648 32.6072
30.198074175317235 32.5789
30.221135036724256 32.6178
30.24419715131772 32.5477
30.267260520236203 32.5342
30.290505341942243 32.5055
30.313571232750228 32.5367
30.336638381310948 32.6177
30.35970678876503 32.4741
30.38295669299435 32.3663
30.40602763151657 32.4501
30.429099832366074 32.4412
30.452173296685572 32.398
30.47542830191959 32.3077
30.498504306502497 32.2908
30.521581577995562 32.4639
30.544660117543582 32.4817
30.56792024229725 32.367
30.59100133132069 32.4153
30.614083691845494 32.4457
30.637167325018545 32.4621
30.660432587840603 32.4094
30.683518779717886 32.3934
30.70660624769615 32.4804
30.729694992924372 32.3911
30.75296541239743 32.3545
30.77605672557558 32.2889
30.799149319462742 32.4088
30.8224236211637 32.2206
30.845518789950724 32.1068
30.868615242910597 32.0375
30.891712981195973 31.9171
30.91499247215866 31.7505
30.938092794619365 31.9301
30.96119440587579 31.8377
30.984297307082752 31.7392
31.00758200598383 31.6031
31.030687500658694 31.5057
31.053794288760695 31.5083
31.076902371446767 31.2887
31.100192296997445 31.3378
31.12330298246119 31.3151
31.14641496599209 31.1718
31.169528248749216 31.2654
31.19282341969534 31.1809
31.215939314557186 31.1182
31.239056512134788 31.212
31.262175013589378 31.1019
31.28547544871168 31.1554
31.30859657161541 31.0622
31.331719001892175 31.0686
31.35484274070538 31.1108
31.378148458819545 31.0149
31.401274828443725 31.1296
31.424402510106933 31.1057
31.447712205419993 31.2375
31.470842524931633 30.9725
31.493974159989783 31.0362
31.51710711176168 30.9953
31.54042212308802 30.9676
31.563557722100917 30.9959
31.586694641341655 30.8071
31.609832881979628 30.746
31.63315322823208 30.7932
31.656294125521327 30.5678
31.679436347728515 30.5114
31.70257989602529 30.4433
31.725905596152327 30.4128
31.74905181052835 30.3373
31.772199354521323 30.425
31.79534822930507 30.4104
31.818679302290967 30.4184
31.84183085259981 30.4203
31.864983737233473 30.3703
31.88813795736804 30.2996
31.911474422233013 30.2511
31.934631327356435 30.444000000000003
31.9577895715215 30.3025
31.980949155906522 30.354
32.004291031706956 30.2047
32.027453310562606 30.2404
32.05061693318573 29.9523
32.07396288236386 30.0356
32.09712920658542 29.9758
32.12029687812702 29.8637
32.14346589817093 29.7769
32.166817291729984 29.6862
32.18998902288583 29.6385
32.21316210610336 29.6411
32.23633654256711 29.4758
32.259693399663725 29.5262
32.282870556771144 29.3716
32.30604907069099 29.3841
32.329228942610065 29.2952
32.35259128243769 29.2161
32.375773884550505 29.1878
32.398957848235646 29.1786
32.422143174682176 29.1275
32.445511016471215 29.0335
32.468699082679954 28.9064
32.49188851523011 28.9729
32.51507931531304 28.9304
32.538452678331 28.8946
32.56164622776311 28.8024
32.58484114831493 28.7088
32.60803744118015 28.7526
32.631416344731896 28.671
32.654615396551876 28.6887
32.67781582427913 28.6489
32.701198898634416 28.4733
32.72440209253756 28.4617
32.747606665947124 28.5522
32.77081262006088 28.3575
32.79420126883317 28.355
32.81740999876112 28.3569
32.840620112999424 28.2415
32.86383161274818 28.2364
32.88722585534586 28.2648
32.91044014056596 28.2986
32.933655814909734 28.1706
32.95687287957963 28.191
32.98027273544904 28.0502
33.00349259526636 28.075
33.026713849030116 28.0737
33.04993649794511 28.0948
33.073341986570746 27.9734
33.09656744032826 28.0254
33.11979429286444 28.0536
33.14302254538647 28.0353
33.166433686291185 27.8677
33.18966475336992 27.9079
33.212897224069096 27.8392
33.23613109959831 27.7804
33.259547912343415 27.7944
33.2827846121627 27.8114
33.306022720453775 27.7098
33.32926223842861 27.5855
33.352684742614166 27.6495
33.37592709463173 27.6498
33.399170859982064 27.5344
33.422597648419426 27.4834
33.44584425514446 27.3276
33.46909227885668 27.2355
33.4923417207723 27.1795
33.51577423505344 27.1628
33.539026528130385 27.1443
33.56228024307245 27.159000000000002
33.585535381098246 27.02
33.60897364093058 26.9297
33.63223163992385 26.9795
33.6554910656699 26.8819
33.678751919389796 26.9581
33.702195944520106 26.8858
33.72545966903325 26.8053
33.74872482519663 26.6981
33.771991414233746 26.8148
33.79544122444841 26.6211
33.81871069412428 26.5855
33.84198160035767 26.5416
33.86525394437455 26.5743
33.88870955949969 26.5225
33.911984794020626 26.4478
33.93526147001624 26.3941
33.958539588715006 26.3817
33.98200102861669 26.2418
34.0052820477047 26.2286
34.02856451319451 26.2404
34.05203033759056 26.2658
34.07531571090147 26.2625
34.09860253431845 26.1149
34.121890809074316 26.1063
34.145362493118924 26.0818
34.16865368561615 26.0109
34.191946333164054 26.0208
34.21524043699793 26.0004
34.23871800066799 25.9304
34.26201503218366 25.796
34.28531352370466 25.7849
34.30861347646881 25.675
34.33209693978188 25.7062
34.3553998301885 25.7115
34.378704185565205 25.5544
34.402010007152356 25.5739
34.42549939016683 25.5871
34.44880815937748 25.448
34.472118398533134 25.4773
34.49543010887669 25.4285
34.51892543169198 25.2819
34.54224009966052 25.3649
34.56555624255917 25.3503
34.58887386163339 25.2062
34.61237514439016 25.2303
34.6356957311114 25.1085
34.65901779775809 25.0965
34.68252356662995 25.1096
34.705848608458616 25.1207
34.72917513396849 25.044
34.75250314440949 24.9392
34.77601490857862 24.9073
34.799345904259795 24.8452
34.82267838863559 24.8887
34.846012362958525 24.8676
34.869530142679984 24.7571
34.89286711232212 24.7345
34.91620557568269 24.8139
34.93954553401677 24.6991
34.9630693495876 24.6675
34.986412313340814 24.7223
35.00975677584668 24.6103
35.033102738362956 24.5309
35.05663261012228 24.5057
35.0799815881786 24.4984
35.10333207003229 24.5312
35.12668405694369 24.6005
35.150220005273056 24.5066
35.17357501786656 24.4362
35.19693153931268 24.4006
35.220289570874385 24.3163
35.24383161619786 24.3015
35.267192683604904 24.3048
35.290555264930376 24.296999999999997
35.314101899412165 24.2727
35.33746752422433 24.2753
35.36083466676374 24.2928
35.38420332829803 24.1781
35.407756095629054 24.1905
35.43112781085063 24.1852
35.45450104888391 24.121
35.477875810999194 24.1753
35.50143473172161 24.0323
35.52481255774625 24.026
35.54819191167777 23.9795
35.57157279478914 23.9785
35.595137889488406 23.8803
35.61852184675279 23.8844
35.641907337029984 23.7478
35.665294361595684 23.7289
35.68886565090076 23.6932
35.7122557598848 23.7451
35.73564740699838 23.7016
35.759040593519934 23.684
35.78261809810353 23.6501
35.80601437933051 23.5355
35.829412203814705 23.4805
35.85281157283719 23.4212
35.876395313415884 23.4033
35.8997977874528 23.3864
35.92320180988546 23.3921
35.946790244133936 23.296
35.97019737933222 23.2211
35.993606066789866 23.275
36.01701630779276 23.2143
36.04061101440684 23.1442
36.06402437852291 23.1184
36.08743930005611 23.1784
36.1108557802951 23.0386
36.13445678011326 22.9863
36.15787639383515 22.9575
36.18129757014299 22.9718
36.20472031032821 22.894000000000002
36.22832762423364 22.8393
36.25175350829375 22.8784
36.275180960119776 22.8231
36.298609981005924 22.823
36.32222362992669 22.8389
36.34565580510207 22.7495
36.36908955323448 22.7589
36.39252487562093 22.6234
36.416144880530226 22.5957
36.43958336764275 22.6205
36.463023432914625 22.5195
36.486465077645676 22.4842
36.51009145956204 22.6883
36.53353627947859 22.5428
36.55698268276811 22.496
36.58043067073321 22.441999999999997
36.60406345072071 22.3563
36.62751462435344 22.3399
36.65096738658405 22.3078
36.67460498210655 22.326999999999998
36.69806093788647 22.2922
36.72151848619297 22.1615
36.744977628333636 22.2678
36.76862165890998 22.1894
36.79208400512205 22.1398
36.81554794910557 22.1358
36.83901349217101 22.0596
36.862663978991606 22.0465
36.88613273667352 22.0181
36.90960309738324 21.9293
36.933075062434064 21.8268
36.95673202673572 21.8158
36.98020721697122 21.8447
37.003684015502365 21.7915
37.027162423645365 21.7138
37.050825886711465 21.6868
37.07430753063053 21.6663
37.09779078812467 21.6265
37.121275660513014 21.6412
37.144945643673694 21.5553
37.16843376245278 21.5628
37.19192350009803 21.5845
37.215414857931435 21.4672
37.239091382563885 21.4516
37.262585997426164 21.4425
37.28608223645736 21.3784
37.309763684451696 21.3601
37.33326318851098 21.3505
37.356764320726555 21.3254
37.380267082425526 21.3414
37.40395510942588 21.2627
37.42746114683234 21.1955
37.45096881771841 21.123
37.474478123414166 21.1071
37.49817275092816 21.1157
37.52168534303452 21.1155
37.54519957395567 20.9421
37.568715445024665 20.9159
37.592416694607714 20.9265
37.61593586281424 20.9928
37.63945667518264 20.9602
37.66297913304891 20.8715
37.68668702630454 20.9269
37.710212792059274 20.7638
37.733740207334854 20.7532
37.757269273470364 20.7198
37.780983832050374 20.6545
37.80451621684926 20.6043
37.82805025654007 20.5962
37.851585952464795 20.6641
37.8753071980695 20.4993
37.89884622345676 20.4909
37.92238690911902 20.4926
37.94611318753442 20.4218
37.969657210779765 20.3773
37.99320289834801 20.4329
38.016750251586465 20.3499
38.04048325513017 20.3398
38.06403395679343 20.2462
38.087586328183946 20.2527
38.11114037065203 20.2548
38.13488012115898 20.2043
38.1584375229181 20.1225
38.181996599821 20.1331
38.205557353221124 20.116
38.229303872575656 20.081
38.2528679961576 20.072
38.27643380031219 20.0283
38.30000128639589 19.9717
38.32375459653193 19.9308
38.34732546371299 19.9523
38.37089801690786 19.8295
38.39447225747609 19.7611
38.418232380377425 19.8478
38.441810012983396 19.7839
38.46538933705673 19.7865
38.488970353960084 19.8266
38.51273731166058 19.6528
38.536321731567014 19.5918
38.55990784840681 19.6326
38.58367995004091 19.5569
38.60726947812959 19.5035
38.63086070726198 19.5724
38.654453638806274 19.5329
38.678232613930824 19.4798
38.70182896773327 19.4359
38.72542702806741 19.3397
38.7490267963045 19.3831
38.77281266709232 19.3269
38.79641586862214 19.3064
38.8200207821842 19.24
38.843627409152944 19.3002
38.86742019782782 19.1799
38.891030269149255 19.1185
38.914642058016156 19.0912
38.938255565806124 19.1084
38.96205529464307 19.0471
38.98567225787121 19.0724
39.00929094417078 19.0489
39.03291135492255 19.0042
39.05671804624804 19.0324
39.080341923549106 18.9234
39.103967529460334 18.86
39.127594865365744 18.8688
39.15140854155791 18.8595
39.17503935514948 18.8258
39.19867190290282 18.8465
39.22249083587951 18.8047
39.24612686969409 18.7501
39.269764641845306 18.807000000000002
39.293404153722804 18.6986
39.317230110864074 18.6411
39.34087311998506 18.5591
39.36451787301696 18.6052
39.388164371352595 18.5073
39.41199737518003 18.4902
39.43564738196752 18.4708
39.45929913825317 18.4474
39.48295264543308 18.4088
39.506792718520884 18.416
39.530449745387216 18.3902
39.55410852735203 18.2559
39.57776906581474 18.3476
39.60161623079 18.309
39.625280300200025 18.2554
39.64894613032202 18.2118
39.67261372255866 18.1663
39.6964680021016 18.2077
39.72013913657293 18.1589
39.74381203738292 18.1326
39.76748670593756 18.1078
39.79134812278169 18.1082
39.81502634488497 18.0653
39.83870633896685 18.0308
39.862388106436654 17.9859
39.88625668336918 17.9141
39.90994201572829 17.9507
39.933629125719285 17.9406
39.957503091207826 17.8634
39.9811937746168 17.8694
40.00488623990914 17.8384
40.02858048850006 17.7915
40.05246165409549 17.7619
40.076159487492085 17.7164
40.099859108448875 17.6975
40.123560518384345 17.6557
40.1474489070226 17.6766
40.171153913178564 17.5834
40.194860712584955 17.583
40.2185693066637 17.5626
40.242464941335314 17.5077
40.26617714307655 17.4921
40.289891143772046 17.5452
40.3136069448471 17.5095
40.33750984859743 17.4399
40.3612292688043 17.3985
40.3849504936829 17.4063
40.40867352466194 17.3879
40.43258372059144 17.3125
40.45631038219906 17.2988
40.48003885420956 17.2583
40.503769138055105 17.2435
40.52768664931955 17.2241
40.55142057531802 17.1741
40.57515631746428 17.1931
40.599079334038514 17.0891
40.62281872700477 17.1091
40.64655994043941 17.0806
40.67030297578061 17.0294
40.69423334835778 16.9993
40.71798004609188 16.9816
40.74172857006355 16.9734
40.76547892171441 16.9753
40.7894166736039 16.9477
40.813170699248566 16.8481
40.83692655691388 16.8664
40.86068424804498 16.8718
40.884629402612525 16.7511
40.908390779366385 16.7719
40.932153993938 16.6836
40.95591904777605 16.7249
40.979871628443995 16.7281
41.003640379561936 16.6745
41.02741097430883 16.6677
41.05118341413683 16.6122
41.075143444384416 16.5604
41.098919593177826 16.6042
41.1226975914255 16.5232
41.14647744058318 16.4632
41.170444943946755 16.4665
41.19422851378379 16.4287
41.218013938914645 16.3839
41.24198706625173 16.3352
41.26577622087193 16.335
41.289567235177785 16.2741
41.31336011063129 16.2549
41.337340752422875 16.281
41.361137369129835 16.250999999999998
41.38493585138705 16.2799
41.40873620066004 16.2125
41.43272438060107 16.1581
41.45652848292052 16.1318
41.48033445666918 16.0481
41.50414230331616 16.0502
41.528138045159764 16.0679
41.551949656675205 16.0307
41.575763145513235 16.0212
41.59957851314666 16.0437
41.62358184070442 15.9598
41.64740098505737 15.9643
41.6712220126409 15.8982
41.69504492493139 15.9027
41.71905586207357 15.8539
41.74288256296395 15.8288
41.766711153007456 15.7691
41.79054163368412 15.7955
41.814560204340054 15.7719
41.838394485526365 15.745
41.86223066180303 15.6909
41.88625497706819 15.6312
41.910094962812 15.7045
41.93393684811168 15.652999999999999
41.95778063445365 15.5853
41.981812625263366 15.568
42.00566023303407 15.5202
42.029509746323676 15.519
42.05336116662236 15.5344
42.077400857069705 15.4975
42.10125611078846 15.4778
42.12511327600405 15.3885
42.14897235421036 15.3917
42.173019768448455 15.3417
42.19688269209613 15.319
42.22074753323349 15.2866
42.24461429335818 15.2843
42.268669455600495 15.235999999999999
42.292540073217886 15.2497
42.31641261433284 15.2366
42.34028708044675 15.193
42.36435001496739 15.1638
42.38822835065557 15.1217
42.41210861586426 15.1378
42.4359908120986 15.1045
42.46006154323262 15.0831
42.48394762115317 15.0402
42.507835634632315 15.0404
42.531912233047436 14.9741
42.55580413732265 14.947000000000001
42.579697981698 14.9214
42.60359376768525 14.8977
42.62767820545945 14.8149
42.65157789440821 14.8508
42.67547952952185 14.7995
42.699383112316 14.7595
42.72347541395347 14.6996
42.74738291190531 14.7192
42.771292362102166 14.737
42.795203766063516 14.6857
42.819303956130405 14.6918
42.843219287476536 14.6569
42.86713657716324 14.5779
42.89105582671383 14.544
42.91516392983864 14.5665
42.939087119032166 14.5602
42.963012272677304 14.4775
42.98693939230129 14.5059
43.01105543317513 14.5035
43.034986504731386 14.4654
43.05891954686589 14.4456
43.08285456110972 14.3661
43.10697856448665 14.3426
43.130917542983475 14.3335
43.15485849820081 14.3147
43.17880143167367 14.2249
43.20293342237094 14.2408
43.226880332449 14.2328
43.25082922540554 14.2636
43.27496722682525 14.1861
43.29892010567796 14.1637
43.32287497204102 14.1685
43.34683182745632 14.1161
43.370977859791836 14.056
43.39493871351105 14.0889
43.41890156092628 14.059000000000001
43.44286640358341 14.0304
43.46702049182749 14.011
43.49098934522816 13.9396
43.51496019852649 13.9228
43.5389330532723 13.9344
43.56309522248204 13.8884
43.58707210044314 13.8804
43.61105098451946 13.9087
43.63503187626491 13.8313
43.659202151562134 13.796
43.68318707902681 13.7941
43.70717401884041 13.7969
43.731162972560874 13.7549
43.75534137913236 13.7076
43.779334381108384 13.6934
43.803329401683186 13.6502
43.82732644241872 13.6466
43.8515130055166 13.6388
43.87551410707659 13.6261
43.89951723350145 13.5875
43.923709934595614 13.5759
43.94771713129917 13.5409
43.97172635758096 13.5095
43.99573761501002 13.452
44.0199385169922 13.4547
44.04395385732619 13.3889
44.067971233533086 13.4245
44.09199064718605 13.3823
44.11619977548961 13.3693
44.14022328470671 13.3668
44.16424883610785 13.3573
44.18827643127035 13.3248
44.21249381139513 13.2995
44.236525514814076 13.2663
44.26055926674478 13.2041
44.28459506876863 13.2243
44.3088207262813 13.1889
44.33286064928722 13.1606
44.35690262714919 13.0743
44.38094666145278 13.1026
44.4051806219871 13.1005
44.42922879003185 13.0787
44.45327901929361 13.0053
44.477331311362136 13.0573
44.501573600619416 13.0224
44.525630039221795 12.9479
44.54968854541895 12.9363
44.573937102200176 12.8937
44.5979997645541 12.880999999999998
44.622064499300315 12.8765
44.64613130803592 12.882
44.67038823869318 12.8273
44.69445921643748 12.7943
44.718532272981385 12.7681
44.742607409926194 12.7665
44.76687274034801 12.7459
44.79095205918753 12.6833
44.81503346325094 12.7196
44.839116954143876 12.69
44.86339071028742 12.6476
44.88747839599524 12.6316
44.91156817336837 12.5787
44.93566004401666 12.6052
44.959942251908146 12.6078
44.984038330325966 12.5826
45.00813650686762 12.5174
45.03223678314731 12.5192
45.05652746888232 12.4755
45.08063196592069 12.4255
45.104738567558705 12.4272
45.128847275414856 12.4284
45.15314646515866 12.3723
45.17725940679741 12.397
45.20137445952892 12.3408
45.22568004865265 12.3339
45.24979934496396 12.3162
45.27392075725247 12.2887
45.29804428714431 12.2485
45.322358426247604 12.2352
45.346486212804315 12.2397
45.370616121861914 12.1933
45.39474815505086 12.1424
45.41907087049246 12.1177
45.4432071734666 12.1452
45.46734560548283 12.1088
45.49148616817604 12.0981
45.51581748638564 12.0579
45.5399623320197 12.038
45.56410931325473 11.9929
45.58825843173002 12.0234
45.61259837920865 11.9623
45.636751793816 11.9386
45.66090735060093 11.9117
45.68506505120716 11.884
45.7094136545275 11.8923
45.73357566449271 11.8627
45.75773982322992 11.8376
45.78190613238733 11.8533
45.806263418194064 11.7928
45.83043404997326 11.8081
45.85460683713677 11.7698
45.87897065658495 11.7608
45.90314777634752 11.7276
45.92732705646868 11.6868
45.9515084986045 11.6551
45.97588104735473 11.6304
46.00006683541565 11.6263
46.02425479047904 11.6566
46.04844491420549 11.6033
46.0728262191024 11.6082
46.09702070211635 11.5541
46.12121735879483 11.5397
46.14541619080294 11.549000000000001
46.169806278764455 11.4997
46.194009483459034 11.468
46.21821486849841 11.4825
46.24242243555223 11.4266
46.266821333570014 11.3985
46.29103328674601 11.3501
46.31524742696538 11.3945
46.33946375590237 11.3751
46.36387149104216 11.3277
46.38809221957392 11.2861
46.41231514186606 11.2775
46.436540259597464 11.3044
46.460956858999374 11.2468
46.48518638983522 11.2513
46.509418121166966 11.1988
46.533652054678114 11.2102
46.55807754555709 11.1649
46.58231590571962 11.1498
46.60655647313217 11.1024
46.630988654873654 11.0953
46.655233659129024 11.0937
46.67948087571551 11.0534
46.70373030632484 11.0507
46.72817142736393 11.0116
46.752425308428684 10.9629
46.77668140861147 10.968
46.80093972960865 10.9321
46.82538981736788 10.9281
46.849652602470904 10.9165
46.87391761349769 10.9257
46.8981848521493 10.8578
46.9226439341274 10.8911
46.946915650573224 10.8341
46.97118959976749 10.7901
46.99546578341598 10.7819
47.019933887188216 10.7666
47.04421456235744 10.7355
47.06849747711879 10.7242
47.09278263318286 10.7154
47.11725978640143 10.6938
47.14154944775105 10.6614
47.165841355555656 10.6623
47.1901355115306 10.6564
47.214621741924994 10.6593
47.23892041698887 10.6172
47.26322134538975 10.5894
47.28771440635075 10.5397
47.31201986422527 10.5326
47.33632758061436 10.5125
47.360637557241866 10.4982
47.38513974410611 10.4936
47.40945426407847 10.4762
47.43377104948137 10.4618
47.45809010204344 10.4324
47.48260144275502 10.3647
47.506925052572285 10.4069
47.53125093475548 10.3533
47.55557909103813 10.3558
47.58009961361992 10.2908
47.60443234110732 10.3176
47.62876734791564 10.2925
47.65310463578333 10.2586
47.6776343683373 10.2538
47.7019762413987 10.2324
47.72632040075572 10.2242
47.75066684815169 10.2181
47.77520581885936 10.1803
47.799556865477655 10.1621
47.823910205386 10.1606
47.84826584033272 10.1467
47.87281407745551 10.1008
47.89717432569297 10.0727
47.92153687423484 10.0589
47.94609208429692 10.0621
47.97045925671401 10.0094
47.99482873471275 10.0072
48.01920052005013 10.0183
48.04376504619224 9.99133
48.068141469543484 9.98754
48.09252020552573 9.93094
48.11690125590099 9.91825
48.1414751266064 9.91458
48.16586082917454 9.9064
48.19024885144316 9.87243
48.2146391951793 9.8603
48.239222439012764 9.8625
48.26361744916137 9.81299
48.28801478610016 9.75654
48.31241445160131 9.823260000000001
48.337007097209366 9.80994
48.36141144338331 9.75948
48.38581812345755 9.7543
48.41022713920929 9.76706
48.434829215320704 9.697389999999999
48.45924292604658 9.6759
48.48365897780325 9.67952
48.50807737237308 9.62435
48.532688907799276 9.638069999999999
48.55711201168574 9.62279
48.581537463754074 9.56391
48.60615611725119 9.56123
48.63058628942721 9.56679
48.65501881516546 9.5958
48.6794536962573 9.57126
48.70408185970339 9.52206
48.72852147531801 9.49953
48.75296345168211 9.450560000000001
48.77740779059232 9.46423
48.80204549302823 9.46374
48.82649458091802 9.402280000000001
48.85094603676547 9.38988
48.87539986237231 9.33585
48.90004713292306 9.38777
48.92450572200832 9.36678
48.94896668628025 9.32043
48.97343002754588 9.31922
48.99808689542115 9.28855
49.02255501470614 9.30471
49.04702551642794 9.254439999999999
49.0714984023988 9.25146
49.096164896893235 9.23373
49.120642575466796 9.201360000000001
49.145122643748394 9.2031
49.16960510355558 9.161660000000001
49.19428125404938 9.16985
49.2187685210852 9.12402
49.243258185121555 9.11388
49.26794160167084 9.12316
49.2924360839405 9.104339999999999
49.31693296869764 9.04655
49.34143225776915 9.03391
49.36612538195438 9.03448
49.39062950396021 9.01667
49.41513603578346 8.99801
49.4396449792564 8.99916
49.46434784069503 8.95475
49.488861631846454 8.9451
49.513377840166804 8.91916
49.537896467493745 8.868910000000001
49.56260909589029 8.86823
49.587132585683285 8.878110000000001
49.611658500018365 8.84121
49.636186840738596 8.84188
49.66090926588511 8.840530000000001
49.685442483902584 8.80635
49.70997813385706 8.774469999999999
49.734516217597076 8.77002
49.75924846937352 8.75632
49.7837914452858 8.72701
49.80833686055187 8.71095
49.83288471702571 8.68551
49.85762682540054 8.71108
49.882179588965734 8.65648
49.9067347993235 8.64578
49.93129245833333 8.68797
49.95604445336378 8.650960000000001
49.98060703442832 8.60909
50.005172069746266 8.59113
50.02993150438364 8.59704
50.05450147301533 8.55685
50.07907390151433 8.53771
50.10364879174981 8.52075
50.12841816587289 8.51711
50.1529980044635 8.49617
50.17758031042124 8.464839999999999
50.20216508562089 8.44628
50.22694442953363 8.4414
50.25153416817468 8.40397
50.27612638170508 8.40126
50.300721072005196 8.36647
50.325510416102105 8.38106
50.350110084975064 8.351180000000001
50.37471223628208 8.38773
50.39931687190919 8.340580000000001
50.424116246675766 8.32635
50.44872587605249 8.25818
50.47333799543065 8.26111
50.49795260670191 8.27232
50.52276204271512 8.236180000000001
50.54738166295838 8.24955
50.57200378079314 8.23375
50.596628398116835 8.20395
50.62144792604559 8.18949
50.646077567609396 8.15746
50.670709714377715 8.14161
50.69553683636198 8.151689999999999
50.72017401885922 8.15264
50.7448137122895 8.11595
50.76945591856022 8.08057
50.79429318636823 8.07902
50.818940443716784 8.091239999999999
50.84359021965163 8.03427
50.868242516085964 8.00451
50.893089960641895 7.9936
50.917747323549435 7.946269999999999
50.94240721271973 7.979410000000001
50.96706963007175 7.95858
50.99192728239342 7.95805
51.01659478166073 7.95075
51.04126481489051 7.923030000000001
51.06593738400761 7.89807
51.090805275207074 7.8718699999999995
51.11548294172845 7.8708
51.14016314993547 7.84202
51.164845901758845 7.8778
51.18972406304274 7.82729
51.21441192780656 7.78282
51.23910234200271 7.751510000000001
51.2637953075678 7.745019999999999
51.288683770237945 7.750439999999999
51.31338186432707 7.73367
51.33808251561888 7.70708
51.362978729967345 7.69683
51.387684521509755 7.68423
51.41239287610203 7.670560000000001
51.437103795691165 7.644360000000001
51.46201036644977 7.6265600000000004
51.486726441956634 7.60082
51.51144508832545 7.62763
51.536166307509156 7.61325
51.56108326624387 7.61495
51.58580965706056 7.5953800000000005
51.61053862657523 7.5784899999999995
51.635270176746864 7.531060000000001
51.66019755512065 7.52798
51.68493429268881 7.5195300000000005
51.70967361681515 7.492719999999999
51.73441552946465 7.49883
51.759353359237934 7.462389999999999
51.7841004750961 7.45441
51.80885018539685 7.446610000000001
51.833602492111254 7.40716
51.8585508051424 7.40579
51.883308330926425 7.409680000000001
51.90806845906181 7.3749199999999995
51.932831191525715 7.3349899999999995
51.95779001977161 7.35278
51.98255798721516 7.3021
52.00732856494335 7.2465
52.03229530577543 7.284439999999999
52.057071130455945 7.262239999999999
52.081849571391054 7.25548
52.106630630568695 7.2366600000000005
52.13160794279417 7.185789999999999
52.15639426492067 7.199269999999999
52.18118321127822 7.204280000000001
52.205974783860896 7.16558
52.23096269971011 7.141660000000001
52.255759551287994 7.17013
52.280559035098186 7.15482
52.30536115314103 7.11079
52.33035970494467 7.107710000000001
52.35516711807904 7.12368
52.37997717147198 7.0920000000000005
52.40478986713005 7.04932
52.42979908731974 7.02577
52.454617094216 7.05512
52.47943774942214 7.01725
52.50426105495102 7.03189
52.529280976059844 6.9788
52.554109609024096 6.975960000000001
52.57894089837482 6.9542399999999995
52.60377484613117 6.9539800000000005
52.62880550079408 6.97345
52.65364479223379 6.88708
52.67848674816189 6.89745
52.70352547971946 6.9123600000000005
52.72837279155837 6.910710000000001
52.753222773982785 6.860989999999999
52.778075429022984 6.88231
52.80312495150885 6.85542
52.827982978797436 6.7834
52.85284368481815 6.763210000000001
52.87770707160767 6.78344
52.90276741793998 6.79165
52.92763619336701 6.80134
52.952507655698504 6.7816399999999994
52.977381806977576 6.77778
53.00245301017842 6.75598
53.02733256653592 6.74482
53.052214817996074 6.71715
53.077099766608484 6.6593800000000005
53.102181859804446 6.6588899999999995
53.127072229988265 6.65275
53.15196530349892 6.65128
53.17686108239249 6.58953
53.20195409881522 6.617960000000001
53.22685531582556 6.5644100000000005
53.25175924441303 6.53951
53.27666588664027 6.59365
53.30176985962693 6.54557
53.3266819565689 6.5359
53.35159677336455 6.50805
53.376514312083096 6.5286800000000005
53.40162927507703 6.50269
53.42655228516116 6.49059
53.45147802340193 6.47045
53.47660125628886 6.45859
53.50153247842639 6.44666
53.52646643496923 6.4251
53.55140312799818 6.42514
53.576537409691696 6.40025
53.60147960336152 6.35034
53.626424539786164 6.35653
53.65137222105307 6.3448199999999995
53.67651758529126 6.36564
53.70147078399681 6.32967
53.72642673383343 6.31041
53.75138543689533 6.32017
53.776541917524526 6.28256
53.801506154876755 6.256419999999999
53.826473151763246 6.32868
53.851442910284916 6.25005
53.87661054126026 6.210030000000001
53.9015858509782 6.2188099999999995
53.92656392866066 6.18363
53.95154477641532 6.20986
53.976723591801296 6.1628099999999995
54.00171000771266 6.14631
54.02669920004598 6.15371
54.051691170915745 6.15031
54.076881204886796 6.15032
54.101878760928514 6.14958
54.12687910187696 6.08818
54.152077577768296 6.07299
54.1770835166946 6.04892
54.20209224691339 6.04248
54.22710377055121 6.03063
54.25231352511594 6.00561
54.27733066384342 5.97242
54.30235060239643 5.98597
54.32737334290836 6.0019800000000005
54.35259441062629 5.9403
54.377622783395324 5.9585300000000005
54.40265396455061 5.96344
54.42768795623251 5.93222
54.45292037169559 5.8817900000000005
54.477960012857906 5.8572
54.50300247099511 5.83435
54.52804774825457 5.7893
54.55329154616743 5.79775
54.57834249018678 5.80753
54.6033962597977 5.8015300000000005
54.6284528571545 5.73583
54.653708072335164 5.740530000000001
54.67877035378786 5.75552
54.70383546947698 5.724880000000001
54.72890342156389 5.66972
54.7541700889442 5.64331
54.77924374251975 5.6433599999999995
54.8043202390049 5.59926
54.82959552413022 5.58097
54.8546777351945 5.57859
54.87976279569621 5.56163
54.90485070780914 5.573230000000001
54.930137506558005 5.50544
54.95523115074295 5.53929
54.98032765308844 5.46895
55.005427015775496 5.48875
55.03072536339621 5.42425
55.05583047570572 5.45477
55.080938454927676 5.47741
55.10604930325027 5.38701
55.131359235107396 5.34476
55.15647585066083 5.30986
55.181595341907496 5.28765
55.20671771104285 5.26542
55.232039262617704 5.26232
55.25716741665048 5.23908
55.28229845518636 5.24902
55.30743238042802 5.15944
55.33276558731939 5.151330000000001
55.357905315183636 5.15966
55.383047936390035 5.11598
55.40819345314859 5.08095
55.433538351073295 5.08835
55.458689688238415 5.09274
55.483843927614096 5.07596
55.509197623043605 5.01114
55.53435769621134 4.96825
55.55952067826466 4.967
55.5846865714265 4.9511400000000005
55.61005202069737 4.92234
55.63522376553902 4.9271400000000005
55.66039842818645 4.94573
55.68557601087004 4.90238
55.7109532500271 4.79197
55.73613670233794 4.80309
