TT I
1.2716486653135266 32.4415
1.2939594142134223 33.0738
1.3162702121660406 30.758000000000003
1.3385810600174564 29.839000000000002
1.3608919586137629 29.8516
1.383202908801069 28.0911
1.405513911425503 27.1227
1.4278249673332093 26.9916
1.4501343378461518 26.8737
1.4724455028545926 25.1432
1.4947567236847858 26.3057
1.517068001182951 24.9977
1.5393793361953272 24.6709
1.5616907295681737 24.373
1.5840021821477681 23.5206
1.60631369478041 23.0286
1.6286252683124185 22.4238
1.6509369035901333 23.3938
1.6732468618895553 22.9066
1.695558623192809 21.6604
1.7178704487808514 21.8134
1.7401823395001077 21.9126
1.7625012545597203 21.8218
1.7848028405262486 20.9473
1.8071218901122095 21.108
1.8294236121921872 21.2667
1.8517427996910911 20.5627
1.8740620574440425 21.4287
1.8963639900671978 20.6616
1.9186833908139995 20.6191
1.9409854680117449 20.5036
1.9633050151394713 20.2115
1.9856246367570705 20.7399
2.0079269371922672 21.3295
2.03024671027244 20.1862
2.0525491637446027 20.3587
2.074869091674931 20.9969
2.097171701569106 20.0665
2.1194917877373847 20.6301
2.141811954326636 20.6979
2.164114805233074 20.4062
2.186435135143035 20.5692
2.208738150935709 20.86
2.231058647554722 21.1426
2.2533792288321184 20.2463
2.275682498336085 21.1423
2.298003251406138 21.5986
2.3203066942619714 21.5611
2.3426276225136022 21.4086
2.3649486396617507 22.2952
2.387252348930071 21.533
2.4095735463442893 21.1544
2.4318774374315884 21.1015
2.4541988185014043 21.7688
2.476502894794693 22.3783
2.498824462909887 21.631
2.521146125856138 21.8262
2.5434504863470337 22.5334
2.5657723414244717 22.6554
2.588076895590662 24.4045
2.610398946189713 23.9128
2.6327210958598384 24.3702
2.6550259469304716 24.4356
2.6773482972090137 24.5351
2.6996533504259 26.0023
2.7219759047039602 27.0222
2.744298562293959 28.180999999999997
2.7666039251246595 28.7204
2.7889267918020164 29.9457
2.8112323652516555 31.4834
2.833555444408179 32.5549
2.8558786311183852 33.7993
2.8781845268938557 36.5695
2.9005079311721484 39.3194
2.9228140460410397 40.6038
2.9451376712799635 44.3722
2.967444008632326 46.7391
2.9897678582247247 50.6999
3.0120918213106695 56.0627
3.0343984987899373 59.8113
3.0567226913198637 63.7503
3.079029599759726 68.9568
3.101354025127254 73.0096
3.123678568232338 75.6773
3.145985829517914 76.6148
3.16831061055229 76.2713
3.1906181112775593 73.7607
3.212943133635653 71.1271
3.2352682779763207 65.616
3.2575761442691227 60.5619
3.2799015350264273 54.8499
3.302209649240067 50.1773
3.3245352898092655 45.8841
3.3468436553365257 42.37
3.369169549113219 38.8788
3.3914955708171384 36.7228
3.413804319727358 33.7231
3.4361305997334863 32.1
3.4584396084414553 30.5266
3.4807661501462652 30.2908
3.503092824025881 29.3336
3.5254022288463154 28.5014
3.5477291695206588 28.0145
3.5700388426251948 27.0096
3.5923660534916446 26.6932
3.6146934007816114 26.4812
3.637003482731501 26.1114
3.6593311053109985 26.2114
3.681641464033634 25.8887
3.7039693653009733 25.775
3.726297407241705 25.9391
3.7486081875460804 25.6438
3.7709365132734978 25.7736
3.793247578841633 26.1299
3.8155761917550093 26.1272
3.8378875459837216 26.0143
3.8602164494827234 26.1314
3.882545499606844 26.8425
3.9048572932539183 26.8836
3.9271866390645718 26.8593
3.9494987298666713 27.18
3.971828374764527 26.8687
3.9941581705403255 27.4741
4.016470713506008 27.8381
4.038800813471445 28.1215
4.061113662089144 28.2593
4.0834440696459176 28.9059
4.105774632334751 29.1274
4.128087945865126 29.5026
4.150418821249301 30.1573
4.172732448931298 30.6728
4.195063640413578 31.1338
4.2173775856475215 31.9904
4.239709096631102 33.1866
4.262040768704612 34.1243
4.284355196706267 35.8638
4.306687193387355 37.5149
4.329001947444346 40.6848
4.35133427213731 42.0648
4.373666762177566 41.3453
4.395982011761091 39.8926
4.418314834921175 38.436
4.44063041906622 37.7298
4.4629635787515625 37.6303
4.4852969080429785 37.7458
4.5076130004776225 37.9777
4.529946671403969 38.8575
4.552263106909177 39.2637
4.574597122877047 40.4444
4.596931312711224 41.2296
4.619248269273446 41.3819
4.6415828092605835 42.0041
4.663900117405352 43.0874
4.686235010953232 44.1261
4.708552674085913 45.1779
4.730887924602802 46.2807
4.753223354952695 47.5718
4.775541557023902 49.1673
4.797877349456786 50.9019
4.820195915032126 53.1862
4.842532072957498 55.3957
4.864868414979744 58.3616
4.88718753227192 61.0839
4.909524244902505 65.0978
4.931843734218147 68.8341
4.954180820867835 74.8817
4.976518095879839 83.2002
4.998838149695359 92.6735
5.021175803844231 105.167
5.043496238205739 114.751
5.065834274903528 122.48299999999999
5.088172504230693 130.84799999999998
5.1104935158799565 143.043
5.132832132875765 162.02200000000002
5.155153533596801 190.071
5.1774925416746225 233.75599999999997
5.199814334878411 318.676
5.2221537374521505 490.541
5.244493338631803 738.2660000000001
5.266815727034316 1060.81
5.289155727832427 1685.58
5.311478517248165 2926.6
5.333818921080011 4140.04
5.356159527788849 4350.36
5.3784829252032536 3042.99
5.400823940070432 1624.61
5.423147747031976 770.5980000000001
5.445489173474152 430.994
5.467830807066149 298.147
5.490155234831516 233.97400000000002
5.512497285125229 192.637
5.534822130975162 168.40200000000002
5.557164601388673 150.207
5.579489868738879 135.6
5.601832762690846 125.885
5.6241758697774475 119.655
5.646501775867269 115.475
5.668845311622074 112.757
5.691171647754637 109.882
5.713515615597765 106.764
5.735859800852677 103.50299999999999
5.758186788542988 101.47399999999999
5.780531411018185 101.038
5.802858837297399 100.64
5.825203900414495 101.714
5.8475491852224 104.666
5.869877275883075 108.094
5.892223006467101 113.359
5.914551544266608 120.314
5.936897724049891 129.85399999999998
5.959244129804903 143.875
5.981573344815301 165.25900000000001
6.0039202049061 201.26
6.026249875609095 260.20099999999996
6.04859719346037 339.77
6.070927323278297 437.533
6.093275102315365 581.729
6.115623113320588 778.9839999999999
6.137953938319995 1067.66
6.160302415650845 1250.63
6.182633708324452 1089.12
6.2049826554078376 770.203
6.227331838745022 475.99199999999996
6.249663839443684 303.38
6.27201349767565 213.43099999999998
6.294345974611799 163.108
6.316696111167083 128.57299999999998
6.339046488263839 105.93
6.361379686074702 91.4145
6.383730546639482 81.9582
6.406064229255215 73.5915
6.428415576718203 68.5082
6.450749747566656 64.5458
6.47310158535871 60.7053
6.495453669698332 57.6558
6.517788579421056 55.5091
6.540141159237969 53.2691
6.562476565766648 51.4035
6.5848296444934045 50.1212
6.607182974060425 48.5463
6.6295191323281015 47.3749
6.651872965955752 46.2919
6.6742096296068985 45.5263
6.6965639707294615 45.2847
6.71891856698715 44.3758
6.741255995248479 43.5057
6.763611104154477 42.8004
6.785949046381137 42.7238
6.808304671371482 42.1409
6.8306605557940046 42.0337
6.852999275508618 41.3658
6.875355681171544 41.3128
6.897694923437771 41.5635
6.92005185377892 41.1341
6.9423916220322655 41.0872
6.964749080490181 40.7365
6.987106804399774 41.1541
7.009447368180821 41.96
7.031805625367033 42.3309
7.054146723727803 43.8672
7.076505517631004 45.3741
7.098864581288365 46.2384
7.121206488070854 46.2384
7.143566093607822 44.983000000000004
7.165908543567245 43.6862
7.188268694426048 42.0098
7.2106291193438095 41.1847
7.232972390625943 40.3359
7.255333366030969 39.9544
7.277677189091925 39.4113
7.300038718428332 39.4442
7.322400526130865 39.6651
7.344745183422596 39.8545
7.367107550224791 39.9285
7.389452767901992 39.9816
7.411815697249891 40.1807
7.434161478756298 40.1223
7.456524974096713 41.4113
7.478888753837185 43.2138
7.501235387657368 47.4074
7.523599738562711 61.1625
7.545946944825532 104.53
7.568311870344528 173.324
7.5906770845765665 213.108
7.613025156078678 166.465
7.635390950099687 98.9823
7.657739602662809 62.7012
7.680105979923558 48.9562
7.702472650212829 43.9309
7.724822180948224 41.1354
7.747189439655568 40.2685
7.769539560075357 39.6972
7.791907410653562 39.5334
7.81425812420825 39.053000000000004
7.836626570110925 38.6677
7.858995315087906 39.2245
7.881346924933401 38.9943
7.903716270417482 39.4722
7.926068482028405 39.3968
7.948438431475253 39.5145
7.9708086843180235 39.7515
7.993161805171116 40.1173
8.015532667162402 40.4739
8.037886398416653 40.9669
8.060257873014221 41.2122
8.082629655331942 41.5923
8.104984308787587 42.1242
8.127356708900503 42.5735
8.149711981398308 43.2766
8.172085002766314 43.8794
8.194458336181368 44.5223
8.216814543847752 45.4076
8.23918850371002 46.803000000000004
8.26154533906492 48.0131
8.283919928836452 49.9345
8.306277395339652 51.0522
8.328652618483376 52.8637
8.351028159736202 54.5047
8.373386579575245 56.0306
8.395762759396959 57.5327
8.418121819038275 59.6241
8.440498640894003 63.3671
8.462875785192262 68.1291
8.485235811156207 74.7369
8.507613602688501 85.0548
8.529974277114228 103.13600000000001
8.552352719347912 127.42399999999999
8.574731488360351 157.684
8.59709314210385 188.68099999999998
8.619472567021075 222.77599999999998
8.64183487789147 282.624
8.664214962183097 408.56800000000004
8.686577933647762 594.326
8.708958680784317 734.7719999999999
8.731339760774953 725.1210000000001
8.753703729764451 547.337
8.77608547780821 349.21
8.798450116065078 228.24099999999999
8.820832535634787 161.025
8.843215292401656 123.811
8.865580941199045 103.234
8.887964374703538 91.0124
8.910330701447199 84.0063
8.932714815164482 78.6196
8.955099270424924 74.3904
8.977466620733543 72.00399999999999
8.999851761421976 70.059
9.022219798361645 67.92699999999999
9.04460562795561 66.6217
9.066991803441677 66.1636
9.089360876979615 65.98100000000001
9.111747746589993 65.4418
9.13411751544971 65.7413
9.156505082664324 67.1174
9.178875550323522 69.8296
9.20126381862328 76.2506
9.223652438908596 94.7145
9.246023961427412 152.493
9.26841328802173 264.397
9.290785518039224 350.18699999999995
9.313175554425882 320.008
9.335565947154315 201.42700000000002
9.357939245086508 117.57
9.380330352834827 83.4366
9.40270436697103 70.5764
9.425096193225055 64.7104
9.447488380180165 62.8941
9.469863475295412 60.7409
9.492256385987508 59.5912
9.514632206018318 58.5654
9.537025843935714 57.9043
9.559402392368193 57.7508
9.581796761000229 58.0074
9.604191496441521 57.3284
9.626569144158516 57.7646
9.648964615551032 57.9024
9.671343000390081 58.353
9.693739211225699 58.8483
9.716135793237463 58.9894
9.738515290448102 59.5481
9.760912617143402 60.107
9.783292860202891 60.9756
9.805690935076182 61.842
9.828089385495742 62.657
9.850470754023561 64.3543
9.872869957865444 65.9821
9.89525208097539 68.1608
9.917652041736662 71.0827
9.940052382417589 74.7993
9.962435644102392 80.5411
9.984836746950979 88.3801
10.007220771957746 101.802
10.029622640473708 122.66799999999999
10.052007432299963 148.116
10.074410069984072 168.44400000000002
10.096813093716005 187.84400000000002
10.119199042482517 214.102
10.141602840636468 268.41700000000003
10.163989564971628 371.064
10.186394141051062 543.258
10.208799107559706 694.7869999999999
10.231187001965623 724.497
10.253592751657669 596.015
10.275981430388155 401.57099999999997
10.298387966769793 260.812
10.320794897965431 185.56400000000002
10.343184759907361 141.453
10.36559248305461 114.036
10.387983138083852 98.6561
10.410391656691655 90.2679
10.432800574501677 85.3218
10.455192425893369 83.2598
10.47760214443012 85.5675
10.499994797678786 89.4336
10.522405320453982 93.0376
10.54479877906917 96.3702
10.567210109595656 99.7804
10.5896218454736 109.64200000000001
10.612016518879773 134.24200000000002
10.634429067781074 177.829
10.656824555333241 230.28099999999998
10.679237920773568 268.283
10.701651695961992 266.072
10.724048411481384 234.86700000000002
10.746463008485165 191.01
10.768860546937125 140.68
10.791275969274796 96.8792
10.81369180576079 74.49600000000001
10.836090585366925 64.4393
10.858507252467449 58.9409
10.88090686379991 55.8154
10.903324365036394 53.95399999999999
10.925724811614439 52.2687
10.948143150509463 51.5034
10.970561909719066 50.068999999999996
10.992963615930844 49.2397
11.015383218085756 48.2972
11.037785768347074 47.1244
11.06020621697282 46.4419
11.082627090322113 45.9354
11.105030913430326 45.6503
11.12745263854165 45.1514
11.149857314510728 44.5931
11.172279894912576 44.7836
11.194702904450653 44.0266
11.217108866490921 44.1656
11.239532736615194 43.9967
11.26193956033512 43.6999
11.284364294577085 43.1464
11.306789462371718 42.327
11.329197585398376 42.2042
11.351623622610898 42.2087
11.37403261614354 41.413999999999994
11.396459526308487 41.2397
11.418869393879497 40.8576
11.441297180532617 40.7498
11.463725406927658 40.3975
11.486136592353875 39.9578
11.508565700543707 39.9859
11.530977768845315 39.9891
11.553407762368774 39.6322
11.575838200059769 39.6349
11.598251599479612 39.7371
11.620682927815501 39.788000000000004
11.64309721895548 39.6266
11.665529441478206 39.4721
11.687962112597958 39.6591
11.710377748130886 39.7882
11.732811318753434 39.8441
11.755227854859067 39.8633
11.777662328529495 39.9073
11.800079768750786 40.0981
11.822515149015453 40.3586
11.844950984084935 40.8407
11.867369787303163 41.2706
11.889806534289491 42.5766
11.912226250487029 45.3329
11.934663912939751 52.2004
11.9571020346363 69.4002
11.979523127133968 96.0484
12.001962169624331 116.03200000000001
12.024384183972964 113.42399999999999
12.046824150809913 89.6981
12.069264581333726 65.9208
12.091687985297767 54.0513
12.11412934550045 50.2612
12.136553680195208 49.6178
12.158995973632788 50.2526
12.181438735204349 50.856
12.20386447284199 52.0363
12.226308172985636 55.097
12.24873485024193 60.0192
12.271179492516982 67.1371
12.293607112949127 76.8944
12.316052700916226 85.9695
12.338498763250042 89.3599
12.360927805303868 83.8536
12.383374818673879 73.7324
12.405804812803074 63.3287
12.428252780773262 55.1865
12.45070122756722 50.5318
12.473132656675375 47.1917
12.49558206341869 45.3497
12.518014453510101 43.76
12.540464823770117 42.4835
12.562915677315177 41.6269
12.58534951575545 41.5661
12.607801338171472 40.9864
12.630236146511358 40.6571
12.652688941369085 40.4066
12.675124723177234 40.3386
12.697578494048786 40.2226
12.720032754458185 40.3204
12.742470003354093 40.5436
12.764925245138771 40.6076
12.787363476431278 40.6702
12.809819703166806 40.7905
12.83227642391173 41.0682
12.854716135692716 41.3137
12.877173846755147 41.9927
12.899614549869717 42.0102
12.9220732548287 42.338
12.94453245827299 42.7485
12.966974655289818 43.3329
12.989434858002571 43.8241
13.011878055298721 44.4127
13.034339260862497 45.2697
13.056800969391883 46.3736
13.079245674017244 48.703
13.101708390774869 52.2999
13.12415410463411 59.0854
13.146617833206086 65.9827
13.169064559883248 68.8996
13.191529303857127 67.7937
13.213994557076367 66.9909
13.236442809902437 67.4168
13.258909083908291 69.7069
13.28135835851934 71.1266
13.30382565690295 73.6693
13.326293469022952 79.3139
13.348744283242008 89.6092
13.371213125129904 107.44
13.39366497011003 133.659
13.416134845360597 165.417
13.438605238843131 189.12599999999998
13.46105863690397 189.734
13.483530069144786 167.40900000000002
13.505984506951902 135.44899999999998
13.528456981549432 110.073
13.550929978879088 94.7638
13.573385983253365 87.0863
13.595860028340867 82.8563
13.618317081455832 80.3511
13.64079217790333 78.7349
13.663250283359057 79.791
13.685726434770173 84.5236
13.708203115221277 96.679
13.730662806148091 115.898
13.75314054697177 141.708
13.775601299246777 169.835
13.798080104050406 181.65900000000002
13.820559442405358 165.928
13.843021793671388 135.436
13.865502201420897 104.667
13.887965623051947 83.3549
13.910447103807167 69.9478
13.932929122629764 62.3865
13.955394156785959 57.9401
13.977877254034569 54.5656
14.000343367582113 52.3454
14.022827546871707 50.8306
14.045294743423524 50.0321
14.06778000837062 49.615
14.090265817715476 49.9113
14.112734645763819 50.8132
14.13522154619454 55.0759
14.157691466286913 66.7959
14.180179461423874 85.9647
14.202668005486178 102.26899999999999
14.22513957064374 105.654
14.247629214846473 92.3982
14.270101881097517 71.4322
14.29259262906496 56.7457
14.315083930490205 49.9348
14.337558255389705 46.9609
14.360050666019726 45.4768
14.382526101071944 44.5276
14.405019624534942 43.851000000000006
14.427513705993134 43.1295
14.449990813291825 42.7525
14.47248601302899 42.3825
14.49496423954951 42.4815
14.517460561197822 42.2321
14.539939910570322 42.0247
14.562437357763558 41.8156
14.58493536931253 41.8822
14.607416409993311 41.8268
14.62991555254159 41.8375
14.652397725157423 41.8363
14.674898002342799 42.0529
14.697398848433282 42.1306
14.719882725991326 42.5001
14.74238471217934 42.5532
14.764869730765593 43.0343
14.787372860692983 43.4947
14.809876564079925 44.5573
14.83236330125751 45.81399999999999
14.854868153850365 47.7575
14.877356041159485 49.6925
14.899862046604186 50.95399999999999
14.922351087688757 51.7682
14.944858249632887 52.483999999999995
14.967365991421232 53.8696
14.989856770231246 56.108999999999995
15.012365673994204 60.6136
15.03485761569738 68.3532
15.05736768508665 79.2962
15.07987833888692 92.486
15.102372032001655 105.501
15.124883856909658 109.72
15.14737872204565 103.93299999999999
15.169891721717274 91.2395
15.192405310371893 78.7525
15.214901940621196 67.6236
15.237416709527137 58.9113
15.259914520936249 53.2609
15.282430473753607 49.4617
15.304947020131227 46.7376
15.327446610371178 44.9461
15.349964346154254 43.8262
15.372465126703139 43.1695
15.394984055556009 42.5652
15.417486030076159 42.1856
15.44000615566487 41.9045
15.462526881230803 41.6283
15.485030653812652 41.4774
15.507552581617434 41.3913
15.530057557334603 41.2934
15.55258069104857 41.2553
15.575104429329837 41.4397
15.597611216864632 41.1345
15.620136166564563 41.0429
15.6426441664095 41.0088
15.665170331202765 41.268
15.687697105158826 41.8925
15.710206930593545 42.5654
15.732734925158933 43.4886
15.755245972089478 44.8563
15.77777519094324 46.4918
15.800287463046663 47.6492
15.822817909869592 48.3966
15.84534897229804 48.651
15.867863089299354 49.8506
15.890395385222186 51.3015
15.912910736597423 53.7789
15.935444269699861 58.4742
15.957978423016485 65.8602
15.980495633101265 75.2023
16.003031029129367 87.8555
16.02554948280019 98.9139
16.048086125229432 103.35
16.070623392487107 101.12299999999999
16.09314371869582 94.5711
16.11568223789321 85.9911
16.13820381691126 77.2354
16.160743591742527 67.6267
16.183283996022084 57.6087
16.205807461423195 49.6352
16.228349126881973 44.8105
16.25087385432698 42.3771
16.27341678466365 40.6821
16.29594277784926 39.486999999999995
16.31848697676433 38.4651
16.341031811604868 37.7942
16.36355971058487 37.3479
16.3861058195587 36.8659
16.40863499352978 36.4366
16.431182380342005 36.0437
16.453730407713202 35.8023
16.476261501364792 35.5795
16.498810812136167 35.1411
16.52134319004079 35.2567
16.54389378792203 35.187
16.566445031001553 34.918
16.588979342490088 34.8536
16.61153187824822 34.7145
16.634067483263312 34.4424
16.656621315414416 34.3523
16.679175797408888 34.4073
16.701713349928728 34.4397
16.72426913389191 34.493
16.74680798922351 34.3171
16.76936507887444 34.0935
16.791905240734874 34.2869
16.814463639794468 34.0529
16.837022695210294 34.1325
16.859564824093756 34.3339
16.882125194503903 34.4158
16.904668639217885 34.7073
16.927230328348003 35.9146
16.949792678493612 38.1403
16.972338104193863 40.7003
16.994901778652235 42.9849
17.017448529496576 43.4482
17.040013531998152 41.9026
17.06257920018044 39.1973
17.0851279459922 37.0247
17.107694947817667 35.8267
17.130245028099072 35.4514
17.15281336730298 35.3857
17.17536478578733 35.6234
17.19793446610687 35.7094
17.220504818648422 35.8685
17.243058251703697 35.9707
17.265629950971032 36.2014
17.288184731571736 36.4448
17.310757781306908 37.0148
17.33333150794385 37.4664
17.355888317140174 38.1903
17.37846339986244 39.5835
17.401021565958885 41.5064
17.42359800851343 44.1803
17.44617513265564 46.475
17.468735341390783 48.1458
17.491261035594565 47.7692
17.51396340099364 45.8689
17.536490463869136 43.4116
17.559018209820174 41.1435
17.58154663977963 39.2696
17.604251766089718 38.18
17.626781572227713 37.6885
17.64931206518155 37.1094
17.671843245885103 37.2219
17.69455114821572 37.0145
17.717083712612634 37.2356
17.739616967569667 37.6512
17.762150914021706 38.6445
17.78486160749854 40.2616
17.807396945166804 42.7266
17.829932977143503 44.5185
17.85246970436452 45.0795
17.875183204129467 44.1567
17.897721330097664 42.614
17.920260154126645 41.4288
17.942799677153296 41.2322
17.9655159983646 41.5448
17.988056927677544 42.354
18.010598558807683 43.1224
18.033140892692916 43.4795
18.05586005052525 43.5625
18.07840379824407 43.8588
18.10094825154059 44.8075
18.12366954819864 46.3477
18.146215420998306 48.2873
18.16876200220057 51.6233
18.191309292745153 56.4266
18.214033452627167 63.6724
18.236582170236648 71.8831
18.259131600016456 79.0437
18.281681742907335 82.06200000000001
18.304408781233683 79.4783
18.32696035875955 72.6657
18.349512652227624 64.8466
18.372065662579683 58.273999999999994
18.394795594587553 53.808
18.41735004715306 52.0673
18.43990521943684 51.9867
18.46246111238171 53.4128
18.485193953325208 56.5834
18.507751296070428 60.3338
18.530309362314178 63.3476
18.552868153000343 63.2319
18.57560391815056 61.1412
18.59816416623245 57.9837
18.620725141597372 54.4301
18.643286845190268 51.1553
18.666025549835414 48.0439
18.688588718427933 44.8651
18.711152618092243 42.3203
18.73389353884365 40.4751
18.75645890921984 39.3615
18.77902501351406 38.5283
18.801591852673102 38.1752
18.824335739722738 37.591
18.846904057212626 37.3543
18.8694731124168 37.1252
18.89204290628315 36.8828
18.914789774966803 36.717
18.937361054791623 36.4559
18.959933076131318 36.235
18.982505839934877 36.0272
19.00525570560582 36.1256
19.027829963004184 35.7559
19.05040496572238 35.7217
19.072980714710468 35.6647
19.095733592739563 35.7659
19.11831084296757 35.5522
19.140888842324735 35.5717
19.16346759176222 35.7564
19.18622349753803 35.7523
19.208803755869358 36.1119
19.231384767143577 36.3027
19.253966532312948 36.6291
19.276725481241822 36.9304
19.29930876296784 37.4622
19.3218928014549 38.6911
19.34465404436217 41.388000000000005
19.36723960516257 44.7062
19.389825925592426 47.4939
19.412413006605938 49.2682
19.43517731967805 49.0582
19.457765930683355 47.028999999999996
19.48035530514408 45.2291
19.50294544401556 44.5394
19.525712842708348 44.8887
19.54830451925909 45.013000000000005
19.570896963095727 43.945
19.593490175174704 42.5026
19.616260674962184 40.7014
19.638855432416964 38.5878
19.661450960992624 37.3021
19.68404726164677 36.1448
19.706820878021247 35.3058
19.729418731756834 35.0514
19.752017360452857 34.3921
19.77461676506804 34.2538
19.797393513540218 33.8424
19.819994478951667 33.6792
19.84259622316767 33.611
19.8651987471481 33.6742
19.887978643247177 33.465
19.91058273574792 33.5525
19.933187610901943 33.7205
19.955969879466828 33.8323
19.97857632894404 34.0264
20.00118356396599 33.819
20.023791585494575 33.6468
20.046577028914875 33.9875
20.069186632506966 33.9831
20.091797025500632 34.2167
20.114408208858933 34.5854
20.137196842715273 35.1141
20.159809615886765 35.9362
20.18242318232135 36.8477
20.20503754298326 38.2868
20.227829382875154 39.8679
20.250445341109344 41.6163
20.27306209647285 42.3838
20.29567964993108 42.2861
20.31847471147704 41.2363
20.34109387027612 39.9229
20.363713830075454 38.5428
20.386334591841646 37.7915
20.409132890679302 37.6092
20.431755265564437 37.7941
20.454378445325528 38.7212
20.477002430930366 39.5981
20.499803982716553 40.3408
20.522429589228004 40.4261
20.54505600449589 39.5854
20.567683229489194 38.0626
20.590488049900088 36.6601
20.61311690359731 35.1856
20.63574656993626 34.0894
20.658553853717297 33.0952
20.681185154618298 32.8122
20.703817271080066 32.5378
20.72645020407368 32.1865
20.749260783967177 32.0743
20.771895359337133 32.3334
20.794530754161617 33.0552
20.817166969412938 34.2439
20.83998086114876 35.204
20.86261872660049 35.6521
20.885257415405402 35.4952
20.90789692853701 34.3775
20.930714147864748 32.9275
20.953355319030678 31.8292
20.97599731745334 31.421
20.99864014410749 30.9124
21.021460706796564 30.5867
21.044105199328826 30.6626
21.06675052302631 30.678
21.089396678865015 30.5564
21.112220600704806 30.4809
21.134868430275347 30.5535
21.15751709492456 30.3807
21.180166595629693 30.2312
21.202993892429635 30.3367
21.22564507473034 30.2711
21.24829709602816 30.4552
21.27112693608965 30.3541
21.293780644891275 30.6743
21.316435195634053 30.7016
21.339090589297417 30.7134
21.361923832041875 31.1955
21.384580921090404 31.4757
21.407238856007325 31.8188
21.429897637773326 32.1415
21.45273429906592 32.3939
21.475394784108598 32.2899
21.498056118951983 32.0562
21.520718304578022 31.8832
21.543558400304388 31.8508
21.566222297108816 31.7204
21.58888704765135 31.1757
21.61155265291521 30.8742
21.63439619898156 30.7364
21.657063523335786 30.6471
21.67973170537063 30.8348
21.7024007460706 30.7912
21.72524775840385 30.9867
21.747918526116475 31.2821
21.770590155457388 31.4018
21.79326264741238 31.5759
21.816113141960237 31.6101
21.838787368860547 31.6056
21.861462461341976 31.7524
21.884315579735777 32.0929
21.90699241312273 32.202
21.92967011506078 32.5169
21.95234868653799 33.1208
21.9752053151131 33.729
21.997885635446785 34.6963
22.020566828293532 35.944
22.04324889464272 37.4254
22.066109049404666 38.904
22.088792872571794 40.0704
22.111477572219204 40.6585
22.1341631493376 40.4973
22.157026846313123 40.0503
22.179714188221507 39.4972
22.202402410582668 39.0963
22.22509151438863 38.4919
22.24795876962584 38.0762
22.270649646204486 37.7033
22.293341407213727 37.1808
22.316034053646906 36.7208
22.338904883215342 35.9469
22.36159931041458 35.1889
22.38429462602756 34.4339
22.40699083104897 33.3882
22.429865251039757 32.6175
22.452563244831367 32.0977
22.47526213102522 31.8755
22.49813925616515 31.6376
22.520839937143307 31.369
22.543541513520587 31.1605
22.56624398629403 30.8512
22.589124730075895 30.8323
22.611829005656723 30.8958
22.63453418063466 30.5899
22.657240256008077 30.7927
22.680124634582935 30.7232
22.70283252079775 30.8232
22.725541310413075 30.8293
22.74825100442868 30.8678
22.771139033969575 31.2338
22.79385054687155 31.3412
22.81656296718292 31.6626
22.83927629590484 32.1747
22.862167992606945 32.5965
22.88488314827121 32.7326
22.907599215359284 32.6099
22.93031619487366 32.3152
22.953211574954405 31.898000000000003
22.975930389478226 31.8742
22.998650119445763 31.773000000000003
23.02137076586092 31.8839
23.044269845560063 32.3824
23.06699233506288 33.1622
23.089715744034912 33.7666
23.112617610931565 34.7356
23.135342869061212 35.9376
23.158069049684816 36.6738
23.1807961538087 37.1638
23.20370174880544 36.8646
23.226430710184808 36.0338
23.249160598093425 34.8836
23.271891413539002 33.7087
23.294800752937697 32.8207
23.31753343374794 32.356
23.340267045128353 31.9067
23.36300158808808 31.7572
23.38591468821339 31.8474
23.408651104658304 32.0433
23.431388455719986 32.4044
23.454126742409 32.8709
23.4770436196085 33.4777
23.499783787914662 33.9705
23.522524894889884 33.9578
23.54526694154616 33.6648
23.56818761219047 33.1468
23.59093154860734 32.4939
23.613676427751283 32.4313
23.636422250635754 32.2922
23.659346731118656 32.5304
23.68209445191868 33.1347
23.704843119509587 33.7556
23.72759273490623 34.8014
23.750521041644767 35.9432
23.77327256312355 36.7689
23.796025035462787 37.1574
23.818956224555475 36.8953
23.841710609113413 36.16
23.86446594758979 34.8943
23.887222241002014 33.4209
23.910157285144578 32.1309
23.932915498962537 31.4333
23.955674670778713 30.9238
23.978434801611975 30.3843
24.001373717286125 29.9709
24.024135776723917 29.7857
24.046898798245582 29.7198
24.06966278287146 29.4939
24.092605586582614 29.6096
24.115371508023642 29.624000000000002
24.1381383956401 29.4198
24.16090625045381 29.2798
24.183852958731244 29.0232
24.206622758582608 28.7373
24.229393528706886 28.4558
24.252165270127392 28.3311
24.27511589952438 28.3217
24.297889594216997 28.1091
24.32066426328598 27.963
24.34343990775613 27.9272
24.36639447485003 27.6932
24.38917208083877 27.6871
24.41195066531332 27.6874
24.43490819850244 27.6921
24.457688750692377 27.6507
24.48047028445616 27.5443
24.503252800821233 27.5706
24.526214300784112 27.5525
24.548998793132213 27.5787
24.57178427117417 27.4345
24.59457073593893 27.5269
24.617536219319863 27.5388
24.64032466834748 27.6226
24.663114107195035 27.8644
24.685904536893013 27.9981
24.708874020360852 28.2533
24.731666442613744 28.5602
24.754459858818787 28.5072
24.777254270007962 28.4021
24.80022777025625 28.0422
24.82302418230472 27.7571
24.845821592443674 27.5212
24.86862000170663 27.2358
24.891597535453727 27.1308
24.914397953892728 27.2398
24.93719937456671 27.0262
24.96000179851076 27.1061
24.98298338249997 27.0477
25.00578782394922 27.063000000000002
25.028593271784167 27.0336
25.05157790644186 27.0627
25.07438537804115 26.9879
25.097193859145293 27.0214
25.120003350792075 26.9548
25.142992065061257 27.0599
25.165803588823465 27.1506
25.18861612625217 27.2805
25.211429678386736 27.1995
25.234422489079968 27.3126
25.257238081693636 27.4298
25.280054692141732 27.8295
25.3028723214652 28.1005
25.325869245420463 28.2523
25.348688923599397 28.6012
25.371509623787006 28.5702
25.394331347025812 28.6169
25.41733240110666 28.5184
25.440156181590016 28.314
25.46298098826268 28.3063
25.48580682216873 28.4814
25.50881202326435 28.6645
25.53163992281684 28.9281
25.55446885274561 29.1385
25.577298814096377 29.094
25.600308179121807 28.8831
25.623140214533745 28.7066
25.64597328451537 28.1915
25.66898578564376 27.5041
25.691820936010206 27.2551
25.714657124097695 26.9289
25.737494350954734 26.7957
25.760511045684957 26.5411
25.783350361364224 26.4936
25.806190718969255 26.4704
25.82903211955018 26.5594
25.852053024868923 26.745
25.874896522722523 26.8481
25.897741066713106 26.8287
25.920586657892454 26.7457
25.943611790812668 26.8458
25.966459487728237 26.6342
25.989308234998564 26.2463
26.01215803367705 26.1727
26.03518741123814 26.0798
26.05803932412957 26.0185
26.080892291600094 25.8473
26.10374631470478 25.853
26.12677995397268 25.9522
26.14963609978026 26.0929
26.172493304397875 26.0691
26.19535156888223 26.1406
26.218389486949604 26.1389
26.241249882640123 26.3847
26.26411134137826 26.5846
26.28715248187403 26.8751
26.31001607820869 27.0438
26.3328807407756 26.97
26.35574647063438 27.0342
26.37879191991473 26.811999999999998
26.401659795896734 26.5597
26.424528742360263 26.5196
26.447398760366614 26.2969
26.470448535598294 26.1963
26.49332070826805 26.0696
26.516193955675355 26.1839
26.53906827888316 25.9945
26.562122397260108 25.8042
26.584998883685063 25.8451
26.607876449110325 25.8178
26.63075509460056 25.8728
26.65381357334404 25.925
26.67669439061878 25.8978
26.699576291163382 26.0439
26.722459276044212 26.1535
26.745522132402975 26.2435
26.768407297649354 26.5066
26.791293550442003 26.5962
26.814180891848974 26.9011
26.837248143099337 27.2445
26.860137673466657 27.4933
26.88302829566349 27.6183
26.90592001075963 27.6816
26.92899167420566 27.69
26.951885586870763 27.5217
26.974780595655517 27.5457
26.99785558178161 27.4907
27.020752794605112 27.4751
27.043651106772522 27.4454
27.06655051935668 27.2996
27.089629948036183 26.9267
27.112531573292053 26.5173
27.135434302194138 26.2263
27.158338135817015 25.8031
27.181422024430987 25.5669
27.204328079372566 25.5644
27.22723524226965 25.4507
27.250143514198573 25.3572
27.273231880156334 25.2291
27.296142382065014 25.0892
27.319053996245536 25.1516
27.341966723775965 25.0787
27.365059584515222 25.1339
27.38797455070062 25.0652
27.410890633481237 24.9417
27.433807833936918 24.8402
27.456905206923906 24.9901
27.47982465472398 24.9084
27.502745223449743 24.9357
27.525666914182825 25.0502
27.548768816912457 24.9928
27.571692763693633 25.0446
27.59461783573812 25.0908
27.617723149491244 24.8867
27.640650484125285 24.8872
27.66357894728264 24.9542
27.686508540048052 24.8911
27.709618414237887 25.0657
27.732550278321757 24.9533
27.755483275279115 25.0995
27.778417406196485 25.2561
27.801531858397514 25.0976
27.824468269376716 24.929000000000002
27.847405817586786 24.7459
27.870344504116094 24.9086
27.893463551932008 24.7033
27.916404527281053 24.6953
27.93934664422563 24.5848
27.962289903855886 24.5247
27.98541356491974 24.5949
28.00835912214229 24.7466
28.03130582533231 24.9419
28.054253675581805 25.029
28.077381967556104 25.1818
28.100332124185126 25.2392
28.123283431160893 25.3233
28.146235889577238 25.3388
28.169368830154156 25.2559
28.192323603752033 25.2541
28.215279532083304 25.1508
28.238415973016764 25.2159
28.261374223145094 25.3609
28.284333631303806 25.5343
28.307294198589954 25.6857
28.330435319167677 25.6744
28.353398217078915 25.4648
28.376362277420153 25.2212
28.39932750129032 25.125999999999998
28.422473319286713 25.1286
28.44544088262495 25.0223
28.468409612800283 24.8964
28.491379510913497 24.7116
28.51453004413313 24.5648
28.53750229057244 24.4554
28.56047570826344 24.291999999999998
28.583450298308804 24.2532
28.606605564586562 24.0298
28.629582511831156 24.0039
28.65256063474956 23.877
28.675539934446338 23.8527
28.698699951647605 23.6518
28.72168161743193 23.4329
28.74466446331978 23.4147
28.767648490417624 23.371
28.790813276438353 23.195999999999998
28.813799678527303 23.1881
28.836787265157085 23.1462
28.859955641890075 23.1248
28.882945610203045 22.9516
28.905936766392035 22.9223
28.928929111566863 23.005
28.952102288520145 23.028000000000002
28.975097024308607 22.9203
28.998092952423807 22.8185
29.021090073977508 22.9438
29.04426806913204 22.8467
29.067267590245258 22.8464
29.090268308143695 22.7826
29.11327022394099 22.9867
29.13645305530891 22.9482
29.159457379627167 22.9586
29.18246290519685 22.8588
29.20546963313352 22.8558
29.22865731875826 22.7588
29.25166646419296 22.6843
29.27467681535305 22.5522
29.29768837335608 22.4782
29.320880931312562 22.3463
29.34389491580634 22.3207
29.366910110507334 22.2205
29.38992651653503 22.2192
29.41312396492981 22.1714
29.436142806456754 22.1344
29.45916286268059 21.9787
29.48236399319994 22.1015
29.50538649169417 22.1593
29.528410208259935 22.1464
29.55143514402014 22.1032
29.574641196749695 22.1292
29.597668583816574 22.1425
29.6206971934585 22.0776
29.64372702680042 22.2091
29.666938019934474 22.151
29.689970313635285 22.0713
29.713003834422636 21.965999999999998
29.73603858342347 21.9002
29.759254535188578 21.763
29.78229175361658 21.6412
29.80533020365064 21.6837
29.82836988641968 21.6678
29.85159081507472 21.5917
29.874632976355343 21.4119
29.89767637376955 21.4393
29.920721008448314 21.3899
29.9439469322847 21.3495
29.96699405457564 21.2329
29.9900424175358 21.314
30.013092022298157 21.2377
30.03632295963995 21.2502
30.059375061131373 21.318
30.08242840783577 21.2468
30.105483000888153 21.4566
30.128718970092244 21.4084
30.151776069006917 21.5147
30.17483441768648 21.467
30.198074175317235 21.4728
30.221135036724256 21.2793
30.24419715131772 21.1591
30.267260520236203 21.0667
30.290505341942243 21.0735
30.313571232750228 21.1003
30.336638381310948 21.0814
30.35970678876503 21.055999999999997
30.38295669299435 21.0425
30.40602763151657 21.1472
30.429099832366074 21.0842
30.452173296685572 21.0572
30.47542830191959 21.1598
30.498504306502497 21.1306
30.521581577995562 21.0442
30.544660117543582 21.0853
30.56792024229725 21.0489
30.59100133132069 20.9823
30.614083691845494 20.8817
30.637167325018545 20.8572
30.660432587840603 20.9472
30.683518779717886 20.8231
30.70660624769615 20.9224
30.729694992924372 20.868000000000002
30.75296541239743 20.8759
30.77605672557558 20.9057
30.799149319462742 20.9434
30.8224236211637 20.9007
30.845518789950724 20.9122
30.868615242910597 20.9839
30.891712981195973 20.9855
30.91499247215866 21.1197
30.938092794619365 21.1941
30.96119440587579 21.2388
30.984297307082752 21.3166
31.00758200598383 21.1239
31.030687500658694 21.1425
31.053794288760695 21.1142
31.076902371446767 21.0844
31.100192296997445 21.1084
31.12330298246119 21.0794
31.14641496599209 20.9638
31.169528248749216 21.003
31.19282341969534 20.8524
31.215939314557186 20.733
31.239056512134788 20.6391
31.262175013589378 20.4846
31.28547544871168 20.472
31.30859657161541 20.4251
31.331719001892175 20.4361
31.35484274070538 20.4597
31.378148458819545 20.3405
31.401274828443725 20.2936
31.424402510106933 20.4088
31.447712205419993 20.3392
31.470842524931633 20.2424
31.493974159989783 20.3178
31.51710711176168 20.3296
31.54042212308802 20.2749
31.563557722100917 20.1919
31.586694641341655 20.1828
31.609832881979628 20.2583
31.63315322823208 20.3395
31.656294125521327 20.2366
31.679436347728515 20.2806
31.70257989602529 20.3088
31.725905596152327 20.3737
31.74905181052835 20.2661
31.772199354521323 20.3208
31.79534822930507 20.3202
31.818679302290967 20.2806
31.84183085259981 20.1951
31.864983737233473 20.1004
31.88813795736804 20.1104
31.911474422233013 19.9809
31.934631327356435 19.9794
31.9577895715215 19.9145
31.980949155906522 19.9358
32.004291031706956 19.8949
32.027453310562606 19.7735
32.05061693318573 19.8358
32.07396288236386 19.8722
32.09712920658542 19.9171
32.12029687812702 19.8717
32.14346589817093 19.8385
32.166817291729984 19.8316
32.18998902288583 19.843
32.21316210610336 19.9285
32.23633654256711 19.7638
32.259693399663725 19.8279
32.282870556771144 19.8196
32.30604907069099 19.7536
32.329228942610065 19.6957
32.35259128243769 19.5338
32.375773884550505 19.5404
32.398957848235646 19.5519
32.422143174682176 19.4203
32.445511016471215 19.3597
32.468699082679954 19.3697
32.49188851523011 19.2132
32.51507931531304 19.2251
32.538452678331 19.2625
32.56164622776311 19.1585
32.58484114831493 19.1224
32.60803744118015 19.0128
32.631416344731896 18.9423
32.654615396551876 19.0338
32.67781582427913 18.928
32.701198898634416 18.8873
32.72440209253756 18.9454
32.747606665947124 18.8814
32.77081262006088 18.783
32.79420126883317 18.7545
32.81740999876112 18.7664
32.840620112999424 18.7072
32.86383161274818 18.637999999999998
32.88722585534586 18.6616
32.91044014056596 18.6908
32.933655814909734 18.6647
32.95687287957963 18.7519
32.98027273544904 18.7534
33.00349259526636 18.6901
33.026713849030116 18.7587
33.04993649794511 18.6693
33.073341986570746 18.6208
33.09656744032826 18.51
33.11979429286444 18.5037
33.14302254538647 18.4689
33.166433686291185 18.3926
33.18966475336992 18.3794
33.212897224069096 18.3796
33.23613109959831 18.3053
33.259547912343415 18.2862
33.2827846121627 18.383
33.306022720453775 18.2485
33.32926223842861 18.2368
33.352684742614166 18.2338
33.37592709463173 18.2699
33.399170859982064 18.2916
33.422597648419426 18.277
33.44584425514446 18.2026
33.46909227885668 18.3027
33.4923417207723 18.2219
33.51577423505344 18.3157
33.539026528130385 18.2393
33.56228024307245 18.141
33.585535381098246 18.105
33.60897364093058 18.0517
33.63223163992385 18.0361
33.6554910656699 17.9694
33.678751919389796 17.9386
33.702195944520106 17.8172
33.72545966903325 17.811
33.74872482519663 17.7533
33.771991414233746 17.7524
33.79544122444841 17.6457
33.81871069412428 17.7226
33.84198160035767 17.6824
33.86525394437455 17.6566
33.88870955949969 17.6784
33.911984794020626 17.5191
33.93526147001624 17.5551
33.958539588715006 17.5318
33.98200102861669 17.4617
34.0052820477047 17.4892
34.02856451319451 17.4892
34.05203033759056 17.3621
34.07531571090147 17.4209
34.09860253431845 17.4264
34.121890809074316 17.3544
34.145362493118924 17.3215
34.16865368561615 17.3517
34.191946333164054 17.3221
34.21524043699793 17.2974
34.23871800066799 17.3106
34.26201503218366 17.1742
34.28531352370466 17.1794
34.30861347646881 17.118
34.33209693978188 17.1017
34.3553998301885 17.0308
34.378704185565205 16.9817
34.402010007152356 16.9435
34.42549939016683 16.9909
34.44880815937748 16.9892
34.472118398533134 16.9139
34.49543010887669 16.81
34.51892543169198 16.8603
34.54224009966052 16.912
34.56555624255917 16.9069
34.58887386163339 16.7725
34.61237514439016 16.7734
34.6356957311114 16.7373
34.65901779775809 16.7118
34.68252356662995 16.6882
34.705848608458616 16.6626
34.72917513396849 16.5935
34.75250314440949 16.6522
34.77601490857862 16.5985
34.799345904259795 16.5132
34.82267838863559 16.5646
34.846012362958525 16.5014
34.869530142679984 16.5221
34.89286711232212 16.4635
34.91620557568269 16.3914
34.93954553401677 16.4063
34.9630693495876 16.3499
34.986412313340814 16.3844
35.00975677584668 16.3226
35.033102738362956 16.3679
35.05663261012228 16.2624
35.0799815881786 16.2485
35.10333207003229 16.2037
35.12668405694369 16.2729
35.150220005273056 16.1763
35.17357501786656 16.2123
35.19693153931268 16.2448
35.220289570874385 16.1646
35.24383161619786 16.1369
35.267192683604904 16.1393
35.290555264930376 16.1452
35.314101899412165 16.0981
35.33746752422433 16.0723
35.36083466676374 16.0862
35.38420332829803 16.0469
35.407756095629054 16.0732
35.43112781085063 15.9658
35.45450104888391 16.0033
35.477875810999194 16.0152
35.50143473172161 15.964
35.52481255774625 15.9543
35.54819191167777 15.9554
35.57157279478914 15.963
35.595137889488406 15.9185
35.61852184675279 15.8783
35.641907337029984 15.8726
35.665294361595684 15.9198
35.68886565090076 15.929
35.7122557598848 15.9391
35.73564740699838 15.9553
35.759040593519934 15.9187
35.78261809810353 15.8581
35.80601437933051 15.81
35.829412203814705 15.8408
35.85281157283719 15.7765
35.876395313415884 15.7363
35.8997977874528 15.6999
35.92320180988546 15.7174
35.946790244133936 15.6356
35.97019737933222 15.6731
35.993606066789866 15.6076
36.01701630779276 15.5611
36.04061101440684 15.5
36.06402437852291 15.5233
36.08743930005611 15.5396
36.1108557802951 15.440999999999999
36.13445678011326 15.4451
36.15787639383515 15.4117
36.18129757014299 15.4215
36.20472031032821 15.3038
36.22832762423364 15.287
36.25175350829375 15.2539
36.275180960119776 15.2877
36.298609981005924 15.2768
36.32222362992669 15.2319
36.34565580510207 15.2544
36.36908955323448 15.2196
36.39252487562093 15.212
36.416144880530226 15.1494
36.43958336764275 15.2102
36.463023432914625 15.1674
36.486465077645676 15.1388
36.51009145956204 15.1309
36.53353627947859 15.1282
36.55698268276811 15.142000000000001
36.58043067073321 15.1
36.60406345072071 14.9738
36.62751462435344 14.9585
36.65096738658405 14.9158
36.67460498210655 14.956
36.69806093788647 14.883
36.72151848619297 14.8879
36.744977628333636 14.9265
36.76862165890998 14.8402
36.79208400512205 14.7715
36.81554794910557 14.8521
36.83901349217101 14.8368
36.862663978991606 14.8269
36.88613273667352 14.7962
36.90960309738324 14.8069
36.933075062434064 14.732999999999999
36.95673202673572 14.7264
36.98020721697122 14.7384
37.003684015502365 14.7022
37.027162423645365 14.632
37.050825886711465 14.6256
37.07430753063053 14.5965
37.09779078812467 14.5611
37.121275660513014 14.5159
37.144945643673694 14.4786
37.16843376245278 14.4576
37.19192350009803 14.4561
37.215414857931435 14.4512
37.239091382563885 14.3907
37.262585997426164 14.363
37.28608223645736 14.3556
37.309763684451696 14.3766
37.33326318851098 14.3254
37.356764320726555 14.3025
37.380267082425526 14.3383
37.40395510942588 14.2969
37.42746114683234 14.2223
37.45096881771841 14.1722
37.474478123414166 14.2532
37.49817275092816 14.1294
37.52168534303452 14.1125
37.54519957395567 14.0569
37.568715445024665 14.1156
37.592416694607714 14.0888
37.61593586281424 14.0608
37.63945667518264 14.0786
37.66297913304891 14.0027
37.68668702630454 14.0369
37.710212792059274 13.9529
37.733740207334854 13.9597
37.757269273470364 13.8887
37.780983832050374 13.8882
37.80451621684926 13.9128
37.82805025654007 13.8738
37.851585952464795 13.8944
37.8753071980695 13.8019
37.89884622345676 13.79
37.92238690911902 13.7781
37.94611318753442 13.7385
37.969657210779765 13.7559
37.99320289834801 13.745
38.016750251586465 13.7249
38.04048325513017 13.7024
38.06403395679343 13.6642
38.087586328183946 13.6621
38.11114037065203 13.6735
38.13488012115898 13.6609
38.1584375229181 13.5879
38.181996599821 13.5744
38.205557353221124 13.5594
38.229303872575656 13.547
38.2528679961576 13.5302
38.27643380031219 13.4797
38.30000128639589 13.4352
38.32375459653193 13.3968
38.34732546371299 13.4004
38.37089801690786 13.3929
38.39447225747609 13.3474
38.418232380377425 13.2844
38.441810012983396 13.3325
38.46538933705673 13.2655
38.488970353960084 13.3141
38.51273731166058 13.2827
38.536321731567014 13.2499
38.55990784840681 13.238
38.58367995004091 13.1334
38.60726947812959 13.2164
38.63086070726198 13.1918
38.654453638806274 13.1657
38.678232613930824 13.1705
38.70182896773327 13.0959
38.72542702806741 13.0435
38.7490267963045 13.0515
38.77281266709232 13.1193
38.79641586862214 13.104000000000001
38.8200207821842 13.0287
38.843627409152944 13.0114
38.86742019782782 12.9596
38.891030269149255 12.8983
38.914642058016156 12.9245
38.938255565806124 12.9325
38.96205529464307 12.8258
38.98567225787121 12.9192
39.00929094417078 12.8736
39.03291135492255 12.9078
39.05671804624804 12.8714
39.080341923549106 12.8014
39.103967529460334 12.7748
39.127594865365744 12.675
39.15140854155791 12.6842
39.17503935514948 12.7192
39.19867190290282 12.6926
39.22249083587951 12.6539
39.24612686969409 12.6603
39.269764641845306 12.6859
39.293404153722804 12.625
39.317230110864074 12.5529
39.34087311998506 12.550999999999998
39.36451787301696 12.5675
39.388164371352595 12.5183
39.41199737518003 12.5001
39.43564738196752 12.4995
39.45929913825317 12.4995
39.48295264543308 12.5345
39.506792718520884 12.4949
39.530449745387216 12.4305
39.55410852735203 12.4033
39.57776906581474 12.4256
39.60161623079 12.3899
39.625280300200025 12.3482
39.64894613032202 12.3001
39.67261372255866 12.3111
39.6964680021016 12.2974
39.72013913657293 12.3164
39.74381203738292 12.2809
39.76748670593756 12.2416
39.79134812278169 12.2227
39.81502634488497 12.2279
39.83870633896685 12.1957
39.862388106436654 12.1625
39.88625668336918 12.1154
39.90994201572829 12.1544
39.933629125719285 12.1416
39.957503091207826 12.0393
39.9811937746168 12.1021
40.00488623990914 12.0812
40.02858048850006 12.0392
40.05246165409549 12.0013
40.076159487492085 11.9837
40.099859108448875 12.019
40.123560518384345 11.9825
40.1474489070226 11.9792
40.171153913178564 11.9445
40.194860712584955 11.933
40.2185693066637 11.9453
40.242464941335314 11.9027
40.26617714307655 11.9012
40.289891143772046 11.8978
40.3136069448471 11.8732
40.33750984859743 11.8504
40.3612292688043 11.8067
40.3849504936829 11.7577
40.40867352466194 11.796
40.43258372059144 11.8083
40.45631038219906 11.7944
40.48003885420956 11.6999
40.503769138055105 11.651
40.52768664931955 11.6715
40.55142057531802 11.6693
40.57515631746428 11.6669
40.599079334038514 11.5939
40.62281872700477 11.5674
40.64655994043941 11.6322
40.67030297578061 11.593
40.69423334835778 11.6046
40.71798004609188 11.5644
40.74172857006355 11.5031
40.76547892171441 11.5153
40.7894166736039 11.4633
40.813170699248566 11.4605
40.83692655691388 11.3851
40.86068424804498 11.4346
40.884629402612525 11.4146
40.908390779366385 11.4045
40.932153993938 11.4065
40.95591904777605 11.3762
40.979871628443995 11.3684
41.003640379561936 11.3611
41.02741097430883 11.352
41.05118341413683 11.3044
41.075143444384416 11.2955
41.098919593177826 11.2811
41.1226975914255 11.3099
41.14647744058318 11.2978
41.170444943946755 11.2344
41.19422851378379 11.1877
41.218013938914645 11.1687
41.24198706625173 11.161
41.26577622087193 11.154000000000002
41.289567235177785 11.1515
41.31336011063129 11.1249
41.337340752422875 11.1341
41.361137369129835 11.1368
41.38493585138705 11.0592
41.40873620066004 11.0537
41.43272438060107 10.995
41.45652848292052 10.9863
41.48033445666918 11.0218
41.50414230331616 10.9358
41.528138045159764 10.9168
41.551949656675205 10.8705
41.575763145513235 10.8893
41.59957851314666 10.9164
41.62358184070442 10.8694
41.64740098505737 10.8772
41.6712220126409 10.8551
41.69504492493139 10.8215
41.71905586207357 10.8198
41.74288256296395 10.772
41.766711153007456 10.7708
41.79054163368412 10.7298
41.814560204340054 10.7538
41.838394485526365 10.7451
41.86223066180303 10.6858
41.88625497706819 10.7411
41.910094962812 10.6965
41.93393684811168 10.6801
41.95778063445365 10.6174
41.981812625263366 10.5987
42.00566023303407 10.6433
42.029509746323676 10.6017
42.05336116662236 10.5842
42.077400857069705 10.5532
42.10125611078846 10.5468
42.12511327600405 10.5194
42.14897235421036 10.5127
42.173019768448455 10.5533
42.19688269209613 10.4656
42.22074753323349 10.4743
42.24461429335818 10.4428
42.268669455600495 10.4471
42.292540073217886 10.4349
42.31641261433284 10.3874
42.34028708044675 10.3765
42.36435001496739 10.3863
42.38822835065557 10.3404
42.41210861586426 10.3545
42.4359908120986 10.331
42.46006154323262 10.3
42.48394762115317 10.2482
42.507835634632315 10.2655
42.531912233047436 10.2164
42.55580413732265 10.1895
42.579697981698 10.2217
42.60359376768525 10.1514
42.62767820545945 10.1321
42.65157789440821 10.177999999999999
42.67547952952185 10.1291
42.699383112316 10.1474
42.72347541395347 10.0582
42.74738291190531 10.0741
42.771292362102166 10.1027
42.795203766063516 10.0877
42.819303956130405 10.0604
42.843219287476536 10.0511
42.86713657716324 10.0548
42.89105582671383 9.9705
42.91516392983864 9.98017
42.939087119032166 9.948780000000001
42.963012272677304 9.95298
42.98693939230129 9.97301
43.01105543317513 9.93088
43.034986504731386 9.86711
43.05891954686589 9.87144
43.08285456110972 9.852269999999999
43.10697856448665 9.850760000000001
43.130917542983475 9.793619999999999
43.15485849820081 9.84961
43.17880143167367 9.78618
43.20293342237094 9.71252
43.226880332449 9.7572
43.25082922540554 9.74806
43.27496722682525 9.7545
43.29892010567796 9.71313
43.32287497204102 9.69425
43.34683182745632 9.66837
43.370977859791836 9.63096
43.39493871351105 9.67103
43.41890156092628 9.62471
43.44286640358341 9.58704
43.46702049182749 9.66098
43.49098934522816 9.61558
43.51496019852649 9.58837
43.5389330532723 9.53698
43.56309522248204 9.552769999999999
43.58707210044314 9.4935
43.61105098451946 9.4744
43.63503187626491 9.475710000000001
43.659202151562134 9.458
43.68318707902681 9.47432
43.70717401884041 9.45193
43.731162972560874 9.45444
43.75534137913236 9.42227
43.779334381108384 9.37523
43.803329401683186 9.354239999999999
43.82732644241872 9.38044
43.8515130055166 9.3827
43.87551410707659 9.31011
43.89951723350145 9.3104
43.923709934595614 9.2748
43.94771713129917 9.27818
43.97172635758096 9.27004
43.99573761501002 9.24901
44.0199385169922 9.23948
44.04395385732619 9.25207
44.067971233533086 9.19702
44.09199064718605 9.20829
44.11619977548961 9.1543
44.14022328470671 9.19707
44.16424883610785 9.1967
44.18827643127035 9.147
44.21249381139513 9.12764
44.236525514814076 9.048910000000001
44.26055926674478 9.10173
44.28459506876863 9.09
44.3088207262813 9.05165
44.33286064928722 9.07719
44.35690262714919 9.02711
44.38094666145278 8.98638
44.4051806219871 9.00416
44.42922879003185 8.97142
44.45327901929361 8.95681
44.477331311362136 8.96745
44.501573600619416 8.9114
44.525630039221795 8.86514
44.54968854541895 8.9349
44.573937102200176 8.941180000000001
44.5979997645541 8.874889999999999
44.622064499300315 8.86138
44.64613130803592 8.840069999999999
44.67038823869318 8.853810000000001
44.69445921643748 8.83399
44.718532272981385 8.8166
44.742607409926194 8.79945
44.76687274034801 8.80636
44.79095205918753 8.7809
44.81503346325094 8.73682
44.839116954143876 8.75281
44.86339071028742 8.7377
44.88747839599524 8.69886
44.91156817336837 8.68966
44.93566004401666 8.68525
44.959942251908146 8.68089
44.984038330325966 8.62744
45.00813650686762 8.58077
45.03223678314731 8.63894
45.05652746888232 8.584439999999999
45.08063196592069 8.56597
45.104738567558705 8.54604
45.128847275414856 8.55895
45.15314646515866 8.555489999999999
45.17725940679741 8.54389
45.20137445952892 8.5289
45.22568004865265 8.523530000000001
45.24979934496396 8.555060000000001
45.27392075725247 8.46598
45.29804428714431 8.48442
45.322358426247604 8.46848
45.346486212804315 8.43331
45.370616121861914 8.46203
45.39474815505086 8.42275
45.41907087049246 8.39205
45.4432071734666 8.38758
45.46734560548283 8.3374
45.49148616817604 8.37106
45.51581748638564 8.36028
45.5399623320197 8.33758
45.56410931325473 8.31649
45.58825843173002 8.30918
45.61259837920865 8.26999
45.636751793816 8.256260000000001
45.66090735060093 8.238
45.68506505120716 8.20375
45.7094136545275 8.21053
45.73357566449271 8.20646
45.75773982322992 8.1726
45.78190613238733 8.19244
45.806263418194064 8.1663
45.83043404997326 8.13326
45.85460683713677 8.11854
45.87897065658495 8.115210000000001
45.90314777634752 8.09952
45.92732705646868 8.06547
45.9515084986045 8.0798
45.97588104735473 8.04453
46.00006683541565 8.0428
46.02425479047904 8.05226
46.04844491420549 8.03457
46.0728262191024 8.03208
46.09702070211635 8.0043
46.12121735879483 7.9542399999999995
46.14541619080294 7.9874600000000004
46.169806278764455 7.964810000000001
46.194009483459034 7.94725
46.21821486849841 7.94424
46.24242243555223 7.936160000000001
46.266821333570014 7.91485
46.29103328674601 7.89377
46.31524742696538 7.893210000000001
46.33946375590237 7.88772
46.36387149104216 7.868860000000001
46.38809221957392 7.8263
46.41231514186606 7.82048
46.436540259597464 7.79628
46.460956858999374 7.78706
46.48518638983522 7.76117
46.509418121166966 7.7737
46.533652054678114 7.75997
46.55807754555709 7.72583
46.58231590571962 7.71483
46.60655647313217 7.72355
46.630988654873654 7.719339999999999
46.655233659129024 7.68767
46.67948087571551 7.672680000000001
46.70373030632484 7.649789999999999
46.72817142736393 7.68693
46.752425308428684 7.627510000000001
46.77668140861147 7.64013
46.80093972960865 7.60836
46.82538981736788 7.5766800000000005
46.849652602470904 7.576860000000001
46.87391761349769 7.559069999999999
46.8981848521493 7.508610000000001
46.9226439341274 7.50237
46.946915650573224 7.50644
46.97118959976749 7.52517
46.99546578341598 7.46165
47.019933887188216 7.418069999999999
47.04421456235744 7.43465
47.06849747711879 7.4534899999999995
47.09278263318286 7.452960000000001
47.11725978640143 7.4474
47.14154944775105 7.4192100000000005
47.165841355555656 7.4185
47.1901355115306 7.376360000000001
47.214621741924994 7.369739999999999
47.23892041698887 7.324439999999999
47.26322134538975 7.340389999999999
47.28771440635075 7.313
47.31201986422527 7.334560000000001
47.33632758061436 7.310919999999999
47.360637557241866 7.306719999999999
47.38513974410611 7.27429
47.40945426407847 7.2526399999999995
47.43377104948137 7.254630000000001
47.45809010204344 7.229010000000001
47.48260144275502 7.2218800000000005
47.506925052572285 7.231489999999999
47.53125093475548 7.20555
47.55557909103813 7.1700800000000005
47.58009961361992 7.173089999999999
47.60443234110732 7.1639800000000005
47.62876734791564 7.151
47.65310463578333 7.118580000000001
47.6776343683373 7.113239999999999
47.7019762413987 7.1070199999999994
47.72632040075572 7.09837
47.75066684815169 7.067589999999999
47.77520581885936 7.0702300000000005
47.799556865477655 7.0368
47.823910205386 7.04245
47.84826584033272 7.03344
47.87281407745551 7.007339999999999
47.89717432569297 7.02145
47.92153687423484 7.00325
47.94609208429692 6.978910000000001
47.97045925671401 6.95793
47.99482873471275 6.96545
48.01920052005013 6.94239
48.04376504619224 6.9211
48.068141469543484 6.94538
48.09252020552573 6.9459800000000005
48.11690125590099 6.89094
48.1414751266064 6.8981
48.16586082917454 6.86192
48.19024885144316 6.842160000000001
48.2146391951793 6.86102
48.239222439012764 6.87183
48.26361744916137 6.86393
48.28801478610016 6.824910000000001
48.31241445160131 6.8224100000000005
48.337007097209366 6.8017
48.36141144338331 6.774439999999999
48.38581812345755 6.77216
48.41022713920929 6.76594
48.434829215320704 6.781389999999999
48.45924292604658 6.7615300000000005
48.48365897780325 6.77009
48.50807737237308 6.7237
48.532688907799276 6.713989999999999
48.55711201168574 6.656210000000001
48.581537463754074 6.70367
48.60615611725119 6.7049
48.63058628942721 6.651210000000001
48.65501881516546 6.6509
48.6794536962573 6.6333
48.70408185970339 6.60372
48.72852147531801 6.614039999999999
48.75296345168211 6.59095
48.77740779059232 6.60618
48.80204549302823 6.577939999999999
48.82649458091802 6.54096
48.85094603676547 6.55144
48.87539986237231 6.530069999999999
48.90004713292306 6.528519999999999
48.92450572200832 6.50676
48.94896668628025 6.49913
48.97343002754588 6.52304
48.99808689542115 6.48289
49.02255501470614 6.4877199999999995
49.04702551642794 6.45487
49.0714984023988 6.44005
49.096164896893235 6.41385
49.120642575466796 6.41415
49.145122643748394 6.42253
49.16960510355558 6.4103
49.19428125404938 6.39675
49.2187685210852 6.40269
49.243258185121555 6.35668
49.26794160167084 6.361619999999999
49.2924360839405 6.32808
49.31693296869764 6.3364199999999995
49.34143225776915 6.29648
49.36612538195438 6.29738
49.39062950396021 6.3076
49.41513603578346 6.26532
49.4396449792564 6.2651699999999995
49.46434784069503 6.27461
49.488861631846454 6.24918
49.513377840166804 6.290719999999999
49.537896467493745 6.24874
49.56260909589029 6.184
49.587132585683285 6.19618
49.611658500018365 6.19603
49.636186840738596 6.178380000000001
49.66090926588511 6.17603
49.685442483902584 6.12893
49.70997813385706 6.14192
49.734516217597076 6.1216
49.75924846937352 6.11792
49.7837914452858 6.09106
49.80833686055187 6.09448
49.83288471702571 6.07904
49.85762682540054 6.05176
49.882179588965734 6.05192
49.9067347993235 6.07069
49.93129245833333 6.03399
49.95604445336378 6.0492300000000006
49.98060703442832 6.0281199999999995
50.005172069746266 5.96612
50.02993150438364 5.99768
50.05450147301533 5.99408
50.07907390151433 5.99076
50.10364879174981 5.9701
50.12841816587289 5.93626
50.1529980044635 5.9556
50.17758031042124 5.9189
50.20216508562089 5.89732
50.22694442953363 5.91143
50.25153416817468 5.89349
50.27612638170508 5.88485
50.300721072005196 5.86733
50.325510416102105 5.846769999999999
50.350110084975064 5.8646199999999995
50.37471223628208 5.86892
50.39931687190919 5.82832
50.424116246675766 5.81837
50.44872587605249 5.79471
50.47333799543065 5.79941
50.49795260670191 5.8063
50.52276204271512 5.8038
50.54738166295838 5.76929
50.57200378079314 5.793069999999999
50.596628398116835 5.74148
50.62144792604559 5.732080000000001
50.646077567609396 5.71675
50.670709714377715 5.745080000000001
50.69553683636198 5.71949
50.72017401885922 5.66726
50.7448137122895 5.6771
50.76945591856022 5.67668
50.79429318636823 5.68417
50.818940443716784 5.69663
50.84359021965163 5.6618900000000005
50.868242516085964 5.65578
50.893089960641895 5.623130000000001
50.917747323549435 5.64489
50.94240721271973 5.65118
50.96706963007175 5.6207
50.99192728239342 5.5995
51.01659478166073 5.62849
51.04126481489051 5.56152
51.06593738400761 5.57024
51.090805275207074 5.56159
51.11548294172845 5.56151
51.14016314993547 5.560309999999999
51.164845901758845 5.50841
51.18972406304274 5.53369
51.21441192780656 5.47675
51.23910234200271 5.49297
51.2637953075678 5.47336
51.288683770237945 5.44644
51.31338186432707 5.4213
51.33808251561888 5.4471300000000005
51.362978729967345 5.43537
51.387684521509755 5.40172
51.41239287610203 5.4099900000000005
51.437103795691165 5.39609
51.46201036644977 5.37906
51.486726441956634 5.38526
51.51144508832545 5.37057
51.536166307509156 5.37664
51.56108326624387 5.34516
51.58580965706056 5.3564099999999994
51.61053862657523 5.3141300000000005
51.635270176746864 5.30147
51.66019755512065 5.29724
51.68493429268881 5.29174
51.70967361681515 5.27986
51.73441552946465 5.247999999999999
51.759353359237934 5.26574
51.7841004750961 5.28022
51.80885018539685 5.2590699999999995
51.833602492111254 5.22887
51.8585508051424 5.24602
51.883308330926425 5.1871
51.90806845906181 5.17181
51.932831191525715 5.19112
51.95779001977161 5.16172
51.98255798721516 5.1824699999999995
52.00732856494335 5.17485
52.03229530577543 5.1336699999999995
52.057071130455945 5.16979
52.081849571391054 5.13479
52.106630630568695 5.1437
52.13160794279417 5.10599
52.15639426492067 5.07576
52.18118321127822 5.09987
52.205974783860896 5.07642
52.23096269971011 5.04169
52.255759551287994 5.08244
52.280559035098186 5.02351
52.30536115314103 5.0403400000000005
52.33035970494467 5.06655
52.35516711807904 5.00058
52.37997717147198 5.00747
52.40478986713005 5.016430000000001
52.42979908731974 4.96741
52.454617094216 4.96719
52.47943774942214 4.98296
52.50426105495102 4.97314
52.529280976059844 4.93012
52.554109609024096 4.95903
52.57894089837482 4.917269999999999
52.60377484613117 4.9314
52.62880550079408 4.9252199999999995
52.65364479223379 4.93615
52.67848674816189 4.90295
52.70352547971946 4.89585
52.72837279155837 4.87632
52.753222773982785 4.88556
52.778075429022984 4.85449
52.80312495150885 4.86241
52.827982978797436 4.87113
52.85284368481815 4.832330000000001
52.87770707160767 4.81539
52.90276741793998 4.804130000000001
52.92763619336701 4.79608
52.952507655698504 4.7502
52.977381806977576 4.78935
53.00245301017842 4.74242
53.02733256653592 4.77583
53.052214817996074 4.733230000000001
53.077099766608484 4.70564
53.102181859804446 4.7241599999999995
53.127072229988265 4.75
53.15196530349892 4.68662
53.17686108239249 4.71804
53.20195409881522 4.72251
53.22685531582556 4.68432
53.25175924441303 4.660019999999999
53.27666588664027 4.66456
53.30176985962693 4.66688
53.3266819565689 4.690580000000001
53.35159677336455 4.668830000000001
53.376514312083096 4.65533
53.40162927507703 4.63278
53.42655228516116 4.56269
53.45147802340193 4.6005400000000005
53.47660125628886 4.56923
53.50153247842639 4.595619999999999
53.52646643496923 4.5871699999999995
53.55140312799818 4.57443
53.576537409691696 4.55779
53.60147960336152 4.5208900000000005
53.626424539786164 4.52732
53.65137222105307 4.50995
53.67651758529126 4.5059
53.70147078399681 4.46203
53.72642673383343 4.479430000000001
53.75138543689533 4.470330000000001
53.776541917524526 4.50186
53.801506154876755 4.45538
53.826473151763246 4.4238599999999995
53.851442910284916 4.4379800000000005
53.87661054126026 4.4103900000000005
53.9015858509782 4.3983
53.92656392866066 4.391719999999999
53.95154477641532 4.38277
53.976723591801296 4.4004199999999996
54.00171000771266 4.371659999999999
54.02669920004598 4.38026
54.051691170915745 4.34227
54.076881204886796 4.35363
54.101878760928514 4.34283
54.12687910187696 4.3048
54.152077577768296 4.31351
54.1770835166946 4.25784
54.20209224691339 4.28141
54.22710377055121 4.2916099999999995
54.25231352511594 4.26089
54.27733066384342 4.23871
54.30235060239643 4.24494
54.32737334290836 4.211530000000001
54.35259441062629 4.20878
54.377622783395324 4.15573
54.40265396455061 4.15201
54.42768795623251 4.12975
54.45292037169559 4.12031
54.477960012857906 4.18438
54.50300247099511 4.14693
54.52804774825457 4.07969
54.55329154616743 4.0370800000000004
54.57834249018678 4.00574
54.6033962597977 4.035419999999999
54.6284528571545 3.9999300000000004
54.653708072335164 3.97626
54.67877035378786 4.01467
54.70383546947698 3.98679
54.72890342156389 3.90412
54.7541700889442 3.9352
54.77924374251975 3.9590199999999998
54.8043202390049 3.87875
54.82959552413022 3.8581300000000005
54.8546777351945 3.86427
54.87976279569621 3.8488300000000004
54.90485070780914 3.9136800000000003
54.930137506558005 3.8439699999999997
54.95523115074295 3.85031
54.98032765308844 3.83511
55.005427015775496 3.8078199999999995
55.03072536339621 3.85819
55.05583047570572 3.7755
55.080938454927676 3.7505900000000003
55.10604930325027 3.76315
55.131359235107396 3.77505
55.15647585066083 3.7155099999999996
55.181595341907496 3.68088
55.20671771104285 3.6352800000000003
55.232039262617704 3.65044
55.25716741665048 3.62471
55.28229845518636 3.6119199999999996
55.30743238042802 3.55191
55.33276558731939 3.5616
55.357905315183636 3.53418
55.383047936390035 3.54451
55.40819345314859 3.4982800000000003
55.433538351073295 3.50279
55.458689688238415 3.52914
55.483843927614096 3.4598400000000002
55.509197623043605 3.44846
55.53435769621134 3.4592199999999997
55.55952067826466 3.4427300000000005
55.5846865714265 3.4139800000000005
55.61005202069737 3.43505
55.63522376553902 3.3994199999999997
55.66039842818645 3.37795
55.68557601087004 3.36699
55.7109532500271 3.34493
55.73613670233794 3.40625
