TT I
1.2716486653135266 7.538139999999999
1.2939594142134223 7.120080000000001
1.3162702121660406 6.962960000000001
1.3385810600174564 6.92731
1.3608919586137629 6.94152
1.383202908801069 6.491569999999999
1.405513911425503 5.79031
1.4278249673332093 5.95466
1.4501343378461518 6.39257
1.4724455028545926 5.88666
1.4947567236847858 5.22412
1.517068001182951 6.06154
1.5393793361953272 6.2237800000000005
1.5616907295681737 5.288119999999999
1.5840021821477681 5.11822
1.60631369478041 5.17534
1.6286252683124185 5.50135
1.6509369035901333 4.74268
1.6732468618895553 5.2321800000000005
1.695558623192809 4.995340000000001
1.7178704487808514 5.6816699999999996
1.7401823395001077 5.22051
1.7625012545597203 5.10133
1.7848028405262486 4.91305
1.8071218901122095 4.97584
1.8294236121921872 4.70961
1.8517427996910911 5.03325
1.8740620574440425 4.24539
1.8963639900671978 4.34762
1.9186833908139995 4.56334
1.9409854680117449 5.00599
1.9633050151394713 5.122330000000001
1.9856246367570705 4.488180000000001
2.0079269371922672 4.40545
2.03024671027244 4.98625
2.0525491637446027 4.9317
2.074869091674931 4.57331
2.097171701569106 4.480580000000001
2.1194917877373847 4.77871
2.141811954326636 4.88415
2.164114805233074 4.45984
2.186435135143035 5.4339900000000005
2.208738150935709 10.3076
2.231058647554722 16.8179
2.2533792288321184 13.5959
2.275682498336085 7.13435
2.298003251406138 5.11763
2.3203066942619714 4.76168
2.3426276225136022 5.1143
2.3649486396617507 5.01958
2.387252348930071 5.60809
2.4095735463442893 5.93586
2.4318774374315884 6.07297
2.4541988185014043 5.94015
2.476502894794693 6.708010000000001
2.498824462909887 6.4695800000000006
2.521146125856138 6.495080000000001
2.5434504863470337 6.8708100000000005
2.5657723414244717 6.61158
2.588076895590662 7.429989999999999
2.610398946189713 7.885460000000001
2.6327210958598384 7.4523399999999995
2.6550259469304716 6.885839999999999
2.6773482972090137 7.746560000000001
2.6996533504259 7.83263
2.7219759047039602 8.41956
2.744298562293959 8.17656
2.7666039251246595 7.5075199999999995
2.7889267918020164 7.879410000000001
2.8112323652516555 8.16131
2.833555444408179 8.10379
2.8558786311183852 8.16213
2.8781845268938557 8.63888
2.9005079311721484 8.70227
2.9228140460410397 9.12727
2.9451376712799635 9.4577
2.967444008632326 9.7531
2.9897678582247247 9.79875
3.0120918213106695 10.3591
3.0343984987899373 11.0673
3.0567226913198637 11.2576
3.079029599759726 11.618
3.101354025127254 12.3248
3.123678568232338 12.9522
3.145985829517914 12.5546
3.16831061055229 13.2907
3.1906181112775593 14.0843
3.212943133635653 14.7959
3.2352682779763207 15.3109
3.2575761442691227 15.7644
3.2799015350264273 16.0811
3.302209649240067 15.8667
3.3245352898092655 16.7015
3.3468436553365257 17.2533
3.369169549113219 17.7734
3.3914955708171384 18.4906
3.413804319727358 18.8562
3.4361305997334863 18.7602
3.4584396084414553 19.3448
3.4807661501462652 20.1548
3.503092824025881 21.1287
3.5254022288463154 20.9562
3.5477291695206588 21.3509
3.5700388426251948 22.0462
3.5923660534916446 23.214000000000002
3.6146934007816114 31.1053
3.637003482731501 55.7958
3.6593311053109985 61.2603
3.681641464033634 40.2055
3.7039693653009733 27.8597
3.726297407241705 25.4911
3.7486081875460804 24.7174
3.7709365132734978 25.951
3.793247578841633 26.5145
3.8155761917550093 26.7992
3.8378875459837216 27.2491
3.8602164494827234 27.5003
3.882545499606844 28.0815
3.9048572932539183 28.8977
3.9271866390645718 29.1584
3.9494987298666713 29.8551
3.971828374764527 30.5704
3.9941581705403255 30.9924
4.016470713506008 31.0623
4.038800813471445 32.3262
4.061113662089144 32.582
4.0834440696459176 33.6741
4.105774632334751 33.9849
4.128087945865126 34.2476
4.150418821249301 34.7506
4.172732448931298 36.3152
4.195063640413578 37.5696
4.2173775856475215 40.0185
4.239709096631102 57.3696
4.262040768704612 140.862
4.284355196706267 183.50799999999998
4.306687193387355 122.15700000000001
4.329001947444346 60.9632
4.35133427213731 45.4955
4.373666762177566 43.8547
4.395982011761091 44.0183
4.418314834921175 45.053000000000004
4.44063041906622 49.5484
4.4629635787515625 55.6522
4.4852969080429785 56.2114
4.5076130004776225 52.5943
4.529946671403969 53.2567
4.552263106909177 55.2254
4.574597122877047 54.2362
4.596931312711224 53.7516
4.619248269273446 53.5787
4.6415828092605835 54.8987
4.663900117405352 56.183
4.686235010953232 57.6528
4.708552674085913 58.7822
4.730887924602802 60.3275
4.753223354952695 62.016000000000005
4.775541557023902 64.3002
4.797877349456786 66.4823
4.820195915032126 68.1968
4.842532072957498 68.5723
4.864868414979744 70.8348
4.88718753227192 74.0976
4.909524244902505 75.6487
4.931843734218147 76.7727
4.954180820867835 78.7931
4.976518095879839 82.336
4.998838149695359 84.9626
5.021175803844231 89.2031
5.043496238205739 92.3175
5.065834274903528 96.52
5.088172504230693 102.12200000000001
5.1104935158799565 109.506
5.132832132875765 128.19899999999998
5.155153533596801 162.591
5.1774925416746225 213.995
5.199814334878411 472.469
5.2221537374521505 1259.86
5.244493338631803 3216.41
5.266815727034316 7848.58
5.289155727832427 12257.8
5.311478517248165 8288.23
5.333818921080011 2787.13
5.356159527788849 578.056
5.3784829252032536 198.47299999999998
5.400823940070432 152.41899999999998
5.423147747031976 131.399
5.445489173474152 121.566
5.467830807066149 118.146
5.490155234831516 115.389
5.512497285125229 109.79799999999999
5.534822130975162 106.571
5.557164601388673 104.12299999999999
5.579489868738879 100.635
5.601832762690846 99.4043
5.6241758697774475 98.6096
5.646501775867269 97.3402
5.668845311622074 96.4843
5.691171647754637 95.9036
5.713515615597765 93.8824
5.735859800852677 93.3202
5.758186788542988 93.5973
5.780531411018185 95.6976
5.802858837297399 96.0164
5.825203900414495 96.2512
5.8475491852224 97.7503
5.869877275883075 97.31299999999999
5.892223006467101 96.6652
5.914551544266608 97.6712
5.936897724049891 100.931
5.959244129804903 108.912
5.981573344815301 141.976
6.0039202049061 269.796
6.026249875609095 555.571
6.04859719346037 1107.76
6.070927323278297 2351.22
6.093275102315365 4409.95
6.115623113320588 5493.23
6.137953938319995 3304.62
6.160302415650845 1012.66
6.182633708324452 241.808
6.2049826554078376 115.024
6.227331838745022 93.119
6.249663839443684 85.8958
6.27201349767565 82.2215
6.294345974611799 83.7058
6.316696111167083 88.2956
6.339046488263839 84.8729
6.361379686074702 75.9807
6.383730546639482 71.5489
6.406064229255215 69.7232
6.428415576718203 70.1981
6.450749747566656 68.4421
6.47310158535871 66.9193
6.495453669698332 65.9015
6.517788579421056 65.1472
6.540141159237969 63.8335
6.562476565766648 63.1705
6.5848296444934045 63.3102
6.607182974060425 63.0594
6.6295191323281015 62.7417
6.651872965955752 63.9365
6.6742096296068985 77.2378
6.6965639707294615 100.55799999999999
6.71891856698715 100.071
6.741255995248479 77.414
6.763611104154477 63.4196
6.785949046381137 59.5719
6.808304671371482 58.9241
6.8306605557940046 59.7789
6.852999275508618 58.7779
6.875355681171544 57.7987
6.897694923437771 57.1794
6.92005185377892 56.7142
6.9423916220322655 56.3876
6.964749080490181 55.8018
6.987106804399774 55.8182
7.009447368180821 55.9053
7.031805625367033 55.6958
7.054146723727803 55.5981
7.076505517631004 55.7477
7.098864581288365 55.5148
7.121206488070854 55.364
7.143566093607822 55.4508
7.165908543567245 55.8827
7.188268694426048 55.8972
7.2106291193438095 55.5121
7.232972390625943 55.7051
7.255333366030969 62.3711
7.277677189091925 89.9895
7.300038718428332 112.95
7.322400526130865 99.0493
7.344745183422596 71.7827
7.367107550224791 57.9101
7.389452767901992 55.5089
7.411815697249891 54.8487
7.434161478756298 54.3855
7.456524974096713 54.1768
7.478888753837185 54.3462
7.501235387657368 54.5048
7.523599738562711 54.5754
7.545946944825532 55.1115
7.568311870344528 55.2472
7.5906770845765665 55.3686
7.613025156078678 56.1407
7.635390950099687 56.6433
7.657739602662809 55.9501
7.680105979923558 56.0471
7.702472650212829 56.6601
7.724822180948224 56.3517
7.747189439655568 56.5157
7.769539560075357 56.1735
7.791907410653562 56.8143
7.81425812420825 56.8905
7.836626570110925 57.1191
7.858995315087906 58.1331
7.881346924933401 58.5035
7.903716270417482 59.0307
7.926068482028405 58.7524
7.948438431475253 59.2971
7.9708086843180235 59.9869
7.993161805171116 60.5152
8.015532667162402 61.3773
8.037886398416653 62.1259
8.060257873014221 62.9763
8.082629655331942 63.8574
8.104984308787587 64.369
8.127356708900503 66.8583
8.149711981398308 70.6628
8.172085002766314 72.7665
8.194458336181368 70.9894
8.216814543847752 69.358
8.23918850371002 69.5568
8.26154533906492 70.6888
8.283919928836452 72.3172
8.306277395339652 73.5222
8.328652618483376 74.9488
8.351028159736202 77.05199999999999
8.373386579575245 79.3555
8.395762759396959 81.7138
8.418121819038275 85.3206
8.440498640894003 94.353
8.462875785192262 107.57700000000001
8.485235811156207 135.44799999999998
8.507613602688501 196.545
8.529974277114228 292.127
8.552352719347912 437.80300000000005
8.574731488360351 715.617
8.59709314210385 1239.13
8.619472567021075 1881.18
8.64183487789147 2208.25
8.664214962183097 1732.72
8.686577933647762 925.623
8.708958680784317 361.95099999999996
8.731339760774953 158.607
8.753703729764451 111.00399999999999
8.77608547780821 99.8986
8.798450116065078 96.0003
8.820832535634787 93.2886
8.843215292401656 92.8337
8.865580941199045 91.8356
8.887964374703538 90.7152
8.910330701447199 90.7406
8.932714815164482 91.309
8.955099270424924 89.8303
8.977466620733543 87.9164
8.999851761421976 85.6572
9.022219798361645 84.3641
9.04460562795561 84.2749
9.066991803441677 83.9166
9.089360876979615 84.1237
9.111747746589993 83.6653
9.13411751544971 83.2199
9.156505082664324 82.6474
9.178875550323522 82.853
9.20126381862328 82.7753
9.223652438908596 82.9683
9.246023961427412 83.1399
9.26841328802173 82.7785
9.290785518039224 83.3716
9.313175554425882 84.5071
9.335565947154315 84.7683
9.357939245086508 85.2408
9.380330352834827 85.0191
9.40270436697103 85.228
9.425096193225055 84.59200000000001
9.447488380180165 85.3086
9.469863475295412 85.3943
9.492256385987508 85.5842
9.514632206018318 86.07600000000001
9.537025843935714 86.6691
9.559402392368193 87.331
9.581796761000229 89.2405
9.604191496441521 90.5876
9.626569144158516 93.291
9.648964615551032 95.5338
9.671343000390081 95.6669
9.693739211225699 94.6589
9.716135793237463 93.5009
9.738515290448102 93.8396
9.760912617143402 95.2495
9.783292860202891 97.2553
9.805690935076182 98.92299999999999
9.828089385495742 99.7535
9.850470754023561 101.52799999999999
9.872869957865444 106.39200000000001
9.89525208097539 115.235
9.917652041736662 124.257
9.940052382417589 132.685
9.962435644102392 159.945
9.984836746950979 209.051
10.007220771957746 274.105
10.029622640473708 381.341
10.052007432299963 572.957
10.074410069984072 865.064
10.096813093716005 1282.34
10.119199042482517 1713.17
10.141602840636468 1891.07
10.163989564971628 1525.65
10.186394141051062 844.0889999999999
10.208799107559706 367.879
10.231187001965623 178.669
10.253592751657669 125.262
10.275981430388155 113.443
10.298387966769793 111.338
10.320794897965431 111.88
10.343184759907361 110.21
10.36559248305461 107.346
10.387983138083852 106.939
10.410391656691655 114.896
10.432800574501677 128.05
10.455192425893369 144.37
10.47760214443012 171.601
10.499994797678786 218.31
10.522405320453982 299.759
10.54479877906917 411.63199999999995
10.567210109595656 520.026
10.5896218454736 565.474
10.612016518879773 491.50800000000004
10.634429067781074 328.29
10.656824555333241 191.115
10.679237920773568 119.82700000000001
10.701651695961992 95.4111
10.724048411481384 89.7212
10.746463008485165 86.9581
10.768860546937125 85.2209
10.791275969274796 83.6606
10.81369180576079 82.5169
10.836090585366925 81.6937
10.858507252467449 80.2884
10.88090686379991 79.3052
10.903324365036394 78.5968
10.925724811614439 78.0361
10.948143150509463 79.133
10.970561909719066 78.0388
10.992963615930844 76.9678
11.015383218085756 75.1936
11.037785768347074 73.9315
11.06020621697282 72.9364
11.082627090322113 72.5728
11.105030913430326 72.1508
11.12745263854165 71.8653
11.149857314510728 73.3247
11.172279894912576 76.4278
11.194702904450653 76.3671
11.217108866490921 73.7077
11.239532736615194 71.488
11.26193956033512 70.0655
11.284364294577085 69.2446
11.306789462371718 68.0574
11.329197585398376 67.4936
11.351623622610898 67.15
11.37403261614354 66.4869
11.396459526308487 66.4008
11.418869393879497 66.0094
11.441297180532617 65.6729
11.463725406927658 65.0784
11.486136592353875 65.3558
11.508565700543707 65.1649
11.530977768845315 66.2099
11.553407762368774 66.0073
11.575838200059769 66.0998
11.598251599479612 64.8924
11.620682927815501 64.0269
11.64309721895548 63.7254
11.665529441478206 63.6175
11.687962112597958 63.1558
11.710377748130886 63.4444
11.732811318753434 63.3191
11.755227854859067 63.3483
11.777662328529495 63.0691
11.800079768750786 62.6688
11.822515149015453 62.9693
11.844950984084935 63.1435
11.867369787303163 62.8942
11.889806534289491 62.9672
11.912226250487029 63.131
11.934663912939751 63.3755
11.9571020346363 63.3445
11.979523127133968 63.6209
12.001962169624331 64.8667
12.024384183972964 67.0748
12.046824150809913 70.8922
12.069264581333726 75.7233
12.091687985297767 81.9125
12.11412934550045 91.2977
12.136553680195208 106.67200000000001
12.158995973632788 130.22799999999998
12.181438735204349 155.941
12.20386447284199 183.84099999999998
12.226308172985636 201.405
12.24873485024193 196.019
12.271179492516982 161.099
12.293607112949127 119.884
12.316052700916226 89.0639
12.338498763250042 74.0371
12.360927805303868 68.0254
12.383374818673879 65.6591
12.405804812803074 64.7352
12.428252780773262 64.635
12.45070122756722 64.7172
12.473132656675375 64.605
12.49558206341869 65.0389
12.518014453510101 65.1237
12.540464823770117 65.19
12.562915677315177 65.2664
12.58534951575545 65.7468
12.607801338171472 66.7034
12.630236146511358 69.4425
12.652688941369085 71.9
12.675124723177234 72.6348
12.697578494048786 71.1119
12.720032754458185 68.9773
12.742470003354093 68.1721
12.764925245138771 68.179
12.787363476431278 68.439
12.809819703166806 68.97800000000001
12.83227642391173 69.8034
12.854716135692716 70.2569
12.877173846755147 71.6748
12.899614549869717 71.8256
12.9220732548287 72.8146
12.94453245827299 73.4717
12.966974655289818 74.4098
12.989434858002571 74.9134
13.011878055298721 75.7613
13.034339260862497 76.8207
13.056800969391883 78.0854
13.079245674017244 81.2454
13.101708390774869 85.7715
13.12415410463411 95.2265
13.146617833206086 106.43700000000001
13.169064559883248 117.845
13.191529303857127 133.565
13.213994557076367 158.579
13.236442809902437 197.702
13.258909083908291 252.611
13.28135835851934 311.45099999999996
13.30382565690295 375.059
13.326293469022952 424.61800000000005
13.348744283242008 421.56800000000004
13.371213125129904 343.23199999999997
13.39366497011003 248.863
13.416134845360597 164.56400000000002
13.438605238843131 121.12
13.46105863690397 109.087
13.483530069144786 110.927
13.505984506951902 116.226
13.528456981549432 126.57600000000001
13.550929978879088 142.964
13.573385983253365 168.28799999999998
13.595860028340867 207.639
13.618317081455832 256.03700000000003
13.64079217790333 309.42
13.663250283359057 350.88
13.685726434770173 365.741
13.708203115221277 330.603
13.730662806148091 251.635
13.75314054697177 180.28799999999998
13.775601299246777 125.45700000000001
13.798080104050406 96.8113
13.820559442405358 85.6233
13.843021793671388 82.454
13.865502201420897 80.5412
13.887965623051947 80.1087
13.910447103807167 79.1497
13.932929122629764 77.7174
13.955394156785959 77.4148
13.977877254034569 76.248
14.000343367582113 75.6425
14.022827546871707 75.0969
14.045294743423524 74.4525
14.06778000837062 73.7611
14.090265817715476 73.4937
14.112734645763819 73.0905
14.13522154619454 72.6634
14.157691466286913 72.5226
14.180179461423874 72.268
14.202668005486178 72.071
14.22513957064374 71.4686
14.247629214846473 70.8007
14.270101881097517 70.6187
14.29259262906496 70.8558
14.315083930490205 71.0673
14.337558255389705 71.1633
14.360050666019726 70.9285
14.382526101071944 70.2174
14.405019624534942 69.8711
14.427513705993134 69.3211
14.449990813291825 69.4478
14.47248601302899 69.2511
14.49496423954951 69.4046
14.517460561197822 69.4979
14.539939910570322 69.2801
14.562437357763558 69.4414
14.58493536931253 70.4714
14.607416409993311 70.5785
14.62991555254159 71.155
14.652397725157423 71.4272
14.674898002342799 71.5273
14.697398848433282 71.2817
14.719882725991326 72.5899
14.74238471217934 74.7907
14.764869730765593 78.9802
14.787372860692983 82.2951
14.809876564079925 86.4359
14.83236330125751 92.7022
14.854868153850365 101.98700000000001
14.877356041159485 116.557
14.899862046604186 135.34799999999998
14.922351087688757 158.957
14.944858249632887 186.297
14.967365991421232 210.622
14.989856770231246 223.61700000000002
15.012365673994204 215.78099999999998
15.03485761569738 184.36900000000003
15.05736768508665 144.506
15.07987833888692 111.20100000000001
15.102372032001655 88.9952
15.124883856909658 76.8753
15.14737872204565 72.4049
15.169891721717274 70.7271
15.192405310371893 70.5049
15.214901940621196 70.4106
15.237416709527137 70.1393
15.259914520936249 70.1609
15.282430473753607 69.3785
15.304947020131227 68.7148
15.327446610371178 68.1777
15.349964346154254 67.5057
15.372465126703139 67.1773
15.394984055556009 67.012
15.417486030076159 66.8663
15.44000615566487 66.518
15.462526881230803 66.4572
15.485030653812652 66.4208
15.507552581617434 66.5594
15.530057557334603 66.5527
15.55258069104857 66.7115
15.575104429329837 66.7112
15.597611216864632 66.5657
15.620136166564563 67.2831
15.6426441664095 69.214
15.665170331202765 72.0068
15.687697105158826 75.057
15.710206930593545 78.3457
15.732734925158933 82.6747
15.755245972089478 89.3502
15.77777519094324 99.1833
15.800287463046663 112.777
15.822817909869592 131.241
15.84534897229804 151.247
15.867863089299354 173.011
15.890395385222186 189.481
15.912910736597423 193.24
15.935444269699861 179.762
15.957978423016485 150.045
15.980495633101265 118.79
16.003031029129367 93.3622
16.02554948280019 75.1942
16.048086125229432 66.9977
16.070623392487107 64.8035
16.09314371869582 63.748999999999995
16.11568223789321 62.8036
16.13820381691126 62.0448
16.160743591742527 61.5186
16.183283996022084 60.8455
16.205807461423195 59.6718
16.228349126881973 59.1887
16.25087385432698 59.077
16.27341678466365 58.5181
16.29594277784926 58.5063
16.31848697676433 58.4665
16.341031811604868 58.4201
16.36355971058487 58.5206
16.3861058195587 58.4413
16.40863499352978 57.38399999999999
16.431182380342005 56.8218
16.453730407713202 56.3015
16.476261501364792 56.0458
16.498810812136167 55.79
16.52134319004079 56.0573
16.54389378792203 55.9012
16.566445031001553 55.5571
16.588979342490088 55.5709
16.61153187824822 55.3541
16.634067483263312 55.2679
16.656621315414416 55.2909
16.679175797408888 54.8949
16.701713349928728 54.7434
16.72426913389191 55.251999999999995
16.74680798922351 55.137
16.76936507887444 55.1039
16.791905240734874 55.2346
16.814463639794468 55.2104
16.837022695210294 55.1966
16.859564824093756 55.471000000000004
16.882125194503903 55.67100000000001
16.904668639217885 56.2658
16.927230328348003 56.2599
16.949792678493612 56.4316
16.972338104193863 56.1613
16.994901778652235 55.9375
17.017448529496576 56.0314
17.040013531998152 56.2758
17.06257920018044 57.0512
17.0851279459922 57.7963
17.107694947817667 58.6116
17.130245028099072 59.2101
17.15281336730298 60.9159
17.17536478578733 62.7061
17.19793446610687 65.2437
17.220504818648422 68.1038
17.243058251703697 71.2119
17.265629950971032 75.2952
17.288184731571736 79.4191
17.310757781306908 82.3451
17.33333150794385 83.8199
17.355888317140174 81.7424
17.37846339986244 77.0163
17.401021565958885 70.8534
17.42359800851343 65.7175
17.44617513265564 62.1678
17.468735341390783 60.4718
17.491261035594565 59.6502
17.51396340099364 59.4132
17.536490463869136 59.6257
17.559018209820174 59.4038
17.58154663977963 59.6006
17.604251766089718 59.8538
17.626781572227713 60.0829
17.64931206518155 60.206
17.671843245885103 60.6364
17.69455114821572 60.9442
17.717083712612634 61.3619
17.739616967569667 61.4758
17.762150914021706 61.9255
17.78486160749854 62.1677
17.807396945166804 63.1458
17.829932977143503 64.4027
17.85246970436452 66.3078
17.875183204129467 68.0771
17.897721330097664 69.9818
17.920260154126645 72.3403
17.942799677153296 75.5376
17.9655159983646 79.7069
17.988056927677544 85.5305
18.010598558807683 93.2649
18.033140892692916 102.93799999999999
18.05586005052525 113.351
18.07840379824407 123.819
18.10094825154059 134.58700000000002
18.12366954819864 141.52
18.146215420998306 141.261
18.16876200220057 132.05100000000002
18.191309292745153 116.993
18.214033452627167 102.89399999999999
18.236582170236648 91.706
18.259131600016456 87.1969
18.281681742907335 87.9563
18.304408781233683 92.0241
18.32696035875955 96.8796
18.349512652227624 101.27600000000001
18.372065662579683 105.302
18.394795594587553 106.303
18.41735004715306 101.79799999999999
18.43990521943684 95.2145
18.46246111238171 86.0236
18.485193953325208 76.5714
18.507751296070428 69.54
18.530309362314178 66.0097
18.552868153000343 63.7507
18.57560391815056 62.5262
18.59816416623245 62.1074
18.620725141597372 61.7175
18.643286845190268 61.1084
18.666025549835414 60.7083
18.688588718427933 60.1123
18.711152618092243 59.8826
18.73389353884365 59.7562
18.75645890921984 59.4453
18.77902501351406 59.3417
18.801591852673102 59.07
18.824335739722738 58.3756
18.846904057212626 58.5591
18.8694731124168 58.2598
18.89204290628315 58.3153
18.914789774966803 58.0013
18.937361054791623 57.6096
18.959933076131318 57.3078
18.982505839934877 57.4779
19.00525570560582 57.4217
19.027829963004184 57.3643
19.05040496572238 57.4885
19.072980714710468 57.5147
19.095733592739563 57.8965
19.11831084296757 57.8647
19.140888842324735 58.4404
19.16346759176222 58.7379
19.18622349753803 59.2299
19.208803755869358 60.1315
19.231384767143577 61.364
19.253966532312948 63.0353
19.276725481241822 65.2246
19.29930876296784 67.6169
19.3218928014549 70.3139
19.34465404436217 72.9708
19.36723960516257 75.3657
19.389825925592426 76.2035
19.412413006605938 74.9983
19.43517731967805 71.9469
19.457765930683355 67.4031
19.48035530514408 62.9608
19.50294544401556 59.2518
19.525712842708348 56.8997
19.54830451925909 55.5085
19.570896963095727 54.4932
19.593490175174704 54.1851
19.616260674962184 54.2504
19.638855432416964 53.9329
19.661450960992624 54.1407
19.68404726164677 54.0391
19.706820878021247 53.7664
19.729418731756834 54.1651
19.752017360452857 53.8396
19.77461676506804 54.2322
19.797393513540218 54.3092
19.819994478951667 54.5566
19.84259622316767 55.0461
19.8651987471481 55.3628
19.887978643247177 55.5727
19.91058273574792 56.0404
19.933187610901943 56.9731
19.955969879466828 58.2677
19.97857632894404 59.7272
20.00118356396599 61.4751
20.023791585494575 63.5279
20.046577028914875 65.9977
20.069186632506966 68.1028
20.091797025500632 69.7391
20.114408208858933 70.0895
20.137196842715273 69.7974
20.159809615886765 68.2466
20.18242318232135 65.6645
20.20503754298326 63.7456
20.227829382875154 62.6635
20.250445341109344 62.6562
20.27306209647285 63.0183
20.29567964993108 64.1587
20.31847471147704 65.4489
20.34109387027612 65.734
20.363713830075454 65.3448
20.386334591841646 64.2208
20.409132890679302 61.5238
20.431755265564437 58.2296
20.454378445325528 55.481
20.477002430930366 53.5239
20.499803982716553 52.3051
20.522429589228004 51.531000000000006
20.54505600449589 51.0835
20.567683229489194 51.011
20.590488049900088 50.696000000000005
20.61311690359731 50.5047
20.63574656993626 50.4607
20.658553853717297 50.0556
20.681185154618298 50.1479
20.703817271080066 49.8481
20.72645020407368 49.5558
20.749260783967177 49.5381
20.771895359337133 49.3093
20.794530754161617 49.2624
20.817166969412938 49.0122
20.83998086114876 49.0753
20.86261872660049 49.0205
20.885257415405402 49.1586
20.90789692853701 49.147
20.930714147864748 48.9957
20.953355319030678 49.0912
20.97599731745334 49.2097
20.99864014410749 48.849
21.021460706796564 49.0049
21.044105199328826 49.3527
21.06675052302631 49.2658
21.089396678865015 49.6236
21.112220600704806 49.9804
21.134868430275347 50.3361
21.15751709492456 50.597
21.180166595629693 50.8269
21.202993892429635 51.2103
21.22564507473034 51.5831
21.24829709602816 51.7855
21.27112693608965 51.8406
21.293780644891275 51.7756
21.316435195634053 50.8957
21.339090589297417 50.2889
21.361923832041875 49.861000000000004
21.384580921090404 49.2139
21.407238856007325 48.6272
21.429897637773326 48.7572
21.45273429906592 48.7051
21.475394784108598 48.8509
21.498056118951983 48.646
21.520718304578022 49.011
21.543558400304388 49.2051
21.566222297108816 49.3975
21.58888704765135 49.4418
21.61155265291521 49.8666
21.63439619898156 50.2925
21.657063523335786 50.5251
21.67973170537063 50.9298
21.7024007460706 51.527
21.72524775840385 52.4585
21.747918526116475 53.3754
21.770590155457388 54.7275
21.79326264741238 56.3066
21.816113141960237 57.99100000000001
21.838787368860547 59.6587
21.861462461341976 61.3577
21.884315579735777 63.2815
21.90699241312273 64.5841
21.92967011506078 65.0648
21.95234868653799 64.778
21.9752053151131 63.3659
21.997885635446785 61.4225
22.020566828293532 59.6492
22.04324889464272 57.9044
22.066109049404666 56.6601
22.088792872571794 56.3201
22.111477572219204 56.2665
22.1341631493376 56.4808
22.157026846313123 56.2939
22.179714188221507 55.5525
22.202402410582668 54.4121
22.22509151438863 53.0326
22.24795876962584 51.4862
22.270649646204486 50.5765
22.293341407213727 50.053000000000004
22.316034053646906 49.6359
22.338904883215342 49.4598
22.36159931041458 49.2996
22.38429462602756 49.3278
22.40699083104897 48.8759
22.429865251039757 49.0613
22.452563244831367 49.0619
22.47526213102522 49.1121
22.49813925616515 49.1139
22.520839937143307 48.8755
22.543541513520587 49.0037
22.56624398629403 48.9321
22.589124730075895 48.9932
22.611829005656723 49.2902
22.63453418063466 49.0814
22.657240256008077 49.4535
22.680124634582935 49.4874
22.70283252079775 49.785
22.725541310413075 49.9279
22.74825100442868 50.1942
22.771139033969575 50.6346
22.79385054687155 51.0039
22.81656296718292 51.7013
22.83927629590484 52.6079
22.862167992606945 53.6138
22.88488314827121 54.6506
22.907599215359284 55.5675
22.93031619487366 56.5913
22.953211574954405 57.2996
22.975930389478226 58.3478
22.998650119445763 58.3562
23.02137076586092 57.4688
23.044269845560063 55.9935
23.06699233506288 54.474
23.089715744034912 52.7858
23.112617610931565 51.2766
23.135342869061212 50.038999999999994
23.158069049684816 49.4522
23.1807961538087 49.0462
23.20370174880544 49.0573
23.226430710184808 49.357
23.249160598093425 49.415
23.271891413539002 49.428999999999995
23.294800752937697 49.2903
23.31753343374794 49.5016
23.340267045128353 49.8266
23.36300158808808 50.0811
23.38591468821339 50.2662
23.408651104658304 50.8645
23.431388455719986 51.5055
23.454126742409 52.2405
23.4770436196085 53.3647
23.499783787914662 54.4932
23.522524894889884 55.3594
23.54526694154616 56.1468
23.56818761219047 57.3085
23.59093154860734 57.9642
23.613676427751283 58.2591
23.636422250635754 57.1747
23.659346731118656 55.5415
23.68209445191868 53.5905
23.704843119509587 51.592
23.72759273490623 49.7968
23.750521041644767 48.2932
23.77327256312355 47.313
23.796025035462787 46.6956
23.818956224555475 46.4465
23.841710609113413 46.2731
23.86446594758979 45.9966
23.887222241002014 45.6816
23.910157285144578 45.5468
23.932915498962537 45.574
23.955674670778713 45.358000000000004
23.978434801611975 45.2025
24.001373717286125 45.0053
24.024135776723917 44.9226
24.046898798245582 44.799
24.06966278287146 44.8532
24.092605586582614 44.6212
24.115371508023642 44.3105
24.1381383956401 44.1649
24.16090625045381 44.2888
24.183852958731244 44.1515
24.206622758582608 44.2051
24.229393528706886 43.9504
24.252165270127392 44.005
24.27511589952438 43.9071
24.297889594216997 43.8616
24.32066426328598 43.6738
24.34343990775613 43.6274
24.36639447485003 43.4768
24.38917208083877 43.4659
24.41195066531332 43.4578
24.43490819850244 43.3117
24.457688750692377 43.2051
24.48047028445616 43.0918
24.503252800821233 43.3581
24.526214300784112 43.3175
24.548998793132213 43.3346
24.57178427117417 43.0643
24.59457073593893 43.2153
24.617536219319863 43.2948
24.64032466834748 43.188
24.663114107195035 43.1747
24.685904536893013 42.8112
24.708874020360852 42.6854
24.731666442613744 42.6871
24.754459858818787 42.7096
24.777254270007962 42.6099
24.80022777025625 42.4673
24.82302418230472 42.5908
24.845821592443674 42.4881
24.86862000170663 42.4366
24.891597535453727 42.2855
24.914397953892728 42.5992
24.93719937456671 42.5128
24.96000179851076 42.7619
24.98298338249997 42.9418
25.00578782394922 43.1477
25.028593271784167 43.3592
25.05157790644186 43.6061
25.07438537804115 43.7527
25.097193859145293 43.9413
25.120003350792075 44.1387
25.142992065061257 44.4221
25.165803588823465 44.7714
25.18861612625217 44.9797
25.211429678386736 45.0555
25.234422489079968 45.0865
25.257238081693636 45.0716
25.280054692141732 45.1581
25.3028723214652 45.2169
25.325869245420463 45.2285
25.348688923599397 45.1279
25.371509623787006 45.1809
25.394331347025812 44.9026
25.41733240110666 44.3245
25.440156181590016 43.6907
25.46298098826268 43.0529
25.48580682216873 42.5623
25.50881202326435 42.0578
25.53163992281684 41.7154
25.55446885274561 41.4804
25.577298814096377 41.1752
25.600308179121807 41.0571
25.623140214533745 41.1764
25.64597328451537 41.0408
25.66898578564376 40.8275
25.691820936010206 40.8736
25.714657124097695 40.7819
25.737494350954734 40.7459
25.760511045684957 40.6824
25.783350361364224 40.7359
25.806190718969255 40.7637
25.82903211955018 40.8887
25.852053024868923 40.9875
25.874896522722523 41.0365
25.897741066713106 40.9152
25.920586657892454 41.0353
25.943611790812668 41.1169
25.966459487728237 41.381
25.989308234998564 41.2679
26.01215803367705 41.6557
26.03518741123814 41.7691
26.05803932412957 41.9337
26.080892291600094 41.8919
26.10374631470478 41.8971
26.12677995397268 41.993
26.14963609978026 41.9499
26.172493304397875 41.5556
26.19535156888223 41.3616
26.218389486949604 41.0144
26.241249882640123 40.6999
26.26411134137826 40.5234
26.28715248187403 40.5256
26.31001607820869 40.4149
26.3328807407756 40.2682
26.35574647063438 40.4153
26.37879191991473 40.3972
26.401659795896734 40.3962
26.424528742360263 40.5149
26.447398760366614 40.7748
26.470448535598294 40.9148
26.49332070826805 40.9978
26.516193955675355 41.4066
26.53906827888316 41.5549
26.562122397260108 41.6351
26.584998883685063 41.9825
26.607876449110325 42.2191
26.63075509460056 42.333999999999996
26.65381357334404 42.463
26.67669439061878 42.4858
26.699576291163382 42.3797
26.722459276044212 42.1445
26.745522132402975 41.8056
26.768407297649354 41.6614
26.791293550442003 41.2628
26.814180891848974 41.0919
26.837248143099337 40.8648
26.860137673466657 40.6855
26.88302829566349 40.5546
26.90592001075963 40.3697
26.92899167420566 40.1539
26.951885586870763 39.6152
26.974780595655517 39.5871
26.99785558178161 39.5136
27.020752794605112 39.3999
27.043651106772522 39.2531
27.06655051935668 39.1711
27.089629948036183 38.8982
27.112531573292053 38.975
27.135434302194138 39.0681
27.158338135817015 38.9266
27.181422024430987 38.8307
27.204328079372566 38.75
27.22723524226965 38.7851
27.250143514198573 38.9311
27.273231880156334 38.8219
27.296142382065014 38.6479
27.319053996245536 38.7089
27.341966723775965 38.7386
27.365059584515222 38.7174
27.38797455070062 38.7668
27.410890633481237 38.7515
27.433807833936918 38.6257
27.456905206923906 38.7842
27.47982465472398 38.8714
27.502745223449743 38.874
27.525666914182825 38.9691
27.548768816912457 39.0928
27.571692763693633 38.8069
27.59461783573812 38.7071
27.617723149491244 38.5318
27.640650484125285 38.4845
27.66357894728264 38.2328
27.686508540048052 38.2708
27.709618414237887 38.2508
27.732550278321757 38.1455
27.755483275279115 38.1183
27.778417406196485 38.1948
27.801531858397514 38.119
27.824468269376716 38.0718
27.847405817586786 38.1069
27.870344504116094 38.3308
27.893463551932008 38.3698
27.916404527281053 38.5847
27.93934664422563 38.7659
27.962289903855886 38.7991
27.98541356491974 38.866
28.00835912214229 38.9554
28.03130582533231 39.2894
28.054253675581805 39.3708
28.077381967556104 39.3549
28.100332124185126 39.2753
28.123283431160893 39.1617
28.146235889577238 39.0081
28.169368830154156 38.8274
28.192323603752033 38.6277
28.215279532083304 38.3312
28.238415973016764 38.2497
28.261374223145094 37.9832
28.284333631303806 37.7703
28.307294198589954 37.7759
28.330435319167677 37.3842
28.353398217078915 37.0912
28.376362277420153 36.9812
28.39932750129032 36.7925
28.422473319286713 36.5887
28.44544088262495 36.5384
28.468409612800283 36.4213
28.491379510913497 36.319
28.51453004413313 36.2517
28.53750229057244 36.2959
28.56047570826344 36.2175
28.583450298308804 36.1704
28.606605564586562 35.8837
28.629582511831156 36.0098
28.65256063474956 35.8437
28.675539934446338 35.9178
28.698699951647605 35.7725
28.72168161743193 35.6979
28.74466446331978 35.7402
28.767648490417624 35.6151
28.790813276438353 35.5731
28.813799678527303 35.7288
28.836787265157085 35.6334
28.859955641890075 35.6746
28.882945610203045 35.6637
28.905936766392035 35.6327
28.928929111566863 35.5391
28.952102288520145 35.5151
28.975097024308607 35.3876
28.998092952423807 35.2891
29.021090073977508 35.2164
29.04426806913204 35.0782
29.067267590245258 34.8102
29.090268308143695 34.7447
29.11327022394099 34.8562
29.13645305530891 34.5946
29.159457379627167 34.6154
29.18246290519685 34.4701
29.20546963313352 34.4856
29.22865731875826 34.5933
29.25166646419296 34.577
29.27467681535305 34.4415
29.29768837335608 34.4401
29.320880931312562 34.556
29.34389491580634 34.4523
29.366910110507334 34.4373
29.38992651653503 34.4973
29.41312396492981 34.4368
29.436142806456754 34.3058
29.45916286268059 34.3261
29.48236399319994 34.1489
29.50538649169417 34.0625
29.528410208259935 33.899
29.55143514402014 33.6975
29.574641196749695 33.5645
29.597668583816574 33.5016
29.6206971934585 33.3849
29.64372702680042 33.4201
29.666938019934474 33.363
29.689970313635285 33.2372
29.713003834422636 33.2203
29.73603858342347 33.234
29.759254535188578 33.0843
29.78229175361658 33.0666
29.80533020365064 33.1184
29.82836988641968 33.1331
29.85159081507472 32.9874
29.874632976355343 33.032
29.89767637376955 33.0276
29.920721008448314 32.7449
29.9439469322847 32.8805
29.96699405457564 32.8403
29.9900424175358 32.8556
30.013092022298157 32.8609
30.03632295963995 32.6699
30.059375061131373 32.7403
30.08242840783577 32.7918
30.105483000888153 32.6078
30.128718970092244 32.6636
30.151776069006917 32.6514
30.17483441768648 32.707
30.198074175317235 32.6543
30.221135036724256 32.6793
30.24419715131772 32.5542
30.267260520236203 32.5561
30.290505341942243 32.5631
30.313571232750228 32.4959
30.336638381310948 32.4604
30.35970678876503 32.3874
30.38295669299435 32.3936
30.40602763151657 32.3579
30.429099832366074 32.3859
30.452173296685572 32.3366
30.47542830191959 32.3529
30.498504306502497 32.3517
30.521581577995562 32.3979
30.544660117543582 32.3874
30.56792024229725 32.3279
30.59100133132069 32.2904
30.614083691845494 32.3046
30.637167325018545 32.4376
30.660432587840603 32.4513
30.683518779717886 32.3916
30.70660624769615 32.3535
30.729694992924372 32.356
30.75296541239743 32.4842
30.77605672557558 32.335
30.799149319462742 32.311
30.8224236211637 32.1037
30.845518789950724 32.1242
30.868615242910597 32.1504
30.891712981195973 31.9381
30.91499247215866 31.7984
30.938092794619365 31.7702
30.96119440587579 31.6543
30.984297307082752 31.6092
31.00758200598383 31.5728
31.030687500658694 31.4093
31.053794288760695 31.3993
31.076902371446767 31.2537
31.100192296997445 31.3492
31.12330298246119 31.3784
31.14641496599209 31.1868
31.169528248749216 31.3191
31.19282341969534 31.2661
31.215939314557186 31.2658
31.239056512134788 31.279
31.262175013589378 31.1814
31.28547544871168 31.1937
31.30859657161541 31.0975
31.331719001892175 31.0665
31.35484274070538 31.0977
31.378148458819545 31.1657
31.401274828443725 31.206999999999997
31.424402510106933 31.1306
31.447712205419993 31.2268
31.470842524931633 31.003
31.493974159989783 31.1245
31.51710711176168 30.98
31.54042212308802 31.0391
31.563557722100917 30.897
31.586694641341655 30.8226
31.609832881979628 30.699
31.63315322823208 30.5922
31.656294125521327 30.5229
31.679436347728515 30.4979
31.70257989602529 30.3534
31.725905596152327 30.4502
31.74905181052835 30.3478
31.772199354521323 30.3775
31.79534822930507 30.3635
31.818679302290967 30.4277
31.84183085259981 30.337
31.864983737233473 30.326999999999998
31.88813795736804 30.3703
31.911474422233013 30.2021
31.934631327356435 30.3212
31.9577895715215 30.2768
31.980949155906522 30.205
32.004291031706956 30.1459
32.027453310562606 30.0542
32.05061693318573 30.0194
32.07396288236386 30.059
32.09712920658542 29.9516
32.12029687812702 29.813000000000002
32.14346589817093 29.7594
32.166817291729984 29.6734
32.18998902288583 29.6255
32.21316210610336 29.5828
32.23633654256711 29.4851
32.259693399663725 29.4691
32.282870556771144 29.3547
32.30604907069099 29.3524
32.329228942610065 29.3572
32.35259128243769 29.1836
32.375773884550505 29.1413
32.398957848235646 29.1085
32.422143174682176 29.0677
32.445511016471215 28.9404
32.468699082679954 28.8979
32.49188851523011 28.8914
32.51507931531304 28.8797
32.538452678331 28.8421
32.56164622776311 28.7114
32.58484114831493 28.5529
32.60803744118015 28.7045
32.631416344731896 28.6169
32.654615396551876 28.6417
32.67781582427913 28.5927
32.701198898634416 28.5991
32.72440209253756 28.5469
32.747606665947124 28.5485
32.77081262006088 28.408
32.79420126883317 28.3667
32.81740999876112 28.337
32.840620112999424 28.3008
32.86383161274818 28.1904
32.88722585534586 28.2459
32.91044014056596 28.3163
32.933655814909734 28.2434
32.95687287957963 28.1923
32.98027273544904 28.0257
33.00349259526636 28.0012
33.026713849030116 28.0832
33.04993649794511 28.0614
33.073341986570746 28.0132
33.09656744032826 27.9685
33.11979429286444 28.0209
33.14302254538647 28.0118
33.166433686291185 27.9571
33.18966475336992 27.8798
33.212897224069096 27.7925
33.23613109959831 27.7693
33.259547912343415 27.6671
33.2827846121627 27.7287
33.306022720453775 27.6205
33.32926223842861 27.5563
33.352684742614166 27.5902
33.37592709463173 27.5199
33.399170859982064 27.4551
33.422597648419426 27.4647
33.44584425514446 27.2595
33.46909227885668 27.2075
33.4923417207723 27.1367
33.51577423505344 27.1828
33.539026528130385 27.1379
33.56228024307245 27.0929
33.585535381098246 26.9965
33.60897364093058 26.9235
33.63223163992385 26.945999999999998
33.6554910656699 26.8158
33.678751919389796 26.7964
33.702195944520106 26.8248
33.72545966903325 26.748
33.74872482519663 26.6551
33.771991414233746 26.6618
33.79544122444841 26.6446
33.81871069412428 26.6132
33.84198160035767 26.5722
33.86525394437455 26.5741
33.88870955949969 26.5598
33.911984794020626 26.4718
33.93526147001624 26.4555
33.958539588715006 26.5015
33.98200102861669 26.2599
34.0052820477047 26.1749
34.02856451319451 26.2101
34.05203033759056 26.1189
34.07531571090147 26.1744
34.09860253431845 26.1481
34.121890809074316 26.0699
34.145362493118924 26.0742
34.16865368561615 26.0026
34.191946333164054 26.0259
34.21524043699793 26.0023
34.23871800066799 25.9983
34.26201503218366 25.8802
34.28531352370466 25.7497
34.30861347646881 25.7579
34.33209693978188 25.7242
34.3553998301885 25.699
34.378704185565205 25.6664
34.402010007152356 25.5715
34.42549939016683 25.5309
34.44880815937748 25.3804
34.472118398533134 25.4304
34.49543010887669 25.4138
34.51892543169198 25.2767
34.54224009966052 25.3211
34.56555624255917 25.3006
34.58887386163339 25.195999999999998
34.61237514439016 25.1297
34.6356957311114 25.1391
34.65901779775809 25.1267
34.68252356662995 25.1294
34.705848608458616 25.1343
34.72917513396849 25.0686
34.75250314440949 24.9664
34.77601490857862 24.8994
34.799345904259795 24.8617
34.82267838863559 24.8876
34.846012362958525 24.8336
34.869530142679984 24.8187
34.89286711232212 24.7766
34.91620557568269 24.7724
34.93954553401677 24.706
34.9630693495876 24.6228
34.986412313340814 24.6126
35.00975677584668 24.6429
35.033102738362956 24.6353
35.05663261012228 24.4616
35.0799815881786 24.5403
35.10333207003229 24.4607
35.12668405694369 24.4462
35.150220005273056 24.4607
35.17357501786656 24.4381
35.19693153931268 24.4366
35.220289570874385 24.2913
35.24383161619786 24.2753
35.267192683604904 24.3184
35.290555264930376 24.2258
35.314101899412165 24.2763
35.33746752422433 24.2393
35.36083466676374 24.1468
35.38420332829803 24.1847
35.407756095629054 24.2197
35.43112781085063 24.136999999999997
35.45450104888391 24.0777
35.477875810999194 24.1437
35.50143473172161 23.9939
35.52481255774625 24.0725
35.54819191167777 23.9483
35.57157279478914 23.9232
35.595137889488406 23.8695
35.61852184675279 23.8138
35.641907337029984 23.791999999999998
35.665294361595684 23.7888
35.68886565090076 23.6888
35.7122557598848 23.7303
35.73564740699838 23.6816
35.759040593519934 23.5678
35.78261809810353 23.6106
35.80601437933051 23.5682
35.829412203814705 23.4291
35.85281157283719 23.4118
35.876395313415884 23.4435
35.8997977874528 23.3587
35.92320180988546 23.3421
35.946790244133936 23.279
35.97019737933222 23.245
35.993606066789866 23.2031
36.01701630779276 23.2524
36.04061101440684 23.1672
36.06402437852291 23.1504
36.08743930005611 23.2182
36.1108557802951 23.0408
36.13445678011326 23.0444
36.15787639383515 23.0858
36.18129757014299 22.9712
36.20472031032821 22.9635
36.22832762423364 22.9044
36.25175350829375 22.8447
36.275180960119776 22.87
36.298609981005924 22.888
36.32222362992669 22.7497
36.34565580510207 22.6899
36.36908955323448 22.7412
36.39252487562093 22.5994
36.416144880530226 22.5912
36.43958336764275 22.5636
36.463023432914625 22.5812
36.486465077645676 22.5252
36.51009145956204 22.5187
36.53353627947859 22.4999
36.55698268276811 22.5281
36.58043067073321 22.4303
36.60406345072071 22.3632
36.62751462435344 22.3725
36.65096738658405 22.2843
36.67460498210655 22.2962
36.69806093788647 22.2559
36.72151848619297 22.2197
36.744977628333636 22.3297
36.76862165890998 22.1385
36.79208400512205 22.1161
36.81554794910557 22.1192
36.83901349217101 21.9547
36.862663978991606 21.9558
36.88613273667352 21.908
36.90960309738324 21.9688
36.933075062434064 21.8844
36.95673202673572 21.914
36.98020721697122 21.8333
37.003684015502365 21.8053
37.027162423645365 21.7037
37.050825886711465 21.7843
37.07430753063053 21.6168
37.09779078812467 21.6541
37.121275660513014 21.6982
37.144945643673694 21.5538
37.16843376245278 21.5518
37.19192350009803 21.5715
37.215414857931435 21.4898
37.239091382563885 21.3903
37.262585997426164 21.383000000000003
37.28608223645736 21.4652
37.309763684451696 21.3766
37.33326318851098 21.2499
37.356764320726555 21.2187
37.380267082425526 21.3084
37.40395510942588 21.3432
37.42746114683234 21.2347
37.45096881771841 21.1456
37.474478123414166 21.1619
37.49817275092816 21.0869
37.52168534303452 21.0052
37.54519957395567 20.8997
37.568715445024665 20.9637
37.592416694607714 20.9222
37.61593586281424 20.9672
37.63945667518264 20.9676
37.66297913304891 20.8489
37.68668702630454 20.869
37.710212792059274 20.7647
37.733740207334854 20.7367
37.757269273470364 20.6742
37.780983832050374 20.6832
37.80451621684926 20.6395
37.82805025654007 20.614
37.851585952464795 20.6151
37.8753071980695 20.546
37.89884622345676 20.4408
37.92238690911902 20.4465
37.94611318753442 20.355999999999998
37.969657210779765 20.3322
37.99320289834801 20.374000000000002
38.016750251586465 20.3057
38.04048325513017 20.2903
38.06403395679343 20.2541
38.087586328183946 20.2111
38.11114037065203 20.2263
38.13488012115898 20.2174
38.1584375229181 20.0633
38.181996599821 20.0929
38.205557353221124 20.0955
38.229303872575656 20.0546
38.2528679961576 20.0409
38.27643380031219 20.0321
38.30000128639589 20.0411
38.32375459653193 20.0037
38.34732546371299 19.9939
38.37089801690786 19.8175
38.39447225747609 19.8004
38.418232380377425 19.7881
38.441810012983396 19.7964
38.46538933705673 19.7507
38.488970353960084 19.7458
38.51273731166058 19.7021
38.536321731567014 19.6505
38.55990784840681 19.6338
38.58367995004091 19.586
38.60726947812959 19.5327
38.63086070726198 19.5668
38.654453638806274 19.5209
38.678232613930824 19.4582
38.70182896773327 19.4219
38.72542702806741 19.384
38.7490267963045 19.3602
38.77281266709232 19.3127
38.79641586862214 19.3781
38.8200207821842 19.2967
38.843627409152944 19.3088
38.86742019782782 19.2014
38.891030269149255 19.1427
38.914642058016156 19.0907
38.938255565806124 19.1012
38.96205529464307 19.0144
38.98567225787121 19.0058
39.00929094417078 18.9944
39.03291135492255 19.0476
39.05671804624804 19.0541
39.080341923549106 18.9616
39.103967529460334 18.9325
39.127594865365744 18.8661
39.15140854155791 18.8537
39.17503935514948 18.8137
39.19867190290282 18.7574
39.22249083587951 18.755
39.24612686969409 18.8045
39.269764641845306 18.6732
39.293404153722804 18.6588
39.317230110864074 18.593
39.34087311998506 18.5655
39.36451787301696 18.5976
39.388164371352595 18.5658
39.41199737518003 18.5489
39.43564738196752 18.5095
39.45929913825317 18.44
39.48295264543308 18.4397
39.506792718520884 18.3544
39.530449745387216 18.3465
39.55410852735203 18.334
39.57776906581474 18.3129
39.60161623079 18.2923
39.625280300200025 18.2303
39.64894613032202 18.1485
39.67261372255866 18.1767
39.6964680021016 18.1782
39.72013913657293 18.1401
39.74381203738292 18.0844
39.76748670593756 18.1459
39.79134812278169 18.0212
39.81502634488497 18.0495
39.83870633896685 18.0558
39.862388106436654 17.9956
39.88625668336918 17.9308
39.90994201572829 17.9809
39.933629125719285 17.8561
39.957503091207826 17.8439
39.9811937746168 17.8272
40.00488623990914 17.7954
40.02858048850006 17.7221
40.05246165409549 17.7328
40.076159487492085 17.6789
40.099859108448875 17.7155
40.123560518384345 17.5908
40.1474489070226 17.6399
40.171153913178564 17.5692
40.194860712584955 17.5667
40.2185693066637 17.5912
40.242464941335314 17.4604
40.26617714307655 17.4432
40.289891143772046 17.4784
40.3136069448471 17.4262
40.33750984859743 17.3575
40.3612292688043 17.326
40.3849504936829 17.2926
40.40867352466194 17.3233
40.43258372059144 17.2675
40.45631038219906 17.2746
40.48003885420956 17.2107
40.503769138055105 17.2023
40.52768664931955 17.1992
40.55142057531802 17.2401
40.57515631746428 17.0852
40.599079334038514 17.0946
40.62281872700477 17.1059
40.64655994043941 17.0365
40.67030297578061 17.022000000000002
40.69423334835778 16.9919
40.71798004609188 16.9905
40.74172857006355 16.9464
40.76547892171441 16.9093
40.7894166736039 16.8647
40.813170699248566 16.8419
40.83692655691388 16.8278
40.86068424804498 16.8552
40.884629402612525 16.7944
40.908390779366385 16.7904
40.932153993938 16.7215
40.95591904777605 16.7014
40.979871628443995 16.7191
41.003640379561936 16.6454
41.02741097430883 16.6427
41.05118341413683 16.6347
41.075143444384416 16.5792
41.098919593177826 16.5872
41.1226975914255 16.5552
41.14647744058318 16.4787
41.170444943946755 16.4222
41.19422851378379 16.4296
41.218013938914645 16.3775
41.24198706625173 16.3492
41.26577622087193 16.2762
41.289567235177785 16.2953
41.31336011063129 16.2676
41.337340752422875 16.2176
41.361137369129835 16.3021
41.38493585138705 16.2212
41.40873620066004 16.2169
41.43272438060107 16.171
41.45652848292052 16.1629
41.48033445666918 16.0809
41.50414230331616 16.0098
41.528138045159764 15.9952
41.551949656675205 15.9845
41.575763145513235 15.9725
41.59957851314666 15.9696
41.62358184070442 15.9536
41.64740098505737 15.9078
41.6712220126409 15.8696
41.69504492493139 15.8621
41.71905586207357 15.825999999999999
41.74288256296395 15.7776
41.766711153007456 15.7339
41.79054163368412 15.7066
41.814560204340054 15.7708
41.838394485526365 15.7406
41.86223066180303 15.655999999999999
41.88625497706819 15.6505
41.910094962812 15.6209
41.93393684811168 15.5758
41.95778063445365 15.4719
41.981812625263366 15.4733
42.00566023303407 15.552
42.029509746323676 15.4539
42.05336116662236 15.4679
42.077400857069705 15.4439
42.10125611078846 15.3908
42.12511327600405 15.4019
42.14897235421036 15.3693
42.173019768448455 15.3367
42.19688269209613 15.3311
42.22074753323349 15.3161
42.24461429335818 15.2778
42.268669455600495 15.2234
42.292540073217886 15.1715
42.31641261433284 15.175
42.34028708044675 15.140999999999998
42.36435001496739 15.1033
42.38822835065557 15.1132
42.41210861586426 15.0763
42.4359908120986 15.0368
42.46006154323262 15.0159
42.48394762115317 14.9447
42.507835634632315 14.9972
42.531912233047436 14.9652
42.55580413732265 14.9086
42.579697981698 14.9116
42.60359376768525 14.8807
42.62767820545945 14.8403
42.65157789440821 14.8934
42.67547952952185 14.7988
42.699383112316 14.853
42.72347541395347 14.7208
42.74738291190531 14.6584
42.771292362102166 14.6997
42.795203766063516 14.7125
42.819303956130405 14.6743
42.843219287476536 14.6408
42.86713657716324 14.6537
42.89105582671383 14.5734
42.91516392983864 14.5716
42.939087119032166 14.5249
42.963012272677304 14.5044
42.98693939230129 14.4857
43.01105543317513 14.4505
43.034986504731386 14.3935
43.05891954686589 14.3989
43.08285456110972 14.4546
43.10697856448665 14.3687
43.130917542983475 14.2971
43.15485849820081 14.3436
43.17880143167367 14.2703
43.20293342237094 14.2644
43.226880332449 14.2288
43.25082922540554 14.2016
43.27496722682525 14.1946
43.29892010567796 14.1637
43.32287497204102 14.1784
43.34683182745632 14.1399
43.370977859791836 14.1056
43.39493871351105 14.08
43.41890156092628 14.0537
43.44286640358341 14.0316
43.46702049182749 13.9971
43.49098934522816 13.9761
43.51496019852649 13.9513
43.5389330532723 13.9009
43.56309522248204 13.8646
43.58707210044314 13.8357
43.61105098451946 13.8367
43.63503187626491 13.8244
43.659202151562134 13.8256
43.68318707902681 13.7909
43.70717401884041 13.7642
43.731162972560874 13.7162
43.75534137913236 13.6761
43.779334381108384 13.675
43.803329401683186 13.6645
43.82732644241872 13.585999999999999
43.8515130055166 13.6391
43.87551410707659 13.5809
43.89951723350145 13.5611
43.923709934595614 13.5019
43.94771713129917 13.4985
43.97172635758096 13.5044
43.99573761501002 13.5029
44.0199385169922 13.4993
44.04395385732619 13.4241
44.067971233533086 13.3832
44.09199064718605 13.3372
44.11619977548961 13.3712
44.14022328470671 13.3102
44.16424883610785 13.2909
44.18827643127035 13.325
44.21249381139513 13.2569
44.236525514814076 13.1948
44.26055926674478 13.1849
44.28459506876863 13.2209
44.3088207262813 13.1747
44.33286064928722 13.1589
44.35690262714919 13.1216
44.38094666145278 13.0392
44.4051806219871 13.0618
44.42922879003185 13.0382
44.45327901929361 13.0018
44.477331311362136 13.0285
44.501573600619416 12.9702
44.525630039221795 12.9171
44.54968854541895 12.9538
44.573937102200176 12.9404
44.5979997645541 12.8883
44.622064499300315 12.8217
44.64613130803592 12.844000000000001
44.67038823869318 12.8779
44.69445921643748 12.817
44.718532272981385 12.7585
44.742607409926194 12.761
44.76687274034801 12.7296
44.79095205918753 12.7077
44.81503346325094 12.6906
44.839116954143876 12.683
44.86339071028742 12.6349
44.88747839599524 12.6161
44.91156817336837 12.5827
44.93566004401666 12.559000000000001
44.959942251908146 12.5564
44.984038330325966 12.5434
45.00813650686762 12.4955
45.03223678314731 12.5092
45.05652746888232 12.4695
45.08063196592069 12.4685
45.104738567558705 12.4357
45.128847275414856 12.4283
45.15314646515866 12.3551
45.17725940679741 12.3542
45.20137445952892 12.3222
45.22568004865265 12.312000000000001
45.24979934496396 12.3024
45.27392075725247 12.2746
45.29804428714431 12.2513
45.322358426247604 12.2406
45.346486212804315 12.2575
45.370616121861914 12.1919
45.39474815505086 12.1603
45.41907087049246 12.1252
45.4432071734666 12.0583
45.46734560548283 12.1205
45.49148616817604 12.1067
45.51581748638564 12.0425
45.5399623320197 12.0236
45.56410931325473 12.0082
45.58825843173002 12.0043
45.61259837920865 11.9743
45.636751793816 11.9482
45.66090735060093 11.939
45.68506505120716 11.8607
45.7094136545275 11.8874
45.73357566449271 11.8472
45.75773982322992 11.8207
45.78190613238733 11.8305
45.806263418194064 11.7923
45.83043404997326 11.8044
45.85460683713677 11.7842
45.87897065658495 11.7002
45.90314777634752 11.69
45.92732705646868 11.7034
45.9515084986045 11.6884
45.97588104735473 11.6341
46.00006683541565 11.6201
46.02425479047904 11.6285
46.04844491420549 11.6115
46.0728262191024 11.5901
46.09702070211635 11.5791
46.12121735879483 11.5534
46.14541619080294 11.502
46.169806278764455 11.5368
46.194009483459034 11.4823
46.21821486849841 11.4641
46.24242243555223 11.3795
46.266821333570014 11.4123
46.29103328674601 11.3895
46.31524742696538 11.3996
46.33946375590237 11.334000000000001
46.36387149104216 11.325
46.38809221957392 11.2727
46.41231514186606 11.3129
46.436540259597464 11.2927
46.460956858999374 11.2382
46.48518638983522 11.2017
46.509418121166966 11.1693
46.533652054678114 11.1709
46.55807754555709 11.1503
46.58231590571962 11.1281
46.60655647313217 11.0934
46.630988654873654 11.1093
46.655233659129024 11.0554
46.67948087571551 11.0719
46.70373030632484 11.0379
46.72817142736393 11.0209
46.752425308428684 10.9764
46.77668140861147 10.9874
46.80093972960865 10.9363
46.82538981736788 10.9113
46.849652602470904 10.9064
46.87391761349769 10.8609
46.8981848521493 10.8806
46.9226439341274 10.8119
46.946915650573224 10.8517
46.97118959976749 10.857999999999999
46.99546578341598 10.8045
47.019933887188216 10.7845
47.04421456235744 10.7759
47.06849747711879 10.7105
47.09278263318286 10.686
47.11725978640143 10.6563
47.14154944775105 10.606
47.165841355555656 10.6445
47.1901355115306 10.642000000000001
47.214621741924994 10.6285
47.23892041698887 10.6305
47.26322134538975 10.5854
47.28771440635075 10.5484
47.31201986422527 10.5195
47.33632758061436 10.529000000000002
47.360637557241866 10.5139
47.38513974410611 10.4507
47.40945426407847 10.4423
47.43377104948137 10.4525
47.45809010204344 10.4205
47.48260144275502 10.419
47.506925052572285 10.3934
47.53125093475548 10.3367
47.55557909103813 10.3292
47.58009961361992 10.3051
47.60443234110732 10.2848
47.62876734791564 10.3263
47.65310463578333 10.2647
47.6776343683373 10.2347
47.7019762413987 10.2061
47.72632040075572 10.2027
47.75066684815169 10.1586
47.77520581885936 10.1785
47.799556865477655 10.1288
47.823910205386 10.1402
47.84826584033272 10.1353
47.87281407745551 10.0803
47.89717432569297 10.0691
47.92153687423484 10.0719
47.94609208429692 10.0338
47.97045925671401 10.0388
47.99482873471275 10.0053
48.01920052005013 9.96636
48.04376504619224 9.97397
48.068141469543484 9.94658
48.09252020552573 9.939639999999999
48.11690125590099 9.90968
48.1414751266064 9.89212
48.16586082917454 9.866769999999999
48.19024885144316 9.83515
48.2146391951793 9.86179
48.239222439012764 9.84932
48.26361744916137 9.837010000000001
48.28801478610016 9.790460000000001
48.31241445160131 9.78642
48.337007097209366 9.74365
48.36141144338331 9.7588
48.38581812345755 9.725719999999999
48.41022713920929 9.72097
48.434829215320704 9.70152
48.45924292604658 9.669989999999999
48.48365897780325 9.69483
48.50807737237308 9.64152
48.532688907799276 9.60255
48.55711201168574 9.57969
48.581537463754074 9.615839999999999
48.60615611725119 9.59506
48.63058628942721 9.608080000000001
48.65501881516546 9.52252
48.6794536962573 9.51255
48.70408185970339 9.46363
48.72852147531801 9.420910000000001
48.75296345168211 9.45323
48.77740779059232 9.46407
48.80204549302823 9.45014
48.82649458091802 9.433810000000001
48.85094603676547 9.41162
48.87539986237231 9.38263
48.90004713292306 9.38359
48.92450572200832 9.33237
48.94896668628025 9.31362
48.97343002754588 9.31672
48.99808689542115 9.29548
49.02255501470614 9.248330000000001
49.04702551642794 9.25198
49.0714984023988 9.24276
49.096164896893235 9.249089999999999
49.120642575466796 9.19623
49.145122643748394 9.15647
49.16960510355558 9.169139999999999
49.19428125404938 9.11534
49.2187685210852 9.10385
49.243258185121555 9.094339999999999
49.26794160167084 9.087539999999999
49.2924360839405 9.08959
49.31693296869764 9.03144
49.34143225776915 9.01918
49.36612538195438 9.0028
49.39062950396021 8.993739999999999
49.41513603578346 9.00948
49.4396449792564 8.96243
49.46434784069503 8.95632
49.488861631846454 8.93399
49.513377840166804 8.92648
49.537896467493745 8.86427
49.56260909589029 8.873330000000001
49.587132585683285 8.89729
49.611658500018365 8.84122
49.636186840738596 8.80508
49.66090926588511 8.78078
49.685442483902584 8.78359
49.70997813385706 8.74036
49.734516217597076 8.76401
49.75924846937352 8.73799
49.7837914452858 8.70433
49.80833686055187 8.687660000000001
49.83288471702571 8.67511
49.85762682540054 8.66813
49.882179588965734 8.65773
49.9067347993235 8.647680000000001
49.93129245833333 8.610560000000001
49.95604445336378 8.59858
49.98060703442832 8.578
50.005172069746266 8.55948
50.02993150438364 8.558760000000001
50.05450147301533 8.53559
50.07907390151433 8.526810000000001
50.10364879174981 8.49312
50.12841816587289 8.47745
50.1529980044635 8.50022
50.17758031042124 8.444239999999999
50.20216508562089 8.46619
50.22694442953363 8.43179
50.25153416817468 8.390360000000001
50.27612638170508 8.40438
50.300721072005196 8.37159
50.325510416102105 8.323369999999999
50.350110084975064 8.33948
50.37471223628208 8.34414
50.39931687190919 8.2815
50.424116246675766 8.27628
50.44872587605249 8.30839
50.47333799543065 8.26361
50.49795260670191 8.22668
50.52276204271512 8.23195
50.54738166295838 8.22526
50.57200378079314 8.23297
50.596628398116835 8.16507
50.62144792604559 8.17043
50.646077567609396 8.14886
50.670709714377715 8.150360000000001
50.69553683636198 8.11248
50.72017401885922 8.096119999999999
50.7448137122895 8.10189
50.76945591856022 8.058710000000001
50.79429318636823 8.06025
50.818940443716784 8.05781
50.84359021965163 8.0267
50.868242516085964 8.00433
50.893089960641895 7.993580000000001
50.917747323549435 8.00803
50.94240721271973 7.975560000000001
50.96706963007175 7.94071
50.99192728239342 7.91162
51.01659478166073 7.922680000000001
51.04126481489051 7.914039999999999
51.06593738400761 7.90959
51.090805275207074 7.8612
51.11548294172845 7.87569
51.14016314993547 7.88005
51.164845901758845 7.858789999999999
51.18972406304274 7.80575
51.21441192780656 7.8226
51.23910234200271 7.766089999999999
51.2637953075678 7.712000000000001
51.288683770237945 7.70102
51.31338186432707 7.707330000000001
51.33808251561888 7.7270199999999996
51.362978729967345 7.671060000000001
51.387684521509755 7.6899
51.41239287610203 7.685110000000001
51.437103795691165 7.66003
51.46201036644977 7.6296800000000005
51.486726441956634 7.63205
51.51144508832545 7.6200600000000005
51.536166307509156 7.599419999999999
51.56108326624387 7.54673
51.58580965706056 7.547000000000001
51.61053862657523 7.548780000000001
51.635270176746864 7.55203
51.66019755512065 7.520230000000001
51.68493429268881 7.50917
51.70967361681515 7.45966
51.73441552946465 7.45138
51.759353359237934 7.44077
51.7841004750961 7.4531600000000005
51.80885018539685 7.421689999999999
51.833602492111254 7.41109
51.8585508051424 7.3757
51.883308330926425 7.362480000000001
51.90806845906181 7.34284
51.932831191525715 7.3423300000000005
51.95779001977161 7.332560000000001
51.98255798721516 7.302460000000001
52.00732856494335 7.262639999999999
52.03229530577543 7.27866
52.057071130455945 7.29356
52.081849571391054 7.264939999999999
52.106630630568695 7.27117
52.13160794279417 7.231269999999999
52.15639426492067 7.200710000000001
52.18118321127822 7.20455
52.205974783860896 7.194719999999999
52.23096269971011 7.15713
52.255759551287994 7.15267
52.280559035098186 7.14142
52.30536115314103 7.09474
52.33035970494467 7.0693
52.35516711807904 7.0763300000000005
52.37997717147198 7.08795
52.40478986713005 7.075010000000001
52.42979908731974 7.0537
52.454617094216 7.01462
52.47943774942214 7.01918
52.50426105495102 6.99958
52.529280976059844 6.95684
52.554109609024096 6.93847
52.57894089837482 6.95546
52.60377484613117 6.985339999999999
52.62880550079408 6.94451
52.65364479223379 6.897639999999999
52.67848674816189 6.893730000000001
52.70352547971946 6.892189999999999
52.72837279155837 6.890860000000001
52.753222773982785 6.866219999999999
52.778075429022984 6.858410000000001
52.80312495150885 6.840089999999999
52.827982978797436 6.8099
52.85284368481815 6.7843800000000005
52.87770707160767 6.777260000000001
52.90276741793998 6.75805
52.92763619336701 6.7254
52.952507655698504 6.7298100000000005
52.977381806977576 6.74683
53.00245301017842 6.74783
53.02733256653592 6.69619
53.052214817996074 6.684089999999999
53.077099766608484 6.67537
53.102181859804446 6.65746
53.127072229988265 6.64273
53.15196530349892 6.656289999999999
53.17686108239249 6.620080000000001
53.20195409881522 6.6185
53.22685531582556 6.591
53.25175924441303 6.52674
53.27666588664027 6.51478
53.30176985962693 6.5565
53.3266819565689 6.52974
53.35159677336455 6.52589
53.376514312083096 6.5115
53.40162927507703 6.521059999999999
53.42655228516116 6.4966800000000005
53.45147802340193 6.4747699999999995
53.47660125628886 6.45712
53.50153247842639 6.43394
53.52646643496923 6.431780000000001
53.55140312799818 6.41409
53.576537409691696 6.35993
53.60147960336152 6.39273
53.626424539786164 6.36765
53.65137222105307 6.36163
53.67651758529126 6.3474
53.70147078399681 6.31602
53.72642673383343 6.31131
53.75138543689533 6.303
53.776541917524526 6.31344
53.801506154876755 6.2654
53.826473151763246 6.25215
53.851442910284916 6.22274
53.87661054126026 6.24186
53.9015858509782 6.23085
53.92656392866066 6.23374
53.95154477641532 6.16477
53.976723591801296 6.17499
54.00171000771266 6.16106
54.02669920004598 6.124680000000001
54.051691170915745 6.16012
54.076881204886796 6.1060300000000005
54.101878760928514 6.1301
54.12687910187696 6.08341
54.152077577768296 6.04376
54.1770835166946 6.08859
54.20209224691339 6.03449
54.22710377055121 6.01967
54.25231352511594 6.04594
54.27733066384342 6.01426
54.30235060239643 5.98255
54.32737334290836 5.988569999999999
54.35259441062629 5.90506
54.377622783395324 5.9257
54.40265396455061 5.9050400000000005
54.42768795623251 5.91135
54.45292037169559 5.87274
54.477960012857906 5.87685
54.50300247099511 5.8482400000000005
54.52804774825457 5.86681
54.55329154616743 5.80767
54.57834249018678 5.7659199999999995
54.6033962597977 5.78766
54.6284528571545 5.74139
54.653708072335164 5.72357
54.67877035378786 5.70711
54.70383546947698 5.66213
54.72890342156389 5.6803300000000005
54.7541700889442 5.64027
54.77924374251975 5.63921
54.8043202390049 5.61609
54.82959552413022 5.61491
54.8546777351945 5.59207
54.87976279569621 5.54946
54.90485070780914 5.56732
54.930137506558005 5.5285400000000005
54.95523115074295 5.51735
54.98032765308844 5.46935
55.005427015775496 5.4238800000000005
55.03072536339621 5.4458400000000005
55.05583047570572 5.42401
55.080938454927676 5.4185300000000005
55.10604930325027 5.39583
55.131359235107396 5.399369999999999
55.15647585066083 5.32048
55.181595341907496 5.297969999999999
55.20671771104285 5.24538
55.232039262617704 5.25119
55.25716741665048 5.2552
55.28229845518636 5.18352
55.30743238042802 5.16389
55.33276558731939 5.19471
55.357905315183636 5.19229
55.383047936390035 5.09655
55.40819345314859 5.12549
55.433538351073295 5.05565
55.458689688238415 5.0428
55.483843927614096 5.03295
55.509197623043605 5.02393
55.53435769621134 5.0041400000000005
55.55952067826466 4.95383
55.5846865714265 4.9217
55.61005202069737 4.9413800000000005
55.63522376553902 4.93363
55.66039842818645 4.898569999999999
55.68557601087004 4.83329
55.7109532500271 4.82597
55.73613670233794 4.843430000000001
