TT I
1.2716486653135266 7.2960899999999995
1.2939594142134223 7.27095
1.3162702121660406 6.4393
1.3385810600174564 6.23813
1.3608919586137629 6.61843
1.383202908801069 6.34016
1.405513911425503 5.86076
1.4278249673332093 5.93158
1.4501343378461518 6.63967
1.4724455028545926 5.72979
1.4947567236847858 5.59695
1.517068001182951 6.03869
1.5393793361953272 5.89237
1.5616907295681737 5.49719
1.5840021821477681 5.53125
1.60631369478041 5.30387
1.6286252683124185 5.44549
1.6509369035901333 4.96709
1.6732468618895553 4.58824
1.695558623192809 5.08373
1.7178704487808514 4.94015
1.7401823395001077 4.72813
1.7625012545597203 4.246169999999999
1.7848028405262486 5.23771
1.8071218901122095 4.764390000000001
1.8294236121921872 4.36929
1.8517427996910911 4.93245
1.8740620574440425 4.2842199999999995
1.8963639900671978 4.51002
1.9186833908139995 4.27203
1.9409854680117449 4.46991
1.9633050151394713 5.2198400000000005
1.9856246367570705 4.72431
2.0079269371922672 5.04654
2.03024671027244 4.34668
2.0525491637446027 4.24554
2.074869091674931 4.40677
2.097171701569106 4.59247
2.1194917877373847 4.59312
2.141811954326636 5.219180000000001
2.164114805233074 4.30848
2.186435135143035 4.84008
2.208738150935709 4.885619999999999
2.231058647554722 6.7558300000000004
2.2533792288321184 6.73163
2.275682498336085 5.58871
2.298003251406138 5.47771
2.3203066942619714 5.58533
2.3426276225136022 5.21588
2.3649486396617507 5.36431
2.387252348930071 5.79427
2.4095735463442893 6.25397
2.4318774374315884 6.077780000000001
2.4541988185014043 6.70517
2.476502894794693 6.78108
2.498824462909887 6.98968
2.521146125856138 7.64315
2.5434504863470337 7.395060000000001
2.5657723414244717 8.73082
2.588076895590662 8.43097
2.610398946189713 7.98152
2.6327210958598384 7.7039100000000005
2.6550259469304716 7.78255
2.6773482972090137 8.42955
2.6996533504259 8.399560000000001
2.7219759047039602 8.59245
2.744298562293959 8.73945
2.7666039251246595 8.407060000000001
2.7889267918020164 8.21717
2.8112323652516555 7.84875
2.833555444408179 8.17566
2.8558786311183852 8.87305
2.8781845268938557 8.65823
2.9005079311721484 8.7909
2.9228140460410397 8.83381
2.9451376712799635 9.72263
2.967444008632326 9.30627
2.9897678582247247 9.300939999999999
3.0120918213106695 9.892619999999999
3.0343984987899373 10.4579
3.0567226913198637 10.8968
3.079029599759726 10.9316
3.101354025127254 12.0501
3.123678568232338 12.3974
3.145985829517914 12.5974
3.16831061055229 13.519
3.1906181112775593 14.0875
3.212943133635653 14.6441
3.2352682779763207 14.4357
3.2575761442691227 14.9096
3.2799015350264273 15.5498
3.302209649240067 15.8399
3.3245352898092655 16.4095
3.3468436553365257 17.1277
3.369169549113219 17.0752
3.3914955708171384 18.0093
3.413804319727358 18.3331
3.4361305997334863 18.2385
3.4584396084414553 19.2875
3.4807661501462652 20.2437
3.503092824025881 20.3595
3.5254022288463154 20.3736
3.5477291695206588 21.0864
3.5700388426251948 21.6715
3.5923660534916446 22.2173
3.6146934007816114 23.526
3.637003482731501 28.0184
3.6593311053109985 29.6303
3.681641464033634 26.338
3.7039693653009733 24.5137
3.726297407241705 24.6349
3.7486081875460804 24.6737
3.7709365132734978 25.2948
3.793247578841633 25.6186
3.8155761917550093 25.9739
3.8378875459837216 26.2556
3.8602164494827234 26.7997
3.882545499606844 27.5926
3.9048572932539183 28.322
3.9271866390645718 28.4189
3.9494987298666713 29.0708
3.971828374764527 29.4628
3.9941581705403255 30.111
4.016470713506008 30.4456
4.038800813471445 31.186999999999998
4.061113662089144 32.0893
4.0834440696459176 32.5163
4.105774632334751 32.8064
4.128087945865126 33.6274
4.150418821249301 34.3214
4.172732448931298 34.8571
4.195063640413578 35.7948
4.2173775856475215 36.3503
4.239709096631102 39.897
4.262040768704612 54.7174
4.284355196706267 64.2567
4.306687193387355 55.0223
4.329001947444346 44.0296
4.35133427213731 41.7217
4.373666762177566 41.8625
4.395982011761091 42.3245
4.418314834921175 43.3962
4.44063041906622 44.8901
4.4629635787515625 47.0335
4.4852969080429785 48.1295
4.5076130004776225 49.8906
4.529946671403969 55.0062
4.552263106909177 57.425
4.574597122877047 55.5539
4.596931312711224 53.3128
4.619248269273446 53.345
4.6415828092605835 53.8808
4.663900117405352 55.2275
4.686235010953232 56.7794
4.708552674085913 57.9544
4.730887924602802 59.3736
4.753223354952695 61.4168
4.775541557023902 64.1893
4.797877349456786 66.9221
4.820195915032126 67.5783
4.842532072957498 67.5882
4.864868414979744 70.9363
4.88718753227192 74.7439
4.909524244902505 76.6692
4.931843734218147 75.9465
4.954180820867835 77.6056
4.976518095879839 80.1338
4.998838149695359 82.76799999999999
5.021175803844231 86.3751
5.043496238205739 89.15299999999999
5.065834274903528 94.1009
5.088172504230693 98.3552
5.1104935158799565 103.624
5.132832132875765 116.305
5.155153533596801 136.737
5.1774925416746225 176.283
5.199814334878411 380.18699999999995
5.2221537374521505 1001.99
5.244493338631803 2822.96
5.266815727034316 8042.24
5.289155727832427 13818.8
5.311478517248165 8191.75
5.333818921080011 2198.97
5.356159527788849 411.597
5.3784829252032536 175.169
5.400823940070432 143.394
5.423147747031976 124.91799999999999
5.445489173474152 117.00399999999999
5.467830807066149 116.554
5.490155234831516 117.72
5.512497285125229 110.16
5.534822130975162 104.51899999999999
5.557164601388673 100.985
5.579489868738879 98.0574
5.601832762690846 96.9834
5.6241758697774475 95.2756
5.646501775867269 95.1719
5.668845311622074 94.2998
5.691171647754637 93.5956
5.713515615597765 92.814
5.735859800852677 92.1613
5.758186788542988 93.4815
5.780531411018185 96.9091
5.802858837297399 96.3921
5.825203900414495 96.0831
5.8475491852224 98.2129
5.869877275883075 97.3492
5.892223006467101 94.7031
5.914551544266608 93.8084
5.936897724049891 96.7397
5.959244129804903 103.76299999999999
5.981573344815301 133.106
6.0039202049061 243.792
6.026249875609095 475.556
6.04859719346037 974.7510000000001
6.070927323278297 2263.38
6.093275102315365 4814.87
6.115623113320588 5664.11
6.137953938319995 2963.03
6.160302415650845 810.307
6.182633708324452 191.71
6.2049826554078376 101.521
6.227331838745022 86.39200000000001
6.249663839443684 81.1462
6.27201349767565 77.665
6.294345974611799 76.0933
6.316696111167083 75.5283
6.339046488263839 74.0155
6.361379686074702 70.9519
6.383730546639482 69.3876
6.406064229255215 68.4233
6.428415576718203 69.2324
6.450749747566656 68.0514
6.47310158535871 66.0387
6.495453669698332 64.6995
6.517788579421056 63.18600000000001
6.540141159237969 62.4722
6.562476565766648 62.0336
6.5848296444934045 61.7534
6.607182974060425 61.9618
6.6295191323281015 61.356
6.651872965955752 60.1736
6.6742096296068985 61.3857
6.6965639707294615 65.6883
6.71891856698715 65.587
6.741255995248479 61.3032
6.763611104154477 58.5362
6.785949046381137 57.6038
6.808304671371482 57.8687
6.8306605557940046 59.0007
6.852999275508618 58.5478
6.875355681171544 56.7657
6.897694923437771 55.7952
6.92005185377892 55.6596
6.9423916220322655 55.3165
6.964749080490181 54.5551
6.987106804399774 54.7632
7.009447368180821 54.6537
7.031805625367033 54.5553
7.054146723727803 54.1179
7.076505517631004 53.8874
7.098864581288365 53.8815
7.121206488070854 53.7686
7.143566093607822 54.3823
7.165908543567245 55.3247
7.188268694426048 54.9703
7.2106291193438095 53.8086
7.232972390625943 53.3259
7.255333366030969 53.85
7.277677189091925 58.3912
7.300038718428332 63.54600000000001
7.322400526130865 61.3956
7.344745183422596 56.36
7.367107550224791 53.7817
7.389452767901992 53.4833
7.411815697249891 53.2855
7.434161478756298 52.5371
7.456524974096713 52.6716
7.478888753837185 52.7709
7.501235387657368 53.2897
7.523599738562711 53.7397
7.545946944825532 54.5012
7.568311870344528 54.8654
7.5906770845765665 54.2463
7.613025156078678 54.0351
7.635390950099687 54.3312
7.657739602662809 54.6147
7.680105979923558 55.2007
7.702472650212829 56.2032
7.724822180948224 55.5909
7.747189439655568 55.3378
7.769539560075357 54.9538
7.791907410653562 55.7489
7.81425812420825 55.8459
7.836626570110925 55.9137
7.858995315087906 56.9779
7.881346924933401 57.0565
7.903716270417482 57.5207
7.926068482028405 57.6094
7.948438431475253 58.6562
7.9708086843180235 59.2261
7.993161805171116 59.9934
8.015532667162402 60.2803
8.037886398416653 61.3849
8.060257873014221 61.6663
8.082629655331942 62.1738
8.104984308787587 63.0959
8.127356708900503 64.7154
8.149711981398308 67.8686
8.172085002766314 68.9444
8.194458336181368 68.6089
8.216814543847752 67.9586
8.23918850371002 68.4201
8.26154533906492 69.8084
8.283919928836452 71.0973
8.306277395339652 71.9134
8.328652618483376 73.4765
8.351028159736202 75.5208
8.373386579575245 78.1393
8.395762759396959 79.0696
8.418121819038275 81.643
8.440498640894003 86.8699
8.462875785192262 96.56700000000001
8.485235811156207 124.36399999999999
8.507613602688501 179.011
8.529974277114228 268.78
8.552352719347912 401.81
8.574731488360351 666.692
8.59709314210385 1252.27
8.619472567021075 2054.42
8.64183487789147 2384.59
8.664214962183097 1756.42
8.686577933647762 801.596
8.708958680784317 298.29
8.731339760774953 138.936
8.753703729764451 102.82799999999999
8.77608547780821 95.6207
8.798450116065078 92.9381
8.820832535634787 91.1156
8.843215292401656 90.8427
8.865580941199045 90.4358
8.887964374703538 90.1824
8.910330701447199 90.2844
8.932714815164482 89.1543
8.955099270424924 86.5561
8.977466620733543 85.132
8.999851761421976 84.1199
9.022219798361645 83.4601
9.04460562795561 83.3441
9.066991803441677 83.3521
9.089360876979615 83.5292
9.111747746589993 83.7697
9.13411751544971 82.5312
9.156505082664324 81.4644
9.178875550323522 81.4275
9.20126381862328 81.5226
9.223652438908596 82.1493
9.246023961427412 82.946
9.26841328802173 83.4158
9.290785518039224 83.1613
9.313175554425882 84.7543
9.335565947154315 85.5334
9.357939245086508 85.8433
9.380330352834827 84.9777
9.40270436697103 84.7513
9.425096193225055 84.1504
9.447488380180165 84.3951
9.469863475295412 83.7515
9.492256385987508 84.2305
9.514632206018318 84.7247
9.537025843935714 85.3746
9.559402392368193 86.413
9.581796761000229 88.7693
9.604191496441521 90.38
9.626569144158516 92.4433
9.648964615551032 92.911
9.671343000390081 91.7448
9.693739211225699 90.9607
9.716135793237463 91.3258
9.738515290448102 92.3593
9.760912617143402 94.2878
9.783292860202891 96.3982
9.805690935076182 98.3539
9.828089385495742 99.3758
9.850470754023561 99.8098
9.872869957865444 101.78399999999999
9.89525208097539 104.98100000000001
9.917652041736662 110.602
9.940052382417589 122.089
9.962435644102392 150.74200000000002
9.984836746950979 193.679
10.007220771957746 257.80400000000003
10.029622640473708 363.165
10.052007432299963 544.231
10.074410069984072 857.212
10.096813093716005 1359.66
10.119199042482517 1904.27
10.141602840636468 2067.88
10.163989564971628 1452.72
10.186394141051062 725.502
10.208799107559706 299.995
10.231187001965623 154.05
10.253592751657669 116.54799999999999
10.275981430388155 108.027
10.298387966769793 105.598
10.320794897965431 104.605
10.343184759907361 103.944
10.36559248305461 102.51799999999999
10.387983138083852 104.09200000000001
10.410391656691655 111.146
10.432800574501677 122.84700000000001
10.455192425893369 139.209
10.47760214443012 166.088
10.499994797678786 212.31099999999998
10.522405320453982 296.30400000000003
10.54479877906917 416.665
10.567210109595656 551.543
10.5896218454736 586.644
10.612016518879773 467.55800000000005
10.634429067781074 289.285
10.656824555333241 166.08599999999998
10.679237920773568 110.556
10.701651695961992 92.3496
10.724048411481384 87.4208
10.746463008485165 85.1155
10.768860546937125 83.5479
10.791275969274796 81.9452
10.81369180576079 81.1215
10.836090585366925 80.2037
10.858507252467449 79.0148
10.88090686379991 78.1825
10.903324365036394 77.3485
10.925724811614439 76.2503
10.948143150509463 76.391
10.970561909719066 76.1722
10.992963615930844 75.7792
11.015383218085756 74.3433
11.037785768347074 72.6804
11.06020621697282 71.6662
11.082627090322113 70.7581
11.105030913430326 70.4615
11.12745263854165 69.8063
11.149857314510728 69.3654
11.172279894912576 69.959
11.194702904450653 69.0981
11.217108866490921 68.1725
11.239532736615194 67.6341
11.26193956033512 67.4597
11.284364294577085 67.0025
11.306789462371718 65.9369
11.329197585398376 65.8324
11.351623622610898 66.0801
11.37403261614354 65.0505
11.396459526308487 65.1444
11.418869393879497 64.6645
11.441297180532617 64.3249
11.463725406927658 63.9793
11.486136592353875 63.6007
11.508565700543707 63.1743
11.530977768845315 63.4989
11.553407762368774 63.2483
11.575838200059769 63.2955
11.598251599479612 62.7861
11.620682927815501 62.5441
11.64309721895548 62.438
11.665529441478206 62.3734
11.687962112597958 61.9667
11.710377748130886 62.1007
11.732811318753434 61.8264
11.755227854859067 61.9197
11.777662328529495 61.6979
11.800079768750786 61.6794
11.822515149015453 61.8136
11.844950984084935 62.0575
11.867369787303163 61.7559
11.889806534289491 61.6423
11.912226250487029 61.9266
11.934663912939751 62.2789
11.9571020346363 62.6619
11.979523127133968 62.9954
12.001962169624331 64.0287
12.024384183972964 65.969
12.046824150809913 69.2344
12.069264581333726 73.282
12.091687985297767 79.5238
12.11412934550045 89.1836
12.136553680195208 103.932
12.158995973632788 126.87700000000001
12.181438735204349 158.82
12.20386447284199 194.463
12.226308172985636 208.90599999999998
12.24873485024193 192.77200000000002
12.271179492516982 149.778
12.293607112949127 107.565
12.316052700916226 81.1958
12.338498763250042 68.4085
12.360927805303868 64.1317
12.383374818673879 63.4068
12.405804812803074 62.9442
12.428252780773262 63.0415
12.45070122756722 63.1727
12.473132656675375 63.1958
12.49558206341869 63.6784
12.518014453510101 63.8772
12.540464823770117 64.0538
12.562915677315177 63.9313
12.58534951575545 64.2153
12.607801338171472 63.8962
12.630236146511358 64.8691
12.652688941369085 65.7139
12.675124723177234 66.139
12.697578494048786 66.2134
12.720032754458185 65.8876
12.742470003354093 66.3504
12.764925245138771 66.5086
12.787363476431278 67.123
12.809819703166806 67.4653
12.83227642391173 68.2997
12.854716135692716 69.2148
12.877173846755147 70.1442
12.899614549869717 70.7137
12.9220732548287 71.515
12.94453245827299 72.2256
12.966974655289818 73.1483
12.989434858002571 73.6762
13.011878055298721 74.1762
13.034339260862497 75.5494
13.056800969391883 76.9063
13.079245674017244 79.9111
13.101708390774869 84.7213
13.12415410463411 92.9289
13.146617833206086 102.581
13.169064559883248 113.316
13.191529303857127 128.878
13.213994557076367 151.977
13.236442809902437 189.77
13.258909083908291 251.451
13.28135835851934 325.992
13.30382565690295 400.654
13.326293469022952 447.642
13.348744283242008 412.814
13.371213125129904 316.715
13.39366497011003 214.602
13.416134845360597 144.487
13.438605238843131 111.35600000000001
13.46105863690397 103.62
13.483530069144786 106.083
13.505984506951902 112.311
13.528456981549432 123.052
13.550929978879088 139.18
13.573385983253365 163.597
13.595860028340867 203.017
13.618317081455832 259.043
13.64079217790333 327.166
13.663250283359057 381.39300000000003
13.685726434770173 384.82199999999995
13.708203115221277 325.186
13.730662806148091 238.22
13.75314054697177 160.987
13.775601299246777 113.925
13.798080104050406 91.1942
13.820559442405358 82.7742
13.843021793671388 80.0053
13.865502201420897 78.7674
13.887965623051947 78.2897
13.910447103807167 77.578
13.932929122629764 76.1817
13.955394156785959 75.7913
13.977877254034569 74.7582
14.000343367582113 73.9387
14.022827546871707 73.5267
14.045294743423524 72.7467
14.06778000837062 72.2994
14.090265817715476 72.0741
14.112734645763819 71.7197
14.13522154619454 71.2325
14.157691466286913 71.0487
14.180179461423874 70.833
14.202668005486178 70.20100000000001
14.22513957064374 69.79
14.247629214846473 69.4014
14.270101881097517 69.122
14.29259262906496 68.874
14.315083930490205 68.9766
14.337558255389705 68.843
14.360050666019726 68.8133
14.382526101071944 68.7972
14.405019624534942 68.3012
14.427513705993134 67.9804
14.449990813291825 68.0511
14.47248601302899 68.1092
14.49496423954951 68.0889
14.517460561197822 68.0153
14.539939910570322 67.834
14.562437357763558 67.9796
14.58493536931253 68.5106
14.607416409993311 68.4802
14.62991555254159 68.6226
14.652397725157423 69.1155
14.674898002342799 69.4059
14.697398848433282 69.8502
14.719882725991326 71.3839
14.74238471217934 73.3573
14.764869730765593 76.7857
14.787372860692983 79.8133
14.809876564079925 84.4299
14.83236330125751 90.5741
14.854868153850365 99.6434
14.877356041159485 114.355
14.899862046604186 133.053
14.922351087688757 161.122
14.944858249632887 195.024
14.967365991421232 223.062
14.989856770231246 231.755
15.012365673994204 213.99400000000003
15.03485761569738 173.47099999999998
15.05736768508665 131.459
15.07987833888692 100.93299999999999
15.102372032001655 82.7415
15.124883856909658 73.419
15.14737872204565 70.4558
15.169891721717274 69.4396
15.192405310371893 68.9261
15.214901940621196 68.5318
15.237416709527137 67.9392
15.259914520936249 67.8539
15.282430473753607 67.0162
15.304947020131227 66.4087
15.327446610371178 66.2485
15.349964346154254 66.2084
15.372465126703139 65.877
15.394984055556009 65.418
15.417486030076159 65.3504
15.44000615566487 64.9515
15.462526881230803 64.9941
15.485030653812652 65.0054
15.507552581617434 64.8787
15.530057557334603 64.7103
15.55258069104857 64.9933
15.575104429329837 65.3423
15.597611216864632 65.2289
15.620136166564563 65.9335
15.6426441664095 67.6244
15.665170331202765 70.0076
15.687697105158826 72.7862
15.710206930593545 75.9786
15.732734925158933 80.9361
15.755245972089478 87.3888
15.77777519094324 96.7666
15.800287463046663 110.119
15.822817909869592 130.05700000000002
15.84534897229804 152.85
15.867863089299354 180.21099999999998
15.890395385222186 198.054
15.912910736597423 195.07299999999998
15.935444269699861 174.11700000000002
15.957978423016485 138.14600000000002
15.980495633101265 107.695
16.003031029129367 84.3343
16.02554948280019 70.4905
16.048086125229432 64.2973
16.070623392487107 62.3798
16.09314371869582 61.4574
16.11568223789321 60.7404
16.13820381691126 59.9755
16.160743591742527 59.638000000000005
16.183283996022084 59.031000000000006
16.205807461423195 58.1866
16.228349126881973 57.876999999999995
16.25087385432698 57.6702
16.27341678466365 57.0186
16.29594277784926 56.7696
16.31848697676433 56.7037
16.341031811604868 56.2647
16.36355971058487 56.2061
16.3861058195587 56.0174
16.40863499352978 55.4395
16.431182380342005 55.0685
16.453730407713202 55.0675
16.476261501364792 54.7715
16.498810812136167 54.379
16.52134319004079 54.739
16.54389378792203 54.5112
16.566445031001553 54.4254
16.588979342490088 54.063
16.61153187824822 54.1087
16.634067483263312 54.1253
16.656621315414416 53.9561
16.679175797408888 53.6787
16.701713349928728 53.8633
16.72426913389191 53.7966
16.74680798922351 53.7846
16.76936507887444 53.7491
16.791905240734874 53.8467
16.814463639794468 53.8168
16.837022695210294 53.8739
16.859564824093756 54.1261
16.882125194503903 54.1111
16.904668639217885 54.2224
16.927230328348003 54.13399999999999
16.949792678493612 54.4599
16.972338104193863 54.3638
16.994901778652235 54.2221
17.017448529496576 54.9317
17.040013531998152 55.4365
17.06257920018044 55.9037
17.0851279459922 56.6801
17.107694947817667 57.413000000000004
17.130245028099072 58.2276
17.15281336730298 59.7212
17.17536478578733 61.32899999999999
17.19793446610687 63.3187
17.220504818648422 66.6304
17.243058251703697 70.3206
17.265629950971032 75.339
17.288184731571736 81.3898
17.310757781306908 83.5055
17.33333150794385 83.0511
17.355888317140174 78.9317
17.37846339986244 72.5571
17.401021565958885 66.7788
17.42359800851343 62.4777
17.44617513265564 60.0655
17.468735341390783 58.7973
17.491261035594565 58.3963
17.51396340099364 58.2318
17.536490463869136 58.1824
17.559018209820174 58.167
17.58154663977963 58.3695
17.604251766089718 58.7133
17.626781572227713 58.9049
17.64931206518155 59.0049
17.671843245885103 59.4729
17.69455114821572 59.1799
17.717083712612634 59.8981
17.739616967569667 60.053999999999995
17.762150914021706 60.5988
17.78486160749854 60.9246
17.807396945166804 61.9649
17.829932977143503 63.3309
17.85246970436452 64.861
17.875183204129467 66.3475
17.897721330097664 68.0757
17.920260154126645 70.5212
17.942799677153296 73.7484
17.9655159983646 77.7909
17.988056927677544 83.2901
18.010598558807683 91.3121
18.033140892692916 102.412
18.05586005052525 114.682
18.07840379824407 128.171
18.10094825154059 138.439
18.12366954819864 142.181
18.146215420998306 136.696
18.16876200220057 123.484
18.191309292745153 107.741
18.214033452627167 94.8022
18.236582170236648 86.0285
18.259131600016456 83.3326
18.281681742907335 85.1957
18.304408781233683 90.8557
18.32696035875955 97.4761
18.349512652227624 102.054
18.372065662579683 106.365
18.394795594587553 104.26
18.41735004715306 97.3124
18.43990521943684 88.9146
18.46246111238171 79.8607
18.485193953325208 71.4636
18.507751296070428 66.029
18.530309362314178 63.467
18.552868153000343 62.108000000000004
18.57560391815056 60.7786
18.59816416623245 60.7311
18.620725141597372 60.2975
18.643286845190268 59.9072
18.666025549835414 59.4683
18.688588718427933 58.8765
18.711152618092243 58.6032
18.73389353884365 58.4775
18.75645890921984 57.9383
18.77902501351406 57.8782
18.801591852673102 57.8168
18.824335739722738 57.2076
18.846904057212626 57.2319
18.8694731124168 56.8877
18.89204290628315 56.9039
18.914789774966803 56.705
18.937361054791623 56.4745
18.959933076131318 56.25899999999999
18.982505839934877 56.0262
19.00525570560582 56.0445
19.027829963004184 55.8143
19.05040496572238 55.8673
19.072980714710468 56.0363
19.095733592739563 56.4464
19.11831084296757 56.6423
19.140888842324735 56.717
19.16346759176222 56.8147
19.18622349753803 57.5122
19.208803755869358 58.6038
19.231384767143577 59.8142
19.253966532312948 61.5466
19.276725481241822 63.7921
19.29930876296784 66.6328
19.3218928014549 69.8002
19.34465404436217 72.641
19.36723960516257 75.0262
19.389825925592426 75.0172
19.412413006605938 72.5825
19.43517731967805 68.2236
19.457765930683355 63.8885
19.48035530514408 59.9277
19.50294544401556 56.7623
19.525712842708348 54.8388
19.54830451925909 53.9681
19.570896963095727 53.3125
19.593490175174704 53.1031
19.616260674962184 53.0713
19.638855432416964 52.6255
19.661450960992624 52.7673
19.68404726164677 52.845
19.706820878021247 52.5424
19.729418731756834 52.8805
19.752017360452857 52.5899
19.77461676506804 52.7356
19.797393513540218 52.968999999999994
19.819994478951667 53.2934
19.84259622316767 53.556999999999995
19.8651987471481 54.0793
19.887978643247177 54.388999999999996
19.91058273574792 54.718999999999994
19.933187610901943 55.7535
19.955969879466828 57.0666
19.97857632894404 58.3954
20.00118356396599 60.341
20.023791585494575 62.7935
20.046577028914875 65.9482
20.069186632506966 67.9592
20.091797025500632 69.8772
20.114408208858933 69.8012
20.137196842715273 68.6427
20.159809615886765 65.9935
20.18242318232135 63.3742
20.20503754298326 61.4937
20.227829382875154 60.73
20.250445341109344 61.3277
20.27306209647285 62.4339
20.29567964993108 63.9526
20.31847471147704 64.9098
20.34109387027612 65.5465
20.363713830075454 64.1197
20.386334591841646 61.7973
20.409132890679302 58.6146
20.431755265564437 55.5702
20.454378445325528 53.3539
20.477002430930366 51.7103
20.499803982716553 50.7064
20.522429589228004 49.8412
20.54505600449589 49.656000000000006
20.567683229489194 49.8683
20.590488049900088 49.4569
20.61311690359731 49.4011
20.63574656993626 49.2383
20.658553853717297 48.8441
20.681185154618298 48.9763
20.703817271080066 48.7367
20.72645020407368 48.4243
20.749260783967177 48.4291
20.771895359337133 48.2642
20.794530754161617 48.2298
20.817166969412938 48.045
20.83998086114876 48.0911
20.86261872660049 47.9686
20.885257415405402 47.8415
20.90789692853701 47.7284
20.930714147864748 47.8622
20.953355319030678 48.0521
20.97599731745334 48.1093
20.99864014410749 47.7822
21.021460706796564 47.7848
21.044105199328826 47.9142
21.06675052302631 48.2379
21.089396678865015 48.4143
21.112220600704806 48.6836
21.134868430275347 49.0054
21.15751709492456 49.2929
21.180166595629693 49.8305
21.202993892429635 50.1936
21.22564507473034 50.6497
21.24829709602816 50.8659
21.27112693608965 50.6026
21.293780644891275 50.4411
21.316435195634053 49.6141
21.339090589297417 48.8199
21.361923832041875 48.4147
21.384580921090404 47.9761
21.407238856007325 47.6318
21.429897637773326 47.4627
21.45273429906592 47.6734
21.475394784108598 47.6632
21.498056118951983 47.6067
21.520718304578022 47.981
21.543558400304388 48.1164
21.566222297108816 48.3889
21.58888704765135 48.6291
21.61155265291521 48.8707
21.63439619898156 49.2673
21.657063523335786 49.4304
21.67973170537063 49.8099
21.7024007460706 50.4257
21.72524775840385 51.3083
21.747918526116475 52.2687
21.770590155457388 53.4393
21.79326264741238 55.0592
21.816113141960237 57.0152
21.838787368860547 59.0396
21.861462461341976 61.1789
21.884315579735777 63.4691
21.90699241312273 64.4439
21.92967011506078 64.0547
21.95234868653799 62.4918
21.9752053151131 60.6448
21.997885635446785 58.39
22.020566828293532 56.6962
22.04324889464272 55.5758
22.066109049404666 55.1344
22.088792872571794 55.1466
22.111477572219204 55.3663
22.1341631493376 55.6922
22.157026846313123 54.9104
22.179714188221507 53.9173
22.202402410582668 52.711999999999996
22.22509151438863 51.1136
22.24795876962584 49.9949
22.270649646204486 49.2063
22.293341407213727 48.6331
22.316034053646906 48.2492
22.338904883215342 48.2262
22.36159931041458 48.0051
22.38429462602756 47.9437
22.40699083104897 47.7756
22.429865251039757 47.7792
22.452563244831367 47.8436
22.47526213102522 47.7796
22.49813925616515 47.729
22.520839937143307 47.7165
22.543541513520587 47.8276
22.56624398629403 47.7929
22.589124730075895 47.7097
22.611829005656723 48.0862
22.63453418063466 48.1616
22.657240256008077 48.2877
22.680124634582935 48.49100000000001
22.70283252079775 48.7089
22.725541310413075 49.0177
22.74825100442868 49.1331
22.771139033969575 49.7002
22.79385054687155 49.9322
22.81656296718292 50.6611
22.83927629590484 51.3345
22.862167992606945 52.5066
22.88488314827121 53.7929
22.907599215359284 54.9572
22.93031619487366 56.2996
22.953211574954405 57.3506
22.975930389478226 57.3721
22.998650119445763 57.0782
23.02137076586092 55.8086
23.044269845560063 54.2233
23.06699233506288 52.3829
23.089715744034912 50.803000000000004
23.112617610931565 49.4233
23.135342869061212 48.6446
23.158069049684816 48.0838
23.1807961538087 47.9164
23.20370174880544 48.151
23.226430710184808 48.1931
23.249160598093425 48.1327
23.271891413539002 48.0178
23.294800752937697 48.1483
23.31753343374794 48.3154
23.340267045128353 48.5218
23.36300158808808 48.7503
23.38591468821339 49.1611
23.408651104658304 49.5502
23.431388455719986 50.2464
23.454126742409 50.9334
23.4770436196085 52.1645
23.499783787914662 53.7208
23.522524894889884 54.8994
23.54526694154616 56.1918
23.56818761219047 57.2846
23.59093154860734 57.5922
23.613676427751283 57.1514
23.636422250635754 55.6223
23.659346731118656 53.6194
23.68209445191868 51.6044
23.704843119509587 49.4667
23.72759273490623 47.9156
23.750521041644767 46.861000000000004
23.77327256312355 45.9756
23.796025035462787 45.551
23.818956224555475 45.1498
23.841710609113413 45.1625
23.86446594758979 44.953
23.887222241002014 44.6447
23.910157285144578 44.3213
23.932915498962537 44.3772
23.955674670778713 44.2975
23.978434801611975 44.0187
24.001373717286125 43.7648
24.024135776723917 43.9549
24.046898798245582 43.8061
24.06966278287146 43.8376
24.092605586582614 43.428999999999995
24.115371508023642 43.3339
24.1381383956401 43.1982
24.16090625045381 43.108000000000004
24.183852958731244 43.1455
24.206622758582608 43.073
24.229393528706886 42.6553
24.252165270127392 42.9061
24.27511589952438 42.8556
24.297889594216997 42.5969
24.32066426328598 42.5436
24.34343990775613 42.5396
24.36639447485003 42.5483
24.38917208083877 42.5059
24.41195066531332 42.3255
24.43490819850244 42.3455
24.457688750692377 42.2988
24.48047028445616 42.2927
24.503252800821233 42.4618
24.526214300784112 42.5197
24.548998793132213 42.4622
24.57178427117417 42.2613
24.59457073593893 42.3619
24.617536219319863 42.3109
24.64032466834748 42.2071
24.663114107195035 42.0625
24.685904536893013 41.8414
24.708874020360852 41.6382
24.731666442613744 41.5837
24.754459858818787 41.7203
24.777254270007962 41.5797
24.80022777025625 41.5188
24.82302418230472 41.5785
24.845821592443674 41.6277
24.86862000170663 41.5343
24.891597535453727 41.3869
24.914397953892728 41.6021
24.93719937456671 41.5553
24.96000179851076 41.6613
24.98298338249997 41.8322
25.00578782394922 42.1597
25.028593271784167 42.3862
25.05157790644186 42.6497
25.07438537804115 42.5632
25.097193859145293 43.193000000000005
25.120003350792075 43.3418
25.142992065061257 43.7459
25.165803588823465 43.9065
25.18861612625217 43.9197
25.211429678386736 43.9311
25.234422489079968 43.9872
25.257238081693636 43.9631
25.280054692141732 44.1661
25.3028723214652 44.0759
25.325869245420463 44.2746
25.348688923599397 44.3888
25.371509623787006 43.937
25.394331347025812 43.7393
25.41733240110666 43.0908
25.440156181590016 42.3526
25.46298098826268 41.9173
25.48580682216873 41.3871
25.50881202326435 40.9518
25.53163992281684 40.6574
25.55446885274561 40.5578
25.577298814096377 40.2792
25.600308179121807 40.1971
25.623140214533745 40.244
25.64597328451537 40.0488
25.66898578564376 39.8122
25.691820936010206 39.8475
25.714657124097695 39.7771
25.737494350954734 39.9116
25.760511045684957 39.8522
25.783350361364224 39.8554
25.806190718969255 39.7604
25.82903211955018 39.819
25.852053024868923 39.9077
25.874896522722523 39.9108
25.897741066713106 39.8638
25.920586657892454 40.0359
25.943611790812668 40.1305
25.966459487728237 40.2114
25.989308234998564 40.3128
26.01215803367705 40.6533
26.03518741123814 40.9591
26.05803932412957 41.2022
26.080892291600094 41.0114
26.10374631470478 41.0385
26.12677995397268 41.1445
26.14963609978026 40.9397
26.172493304397875 40.4793
26.19535156888223 40.2701
26.218389486949604 39.9336
26.241249882640123 39.7157
26.26411134137826 39.4712
26.28715248187403 39.5739
26.31001607820869 39.4446
26.3328807407756 39.272
26.35574647063438 39.4861
26.37879191991473 39.4482
26.401659795896734 39.4738
26.424528742360263 39.6421
26.447398760366614 39.8669
26.470448535598294 39.9672
26.49332070826805 40.0505
26.516193955675355 40.4601
26.53906827888316 40.6397
26.562122397260108 40.835
26.584998883685063 41.2354
26.607876449110325 41.5658
26.63075509460056 41.5187
26.65381357334404 41.6539
26.67669439061878 41.5146
26.699576291163382 41.3218
26.722459276044212 41.111999999999995
26.745522132402975 40.7524
26.768407297649354 40.696
26.791293550442003 40.3427
26.814180891848974 40.179
26.837248143099337 39.922
26.860137673466657 39.8161
26.88302829566349 39.4699
26.90592001075963 39.3181
26.92899167420566 39.2349
26.951885586870763 38.8591
26.974780595655517 38.5816
26.99785558178161 38.541
27.020752794605112 38.357
27.043651106772522 38.3545
27.06655051935668 38.2403
27.089629948036183 38.1504
27.112531573292053 38.1324
27.135434302194138 38.1094
27.158338135817015 37.9095
27.181422024430987 38.0026
27.204328079372566 37.8725
27.22723524226965 37.8331
27.250143514198573 37.9266
27.273231880156334 38.0659
27.296142382065014 37.7925
27.319053996245536 37.6917
27.341966723775965 37.8433
27.365059584515222 37.8484
27.38797455070062 37.8788
27.410890633481237 37.7563
27.433807833936918 37.8148
27.456905206923906 38.0121
27.47982465472398 37.9619
27.502745223449743 38.0057
27.525666914182825 38.1154
27.548768816912457 37.9338
27.571692763693633 37.8622
27.59461783573812 37.751
27.617723149491244 37.5867
27.640650484125285 37.3856
27.66357894728264 37.5073
27.686508540048052 37.4928
27.709618414237887 37.4571
27.732550278321757 37.3409
27.755483275279115 37.1146
27.778417406196485 37.2697
27.801531858397514 37.2321
27.824468269376716 37.1566
27.847405817586786 37.2215
27.870344504116094 37.5442
27.893463551932008 37.6361
27.916404527281053 37.7264
27.93934664422563 37.7938
27.962289903855886 37.9987
27.98541356491974 38.1619
28.00835912214229 38.2203
28.03130582533231 38.6242
28.054253675581805 38.6774
28.077381967556104 38.592
28.100332124185126 38.4747
28.123283431160893 38.1814
28.146235889577238 37.9918
28.169368830154156 37.8952
28.192323603752033 37.784
28.215279532083304 37.6079
28.238415973016764 37.2991
28.261374223145094 37.1815
28.284333631303806 36.9398
28.307294198589954 36.8449
28.330435319167677 36.4799
28.353398217078915 36.1752
28.376362277420153 36.1571
28.39932750129032 35.869
28.422473319286713 35.7818
28.44544088262495 35.6231
28.468409612800283 35.5944
28.491379510913497 35.3789
28.51453004413313 35.2682
28.53750229057244 35.2944
28.56047570826344 35.3946
28.583450298308804 35.3315
28.606605564586562 35.0675
28.629582511831156 35.1256
28.65256063474956 35.1602
28.675539934446338 35.0851
28.698699951647605 35.0164
28.72168161743193 34.8772
28.74466446331978 34.8753
28.767648490417624 34.8597
28.790813276438353 34.8215
28.813799678527303 34.8459
28.836787265157085 34.8907
28.859955641890075 34.9089
28.882945610203045 34.735
28.905936766392035 34.7891
28.928929111566863 34.8384
28.952102288520145 34.7066
28.975097024308607 34.4885
28.998092952423807 34.5323
29.021090073977508 34.41
29.04426806913204 34.2511
29.067267590245258 34.1497
29.090268308143695 33.9847
29.11327022394099 33.9443
29.13645305530891 33.8626
29.159457379627167 33.8148
29.18246290519685 33.9066
29.20546963313352 33.665
29.22865731875826 33.7715
29.25166646419296 33.8722
29.27467681535305 33.6945
29.29768837335608 33.7531
29.320880931312562 33.8832
29.34389491580634 33.8358
29.366910110507334 33.7928
29.38992651653503 33.7008
29.41312396492981 33.6393
29.436142806456754 33.6025
29.45916286268059 33.4784
29.48236399319994 33.3621
29.50538649169417 33.2194
29.528410208259935 33.141
29.55143514402014 32.9018
29.574641196749695 32.7318
29.597668583816574 32.8436
29.6206971934585 32.5996
29.64372702680042 32.5978
29.666938019934474 32.4993
29.689970313635285 32.491
29.713003834422636 32.429
29.73603858342347 32.3895
29.759254535188578 32.3718
29.78229175361658 32.2709
29.80533020365064 32.2871
29.82836988641968 32.3374
29.85159081507472 32.2634
29.874632976355343 32.0878
29.89767637376955 32.2034
29.920721008448314 32.1671
29.9439469322847 32.092
29.96699405457564 32.0753
29.9900424175358 31.9875
30.013092022298157 32.0138
30.03632295963995 32.0211
30.059375061131373 32.0226
30.08242840783577 31.9721
30.105483000888153 32.027
30.128718970092244 31.8606
30.151776069006917 31.9071
30.17483441768648 31.8519
30.198074175317235 31.8918
30.221135036724256 31.8525
30.24419715131772 31.8862
30.267260520236203 31.8127
30.290505341942243 31.8389
30.313571232750228 31.8471
30.336638381310948 31.7861
30.35970678876503 31.6832
30.38295669299435 31.6112
30.40602763151657 31.6229
30.429099832366074 31.5538
30.452173296685572 31.476999999999997
30.47542830191959 31.5417
30.498504306502497 31.5259
30.521581577995562 31.5577
30.544660117543582 31.633000000000003
30.56792024229725 31.5978
30.59100133132069 31.7111
30.614083691845494 31.7389
30.637167325018545 31.6808
30.660432587840603 31.6936
30.683518779717886 31.736
30.70660624769615 31.7358
30.729694992924372 31.7372
30.75296541239743 31.7208
30.77605672557558 31.685
30.799149319462742 31.5581
30.8224236211637 31.3901
30.845518789950724 31.3832
30.868615242910597 31.3561
30.891712981195973 31.1696
30.91499247215866 31.061
30.938092794619365 30.9664
30.96119440587579 30.9943
30.984297307082752 30.8312
31.00758200598383 30.728
31.030687500658694 30.6321
31.053794288760695 30.5638
31.076902371446767 30.57
31.100192296997445 30.6655
31.12330298246119 30.5847
31.14641496599209 30.3932
31.169528248749216 30.4608
31.19282341969534 30.4114
31.215939314557186 30.4772
31.239056512134788 30.4765
31.262175013589378 30.3116
31.28547544871168 30.4175
31.30859657161541 30.406
31.331719001892175 30.3509
31.35484274070538 30.4518
31.378148458819545 30.4413
31.401274828443725 30.4397
31.424402510106933 30.4303
31.447712205419993 30.4808
31.470842524931633 30.3459
31.493974159989783 30.3445
31.51710711176168 30.2398
31.54042212308802 30.2655
31.563557722100917 30.2501
31.586694641341655 30.0516
31.609832881979628 30.0299
31.63315322823208 29.881
31.656294125521327 29.8494
31.679436347728515 29.7537
31.70257989602529 29.7727
31.725905596152327 29.6367
31.74905181052835 29.5741
31.772199354521323 29.7435
31.79534822930507 29.6972
31.818679302290967 29.689
31.84183085259981 29.6699
31.864983737233473 29.6962
31.88813795736804 29.5843
31.911474422233013 29.6001
31.934631327356435 29.6135
31.9577895715215 29.5186
31.980949155906522 29.6019
32.004291031706956 29.5284
32.027453310562606 29.3131
32.05061693318573 29.3053
32.07396288236386 29.3561
32.09712920658542 29.2626
32.12029687812702 29.1888
32.14346589817093 29.0222
32.166817291729984 29.0792
32.18998902288583 29.0008
32.21316210610336 28.835
32.23633654256711 28.7671
32.259693399663725 28.7791
32.282870556771144 28.6729
32.30604907069099 28.7103
32.329228942610065 28.6144
32.35259128243769 28.5775
32.375773884550505 28.5519
32.398957848235646 28.4724
32.422143174682176 28.4341
32.445511016471215 28.2997
32.468699082679954 28.2447
32.49188851523011 28.1746
32.51507931531304 28.0907
32.538452678331 28.2437
32.56164622776311 28.1389
32.58484114831493 28.022
32.60803744118015 28.0107
32.631416344731896 28.0314
32.654615396551876 27.9763
32.67781582427913 27.9505
32.701198898634416 27.9061
32.72440209253756 27.8676
32.747606665947124 27.7586
32.77081262006088 27.6018
32.79420126883317 27.6726
32.81740999876112 27.6182
32.840620112999424 27.603
32.86383161274818 27.5883
32.88722585534586 27.5961
32.91044014056596 27.5652
32.933655814909734 27.5129
32.95687287957963 27.6118
32.98027273544904 27.4055
33.00349259526636 27.3016
33.026713849030116 27.3909
33.04993649794511 27.4305
33.073341986570746 27.3448
33.09656744032826 27.2406
33.11979429286444 27.3338
33.14302254538647 27.3037
33.166433686291185 27.3385
33.18966475336992 27.2794
33.212897224069096 27.1566
33.23613109959831 27.1606
33.259547912343415 27.1164
33.2827846121627 27.1481
33.306022720453775 27.0197
33.32926223842861 26.9436
33.352684742614166 26.956999999999997
33.37592709463173 26.9311
33.399170859982064 26.8248
33.422597648419426 26.6914
33.44584425514446 26.6363
33.46909227885668 26.5894
33.4923417207723 26.4762
33.51577423505344 26.6241
33.539026528130385 26.4912
33.56228024307245 26.5124
33.585535381098246 26.3441
33.60897364093058 26.2335
33.63223163992385 26.3335
33.6554910656699 26.2828
33.678751919389796 26.3038
33.702195944520106 26.1928
33.72545966903325 26.1144
33.74872482519663 26.0901
33.771991414233746 26.0669
33.79544122444841 26.0791
33.81871069412428 25.9707
33.84198160035767 26.0027
33.86525394437455 25.9508
33.88870955949969 25.8936
33.911984794020626 25.8922
33.93526147001624 25.8553
33.958539588715006 25.7911
33.98200102861669 25.6993
34.0052820477047 25.6706
34.02856451319451 25.6489
34.05203033759056 25.5681
34.07531571090147 25.524
34.09860253431845 25.5073
34.121890809074316 25.4439
34.145362493118924 25.3966
34.16865368561615 25.4192
34.191946333164054 25.3519
34.21524043699793 25.4375
34.23871800066799 25.3165
34.26201503218366 25.2512
34.28531352370466 25.2716
34.30861347646881 25.2018
34.33209693978188 25.1324
34.3553998301885 25.0742
34.378704185565205 24.9077
34.402010007152356 24.9523
34.42549939016683 24.9745
34.44880815937748 24.8631
34.472118398533134 24.8705
34.49543010887669 24.846999999999998
34.51892543169198 24.7529
34.54224009966052 24.7972
34.56555624255917 24.7235
34.58887386163339 24.6291
34.61237514439016 24.6357
34.6356957311114 24.5056
34.65901779775809 24.5679
34.68252356662995 24.555
34.705848608458616 24.5018
34.72917513396849 24.4382
34.75250314440949 24.3974
34.77601490857862 24.2355
34.799345904259795 24.2476
34.82267838863559 24.3179
34.846012362958525 24.2644
34.869530142679984 24.2952
34.89286711232212 24.2101
34.91620557568269 24.1249
34.93954553401677 24.1137
34.9630693495876 24.1016
34.986412313340814 24.0658
35.00975677584668 24.0744
35.033102738362956 23.9827
35.05663261012228 23.9256
35.0799815881786 23.9482
35.10333207003229 23.8073
35.12668405694369 23.8726
35.150220005273056 23.8086
35.17357501786656 23.8173
35.19693153931268 23.7497
35.220289570874385 23.7732
35.24383161619786 23.7663
35.267192683604904 23.7344
35.290555264930376 23.7193
35.314101899412165 23.7638
35.33746752422433 23.6644
35.36083466676374 23.6372
35.38420332829803 23.605
35.407756095629054 23.6413
35.43112781085063 23.596
35.45450104888391 23.549
35.477875810999194 23.5346
35.50143473172161 23.4731
35.52481255774625 23.4576
35.54819191167777 23.4404
35.57157279478914 23.379
35.595137889488406 23.3148
35.61852184675279 23.3341
35.641907337029984 23.2978
35.665294361595684 23.2807
35.68886565090076 23.1616
35.7122557598848 23.099
35.73564740699838 23.096999999999998
35.759040593519934 23.0302
35.78261809810353 22.9639
35.80601437933051 22.9563
35.829412203814705 22.9512
35.85281157283719 22.8835
35.876395313415884 22.8342
35.8997977874528 22.7596
35.92320180988546 22.8136
35.946790244133936 22.7456
35.97019737933222 22.7427
35.993606066789866 22.6712
36.01701630779276 22.6737
36.04061101440684 22.6445
36.06402437852291 22.6603
36.08743930005611 22.6377
36.1108557802951 22.4936
36.13445678011326 22.5303
36.15787639383515 22.4528
36.18129757014299 22.4051
36.20472031032821 22.3541
36.22832762423364 22.3535
36.25175350829375 22.3323
36.275180960119776 22.2942
36.298609981005924 22.3093
36.32222362992669 22.261
36.34565580510207 22.245
36.36908955323448 22.1811
36.39252487562093 22.0514
36.416144880530226 22.0704
36.43958336764275 22.0541
36.463023432914625 22.1373
36.486465077645676 21.9744
36.51009145956204 22.0315
36.53353627947859 22.0434
36.55698268276811 21.9917
36.58043067073321 21.8629
36.60406345072071 21.7801
36.62751462435344 21.8093
36.65096738658405 21.7569
36.67460498210655 21.7407
36.69806093788647 21.7488
36.72151848619297 21.6733
36.744977628333636 21.6886
36.76862165890998 21.5915
36.79208400512205 21.6271
36.81554794910557 21.5593
36.83901349217101 21.5268
36.862663978991606 21.4969
36.88613273667352 21.5055
36.90960309738324 21.4441
36.933075062434064 21.355
36.95673202673572 21.3393
36.98020721697122 21.2242
37.003684015502365 21.2682
37.027162423645365 21.1677
37.050825886711465 21.2518
37.07430753063053 21.2042
37.09779078812467 21.1781
37.121275660513014 21.1333
37.144945643673694 21.0723
37.16843376245278 20.9897
37.19192350009803 21.0795
37.215414857931435 21.002
37.239091382563885 20.9512
37.262585997426164 20.9183
37.28608223645736 20.8918
37.309763684451696 20.8641
37.33326318851098 20.8427
37.356764320726555 20.8801
37.380267082425526 20.7709
37.40395510942588 20.7747
37.42746114683234 20.6688
37.45096881771841 20.6333
37.474478123414166 20.62
37.49817275092816 20.5938
37.52168534303452 20.5969
37.54519957395567 20.5354
37.568715445024665 20.5016
37.592416694607714 20.4397
37.61593586281424 20.4413
37.63945667518264 20.4526
37.66297913304891 20.4098
37.68668702630454 20.401
37.710212792059274 20.2448
37.733740207334854 20.2584
37.757269273470364 20.2739
37.780983832050374 20.222
37.80451621684926 20.1794
37.82805025654007 20.1719
37.851585952464795 20.0541
37.8753071980695 20.0679
37.89884622345676 20.0616
37.92238690911902 20.0434
37.94611318753442 19.984
37.969657210779765 19.9453
37.99320289834801 19.9068
38.016750251586465 19.8582
38.04048325513017 19.7874
38.06403395679343 19.7913
38.087586328183946 19.753
38.11114037065203 19.739
38.13488012115898 19.7536
38.1584375229181 19.7128
38.181996599821 19.5734
38.205557353221124 19.5893
38.229303872575656 19.6316
38.2528679961576 19.5397
38.27643380031219 19.5393
38.30000128639589 19.4799
38.32375459653193 19.4529
38.34732546371299 19.4919
38.37089801690786 19.4295
38.39447225747609 19.3747
38.418232380377425 19.3522
38.441810012983396 19.3433
38.46538933705673 19.2558
38.488970353960084 19.2242
38.51273731166058 19.2534
38.536321731567014 19.1769
38.55990784840681 19.1337
38.58367995004091 19.0849
38.60726947812959 19.0182
38.63086070726198 19.0636
38.654453638806274 19.1459
38.678232613930824 18.9891
38.70182896773327 18.9391
38.72542702806741 18.9415
38.7490267963045 18.9021
38.77281266709232 18.8899
38.79641586862214 18.8071
38.8200207821842 18.8187
38.843627409152944 18.8325
38.86742019782782 18.7523
38.891030269149255 18.7298
38.914642058016156 18.7228
38.938255565806124 18.6745
38.96205529464307 18.6868
38.98567225787121 18.6282
39.00929094417078 18.6665
39.03291135492255 18.5781
39.05671804624804 18.5393
39.080341923549106 18.508
39.103967529460334 18.4844
39.127594865365744 18.3615
39.15140854155791 18.2747
39.17503935514948 18.369
39.19867190290282 18.3854
39.22249083587951 18.2907
39.24612686969409 18.2915
39.269764641845306 18.2465
39.293404153722804 18.2561
39.317230110864074 18.1368
39.34087311998506 18.1383
39.36451787301696 18.1669
39.388164371352595 18.0634
39.41199737518003 18.0213
39.43564738196752 18.0989
39.45929913825317 17.9972
39.48295264543308 18.0454
39.506792718520884 17.9811
39.530449745387216 17.9735
39.55410852735203 17.9185
39.57776906581474 17.9007
39.60161623079 17.8525
39.625280300200025 17.8074
39.64894613032202 17.8035
39.67261372255866 17.7432
39.6964680021016 17.7771
39.72013913657293 17.7445
39.74381203738292 17.6926
39.76748670593756 17.6726
39.79134812278169 17.6378
39.81502634488497 17.636
39.83870633896685 17.5876
39.862388106436654 17.5013
39.88625668336918 17.4943
39.90994201572829 17.4684
39.933629125719285 17.4559
39.957503091207826 17.4345
39.9811937746168 17.4645
40.00488623990914 17.3713
40.02858048850006 17.3928
40.05246165409549 17.3682
40.076159487492085 17.3135
40.099859108448875 17.2963
40.123560518384345 17.2213
40.1474489070226 17.1717
40.171153913178564 17.1521
40.194860712584955 17.1842
40.2185693066637 17.1716
40.242464941335314 17.1052
40.26617714307655 17.0642
40.289891143772046 17.0442
40.3136069448471 17.0397
40.33750984859743 16.9954
40.3612292688043 16.9111
40.3849504936829 16.887999999999998
40.40867352466194 16.9173
40.43258372059144 16.8267
40.45631038219906 16.8943
40.48003885420956 16.8461
40.503769138055105 16.8005
40.52768664931955 16.8212
40.55142057531802 16.8089
40.57515631746428 16.7758
40.599079334038514 16.7644
40.62281872700477 16.6432
40.64655994043941 16.6466
40.67030297578061 16.6406
40.69423334835778 16.562
40.71798004609188 16.5792
40.74172857006355 16.5405
40.76547892171441 16.5527
40.7894166736039 16.5134
40.813170699248566 16.4413
40.83692655691388 16.4633
40.86068424804498 16.415
40.884629402612525 16.392
40.908390779366385 16.3918
40.932153993938 16.3707
40.95591904777605 16.3149
40.979871628443995 16.3522
41.003640379561936 16.3101
41.02741097430883 16.215
41.05118341413683 16.2097
41.075143444384416 16.2405
41.098919593177826 16.1973
41.1226975914255 16.1755
41.14647744058318 16.1008
41.170444943946755 16.0731
41.19422851378379 16.082
41.218013938914645 16.0165
41.24198706625173 15.9597
41.26577622087193 15.9207
41.289567235177785 15.9205
41.31336011063129 15.9063
41.337340752422875 15.8657
41.361137369129835 15.8931
41.38493585138705 15.8272
41.40873620066004 15.7593
41.43272438060107 15.7501
41.45652848292052 15.7368
41.48033445666918 15.7413
41.50414230331616 15.6599
41.528138045159764 15.6652
41.551949656675205 15.6067
41.575763145513235 15.5858
41.59957851314666 15.6125
41.62358184070442 15.5524
41.64740098505737 15.5222
41.6712220126409 15.5072
41.69504492493139 15.4476
41.71905586207357 15.450999999999999
41.74288256296395 15.45
41.766711153007456 15.4016
41.79054163368412 15.3262
41.814560204340054 15.3781
41.838394485526365 15.3414
41.86223066180303 15.2835
41.88625497706819 15.312999999999999
41.910094962812 15.2935
41.93393684811168 15.2251
41.95778063445365 15.1466
41.981812625263366 15.149000000000001
42.00566023303407 15.2166
42.029509746323676 15.1347
42.05336116662236 15.1093
42.077400857069705 15.1536
42.10125611078846 15.0265
42.12511327600405 15.0314
42.14897235421036 14.9552
42.173019768448455 15.0465
42.19688269209613 14.9578
42.22074753323349 14.9247
42.24461429335818 14.8274
42.268669455600495 14.8754
42.292540073217886 14.8774
42.31641261433284 14.8612
42.34028708044675 14.8442
42.36435001496739 14.7599
42.38822835065557 14.8099
42.41210861586426 14.7735
42.4359908120986 14.7627
42.46006154323262 14.7108
42.48394762115317 14.6254
42.507835634632315 14.6478
42.531912233047436 14.6108
42.55580413732265 14.6069
42.579697981698 14.5764
42.60359376768525 14.5368
42.62767820545945 14.5322
42.65157789440821 14.4956
42.67547952952185 14.4937
42.699383112316 14.4311
42.72347541395347 14.3363
42.74738291190531 14.3498
42.771292362102166 14.3944
42.795203766063516 14.3522
42.819303956130405 14.3037
42.843219287476536 14.2698
42.86713657716324 14.2674
42.89105582671383 14.2192
42.91516392983864 14.2478
42.939087119032166 14.2149
42.963012272677304 14.1431
42.98693939230129 14.1099
43.01105543317513 14.1206
43.034986504731386 14.08
43.05891954686589 14.0594
43.08285456110972 14.0916
43.10697856448665 14.0268
43.130917542983475 13.9846
43.15485849820081 13.9934
43.17880143167367 13.953
43.20293342237094 13.9108
43.226880332449 13.909
43.25082922540554 13.899000000000001
43.27496722682525 13.8757
43.29892010567796 13.8193
43.32287497204102 13.8197
43.34683182745632 13.7495
43.370977859791836 13.7859
43.39493871351105 13.7425
43.41890156092628 13.7209
43.44286640358341 13.7041
43.46702049182749 13.7161
43.49098934522816 13.716
43.51496019852649 13.5971
43.5389330532723 13.547
43.56309522248204 13.5563
43.58707210044314 13.5401
43.61105098451946 13.5269
43.63503187626491 13.5118
43.659202151562134 13.4724
43.68318707902681 13.4473
43.70717401884041 13.4186
43.731162972560874 13.4108
43.75534137913236 13.4072
43.779334381108384 13.3721
43.803329401683186 13.3026
43.82732644241872 13.26
43.8515130055166 13.3371
43.87551410707659 13.2703
43.89951723350145 13.2845
43.923709934595614 13.2433
43.94771713129917 13.2016
43.97172635758096 13.1887
43.99573761501002 13.1387
44.0199385169922 13.1014
44.04395385732619 13.1158
44.067971233533086 13.091
44.09199064718605 13.0301
44.11619977548961 13.0422
44.14022328470671 13.0256
44.16424883610785 12.9846
44.18827643127035 12.9646
44.21249381139513 12.972999999999999
44.236525514814076 12.9684
44.26055926674478 12.9097
44.28459506876863 12.9018
44.3088207262813 12.8573
44.33286064928722 12.8443
44.35690262714919 12.845
44.38094666145278 12.7863
44.4051806219871 12.8191
44.42922879003185 12.7823
44.45327901929361 12.7014
44.477331311362136 12.6928
44.501573600619416 12.6424
44.525630039221795 12.6401
44.54968854541895 12.6705
44.573937102200176 12.6278
44.5979997645541 12.624
44.622064499300315 12.5846
44.64613130803592 12.5192
44.67038823869318 12.5182
44.69445921643748 12.4594
44.718532272981385 12.4337
44.742607409926194 12.46
44.76687274034801 12.4846
44.79095205918753 12.4372
44.81503346325094 12.3925
44.839116954143876 12.3953
44.86339071028742 12.37
44.88747839599524 12.3348
44.91156817336837 12.2924
44.93566004401666 12.3289
44.959942251908146 12.290999999999999
44.984038330325966 12.29
45.00813650686762 12.1924
45.03223678314731 12.2136
45.05652746888232 12.1786
45.08063196592069 12.1287
45.104738567558705 12.0989
45.128847275414856 12.0895
45.15314646515866 12.0817
45.17725940679741 12.0767
45.20137445952892 12.0301
45.22568004865265 12.0049
45.24979934496396 11.9804
45.27392075725247 11.9945
45.29804428714431 11.9558
45.322358426247604 11.9744
45.346486212804315 11.9247
45.370616121861914 11.911
45.39474815505086 11.9012
45.41907087049246 11.837
45.4432071734666 11.7815
45.46734560548283 11.854000000000001
45.49148616817604 11.8153
45.51581748638564 11.7889
45.5399623320197 11.7656
45.56410931325473 11.7543
45.58825843173002 11.7417
45.61259837920865 11.6811
45.636751793816 11.6808
45.66090735060093 11.6271
45.68506505120716 11.615
45.7094136545275 11.6099
45.73357566449271 11.5922
45.75773982322992 11.5768
45.78190613238733 11.5768
45.806263418194064 11.4798
45.83043404997326 11.5266
45.85460683713677 11.4912
45.87897065658495 11.495
45.90314777634752 11.4475
45.92732705646868 11.4219
45.9515084986045 11.4205
45.97588104735473 11.3641
46.00006683541565 11.4
46.02425479047904 11.3132
46.04844491420549 11.3205
46.0728262191024 11.3089
46.09702070211635 11.2771
46.12121735879483 11.2823
46.14541619080294 11.2563
46.169806278764455 11.2253
46.194009483459034 11.2169
46.21821486849841 11.1995
46.24242243555223 11.1606
46.266821333570014 11.144
46.29103328674601 11.0811
46.31524742696538 11.1316
46.33946375590237 11.0716
46.36387149104216 11.0527
46.38809221957392 10.9829
46.41231514186606 11.0532
46.436540259597464 11.0321
46.460956858999374 10.9592
46.48518638983522 10.9609
46.509418121166966 10.9366
46.533652054678114 10.8969
46.55807754555709 10.8694
46.58231590571962 10.8835
46.60655647313217 10.8359
46.630988654873654 10.8467
46.655233659129024 10.8288
46.67948087571551 10.8246
46.70373030632484 10.7993
46.72817142736393 10.7633
46.752425308428684 10.7469
46.77668140861147 10.7297
46.80093972960865 10.6882
46.82538981736788 10.6603
46.849652602470904 10.6666
46.87391761349769 10.6382
46.8981848521493 10.618
46.9226439341274 10.5839
46.946915650573224 10.5651
46.97118959976749 10.5498
46.99546578341598 10.5162
47.019933887188216 10.5394
47.04421456235744 10.509
47.06849747711879 10.4516
47.09278263318286 10.4758
47.11725978640143 10.4564
47.14154944775105 10.418
47.165841355555656 10.3912
47.1901355115306 10.3649
47.214621741924994 10.3765
47.23892041698887 10.3487
47.26322134538975 10.2965
47.28771440635075 10.2946
47.31201986422527 10.3409
47.33632758061436 10.2119
47.360637557241866 10.2196
47.38513974410611 10.1994
47.40945426407847 10.2292
47.43377104948137 10.1749
47.45809010204344 10.1946
47.48260144275502 10.1546
47.506925052572285 10.1235
47.53125093475548 10.1032
47.55557909103813 10.0875
47.58009961361992 10.0773
47.60443234110732 10.092
47.62876734791564 10.0482
47.65310463578333 10.0186
47.6776343683373 9.998389999999999
47.7019762413987 9.98038
47.72632040075572 9.93
47.75066684815169 9.94382
47.77520581885936 9.94998
47.799556865477655 9.94062
47.823910205386 9.936169999999999
47.84826584033272 9.88626
47.87281407745551 9.8924
47.89717432569297 9.83883
47.92153687423484 9.83222
47.94609208429692 9.83182
47.97045925671401 9.84106
47.99482873471275 9.79532
48.01920052005013 9.78167
48.04376504619224 9.75271
48.068141469543484 9.7307
48.09252020552573 9.703619999999999
48.11690125590099 9.75657
48.1414751266064 9.670169999999999
48.16586082917454 9.66895
48.19024885144316 9.62922
48.2146391951793 9.62452
48.239222439012764 9.59938
48.26361744916137 9.59723
48.28801478610016 9.590530000000001
48.31241445160131 9.5711
48.337007097209366 9.52331
48.36141144338331 9.53246
48.38581812345755 9.47693
48.41022713920929 9.468919999999999
48.434829215320704 9.43817
48.45924292604658 9.47649
48.48365897780325 9.44974
48.50807737237308 9.40292
48.532688907799276 9.39082
48.55711201168574 9.37781
48.581537463754074 9.36938
48.60615611725119 9.35102
48.63058628942721 9.34165
48.65501881516546 9.30823
48.6794536962573 9.29805
48.70408185970339 9.265310000000001
48.72852147531801 9.248560000000001
48.75296345168211 9.23794
48.77740779059232 9.24629
48.80204549302823 9.19983
48.82649458091802 9.21608
48.85094603676547 9.17827
48.87539986237231 9.14128
48.90004713292306 9.14432
48.92450572200832 9.118219999999999
48.94896668628025 9.10187
48.97343002754588 9.07288
48.99808689542115 9.109010000000001
49.02255501470614 9.09702
49.04702551642794 9.07859
49.0714984023988 9.00787
49.096164896893235 9.021939999999999
49.120642575466796 8.957410000000001
49.145122643748394 8.96397
49.16960510355558 8.95923
49.19428125404938 8.91805
49.2187685210852 8.93051
49.243258185121555 8.88754
49.26794160167084 8.85625
49.2924360839405 8.88045
49.31693296869764 8.80144
49.34143225776915 8.79237
49.36612538195438 8.80684
49.39062950396021 8.81991
49.41513603578346 8.78968
49.4396449792564 8.75489
49.46434784069503 8.739939999999999
49.488861631846454 8.71878
49.513377840166804 8.7159
49.537896467493745 8.694239999999999
49.56260909589029 8.65708
49.587132585683285 8.67838
49.611658500018365 8.63217
49.636186840738596 8.59992
49.66090926588511 8.58567
49.685442483902584 8.588989999999999
49.70997813385706 8.56658
49.734516217597076 8.5912
49.75924846937352 8.56462
49.7837914452858 8.51295
49.80833686055187 8.47907
49.83288471702571 8.4713
49.85762682540054 8.49067
49.882179588965734 8.48524
49.9067347993235 8.45739
49.93129245833333 8.447389999999999
49.95604445336378 8.4173
49.98060703442832 8.36758
50.005172069746266 8.3921
50.02993150438364 8.329939999999999
50.05450147301533 8.393419999999999
50.07907390151433 8.32098
50.10364879174981 8.321110000000001
50.12841816587289 8.29341
50.1529980044635 8.28176
50.17758031042124 8.2631
50.20216508562089 8.24301
50.22694442953363 8.24521
50.25153416817468 8.201360000000001
50.27612638170508 8.205060000000001
50.300721072005196 8.1921
50.325510416102105 8.18449
50.350110084975064 8.15583
50.37471223628208 8.1552
50.39931687190919 8.1211
50.424116246675766 8.09908
50.44872587605249 8.12066
50.47333799543065 8.09786
50.49795260670191 8.06525
50.52276204271512 7.987710000000001
50.54738166295838 8.00515
50.57200378079314 8.02436
50.596628398116835 7.95431
50.62144792604559 7.991639999999999
50.646077567609396 7.997730000000001
50.670709714377715 7.97703
50.69553683636198 7.94793
50.72017401885922 7.89208
50.7448137122895 7.9332199999999995
50.76945591856022 7.912030000000001
50.79429318636823 7.8858
50.818940443716784 7.85151
50.84359021965163 7.837160000000001
50.868242516085964 7.85217
50.893089960641895 7.80761
50.917747323549435 7.77912
50.94240721271973 7.77993
50.96706963007175 7.72445
50.99192728239342 7.78138
51.01659478166073 7.77072
51.04126481489051 7.71628
51.06593738400761 7.72709
51.090805275207074 7.70495
51.11548294172845 7.657780000000001
51.14016314993547 7.669230000000001
51.164845901758845 7.651260000000001
51.18972406304274 7.59457
51.21441192780656 7.643110000000001
51.23910234200271 7.626810000000001
51.2637953075678 7.58369
51.288683770237945 7.59277
51.31338186432707 7.5368
51.33808251561888 7.53057
51.362978729967345 7.516830000000001
51.387684521509755 7.518619999999999
51.41239287610203 7.49265
51.437103795691165 7.48849
51.46201036644977 7.4710399999999995
51.486726441956634 7.42508
51.51144508832545 7.459110000000001
51.536166307509156 7.42057
51.56108326624387 7.42329
51.58580965706056 7.42485
51.61053862657523 7.3924
51.635270176746864 7.344360000000001
51.66019755512065 7.35902
51.68493429268881 7.35014
51.70967361681515 7.30745
51.73441552946465 7.3086899999999995
51.759353359237934 7.26376
51.7841004750961 7.291339999999999
51.80885018539685 7.291180000000001
51.833602492111254 7.27774
51.8585508051424 7.21632
51.883308330926425 7.21483
51.90806845906181 7.18288
51.932831191525715 7.19895
51.95779001977161 7.14982
51.98255798721516 7.13961
52.00732856494335 7.12754
52.03229530577543 7.117039999999999
52.057071130455945 7.13455
52.081849571391054 7.0895
52.106630630568695 7.07702
52.13160794279417 7.045439999999999
52.15639426492067 7.08367
52.18118321127822 7.03028
52.205974783860896 7.03636
52.23096269971011 7.005910000000001
52.255759551287994 6.957510000000001
52.280559035098186 6.94221
52.30536115314103 6.98987
52.33035970494467 6.959630000000001
52.35516711807904 6.947439999999999
52.37997717147198 6.89797
52.40478986713005 6.917339999999999
52.42979908731974 6.875380000000001
52.454617094216 6.86037
52.47943774942214 6.8680699999999995
52.50426105495102 6.83018
52.529280976059844 6.86115
52.554109609024096 6.807010000000001
52.57894089837482 6.81464
52.60377484613117 6.77226
52.62880550079408 6.77389
52.65364479223379 6.742000000000001
52.67848674816189 6.745989999999999
52.70352547971946 6.7354
52.72837279155837 6.71052
52.753222773982785 6.7180800000000005
52.778075429022984 6.6684399999999995
52.80312495150885 6.64145
52.827982978797436 6.66643
52.85284368481815 6.67006
52.87770707160767 6.62735
52.90276741793998 6.598789999999999
52.92763619336701 6.60018
52.952507655698504 6.5967
52.977381806977576 6.587610000000001
53.00245301017842 6.58763
53.02733256653592 6.54594
53.052214817996074 6.55877
53.077099766608484 6.54726
53.102181859804446 6.506530000000001
53.127072229988265 6.52686
53.15196530349892 6.46375
53.17686108239249 6.4679
53.20195409881522 6.453469999999999
53.22685531582556 6.4086
53.25175924441303 6.39872
53.27666588664027 6.394419999999999
53.30176985962693 6.3942
53.3266819565689 6.37436
53.35159677336455 6.40615
53.376514312083096 6.378019999999999
53.40162927507703 6.359
53.42655228516116 6.34146
53.45147802340193 6.29206
53.47660125628886 6.296530000000001
53.50153247842639 6.29082
53.52646643496923 6.27199
53.55140312799818 6.25544
53.576537409691696 6.20541
53.60147960336152 6.2391
53.626424539786164 6.24414
53.65137222105307 6.18468
53.67651758529126 6.18383
53.70147078399681 6.18547
53.72642673383343 6.17199
53.75138543689533 6.16539
53.776541917524526 6.1396
53.801506154876755 6.1447199999999995
53.826473151763246 6.1144
53.851442910284916 6.0464199999999995
53.87661054126026 6.10037
53.9015858509782 6.10836
53.92656392866066 6.02356
53.95154477641532 6.0519
53.976723591801296 6.0398
54.00171000771266 6.01017
54.02669920004598 5.97417
54.051691170915745 5.99069
54.076881204886796 5.99401
54.101878760928514 5.99863
54.12687910187696 5.9261099999999995
54.152077577768296 5.93313
54.1770835166946 5.91323
54.20209224691339 5.94433
54.22710377055121 5.89319
54.25231352511594 5.88454
54.27733066384342 5.8819
54.30235060239643 5.848319999999999
54.32737334290836 5.85216
54.35259441062629 5.78719
54.377622783395324 5.80695
54.40265396455061 5.76907
54.42768795623251 5.771719999999999
54.45292037169559 5.73696
54.477960012857906 5.77925
54.50300247099511 5.72178
54.52804774825457 5.70056
54.55329154616743 5.66953
54.57834249018678 5.66271
54.6033962597977 5.6214900000000005
54.6284528571545 5.64358
54.653708072335164 5.592169999999999
54.67877035378786 5.56479
54.70383546947698 5.56034
54.72890342156389 5.51757
54.7541700889442 5.50726
54.77924374251975 5.53621
54.8043202390049 5.49264
54.82959552413022 5.44318
54.8546777351945 5.40372
54.87976279569621 5.39099
54.90485070780914 5.40951
54.930137506558005 5.40171
54.95523115074295 5.42384
54.98032765308844 5.36901
55.005427015775496 5.36367
55.03072536339621 5.32565
55.05583047570572 5.29312
55.080938454927676 5.3089
55.10604930325027 5.252269999999999
55.131359235107396 5.2641599999999995
55.15647585066083 5.187130000000001
55.181595341907496 5.18649
55.20671771104285 5.14139
55.232039262617704 5.09783
55.25716741665048 5.10165
55.28229845518636 5.08213
55.30743238042802 5.02682
55.33276558731939 5.06726
55.357905315183636 5.05256
55.383047936390035 4.971419999999999
55.40819345314859 4.98839
55.433538351073295 4.94118
55.458689688238415 4.9509300000000005
55.483843927614096 4.91814
55.509197623043605 4.87263
55.53435769621134 4.8574
55.55952067826466 4.8720300000000005
55.5846865714265 4.83809
55.61005202069737 4.80374
55.63522376553902 4.8555
55.66039842818645 4.77312
55.68557601087004 4.76858
55.7109532500271 4.7377
55.73613670233794 4.7853
