TT I
1.2716486653135266 7.4953899999999996
1.2939594142134223 7.25057
1.3162702121660406 7.11715
1.3385810600174564 7.14492
1.3608919586137629 7.40688
1.383202908801069 6.43677
1.405513911425503 6.51058
1.4278249673332093 6.63899
1.4501343378461518 6.44372
1.4724455028545926 6.27176
1.4947567236847858 6.06422
1.517068001182951 6.33795
1.5393793361953272 6.01591
1.5616907295681737 5.33973
1.5840021821477681 5.71977
1.60631369478041 5.63689
1.6286252683124185 5.75013
1.6509369035901333 5.89098
1.6732468618895553 5.21189
1.695558623192809 5.4349099999999995
1.7178704487808514 5.586469999999999
1.7401823395001077 4.76738
1.7625012545597203 4.98016
1.7848028405262486 5.30724
1.8071218901122095 5.00967
1.8294236121921872 4.58627
1.8517427996910911 4.96706
1.8740620574440425 5.303730000000001
1.8963639900671978 4.67612
1.9186833908139995 4.98172
1.9409854680117449 5.27462
1.9633050151394713 4.9821
1.9856246367570705 4.577030000000001
2.0079269371922672 4.81649
2.03024671027244 5.11535
2.0525491637446027 4.83392
2.074869091674931 4.63006
2.097171701569106 4.68823
2.1194917877373847 4.98415
2.141811954326636 4.86235
2.164114805233074 5.28892
2.186435135143035 7.220160000000001
2.208738150935709 18.9393
2.231058647554722 43.6632
2.2533792288321184 32.8445
2.275682498336085 12.9733
2.298003251406138 6.57913
2.3203066942619714 5.537319999999999
2.3426276225136022 5.5214
2.3649486396617507 5.08069
2.387252348930071 5.8347
2.4095735463442893 4.9692
2.4318774374315884 5.28907
2.4541988185014043 5.51575
2.476502894794693 6.16991
2.498824462909887 5.57578
2.521146125856138 5.844130000000001
2.5434504863470337 5.88739
2.5657723414244717 6.4852099999999995
2.588076895590662 6.2404
2.610398946189713 6.87862
2.6327210958598384 6.38629
2.6550259469304716 6.36877
2.6773482972090137 6.66465
2.6996533504259 7.429310000000001
2.7219759047039602 6.85928
2.744298562293959 7.034510000000001
2.7666039251246595 6.74786
2.7889267918020164 7.095289999999999
2.8112323652516555 7.2384699999999995
2.833555444408179 7.7556
2.8558786311183852 8.220310000000001
2.8781845268938557 8.69865
2.9005079311721484 8.3961
2.9228140460410397 8.72823
2.9451376712799635 9.27101
2.967444008632326 9.11322
2.9897678582247247 10.0692
3.0120918213106695 10.5791
3.0343984987899373 10.9174
3.0567226913198637 11.3387
3.079029599759726 11.8276
3.101354025127254 12.679
3.123678568232338 12.6926
3.145985829517914 12.9502
3.16831061055229 13.492
3.1906181112775593 13.8429
3.212943133635653 14.5076
3.2352682779763207 15.1684
3.2575761442691227 15.9233
3.2799015350264273 16.4791
3.302209649240067 16.9552
3.3245352898092655 17.3503
3.3468436553365257 17.7155
3.369169549113219 18.1845
3.3914955708171384 19.0531
3.413804319727358 19.5528
3.4361305997334863 19.3878
3.4584396084414553 20.24
3.4807661501462652 21.1084
3.503092824025881 21.4146
3.5254022288463154 21.8404
3.5477291695206588 22.2487
3.5700388426251948 22.9258
3.5923660534916446 25.1141
3.6146934007816114 47.6589
3.637003482731501 133.33
3.6593311053109985 151.266
3.681641464033634 81.0697
3.7039693653009733 35.9079
3.726297407241705 27.5902
3.7486081875460804 26.9438
3.7709365132734978 26.8433
3.793247578841633 26.9667
3.8155761917550093 27.7514
3.8378875459837216 28.4347
3.8602164494827234 28.5359
3.882545499606844 29.276999999999997
3.9048572932539183 29.5632
3.9271866390645718 29.7929
3.9494987298666713 30.6408
3.971828374764527 30.8679
3.9941581705403255 32.0815
4.016470713506008 32.3576
4.038800813471445 33.3143
4.061113662089144 34.2112
4.0834440696459176 34.8888
4.105774632334751 35.2748
4.128087945865126 36.1026
4.150418821249301 37.3122
4.172732448931298 38.6437
4.195063640413578 40.7676
4.2173775856475215 47.2052
4.239709096631102 94.625
4.262040768704612 364.091
4.284355196706267 512.92
4.306687193387355 325.426
4.329001947444346 110.97
4.35133427213731 53.9518
4.373666762177566 47.3349
4.395982011761091 46.5464
4.418314834921175 47.9423
4.44063041906622 59.6724
4.4629635787515625 78.2541
4.4852969080429785 78.6902
4.5076130004776225 59.9782
4.529946671403969 53.3726
4.552263106909177 52.5569
4.574597122877047 52.99
4.596931312711224 54.2767
4.619248269273446 54.678999999999995
4.6415828092605835 55.6078
4.663900117405352 56.6678
4.686235010953232 57.9916
4.708552674085913 59.6242
4.730887924602802 61.1004
4.753223354952695 62.2213
4.775541557023902 63.8767
4.797877349456786 65.3075
4.820195915032126 67.5949
4.842532072957498 68.8526
4.864868414979744 71.3103
4.88718753227192 73.3984
4.909524244902505 75.4407
4.931843734218147 77.3355
4.954180820867835 79.9625
4.976518095879839 82.6622
4.998838149695359 85.99600000000001
5.021175803844231 90.024
5.043496238205739 93.6458
5.065834274903528 98.9197
5.088172504230693 104.821
5.1104935158799565 113.266
5.132832132875765 147.764
5.155153533596801 219.638
5.1774925416746225 272.13599999999997
5.199814334878411 480.801
5.2221537374521505 1265.94
5.244493338631803 2883.7
5.266815727034316 6152.94
5.289155727832427 11100.7
5.311478517248165 9826.9
5.333818921080011 4204.96
5.356159527788849 940.6010000000001
5.3784829252032536 254.58599999999998
5.400823940070432 172.011
5.423147747031976 144.221
5.445489173474152 129.968
5.467830807066149 122.70299999999999
5.490155234831516 117.16
5.512497285125229 111.84899999999999
5.534822130975162 109.064
5.557164601388673 106.883
5.579489868738879 103.59700000000001
5.601832762690846 102.986
5.6241758697774475 102.46600000000001
5.646501775867269 101.04
5.668845311622074 99.29
5.691171647754637 98.2497
5.713515615597765 96.705
5.735859800852677 95.6936
5.758186788542988 95.7977
5.780531411018185 96.3946
5.802858837297399 95.2171
5.825203900414495 95.9548
5.8475491852224 97.2204
5.869877275883075 96.71600000000001
5.892223006467101 97.523
5.914551544266608 99.6562
5.936897724049891 103.353
5.959244129804903 110.428
5.981573344815301 135.192
6.0039202049061 249.106
6.026249875609095 532.6659999999999
6.04859719346037 1010.6
6.070927323278297 1897.9
6.093275102315365 3662.01
6.115623113320588 4845.0
6.137953938319995 3927.26
6.160302415650845 1461.95
6.182633708324452 360.415
6.2049826554078376 144.186
6.227331838745022 106.09
6.249663839443684 94.0672
6.27201349767565 89.6594
6.294345974611799 100.101
6.316696111167083 121.755
6.339046488263839 114.105
6.361379686074702 89.4715
6.383730546639482 76.3757
6.406064229255215 72.5214
6.428415576718203 71.869
6.450749747566656 70.3473
6.47310158535871 68.8256
6.495453669698332 67.9688
6.517788579421056 67.1779
6.540141159237969 66.2898
6.562476565766648 65.8727
6.5848296444934045 65.7798
6.607182974060425 65.4164
6.6295191323281015 65.9148
6.651872965955752 70.9018
6.6742096296068985 111.74
6.6965639707294615 192.21
6.71891856698715 196.87099999999998
6.741255995248479 122.82600000000001
6.763611104154477 77.2018
6.785949046381137 64.3885
6.808304671371482 61.8212
6.8306605557940046 61.3019
6.852999275508618 60.0297
6.875355681171544 59.3088
6.897694923437771 59.2526
6.92005185377892 59.3763
6.9423916220322655 59.0314
6.964749080490181 58.2218
6.987106804399774 58.2142
7.009447368180821 58.1761
7.031805625367033 57.2144
7.054146723727803 57.7204
7.076505517631004 57.9409
7.098864581288365 57.7832
7.121206488070854 57.58
7.143566093607822 57.3819
7.165908543567245 57.6291
7.188268694426048 58.007
7.2106291193438095 58.4159
7.232972390625943 60.7912
7.255333366030969 79.1586
7.277677189091925 167.93200000000002
7.300038718428332 253.925
7.322400526130865 211.813
7.344745183422596 117.01899999999999
7.367107550224791 69.3686
7.389452767901992 59.7664
7.411815697249891 57.9457
7.434161478756298 57.0402
7.456524974096713 56.945
7.478888753837185 56.4457
7.501235387657368 56.8296
7.523599738562711 56.9699
7.545946944825532 57.1052
7.568311870344528 57.3781
7.5906770845765665 57.8662
7.613025156078678 60.2938
7.635390950099687 62.2457
7.657739602662809 61.0642
7.680105979923558 58.9504
7.702472650212829 58.5553
7.724822180948224 57.9753
7.747189439655568 58.1854
7.769539560075357 58.3069
7.791907410653562 58.5821
7.81425812420825 58.4906
7.836626570110925 58.9899
7.858995315087906 59.9207
7.881346924933401 59.6052
7.903716270417482 60.625
7.926068482028405 60.8237
7.948438431475253 61.0185
7.9708086843180235 61.5371
7.993161805171116 62.6433
8.015532667162402 63.126000000000005
8.037886398416653 63.7232
8.060257873014221 64.27600000000001
8.082629655331942 65.0048
8.104984308787587 65.9574
8.127356708900503 71.0949
8.149711981398308 80.7736
8.172085002766314 84.3491
8.194458336181368 77.968
8.216814543847752 72.8861
8.23918850371002 72.1485
8.26154533906492 72.5904
8.283919928836452 74.1227
8.306277395339652 74.9484
8.328652618483376 76.5475
8.351028159736202 78.4483
8.373386579575245 80.8355
8.395762759396959 82.7582
8.418121819038275 89.4661
8.440498640894003 109.875
8.462875785192262 132.94
8.485235811156207 147.355
8.507613602688501 188.40900000000002
8.529974277114228 286.518
8.552352719347912 420.34
8.574731488360351 615.674
8.59709314210385 961.325
8.619472567021075 1504.73
8.64183487789147 2021.73
8.664214962183097 2012.98
8.686577933647762 1260.72
8.708958680784317 550.335
8.731339760774953 223.627
8.753703729764451 128.845
8.77608547780821 107.854
8.798450116065078 101.55799999999999
8.820832535634787 97.4054
8.843215292401656 95.1474
8.865580941199045 93.0962
8.887964374703538 92.5202
8.910330701447199 94.368
8.932714815164482 98.7444
8.955099270424924 98.4085
8.977466620733543 93.2675
8.999851761421976 88.7742
9.022219798361645 86.3378
9.04460562795561 85.9106
9.066991803441677 85.6149
9.089360876979615 85.301
9.111747746589993 85.3652
9.13411751544971 84.7084
9.156505082664324 83.9021
9.178875550323522 84.3692
9.20126381862328 85.6019
9.223652438908596 85.9057
9.246023961427412 85.4984
9.26841328802173 84.5707
9.290785518039224 84.5024
9.313175554425882 85.3452
9.335565947154315 84.8425
9.357939245086508 85.1811
9.380330352834827 85.3076
9.40270436697103 85.7989
9.425096193225055 85.2166
9.447488380180165 85.9831
9.469863475295412 86.3373
9.492256385987508 87.2948
9.514632206018318 87.6951
9.537025843935714 87.8908
9.559402392368193 88.7593
9.581796761000229 90.1726
9.604191496441521 91.8879
9.626569144158516 96.5364
9.648964615551032 103.62100000000001
9.671343000390081 106.712
9.693739211225699 102.55799999999999
9.716135793237463 98.0146
9.738515290448102 96.2184
9.760912617143402 96.7475
9.783292860202891 98.0896
9.805690935076182 99.7854
9.828089385495742 100.584
9.850470754023561 103.329
9.872869957865444 114.454
9.89525208097539 138.925
9.917652041736662 159.493
9.940052382417589 157.778
9.962435644102392 159.578
9.984836746950979 194.585
10.007220771957746 265.731
10.029622640473708 366.478
10.052007432299963 499.662
10.074410069984072 687.148
10.096813093716005 1002.36
10.119199042482517 1457.7
10.141602840636468 1878.77
10.163989564971628 1814.63
10.186394141051062 1241.19
10.208799107559706 589.661
10.231187001965623 268.66700000000003
10.253592751657669 153.317
10.275981430388155 124.475
10.298387966769793 123.064
10.320794897965431 127.71799999999999
10.343184759907361 126.146
10.36559248305461 117.36200000000001
10.387983138083852 110.78
10.410391656691655 113.18299999999999
10.432800574501677 125.038
10.455192425893369 143.917
10.47760214443012 168.72799999999998
10.499994797678786 199.66299999999998
10.522405320453982 249.535
10.54479877906917 333.834
10.567210109595656 441.423
10.5896218454736 535.653
10.612016518879773 545.2959999999999
10.634429067781074 424.44699999999995
10.656824555333241 259.82
10.679237920773568 150.346
10.701651695961992 105.992
10.724048411481384 94.2968
10.746463008485165 90.7026
10.768860546937125 88.5997
10.791275969274796 86.3531
10.81369180576079 85.1514
10.836090585366925 83.9883
10.858507252467449 82.6406
10.88090686379991 81.8386
10.903324365036394 81.5807
10.925724811614439 81.9975
10.948143150509463 84.3985
10.970561909719066 83.8771
10.992963615930844 81.2961
11.015383218085756 78.2264
11.037785768347074 76.0245
11.06020621697282 75.4143
11.082627090322113 74.808
11.105030913430326 74.7104
11.12745263854165 75.8268
11.149857314510728 81.5096
11.172279894912576 91.941
11.194702904450653 94.5901
11.217108866490921 88.296
11.239532736615194 80.7554
11.26193956033512 77.1062
11.284364294577085 74.3712
11.306789462371718 71.4515
11.329197585398376 69.764
11.351623622610898 69.5741
11.37403261614354 68.5787
11.396459526308487 68.514
11.418869393879497 67.8966
11.441297180532617 67.6895
11.463725406927658 67.1102
11.486136592353875 67.2387
11.508565700543707 68.2172
11.530977768845315 71.5072
11.553407762368774 73.3848
11.575838200059769 72.587
11.598251599479612 69.0353
11.620682927815501 66.513
11.64309721895548 65.9549
11.665529441478206 65.4913
11.687962112597958 65.1663
11.710377748130886 65.2801
11.732811318753434 65.2726
11.755227854859067 65.3954
11.777662328529495 65.0862
11.800079768750786 64.9834
11.822515149015453 64.78
11.844950984084935 64.8993
11.867369787303163 64.417
11.889806534289491 64.4801
11.912226250487029 64.9345
11.934663912939751 64.9272
11.9571020346363 64.9206
11.979523127133968 64.89399999999999
12.001962169624331 65.8316
12.024384183972964 67.4094
12.046824150809913 70.7623
12.069264581333726 76.5312
12.091687985297767 83.6021
12.11412934550045 91.2941
12.136553680195208 100.935
12.158995973632788 115.71600000000001
12.181438735204349 134.675
12.20386447284199 164.24599999999998
12.226308172985636 196.472
12.24873485024193 212.41099999999997
12.271179492516982 192.609
12.293607112949127 154.858
12.316052700916226 116.926
12.338498763250042 91.8154
12.360927805303868 78.2874
12.383374818673879 70.9387
12.405804812803074 67.8057
12.428252780773262 67.1719
12.45070122756722 66.7743
12.473132656675375 66.7277
12.49558206341869 66.8783
12.518014453510101 66.8072
12.540464823770117 67.0955
12.562915677315177 67.4556
12.58534951575545 68.3591
12.607801338171472 71.2725
12.630236146511358 80.0621
12.652688941369085 88.3162
12.675124723177234 89.1268
12.697578494048786 82.4333
12.720032754458185 74.7632
12.742470003354093 71.1691
12.764925245138771 70.3966
12.787363476431278 70.5308
12.809819703166806 70.9502
12.83227642391173 71.4836
12.854716135692716 71.9302
12.877173846755147 73.1373
12.899614549869717 73.1635
12.9220732548287 74.27600000000001
12.94453245827299 74.5832
12.966974655289818 75.3666
12.989434858002571 76.1782
13.011878055298721 76.7468
13.034339260862497 78.0945
13.056800969391883 79.2018
13.079245674017244 81.527
13.101708390774869 83.8712
13.12415410463411 92.2279
13.146617833206086 106.022
13.169064559883248 119.77799999999999
13.191529303857127 134.60399999999998
13.213994557076367 150.80100000000002
13.236442809902437 173.435
13.258909083908291 208.325
13.28135835851934 253.044
13.30382565690295 319.427
13.326293469022952 397.398
13.348744283242008 446.351
13.371213125129904 421.61
13.39366497011003 328.2
13.416134845360597 224.88400000000001
13.438605238843131 150.263
13.46105863690397 118.559
13.483530069144786 113.469
13.505984506951902 118.285
13.528456981549432 127.48200000000001
13.550929978879088 138.789
13.573385983253365 153.702
13.595860028340867 176.22799999999998
13.618317081455832 210.08700000000002
13.64079217790333 256.468
13.663250283359057 311.35
13.685726434770173 361.94199999999995
13.708203115221277 372.499
13.730662806148091 319.35200000000003
13.75314054697177 235.976
13.775601299246777 160.059
13.798080104050406 112.156
13.820559442405358 91.8589
13.843021793671388 86.0636
13.865502201420897 83.7813
13.887965623051947 82.5506
13.910447103807167 81.2665
13.932929122629764 79.8541
13.955394156785959 79.3232
13.977877254034569 78.4076
14.000343367582113 77.3847
14.022827546871707 76.6828
14.045294743423524 75.9459
14.06778000837062 75.3156
14.090265817715476 75.3946
14.112734645763819 74.9842
14.13522154619454 75.2989
14.157691466286913 75.5268
14.180179461423874 75.2992
14.202668005486178 74.157
14.22513957064374 73.3022
14.247629214846473 72.7168
14.270101881097517 72.6193
14.29259262906496 73.5928
14.315083930490205 74.5642
14.337558255389705 75.4745
14.360050666019726 75.1168
14.382526101071944 73.2085
14.405019624534942 71.861
14.427513705993134 71.2384
14.449990813291825 70.9641
14.47248601302899 70.8925
14.49496423954951 71.0261
14.517460561197822 70.946
14.539939910570322 70.8879
14.562437357763558 71.3747
14.58493536931253 73.0182
14.607416409993311 74.5655
14.62991555254159 75.6149
14.652397725157423 75.2529
14.674898002342799 74.1003
14.697398848433282 72.9206
14.719882725991326 73.3093
14.74238471217934 74.3458
14.764869730765593 78.2046
14.787372860692983 82.1678
14.809876564079925 87.4425
14.83236330125751 92.8343
14.854868153850365 99.1223
14.877356041159485 107.715
14.899862046604186 119.06700000000001
14.922351087688757 135.159
14.944858249632887 157.719
14.967365991421232 185.035
14.989856770231246 212.398
15.012365673994204 227.014
15.03485761569738 211.463
15.05736768508665 175.495
15.07987833888692 135.371
15.102372032001655 104.363
15.124883856909658 84.0636
15.14737872204565 76.396
15.169891721717274 73.7575
15.192405310371893 73.4201
15.214901940621196 74.6612
15.237416709527137 75.1753
15.259914520936249 75.2388
15.282430473753607 74.175
15.304947020131227 72.7691
15.327446610371178 71.1946
15.349964346154254 70.0847
15.372465126703139 69.0933
15.394984055556009 68.9577
15.417486030076159 68.7994
15.44000615566487 68.3372
15.462526881230803 68.2638
15.485030653812652 68.6291
15.507552581617434 68.8139
15.530057557334603 69.2377
15.55258069104857 68.913
15.575104429329837 68.633
15.597611216864632 67.869
15.620136166564563 68.0173
15.6426441664095 69.3061
15.665170331202765 71.783
15.687697105158826 75.0846
15.710206930593545 79.3803
15.732734925158933 83.3576
15.755245972089478 88.1702
15.77777519094324 94.3762
15.800287463046663 102.56299999999999
15.822817909869592 114.43700000000001
15.84534897229804 129.707
15.867863089299354 150.884
15.890395385222186 175.123
15.912910736597423 194.173
15.935444269699861 201.377
15.957978423016485 182.649
15.980495633101265 150.518
16.003031029129367 117.198
16.02554948280019 89.3098
16.048086125229432 74.7915
16.070623392487107 70.0623
16.09314371869582 68.9353
16.11568223789321 67.8794
16.13820381691126 66.4321
16.160743591742527 64.5319
16.183283996022084 63.2859
16.205807461423195 61.9464
16.228349126881973 61.3527
16.25087385432698 61.4477
16.27341678466365 60.6186
16.29594277784926 60.8485
16.31848697676433 61.5438
16.341031811604868 62.3886
16.36355971058487 63.1452
16.3861058195587 62.684
16.40863499352978 60.9417
16.431182380342005 59.4356
16.453730407713202 58.4772
16.476261501364792 57.9277
16.498810812136167 57.5133
16.52134319004079 57.7353
16.54389378792203 57.4436
16.566445031001553 57.4122
16.588979342490088 57.1074
16.61153187824822 57.0093
16.634067483263312 56.9377
16.656621315414416 56.9462
16.679175797408888 56.5324
16.701713349928728 56.7937
16.72426913389191 56.8995
16.74680798922351 56.9968
16.76936507887444 57.1707
16.791905240734874 57.2129
16.814463639794468 56.8885
16.837022695210294 56.8903
16.859564824093756 57.3135
16.882125194503903 58.4131
16.904668639217885 59.7523
16.927230328348003 60.2431
16.949792678493612 60.1809
16.972338104193863 59.0637
16.994901778652235 58.0213
17.017448529496576 57.7227
17.040013531998152 57.875
17.06257920018044 58.5145
17.0851279459922 59.1435
17.107694947817667 59.9908
17.130245028099072 60.9669
17.15281336730298 62.422
17.17536478578733 63.6154
17.19793446610687 64.9254
17.220504818648422 66.8636
17.243058251703697 68.8849
17.265629950971032 72.256
17.288184731571736 76.1944
17.310757781306908 81.3865
17.33333150794385 84.8719
17.355888317140174 85.9383
17.37846339986244 83.3316
17.401021565958885 77.5214
17.42359800851343 71.1499
17.44617513265564 66.1389
17.468735341390783 63.1367
17.491261035594565 61.556999999999995
17.51396340099364 61.1053
17.536490463869136 61.221000000000004
17.559018209820174 61.2489
17.58154663977963 61.2068
17.604251766089718 61.2582
17.626781572227713 61.29
17.64931206518155 61.6949
17.671843245885103 62.5078
17.69455114821572 62.8317
17.717083712612634 63.0824
17.739616967569667 63.2137
17.762150914021706 63.4473
17.78486160749854 63.4162
17.807396945166804 63.7556
17.829932977143503 64.7754
17.85246970436452 66.5819
17.875183204129467 68.3398
17.897721330097664 70.9945
17.920260154126645 73.6696
17.942799677153296 76.3777
17.9655159983646 79.1067
17.988056927677544 82.2058
18.010598558807683 86.941
18.033140892692916 93.4487
18.05586005052525 101.111
18.07840379824407 111.152
18.10094825154059 123.96700000000001
18.12366954819864 137.026
18.146215420998306 144.97299999999998
18.16876200220057 143.725
18.191309292745153 133.58100000000002
18.214033452627167 118.211
18.236582170236648 102.251
18.259131600016456 91.7926
18.281681742907335 87.3742
18.304408781233683 88.1801
18.32696035875955 91.23899999999999
18.349512652227624 96.1332
18.372065662579683 102.945
18.394795594587553 108.041
18.41735004715306 110.189
18.43990521943684 106.24799999999999
18.46246111238171 97.21600000000001
18.485193953325208 85.8058
18.507751296070428 76.3605
18.530309362314178 70.2265
18.552868153000343 66.758
18.57560391815056 64.957
18.59816416623245 64.1985
18.620725141597372 63.4947
18.643286845190268 63.0663
18.666025549835414 62.7022
18.688588718427933 62.0209
18.711152618092243 61.7602
18.73389353884365 61.4869
18.75645890921984 61.2438
18.77902501351406 60.8919
18.801591852673102 60.7433
18.824335739722738 60.3331
18.846904057212626 60.1986
18.8694731124168 59.778
18.89204290628315 59.7781
18.914789774966803 59.5614
18.937361054791623 59.3987
18.959933076131318 59.1628
18.982505839934877 59.0849
19.00525570560582 59.3562
19.027829963004184 58.9725
19.05040496572238 59.2109
19.072980714710468 59.111999999999995
19.095733592739563 59.3247
19.11831084296757 59.9016
19.140888842324735 60.543
19.16346759176222 60.8062
19.18622349753803 61.2199
19.208803755869358 61.8257
19.231384767143577 62.3226
19.253966532312948 63.12
19.276725481241822 64.0219
19.29930876296784 65.8026
19.3218928014549 68.2073
19.34465404436217 71.898
19.36723960516257 75.5786
19.389825925592426 78.4909
19.412413006605938 79.3457
19.43517731967805 77.8204
19.457765930683355 74.1344
19.48035530514408 69.0349
19.50294544401556 64.1956
19.525712842708348 60.4408
19.54830451925909 58.0193
19.570896963095727 56.4366
19.593490175174704 56.0388
19.616260674962184 55.9925
19.638855432416964 55.3808
19.661450960992624 55.7846
19.68404726164677 55.4829
19.706820878021247 55.1947
19.729418731756834 55.3475
19.752017360452857 55.0661
19.77461676506804 55.4474
19.797393513540218 55.4036
19.819994478951667 55.9807
19.84259622316767 56.4683
19.8651987471481 57.3611
19.887978643247177 57.2497
19.91058273574792 57.3133
19.933187610901943 57.8328
19.955969879466828 58.8434
19.97857632894404 59.6076
20.00118356396599 60.5553
20.023791585494575 62.0755
20.046577028914875 64.1472
20.069186632506966 66.4613
20.091797025500632 68.8891
20.114408208858933 71.1031
20.137196842715273 72.4217
20.159809615886765 72.1616
20.18242318232135 69.5963
20.20503754298326 67.0717
20.227829382875154 64.8032
20.250445341109344 63.4328
20.27306209647285 62.7516
20.29567964993108 63.4702
20.31847471147704 64.8698
20.34109387027612 66.5024
20.363713830075454 67.6208
20.386334591841646 67.5396
20.409132890679302 65.7794
20.431755265564437 62.5737
20.454378445325528 59.5293
20.477002430930366 57.05
20.499803982716553 55.2776
20.522429589228004 54.2327
20.54505600449589 53.6687
20.567683229489194 53.3771
20.590488049900088 52.7498
20.61311690359731 52.1233
20.63574656993626 51.8698
20.658553853717297 51.4662
20.681185154618298 51.3629
20.703817271080066 51.5252
20.72645020407368 51.0972
20.749260783967177 50.8641
20.771895359337133 50.8072
20.794530754161617 50.7921
20.817166969412938 50.5529
20.83998086114876 50.5727
20.86261872660049 50.2115
20.885257415405402 50.3988
20.90789692853701 50.2828
20.930714147864748 50.2775
20.953355319030678 50.3464
20.97599731745334 50.3519
20.99864014410749 50.2935
21.021460706796564 50.356
21.044105199328826 50.5901
21.06675052302631 50.8082
21.089396678865015 51.0295
21.112220600704806 50.9787
21.134868430275347 51.1558
21.15751709492456 51.2111
21.180166595629693 51.559
21.202993892429635 52.1939
21.22564507473034 52.4249
21.24829709602816 52.8939
21.27112693608965 53.0935
21.293780644891275 53.4471
21.316435195634053 53.0376
21.339090589297417 52.4547
21.361923832041875 51.7047
21.384580921090404 51.0394
21.407238856007325 50.3797
21.429897637773326 50.2287
21.45273429906592 50.1095
21.475394784108598 50.0995
21.498056118951983 50.063
21.520718304578022 50.2755
21.543558400304388 50.3091
21.566222297108816 50.4861
21.58888704765135 50.3769
21.61155265291521 50.93600000000001
21.63439619898156 51.3497
21.657063523335786 51.5753
21.67973170537063 52.2212
21.7024007460706 52.5297
21.72524775840385 53.2076
21.747918526116475 53.8231
21.770590155457388 54.7529
21.79326264741238 55.841
21.816113141960237 57.0095
21.838787368860547 58.4332
21.861462461341976 60.165
21.884315579735777 62.4027
21.90699241312273 64.4275
21.92967011506078 66.0872
21.95234868653799 67.3472
21.9752053151131 66.9459
21.997885635446785 65.3663
22.020566828293532 63.2643
22.04324889464272 60.6936
22.066109049404666 58.5887
22.088792872571794 57.5433
22.111477572219204 57.443000000000005
22.1341631493376 57.6384
22.157026846313123 57.9353
22.179714188221507 58.1031
22.202402410582668 57.3801
22.22509151438863 55.7188
22.24795876962584 54.4229
22.270649646204486 53.0817
22.293341407213727 52.0311
22.316034053646906 51.3877
22.338904883215342 51.1002
22.36159931041458 51.0712
22.38429462602756 51.005
22.40699083104897 50.8669
22.429865251039757 51.0204
22.452563244831367 50.9454
22.47526213102522 50.9365
22.49813925616515 50.6315
22.520839937143307 50.5016
22.543541513520587 50.3694
22.56624398629403 50.1551
22.589124730075895 50.2081
22.611829005656723 50.4596
22.63453418063466 50.3298
22.657240256008077 50.6029
22.680124634582935 50.7634
22.70283252079775 50.9657
22.725541310413075 51.3421
22.74825100442868 51.2266
22.771139033969575 51.6855
22.79385054687155 52.0017
22.81656296718292 52.3287
22.83927629590484 52.8094
22.862167992606945 53.6467
22.88488314827121 54.381
22.907599215359284 55.2354
22.93031619487366 56.3091
22.953211574954405 57.2614
22.975930389478226 58.6143
22.998650119445763 59.7849
23.02137076586092 59.7839
23.044269845560063 59.2966
23.06699233506288 58.0157
23.089715744034912 56.2038
23.112617610931565 54.0562
23.135342869061212 52.618
23.158069049684816 51.5701
23.1807961538087 50.818999999999996
23.20370174880544 50.6715
23.226430710184808 50.6409
23.249160598093425 50.5534
23.271891413539002 50.6551
23.294800752937697 50.5429
23.31753343374794 50.8331
23.340267045128353 50.8325
23.36300158808808 51.1875
23.38591468821339 51.5478
23.408651104658304 51.6315
23.431388455719986 51.9884
23.454126742409 52.4031
23.4770436196085 53.0775
23.499783787914662 53.9258
23.522524894889884 54.7343
23.54526694154616 55.6297
23.56818761219047 57.1434
23.59093154860734 58.4411
23.613676427751283 59.6355
23.636422250635754 59.7443
23.659346731118656 59.1146
23.68209445191868 57.4965
23.704843119509587 55.1216
23.72759273490623 52.8842
23.750521041644767 51.0099
23.77327256312355 49.6972
23.796025035462787 48.6554
23.818956224555475 47.961000000000006
23.841710609113413 47.8484
23.86446594758979 47.5892
23.887222241002014 47.2162
23.910157285144578 46.996
23.932915498962537 46.8392
23.955674670778713 46.7545
23.978434801611975 46.489
24.001373717286125 46.4298
24.024135776723917 46.2942
24.046898798245582 46.0991
24.06966278287146 46.0888
24.092605586582614 45.9128
24.115371508023642 45.6954
24.1381383956401 45.6543
24.16090625045381 45.7312
24.183852958731244 45.6097
24.206622758582608 45.3816
24.229393528706886 45.3236
24.252165270127392 45.3836
24.27511589952438 45.2188
24.297889594216997 45.0065
24.32066426328598 44.8497
24.34343990775613 45.1182
24.36639447485003 44.9304
24.38917208083877 44.7698
24.41195066531332 44.61600000000001
24.43490819850244 44.6747
24.457688750692377 44.3893
24.48047028445616 44.4056
24.503252800821233 44.5197
24.526214300784112 44.478
24.548998793132213 44.4462
24.57178427117417 44.3588
24.59457073593893 44.54600000000001
24.617536219319863 44.4543
24.64032466834748 44.4898
24.663114107195035 44.376000000000005
24.685904536893013 44.1908
24.708874020360852 44.1403
24.731666442613744 44.1694
24.754459858818787 43.9863
24.777254270007962 43.8798
24.80022777025625 43.7869
24.82302418230472 43.7718
24.845821592443674 43.8267
24.86862000170663 43.7795
24.891597535453727 43.5865
24.914397953892728 43.7308
24.93719937456671 43.5118
24.96000179851076 43.6578
24.98298338249997 43.9448
25.00578782394922 44.2204
25.028593271784167 44.206
25.05157790644186 44.3475
25.07438537804115 44.5056
25.097193859145293 44.6535
25.120003350792075 44.9686
25.142992065061257 45.2451
25.165803588823465 45.4363
25.18861612625217 45.7729
25.211429678386736 45.8259
25.234422489079968 45.9925
25.257238081693636 46.0293
25.280054692141732 46.0102
25.3028723214652 45.9856
25.325869245420463 46.0931
25.348688923599397 46.4332
25.371509623787006 46.3265
25.394331347025812 46.4174
25.41733240110666 46.257
25.440156181590016 45.7205
25.46298098826268 45.364
25.48580682216873 44.6328
25.50881202326435 43.9486
25.53163992281684 43.2035
25.55446885274561 42.7513
25.577298814096377 42.456
25.600308179121807 42.4059
25.623140214533745 42.2955
25.64597328451537 42.2933
25.66898578564376 41.8227
25.691820936010206 41.9335
25.714657124097695 41.8478
25.737494350954734 41.9367
25.760511045684957 41.935
25.783350361364224 41.9927
25.806190718969255 41.9024
25.82903211955018 42.1978
25.852053024868923 42.0933
25.874896522722523 42.0675
25.897741066713106 42.0546
25.920586657892454 42.0615
25.943611790812668 42.0016
25.966459487728237 42.1085
25.989308234998564 42.1404
26.01215803367705 42.4909
26.03518741123814 42.5524
26.05803932412957 42.6149
26.080892291600094 42.7586
26.10374631470478 42.8864
26.12677995397268 43.1904
26.14963609978026 43.4078
26.172493304397875 42.9987
26.19535156888223 42.883
26.218389486949604 42.5056
26.241249882640123 42.1703
26.26411134137826 41.8873
26.28715248187403 41.8559
26.31001607820869 41.5052
26.3328807407756 41.4901
26.35574647063438 41.5883
26.37879191991473 41.5211
26.401659795896734 41.5861
26.424528742360263 41.7238
26.447398760366614 41.7644
26.470448535598294 41.8884
26.49332070826805 41.9808
26.516193955675355 42.2333
26.53906827888316 42.4105
26.562122397260108 42.3438
26.584998883685063 42.6468
26.607876449110325 42.8821
26.63075509460056 43.14
26.65381357334404 43.4063
26.67669439061878 43.5294
26.699576291163382 43.4999
26.722459276044212 43.5357
26.745522132402975 43.4105
26.768407297649354 43.034
26.791293550442003 42.5838
26.814180891848974 42.453
26.837248143099337 42.1204
26.860137673466657 41.9641
26.88302829566349 41.621
26.90592001075963 41.5561
26.92899167420566 41.4493
26.951885586870763 41.0788
26.974780595655517 40.9076
26.99785558178161 40.7339
27.020752794605112 40.4461
27.043651106772522 40.2206
27.06655051935668 40.1282
27.089629948036183 40.2091
27.112531573292053 40.0647
27.135434302194138 40.2137
27.158338135817015 40.0796
27.181422024430987 40.0075
27.204328079372566 39.8898
27.22723524226965 39.8742
27.250143514198573 39.8722
27.273231880156334 39.8892
27.296142382065014 39.6908
27.319053996245536 39.5853
27.341966723775965 39.7271
27.365059584515222 39.9139
27.38797455070062 39.8819
27.410890633481237 39.6486
27.433807833936918 39.6114
27.456905206923906 39.6823
27.47982465472398 39.5006
27.502745223449743 39.6955
27.525666914182825 39.851
27.548768816912457 39.845
27.571692763693633 39.8235
27.59461783573812 39.7908
27.617723149491244 39.6734
27.640650484125285 39.6947
27.66357894728264 39.4884
27.686508540048052 39.5336
27.709618414237887 39.3455
27.732550278321757 39.1768
27.755483275279115 39.2887
27.778417406196485 39.3111
27.801531858397514 39.0981
27.824468269376716 39.0528
27.847405817586786 38.9598
27.870344504116094 39.3132
27.893463551932008 39.3091
27.916404527281053 39.4242
27.93934664422563 39.3823
27.962289903855886 39.457
27.98541356491974 39.7067
28.00835912214229 39.6715
28.03130582533231 39.9939
28.054253675581805 40.1314
28.077381967556104 40.2114
28.100332124185126 40.2485
28.123283431160893 40.2975
28.146235889577238 40.2409
28.169368830154156 40.0914
28.192323603752033 40.0564
28.215279532083304 39.5491
28.238415973016764 39.4659
28.261374223145094 39.2835
28.284333631303806 39.1615
28.307294198589954 38.9204
28.330435319167677 38.7422
28.353398217078915 38.4233
28.376362277420153 38.1214
28.39932750129032 38.0295
28.422473319286713 37.7613
28.44544088262495 37.7371
28.468409612800283 37.5504
28.491379510913497 37.3885
28.51453004413313 37.2271
28.53750229057244 37.2572
28.56047570826344 37.2393
28.583450298308804 37.2012
28.606605564586562 36.8315
28.629582511831156 37.0357
28.65256063474956 36.9404
28.675539934446338 36.9705
28.698699951647605 36.873000000000005
28.72168161743193 36.7927
28.74466446331978 36.7298
28.767648490417624 36.7149
28.790813276438353 36.6159
28.813799678527303 36.5968
28.836787265157085 36.5625
28.859955641890075 36.7684
28.882945610203045 36.6278
28.905936766392035 36.6382
28.928929111566863 36.6419
28.952102288520145 36.5296
28.975097024308607 36.5328
28.998092952423807 36.3176
29.021090073977508 36.2271
29.04426806913204 36.1666
29.067267590245258 35.8811
29.090268308143695 35.9166
29.11327022394099 35.8152
29.13645305530891 35.5835
29.159457379627167 35.5476
29.18246290519685 35.5561
29.20546963313352 35.4891
29.22865731875826 35.4645
29.25166646419296 35.5362
29.27467681535305 35.3659
29.29768837335608 35.4703
29.320880931312562 35.4404
29.34389491580634 35.3486
29.366910110507334 35.4805
29.38992651653503 35.2965
29.41312396492981 35.3655
29.436142806456754 35.3288
29.45916286268059 35.3091
29.48236399319994 35.3102
29.50538649169417 35.1324
29.528410208259935 34.9992
29.55143514402014 34.7418
29.574641196749695 34.6926
29.597668583816574 34.499
29.6206971934585 34.4356
29.64372702680042 34.4158
29.666938019934474 34.4087
29.689970313635285 34.26
29.713003834422636 34.2196
29.73603858342347 34.0064
29.759254535188578 34.08
29.78229175361658 33.976
29.80533020365064 34.103
29.82836988641968 34.1489
29.85159081507472 33.9119
29.874632976355343 33.8467
29.89767637376955 33.9228
29.920721008448314 33.7662
29.9439469322847 33.7176
29.96699405457564 33.6702
29.9900424175358 33.7828
30.013092022298157 33.7128
30.03632295963995 33.6466
30.059375061131373 33.6114
30.08242840783577 33.4856
30.105483000888153 33.6427
30.128718970092244 33.5569
30.151776069006917 33.5329
30.17483441768648 33.5111
30.198074175317235 33.5957
30.221135036724256 33.4812
30.24419715131772 33.4091
30.267260520236203 33.3758
30.290505341942243 33.4536
30.313571232750228 33.4378
30.336638381310948 33.4603
30.35970678876503 33.433
30.38295669299435 33.3735
30.40602763151657 33.2918
30.429099832366074 33.2981
30.452173296685572 33.2111
30.47542830191959 33.1229
30.498504306502497 33.1234
30.521581577995562 33.1341
30.544660117543582 33.2005
30.56792024229725 33.2883
30.59100133132069 33.2105
30.614083691845494 33.1258
30.637167325018545 33.1732
30.660432587840603 33.3506
30.683518779717886 33.2437
30.70660624769615 33.2976
30.729694992924372 33.2466
30.75296541239743 33.2022
30.77605672557558 33.198
30.799149319462742 33.2533
30.8224236211637 33.1498
30.845518789950724 32.9551
30.868615242910597 33.053000000000004
30.891712981195973 32.8318
30.91499247215866 32.7902
30.938092794619365 32.747
30.96119440587579 32.6559
30.984297307082752 32.5666
31.00758200598383 32.4647
31.030687500658694 32.3568
31.053794288760695 32.2257
31.076902371446767 32.2199
31.100192296997445 32.1945
31.12330298246119 32.1551
31.14641496599209 31.9815
31.169528248749216 32.0637
31.19282341969534 32.0214
31.215939314557186 31.9841
31.239056512134788 31.9869
31.262175013589378 32.003
31.28547544871168 31.8937
31.30859657161541 31.7985
31.331719001892175 31.8158
31.35484274070538 31.9615
31.378148458819545 31.9227
31.401274828443725 31.9192
31.424402510106933 31.9544
31.447712205419993 32.0027
31.470842524931633 31.8805
31.493974159989783 31.8415
31.51710711176168 31.9758
31.54042212308802 31.8566
31.563557722100917 31.94
31.586694641341655 31.8001
31.609832881979628 31.5742
31.63315322823208 31.5723
31.656294125521327 31.5398
31.679436347728515 31.4433
31.70257989602529 31.355999999999998
31.725905596152327 31.2478
31.74905181052835 31.1362
31.772199354521323 31.2633
31.79534822930507 31.2131
31.818679302290967 31.1856
31.84183085259981 31.1496
31.864983737233473 31.0524
31.88813795736804 31.1547
31.911474422233013 31.0384
31.934631327356435 31.0856
31.9577895715215 31.1199
31.980949155906522 31.1156
32.004291031706956 31.0201
32.027453310562606 30.9812
32.05061693318573 30.9348
32.07396288236386 30.9081
32.09712920658542 30.8169
32.12029687812702 30.7191
32.14346589817093 30.6706
32.166817291729984 30.6795
32.18998902288583 30.5437
32.21316210610336 30.401
32.23633654256711 30.3223
32.259693399663725 30.2443
32.282870556771144 30.1846
32.30604907069099 30.2084
32.329228942610065 30.0725
32.35259128243769 30.0149
32.375773884550505 30.0025
32.398957848235646 29.906999999999996
32.422143174682176 29.9039
32.445511016471215 29.7714
32.468699082679954 29.7348
32.49188851523011 29.6664
32.51507931531304 29.6259
32.538452678331 29.6732
32.56164622776311 29.5334
32.58484114831493 29.4473
32.60803744118015 29.4965
32.631416344731896 29.504
32.654615396551876 29.419
32.67781582427913 29.3756
32.701198898634416 29.3435
32.72440209253756 29.2694
32.747606665947124 29.2692
32.77081262006088 29.2874
32.79420126883317 29.219
32.81740999876112 29.2125
32.840620112999424 29.1049
32.86383161274818 28.9746
32.88722585534586 29.0233
32.91044014056596 29.0985
32.933655814909734 29.0177
32.95687287957963 28.9712
32.98027273544904 28.8514
33.00349259526636 28.9289
33.026713849030116 28.8644
33.04993649794511 28.826
33.073341986570746 28.7648
33.09656744032826 28.737
33.11979429286444 28.686999999999998
33.14302254538647 28.7186
33.166433686291185 28.6538
33.18966475336992 28.6711
33.212897224069096 28.5256
33.23613109959831 28.6436
33.259547912343415 28.596
33.2827846121627 28.5882
33.306022720453775 28.5038
33.32926223842861 28.3578
33.352684742614166 28.3992
33.37592709463173 28.4017
33.399170859982064 28.2932
33.422597648419426 28.2063
33.44584425514446 28.1439
33.46909227885668 28.1452
33.4923417207723 27.9653
33.51577423505344 28.0712
33.539026528130385 27.8471
33.56228024307245 27.8109
33.585535381098246 27.7387
33.60897364093058 27.6403
33.63223163992385 27.6781
33.6554910656699 27.6257
33.678751919389796 27.6198
33.702195944520106 27.5459
33.72545966903325 27.5846
33.74872482519663 27.3944
33.771991414233746 27.4794
33.79544122444841 27.4075
33.81871069412428 27.3872
33.84198160035767 27.4125
33.86525394437455 27.3208
33.88870955949969 27.3186
33.911984794020626 27.259
33.93526147001624 27.1264
33.958539588715006 27.1196
33.98200102861669 27.1445
34.0052820477047 26.9587
34.02856451319451 26.9479
34.05203033759056 26.9579
34.07531571090147 26.9682
34.09860253431845 26.967
34.121890809074316 26.8694
34.145362493118924 26.8183
34.16865368561615 26.7925
34.191946333164054 26.7603
34.21524043699793 26.788
34.23871800066799 26.6507
34.26201503218366 26.5461
34.28531352370466 26.5872
34.30861347646881 26.3954
34.33209693978188 26.4889
34.3553998301885 26.463
34.378704185565205 26.3052
34.402010007152356 26.291
34.42549939016683 26.2773
34.44880815937748 26.1691
34.472118398533134 26.1565
34.49543010887669 26.1961
34.51892543169198 26.0018
34.54224009966052 26.0782
34.56555624255917 26.0791
34.58887386163339 25.9995
34.61237514439016 25.8559
34.6356957311114 25.9011
34.65901779775809 25.838
34.68252356662995 25.7986
34.705848608458616 25.8195
34.72917513396849 25.706999999999997
34.75250314440949 25.6859
34.77601490857862 25.5978
34.799345904259795 25.5648
34.82267838863559 25.5066
34.846012362958525 25.5678
34.869530142679984 25.5639
34.89286711232212 25.5724
34.91620557568269 25.4848
34.93954553401677 25.3904
34.9630693495876 25.3187
34.986412313340814 25.3523
35.00975677584668 25.2816
35.033102738362956 25.165
35.05663261012228 25.1604
35.0799815881786 25.2418
35.10333207003229 25.1885
35.12668405694369 25.1145
35.150220005273056 25.1594
35.17357501786656 25.0598
35.19693153931268 25.0397
35.220289570874385 24.9904
35.24383161619786 25.0579
35.267192683604904 25.0174
35.290555264930376 24.9266
35.314101899412165 24.9645
35.33746752422433 24.9
35.36083466676374 24.8967
35.38420332829803 24.8045
35.407756095629054 24.8158
35.43112781085063 24.8993
35.45450104888391 24.8252
35.477875810999194 24.7686
35.50143473172161 24.7078
35.52481255774625 24.7539
35.54819191167777 24.6749
35.57157279478914 24.6416
35.595137889488406 24.6238
35.61852184675279 24.5185
35.641907337029984 24.4339
35.665294361595684 24.4472
35.68886565090076 24.3879
35.7122557598848 24.3898
35.73564740699838 24.3432
35.759040593519934 24.2712
35.78261809810353 24.1808
35.80601437933051 24.2012
35.829412203814705 24.1501
35.85281157283719 24.07
35.876395313415884 24.183000000000003
35.8997977874528 24.1238
35.92320180988546 24.055999999999997
35.946790244133936 24.0342
35.97019737933222 23.9666
35.993606066789866 23.8913
36.01701630779276 23.826999999999998
36.04061101440684 23.7949
36.06402437852291 23.8623
36.08743930005611 23.7209
36.1108557802951 23.6806
36.13445678011326 23.7329
36.15787639383515 23.7226
36.18129757014299 23.6365
36.20472031032821 23.6151
36.22832762423364 23.5439
36.25175350829375 23.5306
36.275180960119776 23.447
36.298609981005924 23.4667
36.32222362992669 23.4793
36.34565580510207 23.434
36.36908955323448 23.3394
36.39252487562093 23.3015
36.416144880530226 23.2217
36.43958336764275 23.2331
36.463023432914625 23.1853
36.486465077645676 23.1501
36.51009145956204 23.2047
36.53353627947859 23.198
36.55698268276811 23.1281
36.58043067073321 23.0517
36.60406345072071 22.9686
36.62751462435344 23.0262
36.65096738658405 23.0194
36.67460498210655 22.9425
36.69806093788647 22.8568
36.72151848619297 22.8698
36.744977628333636 22.8658
36.76862165890998 22.7881
36.79208400512205 22.7424
36.81554794910557 22.6616
36.83901349217101 22.6834
36.862663978991606 22.6119
36.88613273667352 22.5743
36.90960309738324 22.5425
36.933075062434064 22.505
36.95673202673572 22.4766
36.98020721697122 22.4175
37.003684015502365 22.4063
37.027162423645365 22.4347
37.050825886711465 22.3655
37.07430753063053 22.2651
37.09779078812467 22.2377
37.121275660513014 22.2209
37.144945643673694 22.1788
37.16843376245278 22.2468
37.19192350009803 22.1702
37.215414857931435 22.1285
37.239091382563885 22.034000000000002
37.262585997426164 22.0433
37.28608223645736 22.0086
37.309763684451696 21.9461
37.33326318851098 21.9086
37.356764320726555 21.8942
37.380267082425526 21.9114
37.40395510942588 21.8736
37.42746114683234 21.8458
37.45096881771841 21.755
37.474478123414166 21.7138
37.49817275092816 21.5927
37.52168534303452 21.6092
37.54519957395567 21.5757
37.568715445024665 21.5479
37.592416694607714 21.5124
37.61593586281424 21.6017
37.63945667518264 21.5952
37.66297913304891 21.5744
37.68668702630454 21.5503
37.710212792059274 21.3834
37.733740207334854 21.3676
37.757269273470364 21.3293
37.780983832050374 21.285999999999998
37.80451621684926 21.2225
37.82805025654007 21.2357
37.851585952464795 21.1302
37.8753071980695 21.0856
37.89884622345676 21.0513
37.92238690911902 21.0819
37.94611318753442 20.9945
37.969657210779765 21.006
37.99320289834801 20.9974
38.016750251586465 21.0073
38.04048325513017 20.9414
38.06403395679343 20.8346
38.087586328183946 20.8027
38.11114037065203 20.787
38.13488012115898 20.809
38.1584375229181 20.734
38.181996599821 20.6805
38.205557353221124 20.6589
38.229303872575656 20.6754
38.2528679961576 20.6378
38.27643380031219 20.5517
38.30000128639589 20.5191
38.32375459653193 20.5661
38.34732546371299 20.5368
38.37089801690786 20.4031
38.39447225747609 20.3778
38.418232380377425 20.3756
38.441810012983396 20.3703
38.46538933705673 20.3192
38.488970353960084 20.2821
38.51273731166058 20.2592
38.536321731567014 20.2021
38.55990784840681 20.2261
38.58367995004091 20.1291
38.60726947812959 20.0958
38.63086070726198 20.0347
38.654453638806274 20.0104
38.678232613930824 20.0641
38.70182896773327 19.9857
38.72542702806741 20.022000000000002
38.7490267963045 19.9721
38.77281266709232 19.9395
38.79641586862214 19.8439
38.8200207821842 19.83
38.843627409152944 19.8731
38.86742019782782 19.8094
38.891030269149255 19.7698
38.914642058016156 19.7401
38.938255565806124 19.6955
38.96205529464307 19.6822
38.98567225787121 19.6221
39.00929094417078 19.6273
39.03291135492255 19.6746
39.05671804624804 19.577
39.080341923549106 19.5628
39.103967529460334 19.5048
39.127594865365744 19.3678
39.15140854155791 19.3546
39.17503935514948 19.3661
39.19867190290282 19.3118
39.22249083587951 19.3092
39.24612686969409 19.3007
39.269764641845306 19.2582
39.293404153722804 19.2038
39.317230110864074 19.2229
39.34087311998506 19.1449
39.36451787301696 19.1695
39.388164371352595 19.0528
39.41199737518003 19.0983
39.43564738196752 18.9899
39.45929913825317 18.9983
39.48295264543308 18.9878
39.506792718520884 18.9691
39.530449745387216 18.8924
39.55410852735203 18.9372
39.57776906581474 18.8651
39.60161623079 18.8037
39.625280300200025 18.7907
39.64894613032202 18.7399
39.67261372255866 18.7439
39.6964680021016 18.7104
39.72013913657293 18.6299
39.74381203738292 18.6884
39.76748670593756 18.6566
39.79134812278169 18.6696
39.81502634488497 18.589000000000002
39.83870633896685 18.5528
39.862388106436654 18.4646
39.88625668336918 18.4584
39.90994201572829 18.4939
39.933629125719285 18.4089
39.957503091207826 18.4072
39.9811937746168 18.3927
40.00488623990914 18.3744
40.02858048850006 18.2977
40.05246165409549 18.2062
40.076159487492085 18.1939
40.099859108448875 18.2203
40.123560518384345 18.209
40.1474489070226 18.1
40.171153913178564 18.1202
40.194860712584955 18.1066
40.2185693066637 18.098
40.242464941335314 18.0633
40.26617714307655 17.9605
40.289891143772046 17.971
40.3136069448471 17.9983
40.33750984859743 17.8981
40.3612292688043 17.8969
40.3849504936829 17.8185
40.40867352466194 17.9248
40.43258372059144 17.826
40.45631038219906 17.8281
40.48003885420956 17.68
40.503769138055105 17.6545
40.52768664931955 17.7447
40.55142057531802 17.7138
40.57515631746428 17.6495
40.599079334038514 17.6759
40.62281872700477 17.5783
40.64655994043941 17.5156
40.67030297578061 17.5305
40.69423334835778 17.5173
40.71798004609188 17.4722
40.74172857006355 17.4314
40.76547892171441 17.4224
40.7894166736039 17.3912
40.813170699248566 17.3733
40.83692655691388 17.3248
40.86068424804498 17.2943
40.884629402612525 17.3065
40.908390779366385 17.2654
40.932153993938 17.1894
40.95591904777605 17.1577
40.979871628443995 17.2065
41.003640379561936 17.1466
41.02741097430883 17.1264
41.05118341413683 17.1373
41.075143444384416 17.0374
41.098919593177826 17.041
41.1226975914255 17.0077
41.14647744058318 16.8832
41.170444943946755 16.9334
41.19422851378379 16.9665
41.218013938914645 16.8779
41.24198706625173 16.9289
41.26577622087193 16.8958
41.289567235177785 16.7954
41.31336011063129 16.772000000000002
41.337340752422875 16.7296
41.361137369129835 16.7804
41.38493585138705 16.7284
41.40873620066004 16.6354
41.43272438060107 16.6524
41.45652848292052 16.5834
41.48033445666918 16.5563
41.50414230331616 16.5877
41.528138045159764 16.5276
41.551949656675205 16.4731
41.575763145513235 16.4765
41.59957851314666 16.4434
41.62358184070442 16.4251
41.64740098505737 16.4327
41.6712220126409 16.3561
41.69504492493139 16.3104
41.71905586207357 16.3189
41.74288256296395 16.3342
41.766711153007456 16.2422
41.79054163368412 16.2772
41.814560204340054 16.2391
41.838394485526365 16.2201
41.86223066180303 16.143
41.88625497706819 16.1149
41.910094962812 16.0858
41.93393684811168 16.0425
41.95778063445365 16.0213
41.981812625263366 15.989
42.00566023303407 16.0194
42.029509746323676 15.9617
42.05336116662236 15.9334
42.077400857069705 15.9207
42.10125611078846 15.8875
42.12511327600405 15.864
42.14897235421036 15.7756
42.173019768448455 15.7661
42.19688269209613 15.787
42.22074753323349 15.7304
42.24461429335818 15.7384
42.268669455600495 15.6519
42.292540073217886 15.6378
42.31641261433284 15.6283
42.34028708044675 15.6398
42.36435001496739 15.6073
42.38822835065557 15.5542
42.41210861586426 15.5518
42.4359908120986 15.5503
42.46006154323262 15.4526
42.48394762115317 15.4613
42.507835634632315 15.4764
42.531912233047436 15.4139
42.55580413732265 15.3555
42.579697981698 15.3775
42.60359376768525 15.3324
42.62767820545945 15.3249
42.65157789440821 15.3236
42.67547952952185 15.26
42.699383112316 15.1755
42.72347541395347 15.2081
42.74738291190531 15.0986
42.771292362102166 15.1733
42.795203766063516 15.1107
42.819303956130405 15.1253
42.843219287476536 15.0662
42.86713657716324 15.0397
42.89105582671383 14.9674
42.91516392983864 15.0031
42.939087119032166 15.0188
42.963012272677304 14.939
42.98693939230129 14.9039
43.01105543317513 14.842
43.034986504731386 14.8617
43.05891954686589 14.8789
43.08285456110972 14.8013
43.10697856448665 14.7339
43.130917542983475 14.7348
43.15485849820081 14.7533
43.17880143167367 14.6556
43.20293342237094 14.6424
43.226880332449 14.6514
43.25082922540554 14.6728
43.27496722682525 14.5893
43.29892010567796 14.6119
43.32287497204102 14.5852
43.34683182745632 14.4812
43.370977859791836 14.4993
43.39493871351105 14.4177
43.41890156092628 14.4982
43.44286640358341 14.4373
43.46702049182749 14.4187
43.49098934522816 14.4115
43.51496019852649 14.3508
43.5389330532723 14.3145
43.56309522248204 14.3144
43.58707210044314 14.254000000000001
43.61105098451946 14.1905
43.63503187626491 14.2482
43.659202151562134 14.2258
43.68318707902681 14.1804
43.70717401884041 14.1516
43.731162972560874 14.1289
43.75534137913236 14.1384
43.779334381108384 14.0696
43.803329401683186 14.0545
43.82732644241872 14.0533
43.8515130055166 14.0787
43.87551410707659 14.0302
43.89951723350145 13.9813
43.923709934595614 13.9758
43.94771713129917 13.9435
43.97172635758096 13.9355
43.99573761501002 13.9005
44.0199385169922 13.8504
44.04395385732619 13.8103
44.067971233533086 13.8228
44.09199064718605 13.7675
44.11619977548961 13.6943
44.14022328470671 13.71
44.16424883610785 13.737
44.18827643127035 13.727
44.21249381139513 13.6821
44.236525514814076 13.5934
44.26055926674478 13.5521
44.28459506876863 13.5528
44.3088207262813 13.5654
44.33286064928722 13.5226
44.35690262714919 13.4781
44.38094666145278 13.4806
44.4051806219871 13.4811
44.42922879003185 13.4124
44.45327901929361 13.397
44.477331311362136 13.4574
44.501573600619416 13.3923
44.525630039221795 13.3633
44.54968854541895 13.3114
44.573937102200176 13.3466
44.5979997645541 13.3098
44.622064499300315 13.2571
44.64613130803592 13.2335
44.67038823869318 13.2539
44.69445921643748 13.1961
44.718532272981385 13.1513
44.742607409926194 13.1392
44.76687274034801 13.097999999999999
44.79095205918753 13.0378
44.81503346325094 13.0356
44.839116954143876 13.0728
44.86339071028742 13.0665
44.88747839599524 13.0273
44.91156817336837 12.9767
44.93566004401666 12.944
44.959942251908146 12.9183
44.984038330325966 12.915
45.00813650686762 12.8698
45.03223678314731 12.8762
45.05652746888232 12.8325
45.08063196592069 12.7824
45.104738567558705 12.7759
45.128847275414856 12.7624
45.15314646515866 12.6886
45.17725940679741 12.7172
45.20137445952892 12.7127
45.22568004865265 12.7334
45.24979934496396 12.6762
45.27392075725247 12.6185
45.29804428714431 12.5794
45.322358426247604 12.595
45.346486212804315 12.5872
45.370616121861914 12.565999999999999
45.39474815505086 12.5226
45.41907087049246 12.497
45.4432071734666 12.4898
45.46734560548283 12.4929
45.49148616817604 12.4585
45.51581748638564 12.4294
45.5399623320197 12.4121
45.56410931325473 12.3805
45.58825843173002 12.3864
45.61259837920865 12.3353
45.636751793816 12.3074
45.66090735060093 12.2569
45.68506505120716 12.2565
45.7094136545275 12.1945
45.73357566449271 12.2183
45.75773982322992 12.1971
45.78190613238733 12.1868
45.806263418194064 12.1413
45.83043404997326 12.1034
45.85460683713677 12.0939
45.87897065658495 12.1029
45.90314777634752 12.0128
45.92732705646868 12.0196
45.9515084986045 12.0111
45.97588104735473 12.020999999999999
46.00006683541565 11.9581
46.02425479047904 11.9429
46.04844491420549 11.9975
46.0728262191024 11.9146
46.09702070211635 11.8985
46.12121735879483 11.8902
46.14541619080294 11.8773
46.169806278764455 11.8673
46.194009483459034 11.8219
46.21821486849841 11.7877
46.24242243555223 11.7459
46.266821333570014 11.7299
46.29103328674601 11.6642
46.31524742696538 11.7118
46.33946375590237 11.6747
46.36387149104216 11.6611
46.38809221957392 11.6364
46.41231514186606 11.6331
46.436540259597464 11.6126
46.460956858999374 11.5826
46.48518638983522 11.5543
46.509418121166966 11.5356
46.533652054678114 11.4901
46.55807754555709 11.4822
46.58231590571962 11.4847
46.60655647313217 11.4504
46.630988654873654 11.4023
46.655233659129024 11.3687
46.67948087571551 11.3516
46.70373030632484 11.3649
46.72817142736393 11.3472
46.752425308428684 11.3077
46.77668140861147 11.2971
46.80093972960865 11.2467
46.82538981736788 11.2482
46.849652602470904 11.2277
46.87391761349769 11.2352
46.8981848521493 11.1593
46.9226439341274 11.1747
46.946915650573224 11.1586
46.97118959976749 11.1385
46.99546578341598 11.077
47.019933887188216 11.1175
47.04421456235744 11.0801
47.06849747711879 11.0458
47.09278263318286 11.0538
47.11725978640143 11.0335
47.14154944775105 10.9878
47.165841355555656 10.9669
47.1901355115306 10.9408
47.214621741924994 10.9439
47.23892041698887 10.9466
47.26322134538975 10.8913
47.28771440635075 10.8503
47.31201986422527 10.8464
47.33632758061436 10.8409
47.360637557241866 10.8281
47.38513974410611 10.7939
47.40945426407847 10.757
47.43377104948137 10.7646
47.45809010204344 10.7497
47.48260144275502 10.6919
47.506925052572285 10.6889
47.53125093475548 10.6684
47.55557909103813 10.6527
47.58009961361992 10.6154
47.60443234110732 10.6157
47.62876734791564 10.6437
47.65310463578333 10.5753
47.6776343683373 10.5378
47.7019762413987 10.5191
47.72632040075572 10.504000000000001
47.75066684815169 10.4982
47.77520581885936 10.4518
47.799556865477655 10.433
47.823910205386 10.4507
47.84826584033272 10.4059
47.87281407745551 10.3363
47.89717432569297 10.3852
47.92153687423484 10.3695
47.94609208429692 10.3771
47.97045925671401 10.3318
47.99482873471275 10.2897
48.01920052005013 10.2575
48.04376504619224 10.2605
48.068141469543484 10.2875
48.09252020552573 10.2804
48.11690125590099 10.2101
48.1414751266064 10.2053
48.16586082917454 10.1721
48.19024885144316 10.1528
48.2146391951793 10.1547
48.239222439012764 10.12
48.26361744916137 10.1173
48.28801478610016 10.0787
48.31241445160131 10.0601
48.337007097209366 10.0462
48.36141144338331 10.0695
48.38581812345755 10.029
48.41022713920929 10.0224
48.434829215320704 9.986369999999999
48.45924292604658 9.9858
48.48365897780325 9.96621
48.50807737237308 9.91659
48.532688907799276 9.925180000000001
48.55711201168574 9.88676
48.581537463754074 9.86192
48.60615611725119 9.83845
48.63058628942721 9.84465
48.65501881516546 9.84521
48.6794536962573 9.843110000000001
48.70408185970339 9.79985
48.72852147531801 9.754489999999999
48.75296345168211 9.71693
48.77740779059232 9.71147
48.80204549302823 9.69551
48.82649458091802 9.70777
48.85094603676547 9.67031
48.87539986237231 9.62177
48.90004713292306 9.65643
48.92450572200832 9.64847
48.94896668628025 9.63623
48.97343002754588 9.61712
48.99808689542115 9.57448
49.02255501470614 9.57288
49.04702551642794 9.52581
49.0714984023988 9.518130000000001
49.096164896893235 9.52784
49.120642575466796 9.49376
49.145122643748394 9.44695
49.16960510355558 9.4187
49.19428125404938 9.3956
49.2187685210852 9.43014
49.243258185121555 9.37703
49.26794160167084 9.36201
49.2924360839405 9.38621
49.31693296869764 9.3317
49.34143225776915 9.32563
49.36612538195438 9.330869999999999
49.39062950396021 9.24877
49.41513603578346 9.24485
49.4396449792564 9.22511
49.46434784069503 9.2116
49.488861631846454 9.20663
49.513377840166804 9.193760000000001
49.537896467493745 9.16997
49.56260909589029 9.14612
49.587132585683285 9.1489
49.611658500018365 9.13555
49.636186840738596 9.103019999999999
49.66090926588511 9.095889999999999
49.685442483902584 9.04774
49.70997813385706 9.02774
49.734516217597076 9.0559
49.75924846937352 9.01484
49.7837914452858 9.00123
49.80833686055187 8.97377
49.83288471702571 8.965
49.85762682540054 8.97039
49.882179588965734 8.938939999999999
49.9067347993235 8.88557
49.93129245833333 8.88723
49.95604445336378 8.86929
49.98060703442832 8.82433
50.005172069746266 8.81809
50.02993150438364 8.812999999999999
50.05450147301533 8.80339
50.07907390151433 8.7616
50.10364879174981 8.76101
50.12841816587289 8.75842
50.1529980044635 8.73705
50.17758031042124 8.70829
50.20216508562089 8.71192
50.22694442953363 8.66625
50.25153416817468 8.65824
50.27612638170508 8.6323
50.300721072005196 8.611239999999999
50.325510416102105 8.6118
50.350110084975064 8.57426
50.37471223628208 8.59856
50.39931687190919 8.55293
50.424116246675766 8.56542
50.44872587605249 8.52493
50.47333799543065 8.55658
50.49795260670191 8.54955
50.52276204271512 8.494539999999999
50.54738166295838 8.45086
50.57200378079314 8.437380000000001
50.596628398116835 8.407860000000001
50.62144792604559 8.44453
50.646077567609396 8.391630000000001
50.670709714377715 8.39489
50.69553683636198 8.35614
50.72017401885922 8.33038
50.7448137122895 8.34343
50.76945591856022 8.34147
50.79429318636823 8.300189999999999
50.818940443716784 8.27102
50.84359021965163 8.24997
50.868242516085964 8.273
50.893089960641895 8.23364
50.917747323549435 8.211089999999999
50.94240721271973 8.176810000000001
50.96706963007175 8.19508
50.99192728239342 8.188189999999999
51.01659478166073 8.173739999999999
51.04126481489051 8.16517
51.06593738400761 8.12856
51.090805275207074 8.11306
51.11548294172845 8.12828
51.14016314993547 8.07857
51.164845901758845 8.08347
51.18972406304274 8.0161
51.21441192780656 8.00602
51.23910234200271 8.03059
51.2637953075678 8.00705
51.288683770237945 7.9444300000000005
51.31338186432707 7.95148
51.33808251561888 7.93573
51.362978729967345 7.93965
51.387684521509755 7.936710000000001
51.41239287610203 7.92548
51.437103795691165 7.87241
51.46201036644977 7.8815
51.486726441956634 7.85654
51.51144508832545 7.84996
51.536166307509156 7.81215
51.56108326624387 7.76035
51.58580965706056 7.77268
51.61053862657523 7.75594
51.635270176746864 7.755839999999999
51.66019755512065 7.762519999999999
51.68493429268881 7.75195
51.70967361681515 7.715330000000001
51.73441552946465 7.71715
51.759353359237934 7.674410000000001
51.7841004750961 7.69406
51.80885018539685 7.6546
51.833602492111254 7.63108
51.8585508051424 7.599539999999999
51.883308330926425 7.580189999999999
51.90806845906181 7.536160000000001
51.932831191525715 7.557460000000001
51.95779001977161 7.525410000000001
51.98255798721516 7.524560000000001
52.00732856494335 7.49603
52.03229530577543 7.535080000000001
52.057071130455945 7.462339999999999
52.081849571391054 7.49065
52.106630630568695 7.421810000000001
52.13160794279417 7.4462
52.15639426492067 7.4141699999999995
52.18118321127822 7.42453
52.205974783860896 7.41253
52.23096269971011 7.39928
52.255759551287994 7.358060000000001
52.280559035098186 7.360589999999999
52.30536115314103 7.355519999999999
52.33035970494467 7.28578
52.35516711807904 7.30058
52.37997717147198 7.27836
52.40478986713005 7.27043
52.42979908731974 7.27577
52.454617094216 7.264689999999999
52.47943774942214 7.24872
52.50426105495102 7.19957
52.529280976059844 7.199389999999999
52.554109609024096 7.20348
52.57894089837482 7.137919999999999
52.60377484613117 7.11106
52.62880550079408 7.13777
52.65364479223379 7.11952
52.67848674816189 7.0957300000000005
52.70352547971946 7.08047
52.72837279155837 7.1219
52.753222773982785 7.086939999999999
52.778075429022984 7.064369999999999
52.80312495150885 7.04425
52.827982978797436 7.023389999999999
52.85284368481815 7.0254199999999996
52.87770707160767 6.9876
52.90276741793998 6.98636
52.92763619336701 6.96563
52.952507655698504 6.921889999999999
52.977381806977576 6.92668
53.00245301017842 6.9157399999999996
53.02733256653592 6.86689
53.052214817996074 6.8842300000000005
53.077099766608484 6.886310000000001
53.102181859804446 6.86532
53.127072229988265 6.85865
53.15196530349892 6.8742399999999995
53.17686108239249 6.788810000000001
53.20195409881522 6.7949399999999995
53.22685531582556 6.78385
53.25175924441303 6.79648
53.27666588664027 6.7789399999999995
53.30176985962693 6.746639999999999
53.3266819565689 6.73475
53.35159677336455 6.747839999999999
53.376514312083096 6.70622
53.40162927507703 6.691439999999999
53.42655228516116 6.686489999999999
53.45147802340193 6.64054
53.47660125628886 6.639710000000001
53.50153247842639 6.59979
53.52646643496923 6.57857
53.55140312799818 6.58184
53.576537409691696 6.590439999999999
53.60147960336152 6.573930000000001
53.626424539786164 6.57844
53.65137222105307 6.57153
53.67651758529126 6.539219999999999
53.70147078399681 6.48264
53.72642673383343 6.51777
53.75138543689533 6.47039
53.776541917524526 6.46778
53.801506154876755 6.43387
53.826473151763246 6.48001
53.851442910284916 6.42245
53.87661054126026 6.397880000000001
53.9015858509782 6.39312
53.92656392866066 6.361619999999999
53.95154477641532 6.41476
53.976723591801296 6.39838
54.00171000771266 6.34219
54.02669920004598 6.29972
54.051691170915745 6.28662
54.076881204886796 6.28449
54.101878760928514 6.27364
54.12687910187696 6.28182
54.152077577768296 6.222569999999999
54.1770835166946 6.242319999999999
54.20209224691339 6.20308
54.22710377055121 6.22239
54.25231352511594 6.22861
54.27733066384342 6.1653199999999995
54.30235060239643 6.1734
54.32737334290836 6.1545
54.35259441062629 6.08559
54.377622783395324 6.13321
54.40265396455061 6.099019999999999
54.42768795623251 6.0584
54.45292037169559 6.07845
54.477960012857906 6.02761
54.50300247099511 6.01645
54.52804774825457 6.01885
54.55329154616743 5.96582
54.57834249018678 5.9667
54.6033962597977 5.9366900000000005
54.6284528571545 5.91991
54.653708072335164 5.8777099999999995
54.67877035378786 5.9118900000000005
54.70383546947698 5.80697
54.72890342156389 5.82212
54.7541700889442 5.77728
54.77924374251975 5.81771
54.8043202390049 5.79649
54.82959552413022 5.73763
54.8546777351945 5.71277
54.87976279569621 5.69351
54.90485070780914 5.7336
54.930137506558005 5.6739
54.95523115074295 5.67753
54.98032765308844 5.62801
55.005427015775496 5.6106
55.03072536339621 5.66005
55.05583047570572 5.60059
55.080938454927676 5.61444
55.10604930325027 5.55361
55.131359235107396 5.6056
55.15647585066083 5.43445
55.181595341907496 5.43543
55.20671771104285 5.43034
55.232039262617704 5.43772
55.25716741665048 5.41921
55.28229845518636 5.38436
55.30743238042802 5.34478
55.33276558731939 5.27211
55.357905315183636 5.33665
55.383047936390035 5.28901
55.40819345314859 5.24852
55.433538351073295 5.2137
55.458689688238415 5.22441
55.483843927614096 5.1931
55.509197623043605 5.16976
55.53435769621134 5.13403
55.55952067826466 5.11498
55.5846865714265 5.0874
55.61005202069737 5.06439
55.63522376553902 5.02381
55.66039842818645 5.01714
55.68557601087004 5.004230000000001
55.7109532500271 4.92291
55.73613670233794 4.98532
