TT I
1.2716486653135266 7.7898
1.2939594142134223 7.3052399999999995
1.3162702121660406 6.8493699999999995
1.3385810600174564 6.95868
1.3608919586137629 6.8877
1.383202908801069 6.49965
1.405513911425503 6.15698
1.4278249673332093 6.14
1.4501343378461518 5.72349
1.4724455028545926 6.14271
1.4947567236847858 6.30244
1.517068001182951 6.50601
1.5393793361953272 6.17929
1.5616907295681737 5.39883
1.5840021821477681 4.66527
1.60631369478041 5.284
1.6286252683124185 5.44351
1.6509369035901333 5.14722
1.6732468618895553 5.32672
1.695558623192809 5.47847
1.7178704487808514 5.31597
1.7401823395001077 4.60192
1.7625012545597203 4.6673599999999995
1.7848028405262486 5.2584599999999995
1.8071218901122095 4.89515
1.8294236121921872 4.81918
1.8517427996910911 4.79715
1.8740620574440425 4.80233
1.8963639900671978 4.651269999999999
1.9186833908139995 5.522419999999999
1.9409854680117449 5.14732
1.9633050151394713 5.29868
1.9856246367570705 4.67581
2.0079269371922672 4.43594
2.03024671027244 4.18489
2.0525491637446027 4.09011
2.074869091674931 4.3091
2.097171701569106 4.01079
2.1194917877373847 4.41864
2.141811954326636 4.94401
2.164114805233074 4.67212
2.186435135143035 5.1462900000000005
2.208738150935709 8.03534
2.231058647554722 14.6396
2.2533792288321184 11.8712
2.275682498336085 6.43267
2.298003251406138 4.85855
2.3203066942619714 4.47306
2.3426276225136022 4.88436
2.3649486396617507 5.06986
2.387252348930071 5.51803
2.4095735463442893 5.215990000000001
2.4318774374315884 5.59004
2.4541988185014043 5.1811
2.476502894794693 6.18955
2.498824462909887 6.43266
2.521146125856138 6.2177
2.5434504863470337 6.3970199999999995
2.5657723414244717 6.5293
2.588076895590662 7.26175
2.610398946189713 8.13821
2.6327210958598384 6.73723
2.6550259469304716 6.90765
2.6773482972090137 7.183269999999999
2.6996533504259 7.55174
2.7219759047039602 8.02022
2.744298562293959 7.50513
2.7666039251246595 7.7116
2.7889267918020164 7.535010000000001
2.8112323652516555 7.871860000000001
2.833555444408179 8.06066
2.8558786311183852 8.23437
2.8781845268938557 8.232000000000001
2.9005079311721484 8.69918
2.9228140460410397 8.61315
2.9451376712799635 8.50196
2.967444008632326 9.2124
2.9897678582247247 9.76808
3.0120918213106695 10.191
3.0343984987899373 10.3283
3.0567226913198637 10.872
3.079029599759726 11.6012
3.101354025127254 11.9922
3.123678568232338 12.9137
3.145985829517914 12.8469
3.16831061055229 13.1965
3.1906181112775593 13.7701
3.212943133635653 14.7709
3.2352682779763207 14.6336
3.2575761442691227 15.017000000000001
3.2799015350264273 15.5312
3.302209649240067 16.0513
3.3245352898092655 16.4696
3.3468436553365257 17.184
3.369169549113219 17.9306
3.3914955708171384 18.5618
3.413804319727358 18.9733
3.4361305997334863 18.9748
3.4584396084414553 19.6825
3.4807661501462652 19.8272
3.503092824025881 20.7035
3.5254022288463154 21.221
3.5477291695206588 21.5092
3.5700388426251948 21.6977
3.5923660534916446 23.2519
3.6146934007816114 30.7411
3.637003482731501 52.8769
3.6593311053109985 56.7646
3.681641464033634 38.7488
3.7039693653009733 27.3002
3.726297407241705 25.6099
3.7486081875460804 25.2738
3.7709365132734978 25.7832
3.793247578841633 26.2116
3.8155761917550093 26.813000000000002
3.8378875459837216 26.7549
3.8602164494827234 27.055999999999997
3.882545499606844 28.1006
3.9048572932539183 29.1161
3.9271866390645718 29.3244
3.9494987298666713 30.0817
3.971828374764527 30.1724
3.9941581705403255 30.7312
4.016470713506008 31.4246
4.038800813471445 32.3852
4.061113662089144 33.1259
4.0834440696459176 34.0373
4.105774632334751 34.2096
4.128087945865126 35.0189
4.150418821249301 35.0215
4.172732448931298 36.3685
4.195063640413578 37.6885
4.2173775856475215 39.8047
4.239709096631102 56.1008
4.262040768704612 127.446
4.284355196706267 162.415
4.306687193387355 112.604
4.329001947444346 58.8745
4.35133427213731 45.1445
4.373666762177566 43.7535
4.395982011761091 43.9292
4.418314834921175 45.0276
4.44063041906622 49.0203
4.4629635787515625 54.7569
4.4852969080429785 55.4281
4.5076130004776225 52.9063
4.529946671403969 54.5389
4.552263106909177 55.8277
4.574597122877047 54.7875
4.596931312711224 53.5618
4.619248269273446 54.2082
4.6415828092605835 55.0419
4.663900117405352 56.2682
4.686235010953232 57.9846
4.708552674085913 59.2752
4.730887924602802 60.9264
4.753223354952695 62.086999999999996
4.775541557023902 64.5308
4.797877349456786 67.4196
4.820195915032126 68.4604
4.842532072957498 69.2466
4.864868414979744 72.2149
4.88718753227192 74.7507
4.909524244902505 76.3704
4.931843734218147 77.3268
4.954180820867835 79.8343
4.976518095879839 83.4469
4.998838149695359 86.4472
5.021175803844231 90.2488
5.043496238205739 93.8032
5.065834274903528 98.4288
5.088172504230693 104.227
5.1104935158799565 111.834
5.132832132875765 131.625
5.155153533596801 164.563
5.1774925416746225 227.012
5.199814334878411 537.554
5.2221537374521505 1422.22
5.244493338631803 3513.02
5.266815727034316 7827.32
5.289155727832427 11708.0
5.311478517248165 8494.35
5.333818921080011 2855.9
5.356159527788849 585.424
5.3784829252032536 207.269
5.400823940070432 157.7
5.423147747031976 135.745
5.445489173474152 124.52
5.467830807066149 120.852
5.490155234831516 117.87
5.512497285125229 112.21700000000001
5.534822130975162 107.851
5.557164601388673 104.66799999999999
5.579489868738879 101.75200000000001
5.601832762690846 100.523
5.6241758697774475 99.3052
5.646501775867269 98.5615
5.668845311622074 97.7202
5.691171647754637 96.6922
5.713515615597765 95.8463
5.735859800852677 95.2849
5.758186788542988 96.2204
5.780531411018185 97.4611
5.802858837297399 96.5441
5.825203900414495 97.2544
5.8475491852224 99.7158
5.869877275883075 99.0441
5.892223006467101 98.5924
5.914551544266608 98.6712
5.936897724049891 103.051
5.959244129804903 112.03200000000001
5.981573344815301 150.97299999999998
6.0039202049061 299.428
6.026249875609095 607.734
6.04859719346037 1186.25
6.070927323278297 2392.94
6.093275102315365 4239.06
6.115623113320588 5037.69
6.137953938319995 3252.02
6.160302415650845 1019.78
6.182633708324452 247.055
6.2049826554078376 118.571
6.227331838745022 95.6533
6.249663839443684 87.0991
6.27201349767565 83.3558
6.294345974611799 84.0997
6.316696111167083 87.1945
6.339046488263839 84.0598
6.361379686074702 76.3388
6.383730546639482 72.4447
6.406064229255215 70.7399
6.428415576718203 70.9028
6.450749747566656 69.5206
6.47310158535871 67.7394
6.495453669698332 66.4828
6.517788579421056 65.6693
6.540141159237969 64.4212
6.562476565766648 64.0276
6.5848296444934045 63.3434
6.607182974060425 63.4145
6.6295191323281015 63.1562
6.651872965955752 63.998999999999995
6.6742096296068985 75.2767
6.6965639707294615 95.6655
6.71891856698715 94.9733
6.741255995248479 75.8867
6.763611104154477 63.8858
6.785949046381137 60.1568
6.808304671371482 59.658
6.8306605557940046 60.3752
6.852999275508618 58.9967
6.875355681171544 58.0117
6.897694923437771 57.0759
6.92005185377892 56.9915
6.9423916220322655 56.5875
6.964749080490181 55.975
6.987106804399774 56.2936
7.009447368180821 56.3707
7.031805625367033 56.3003
7.054146723727803 56.3182
7.076505517631004 55.718999999999994
7.098864581288365 55.5897
7.121206488070854 55.3561
7.143566093607822 55.2217
7.165908543567245 55.9593
7.188268694426048 56.2254
7.2106291193438095 55.465
7.232972390625943 55.7831
7.255333366030969 61.5316
7.277677189091925 84.7441
7.300038718428332 105.321
7.322400526130865 94.6143
7.344745183422596 70.2028
7.367107550224791 58.0802
7.389452767901992 55.729
7.411815697249891 55.1688
7.434161478756298 54.8076
7.456524974096713 54.5738
7.478888753837185 54.7599
7.501235387657368 54.8326
7.523599738562711 54.9731
7.545946944825532 55.0504
7.568311870344528 55.6775
7.5906770845765665 55.7721
7.613025156078678 56.4142
7.635390950099687 57.107
7.657739602662809 56.5796
7.680105979923558 56.4431
7.702472650212829 57.19
7.724822180948224 56.7518
7.747189439655568 56.8749
7.769539560075357 56.7635
7.791907410653562 57.303999999999995
7.81425812420825 57.2029
7.836626570110925 57.7702
7.858995315087906 58.5186
7.881346924933401 58.5749
7.903716270417482 59.1694
7.926068482028405 59.228
7.948438431475253 59.911
7.9708086843180235 60.824
7.993161805171116 61.5876
8.015532667162402 61.5437
8.037886398416653 62.5793
8.060257873014221 63.7058
8.082629655331942 64.4609
8.104984308787587 64.7549
8.127356708900503 67.471
8.149711981398308 71.0431
8.172085002766314 72.411
8.194458336181368 70.5745
8.216814543847752 70.0391
8.23918850371002 70.5736
8.26154533906492 71.392
8.283919928836452 73.1315
8.306277395339652 73.9406
8.328652618483376 75.2854
8.351028159736202 77.4479
8.373386579575245 79.9914
8.395762759396959 82.1375
8.418121819038275 86.3426
8.440498640894003 94.899
8.462875785192262 108.96700000000001
8.485235811156207 141.254
8.507613602688501 211.468
8.529974277114228 315.561
8.552352719347912 466.337
8.574731488360351 748.695
8.59709314210385 1243.2
8.619472567021075 1857.49
8.64183487789147 2165.41
8.664214962183097 1792.28
8.686577933647762 963.1210000000001
8.708958680784317 370.517
8.731339760774953 165.919
8.753703729764451 113.615
8.77608547780821 101.06700000000001
8.798450116065078 97.899
8.820832535634787 94.6432
8.843215292401656 93.6581
8.865580941199045 92.8812
8.887964374703538 91.5965
8.910330701447199 91.6804
8.932714815164482 92.2739
8.955099270424924 90.4173
8.977466620733543 88.2788
8.999851761421976 86.4957
9.022219798361645 85.1302
9.04460562795561 85.1561
9.066991803441677 84.8187
9.089360876979615 85.0601
9.111747746589993 84.4203
9.13411751544971 83.5985
9.156505082664324 83.2485
9.178875550323522 83.3236
9.20126381862328 83.5193
9.223652438908596 83.435
9.246023961427412 83.6474
9.26841328802173 83.391
9.290785518039224 83.6713
9.313175554425882 85.5344
9.335565947154315 86.0782
9.357939245086508 86.3434
9.380330352834827 86.6062
9.40270436697103 85.98200000000001
9.425096193225055 85.5202
9.447488380180165 86.2298
9.469863475295412 85.7293
9.492256385987508 86.2069
9.514632206018318 86.9776
9.537025843935714 87.181
9.559402392368193 88.2495
9.581796761000229 89.9331
9.604191496441521 91.6651
9.626569144158516 93.8302
9.648964615551032 96.2873
9.671343000390081 96.13799999999999
9.693739211225699 95.1784
9.716135793237463 94.7433
9.738515290448102 95.3292
9.760912617143402 96.3423
9.783292860202891 98.3293
9.805690935076182 99.9542
9.828089385495742 101.196
9.850470754023561 102.939
9.872869957865444 107.405
9.89525208097539 115.601
9.917652041736662 123.667
9.940052382417589 134.39
9.962435644102392 167.46099999999998
9.984836746950979 223.59799999999998
10.007220771957746 296.192
10.029622640473708 412.856
10.052007432299963 603.85
10.074410069984072 888.195
10.096813093716005 1289.57
10.119199042482517 1708.26
10.141602840636468 1934.99
10.163989564971628 1627.68
10.186394141051062 927.492
10.208799107559706 401.283
10.231187001965623 191.44099999999997
10.253592751657669 129.204
10.275981430388155 115.256
10.298387966769793 112.736
10.320794897965431 112.681
10.343184759907361 111.431
10.36559248305461 108.36200000000001
10.387983138083852 108.90299999999999
10.410391656691655 117.353
10.432800574501677 132.09799999999998
10.455192425893369 150.784
10.47760214443012 180.138
10.499994797678786 225.467
10.522405320453982 303.735
10.54479877906917 404.152
10.567210109595656 500.276
10.5896218454736 561.15
10.612016518879773 492.642
10.634429067781074 343.06300000000005
10.656824555333241 199.93599999999998
10.679237920773568 123.569
10.701651695961992 97.0254
10.724048411481384 90.8011
10.746463008485165 88.1228
10.768860546937125 86.5681
10.791275969274796 84.4976
10.81369180576079 83.1558
10.836090585366925 82.3999
10.858507252467449 81.027
10.88090686379991 79.9064
10.903324365036394 79.7032
10.925724811614439 78.6811
10.948143150509463 79.2161
10.970561909719066 78.959
10.992963615930844 77.7509
11.015383218085756 75.8063
11.037785768347074 74.6784
11.06020621697282 74.2236
11.082627090322113 73.2807
11.105030913430326 72.383
11.12745263854165 72.305
11.149857314510728 73.7565
11.172279894912576 76.0895
11.194702904450653 75.8506
11.217108866490921 73.85
11.239532736615194 71.6851
11.26193956033512 70.6569
11.284364294577085 69.8772
11.306789462371718 68.7131
11.329197585398376 67.8941
11.351623622610898 67.9307
11.37403261614354 67.2141
11.396459526308487 66.7632
11.418869393879497 66.3058
11.441297180532617 65.8315
11.463725406927658 65.6767
11.486136592353875 65.531
11.508565700543707 65.5082
11.530977768845315 66.2243
11.553407762368774 66.5932
11.575838200059769 66.2399
11.598251599479612 65.3808
11.620682927815501 64.6304
11.64309721895548 64.2182
11.665529441478206 64.1176
11.687962112597958 63.7802
11.710377748130886 63.8043
11.732811318753434 63.7231
11.755227854859067 63.5051
11.777662328529495 63.515
11.800079768750786 63.5292
11.822515149015453 63.3627
11.844950984084935 63.6294
11.867369787303163 63.2674
11.889806534289491 63.6671
11.912226250487029 63.83
11.934663912939751 64.2564
11.9571020346363 64.3116
11.979523127133968 64.3233
12.001962169624331 65.7306
12.024384183972964 68.2154
12.046824150809913 72.4881
12.069264581333726 77.5084
12.091687985297767 83.949
12.11412934550045 93.902
12.136553680195208 109.193
12.158995973632788 131.216
12.181438735204349 155.915
12.20386447284199 183.05700000000002
12.226308172985636 202.50599999999997
12.24873485024193 200.83900000000003
12.271179492516982 168.014
12.293607112949127 123.51700000000001
12.316052700916226 91.1027
12.338498763250042 75.3918
12.360927805303868 68.8201
12.383374818673879 66.1575
12.405804812803074 65.0934
12.428252780773262 65.1085
12.45070122756722 65.2294
12.473132656675375 65.0332
12.49558206341869 65.3826
12.518014453510101 65.5697
12.540464823770117 65.5408
12.562915677315177 65.6405
12.58534951575545 66.1614
12.607801338171472 66.9527
12.630236146511358 69.4189
12.652688941369085 71.6933
12.675124723177234 72.7842
12.697578494048786 71.2919
12.720032754458185 69.1875
12.742470003354093 68.3631
12.764925245138771 68.5965
12.787363476431278 68.7757
12.809819703166806 69.4673
12.83227642391173 70.2834
12.854716135692716 71.0087
12.877173846755147 72.1357
12.899614549869717 72.5336
12.9220732548287 73.3721
12.94453245827299 74.1363
12.966974655289818 75.1587
12.989434858002571 75.9855
13.011878055298721 76.6858
13.034339260862497 77.7054
13.056800969391883 79.0893
13.079245674017244 82.37299999999999
13.101708390774869 87.7019
13.12415410463411 98.0451
13.146617833206086 110.1
13.169064559883248 122.604
13.191529303857127 138.494
13.213994557076367 163.14600000000002
13.236442809902437 200.83
13.258909083908291 252.553
13.28135835851934 306.689
13.30382565690295 369.455
13.326293469022952 418.717
13.348744283242008 422.727
13.371213125129904 355.486
13.39366497011003 260.431
13.416134845360597 171.27599999999998
13.438605238843131 125.20200000000001
13.46105863690397 112.376
13.483530069144786 114.035
13.505984506951902 120.21600000000001
13.528456981549432 131.244
13.550929978879088 147.425
13.573385983253365 172.00900000000001
13.595860028340867 208.726
13.618317081455832 255.612
13.64079217790333 302.871
13.663250283359057 341.741
13.685726434770173 370.19599999999997
13.708203115221277 339.20599999999996
13.730662806148091 267.118
13.75314054697177 188.395
13.775601299246777 128.649
13.798080104050406 97.6031
13.820559442405358 86.4021
13.843021793671388 83.1296
13.865502201420897 81.3358
13.887965623051947 80.9503
13.910447103807167 79.9599
13.932929122629764 78.3669
13.955394156785959 77.8736
13.977877254034569 76.7786
14.000343367582113 75.9855
14.022827546871707 75.4356
14.045294743423524 74.8378
14.06778000837062 74.2804
14.090265817715476 74.2202
14.112734645763819 73.7818
14.13522154619454 73.3073
14.157691466286913 73.1285
14.180179461423874 72.9555
14.202668005486178 72.485
14.22513957064374 71.9912
14.247629214846473 71.5564
14.270101881097517 71.2652
14.29259262906496 71.1451
14.315083930490205 71.4393
14.337558255389705 71.4625
14.360050666019726 71.6007
14.382526101071944 70.7606
14.405019624534942 70.6537
14.427513705993134 69.8983
14.449990813291825 69.994
14.47248601302899 70.0047
14.49496423954951 69.93
14.517460561197822 69.8472
14.539939910570322 69.916
14.562437357763558 70.2889
14.58493536931253 70.6973
14.607416409993311 71.3176
14.62991555254159 71.8369
14.652397725157423 71.7812
14.674898002342799 71.9385
14.697398848433282 71.9695
14.719882725991326 73.5089
14.74238471217934 76.128
14.764869730765593 80.5735
14.787372860692983 84.00399999999999
14.809876564079925 88.882
14.83236330125751 95.3721
14.854868153850365 105.10700000000001
14.877356041159485 118.66
14.899862046604186 136.555
14.922351087688757 158.114
14.944858249632887 182.394
14.967365991421232 203.778
14.989856770231246 218.065
15.012365673994204 215.48
15.03485761569738 187.583
15.05736768508665 148.612
15.07987833888692 114.948
15.102372032001655 90.7609
15.124883856909658 77.601
15.14737872204565 73.4015
15.169891721717274 71.9151
15.192405310371893 71.3178
15.214901940621196 71.1283
15.237416709527137 70.7861
15.259914520936249 70.9306
15.282430473753607 69.8159
15.304947020131227 69.1044
15.327446610371178 68.5737
15.349964346154254 68.15899999999999
15.372465126703139 67.817
15.394984055556009 67.6474
15.417486030076159 67.4747
15.44000615566487 67.1982
15.462526881230803 67.14399999999999
15.485030653812652 67.2725
15.507552581617434 66.9977
15.530057557334603 67.0364
15.55258069104857 66.7968
15.575104429329837 67.2315
15.597611216864632 67.1492
15.620136166564563 68.1304
15.6426441664095 70.4454
15.665170331202765 73.7103
15.687697105158826 76.7181
15.710206930593545 80.4217
15.732734925158933 84.8814
15.755245972089478 91.8964
15.77777519094324 101.588
15.800287463046663 114.305
15.822817909869592 131.172
15.84534897229804 149.342
15.867863089299354 169.04
15.890395385222186 184.417
15.912910736597423 191.88299999999998
15.935444269699861 180.87900000000002
15.957978423016485 154.638
15.980495633101265 121.912
16.003031029129367 95.38600000000001
16.02554948280019 76.3568
16.048086125229432 68.0032
16.070623392487107 65.3961
16.09314371869582 64.2097
16.11568223789321 63.3711
16.13820381691126 62.5297
16.160743591742527 61.9049
16.183283996022084 61.1833
16.205807461423195 60.2072
16.228349126881973 59.8378
16.25087385432698 59.8511
16.27341678466365 59.21
16.29594277784926 59.0131
16.31848697676433 58.927
16.341031811604868 58.7602
16.36355971058487 58.8317
16.3861058195587 58.581
16.40863499352978 57.6465
16.431182380342005 57.2666
16.453730407713202 56.843
16.476261501364792 56.4734
16.498810812136167 56.1718
16.52134319004079 56.3521
16.54389378792203 56.1514
16.566445031001553 56.037
16.588979342490088 55.9898
16.61153187824822 55.938
16.634067483263312 55.9367
16.656621315414416 55.6733
16.679175797408888 55.2592
16.701713349928728 55.4112
16.72426913389191 55.6637
16.74680798922351 55.7034
16.76936507887444 55.7631
16.791905240734874 55.6491
16.814463639794468 55.5354
16.837022695210294 55.468
16.859564824093756 55.8859
16.882125194503903 56.1191
16.904668639217885 56.4754
16.927230328348003 56.4726
16.949792678493612 56.7004
16.972338104193863 56.387
16.994901778652235 56.3278
17.017448529496576 56.6013
17.040013531998152 57.2296
17.06257920018044 58.0409
17.0851279459922 58.9969
17.107694947817667 59.4482
17.130245028099072 60.3573
17.15281336730298 61.7716
17.17536478578733 63.6489
17.19793446610687 66.1611
17.220504818648422 68.7816
17.243058251703697 71.5812
17.265629950971032 75.2345
17.288184731571736 78.6231
17.310757781306908 82.1457
17.33333150794385 83.507
17.355888317140174 81.9308
17.37846339986244 77.5492
17.401021565958885 71.7489
17.42359800851343 66.2501
17.44617513265564 63.0095
17.468735341390783 61.0434
17.491261035594565 60.2402
17.51396340099364 60.0325
17.536490463869136 60.0246
17.559018209820174 60.1368
17.58154663977963 60.3105
17.604251766089718 60.5253
17.626781572227713 60.7363
17.64931206518155 60.8246
17.671843245885103 61.1802
17.69455114821572 61.4973
17.717083712612634 61.8486
17.739616967569667 62.1155
17.762150914021706 62.6556
17.78486160749854 62.7336
17.807396945166804 63.7689
17.829932977143503 65.3001
17.85246970436452 67.3669
17.875183204129467 69.0992
17.897721330097664 71.6356
17.920260154126645 73.971
17.942799677153296 77.2682
17.9655159983646 81.1849
17.988056927677544 86.8627
18.010598558807683 94.2703
18.033140892692916 103.156
18.05586005052525 112.454
18.07840379824407 122.04899999999999
18.10094825154059 133.093
18.12366954819864 140.244
18.146215420998306 140.17700000000002
18.16876200220057 133.321
18.191309292745153 120.34
18.214033452627167 105.639
18.236582170236648 93.9675
18.259131600016456 88.8054
18.281681742907335 88.3534
18.304408781233683 92.2982
18.32696035875955 96.0096
18.349512652227624 100.566
18.372065662579683 105.639
18.394795594587553 106.73299999999999
18.41735004715306 103.696
18.43990521943684 96.926
18.46246111238171 87.5803
18.485193953325208 78.1837
18.507751296070428 70.7798
18.530309362314178 66.5277
18.552868153000343 64.5342
18.57560391815056 63.3185
18.59816416623245 62.8025
18.620725141597372 62.2178
18.643286845190268 61.6467
18.666025549835414 61.2622
18.688588718427933 60.8334
18.711152618092243 60.5825
18.73389353884365 60.4378
18.75645890921984 60.0683
18.77902501351406 59.7409
18.801591852673102 59.6563
18.824335739722738 59.0447
18.846904057212626 58.9077
18.8694731124168 58.7766
18.89204290628315 58.7935
18.914789774966803 58.6625
18.937361054791623 58.1045
18.959933076131318 58.0542
18.982505839934877 57.8583
19.00525570560582 57.8304
19.027829963004184 57.8201
19.05040496572238 58.12
19.072980714710468 58.2581
19.095733592739563 58.5667
19.11831084296757 58.6006
19.140888842324735 58.9018
19.16346759176222 59.2978
19.18622349753803 59.8214
19.208803755869358 60.7233
19.231384767143577 62.2167
19.253966532312948 63.6555
19.276725481241822 65.6692
19.29930876296784 67.6722
19.3218928014549 70.4731
19.34465404436217 72.7811
19.36723960516257 75.6732
19.389825925592426 76.6433
19.412413006605938 76.0202
19.43517731967805 73.1893
19.457765930683355 68.3661
19.48035530514408 63.9477
19.50294544401556 59.8651
19.525712842708348 57.172
19.54830451925909 55.9258
19.570896963095727 55.0449
19.593490175174704 54.8971
19.616260674962184 54.7488
19.638855432416964 54.4415
19.661450960992624 54.6433
19.68404726164677 54.6227
19.706820878021247 54.295
19.729418731756834 54.3858
19.752017360452857 54.1485
19.77461676506804 54.4728
19.797393513540218 54.7902
19.819994478951667 55.1661
19.84259622316767 55.6292
19.8651987471481 55.8803
19.887978643247177 56.3213
19.91058273574792 56.7823
19.933187610901943 57.7436
19.955969879466828 58.7673
19.97857632894404 60.4404
20.00118356396599 61.8072
20.023791585494575 63.6637
20.046577028914875 65.9857
20.069186632506966 67.9113
20.091797025500632 69.9059
20.114408208858933 70.6129
20.137196842715273 70.7722
20.159809615886765 69.2911
20.18242318232135 66.8166
20.20503754298326 64.8934
20.227829382875154 63.2955
20.250445341109344 63.031000000000006
20.27306209647285 63.2288
20.29567964993108 64.494
20.31847471147704 65.4751
20.34109387027612 66.1135
20.363713830075454 66.1182
20.386334591841646 64.5894
20.409132890679302 61.5583
20.431755265564437 58.8971
20.454378445325528 55.9412
20.477002430930366 53.983999999999995
20.499803982716553 52.7748
20.522429589228004 51.992
20.54505600449589 51.7617
20.567683229489194 51.3226
20.590488049900088 51.2744
20.61311690359731 50.8834
20.63574656993626 50.7414
20.658553853717297 50.3676
20.681185154618298 50.4886
20.703817271080066 50.328
20.72645020407368 50.0606
20.749260783967177 49.8061
20.771895359337133 49.7134
20.794530754161617 49.7346
20.817166969412938 49.7566
20.83998086114876 49.6436
20.86261872660049 49.4159
20.885257415405402 49.4543
20.90789692853701 49.3449
20.930714147864748 49.4775
20.953355319030678 49.4805
20.97599731745334 49.61
20.99864014410749 49.3015
21.021460706796564 49.4053
21.044105199328826 49.7531
21.06675052302631 49.8771
21.089396678865015 50.0639
21.112220600704806 50.3297
21.134868430275347 50.8145
21.15751709492456 51.0198
21.180166595629693 51.1569
21.202993892429635 51.6117
21.22564507473034 51.8346
21.24829709602816 52.1328
21.27112693608965 52.3457
21.293780644891275 52.3065
21.316435195634053 51.5636
21.339090589297417 50.7441
21.361923832041875 50.3343
21.384580921090404 49.773
21.407238856007325 49.3169
21.429897637773326 49.2629
21.45273429906592 49.2566
21.475394784108598 49.2265
21.498056118951983 49.2284
21.520718304578022 49.4764
21.543558400304388 49.6992
21.566222297108816 50.0472
21.58888704765135 50.163999999999994
21.61155265291521 50.3613
21.63439619898156 50.9385
21.657063523335786 51.1009
21.67973170537063 51.4223
21.7024007460706 52.1799
21.72524775840385 52.9103
21.747918526116475 54.0616
21.770590155457388 55.3209
21.79326264741238 56.7534
21.816113141960237 58.5206
21.838787368860547 60.0047
21.861462461341976 61.6172
21.884315579735777 63.3639
21.90699241312273 64.6132
21.92967011506078 65.4824
21.95234868653799 65.1989
21.9752053151131 64.2416
21.997885635446785 62.2571
22.020566828293532 60.1643
22.04324889464272 58.348
22.066109049404666 57.1906
22.088792872571794 56.4971
22.111477572219204 56.4911
22.1341631493376 56.7746
22.157026846313123 56.4986
22.179714188221507 56.062
22.202402410582668 54.99
22.22509151438863 53.6123
22.24795876962584 52.203
22.270649646204486 51.248000000000005
22.293341407213727 50.582
22.316034053646906 49.9804
22.338904883215342 49.7711
22.36159931041458 49.8832
22.38429462602756 49.6484
22.40699083104897 49.4331
22.429865251039757 49.4629
22.452563244831367 49.4916
22.47526213102522 49.4506
22.49813925616515 49.3839
22.520839937143307 49.3439
22.543541513520587 49.518
22.56624398629403 49.333
22.589124730075895 49.3218
22.611829005656723 49.6999
22.63453418063466 49.809
22.657240256008077 49.975
22.680124634582935 50.2054
22.70283252079775 50.1603
22.725541310413075 50.6136
22.74825100442868 50.9265
22.771139033969575 51.5283
22.79385054687155 51.5887
22.81656296718292 52.3244
22.83927629590484 53.1443
22.862167992606945 53.9807
22.88488314827121 55.0017
22.907599215359284 55.888999999999996
22.93031619487366 56.7496
22.953211574954405 57.5077
22.975930389478226 58.3637
22.998650119445763 58.7564
23.02137076586092 58.0939
23.044269845560063 56.621
23.06699233506288 55.0871
23.089715744034912 53.3373
23.112617610931565 51.7572
23.135342869061212 50.6706
23.158069049684816 49.8324
23.1807961538087 49.5504
23.20370174880544 49.6435
23.226430710184808 49.7585
23.249160598093425 49.817
23.271891413539002 49.9187
23.294800752937697 49.8998
23.31753343374794 50.0856
23.340267045128353 50.1387
23.36300158808808 50.7857
23.38591468821339 50.9118
23.408651104658304 51.3463
23.431388455719986 51.9253
23.454126742409 52.5432
23.4770436196085 53.75899999999999
23.499783787914662 54.8948
23.522524894889884 55.5548
23.54526694154616 56.3505
23.56818761219047 57.3522
23.59093154860734 57.9398
23.613676427751283 58.2541
23.636422250635754 57.5574
23.659346731118656 56.2586
23.68209445191868 54.4216
23.704843119509587 52.342
23.72759273490623 50.3172
23.750521041644767 48.9054
23.77327256312355 47.8528
23.796025035462787 47.2293
23.818956224555475 46.8278
23.841710609113413 46.6765
23.86446594758979 46.5944
23.887222241002014 46.2446
23.910157285144578 45.898999999999994
23.932915498962537 45.8318
23.955674670778713 45.8751
23.978434801611975 45.7876
24.001373717286125 45.4999
24.024135776723917 45.1836
24.046898798245582 45.1272
24.06966278287146 45.0527
24.092605586582614 45.0826
24.115371508023642 44.7544
24.1381383956401 44.6693
24.16090625045381 44.6677
24.183852958731244 44.6909
24.206622758582608 44.5176
24.229393528706886 44.2607
24.252165270127392 44.2887
24.27511589952438 44.2487
24.297889594216997 44.0853
24.32066426328598 43.9153
24.34343990775613 43.9581
24.36639447485003 43.8594
24.38917208083877 43.9572
24.41195066531332 43.6313
24.43490819850244 43.6257
24.457688750692377 43.7141
24.48047028445616 43.6787
24.503252800821233 43.8437
24.526214300784112 43.7691
24.548998793132213 43.7628
24.57178427117417 43.6453
24.59457073593893 43.7027
24.617536219319863 43.6744
24.64032466834748 43.666000000000004
24.663114107195035 43.5219
24.685904536893013 43.1333
24.708874020360852 42.934
24.731666442613744 43.0027
24.754459858818787 43.1086
24.777254270007962 42.9372
24.80022777025625 42.8801
24.82302418230472 42.8941
24.845821592443674 42.8834
24.86862000170663 42.9479
24.891597535453727 42.7784
24.914397953892728 43.0806
24.93719937456671 42.9321
24.96000179851076 43.1365
24.98298338249997 43.5004
25.00578782394922 43.7373
25.028593271784167 43.6389
25.05157790644186 44.0402
25.07438537804115 44.0617
25.097193859145293 44.2376
25.120003350792075 44.3702
25.142992065061257 44.8296
25.165803588823465 45.1213
25.18861612625217 45.2485
25.211429678386736 45.4842
25.234422489079968 45.5557
25.257238081693636 45.4979
25.280054692141732 45.4128
25.3028723214652 45.3245
25.325869245420463 45.3985
25.348688923599397 45.5125
25.371509623787006 45.54600000000001
25.394331347025812 45.2524
25.41733240110666 44.7185
25.440156181590016 44.005
25.46298098826268 43.5492
25.48580682216873 42.9595
25.50881202326435 42.4648
25.53163992281684 42.0647
25.55446885274561 41.8244
25.577298814096377 41.5602
25.600308179121807 41.5629
25.623140214533745 41.5098
25.64597328451537 41.2259
25.66898578564376 41.2367
25.691820936010206 41.3019
25.714657124097695 41.229
25.737494350954734 41.2323
25.760511045684957 41.1317
25.783350361364224 41.0804
25.806190718969255 41.1341
25.82903211955018 41.2995
25.852053024868923 41.2339
25.874896522722523 41.3041
25.897741066713106 41.31
25.920586657892454 41.4032
25.943611790812668 41.5189
25.966459487728237 41.6525
25.989308234998564 41.61
26.01215803367705 42.047
26.03518741123814 42.1884
26.05803932412957 42.2357
26.080892291600094 42.2587
26.10374631470478 42.2233
26.12677995397268 42.3394
26.14963609978026 42.3921
26.172493304397875 42.0858
26.19535156888223 41.8313
26.218389486949604 41.4526
26.241249882640123 41.3275
26.26411134137826 41.1007
26.28715248187403 41.0024
26.31001607820869 40.708
26.3328807407756 40.6459
26.35574647063438 40.8976
26.37879191991473 40.8614
26.401659795896734 40.8543
26.424528742360263 41.0896
26.447398760366614 41.0963
26.470448535598294 41.302
26.49332070826805 41.5367
26.516193955675355 41.7868
26.53906827888316 41.9951
26.562122397260108 42.035
26.584998883685063 42.2692
26.607876449110325 42.4791
26.63075509460056 42.7702
26.65381357334404 42.9928
26.67669439061878 42.7133
26.699576291163382 42.7525
26.722459276044212 42.6658
26.745522132402975 42.2811
26.768407297649354 42.0362
26.791293550442003 41.762
26.814180891848974 41.302
26.837248143099337 41.0408
26.860137673466657 41.0493
26.88302829566349 40.638000000000005
26.90592001075963 40.6238
26.92899167420566 40.5156
26.951885586870763 40.1673
26.974780595655517 39.8411
26.99785558178161 39.8341
27.020752794605112 39.6304
27.043651106772522 39.5183
27.06655051935668 39.492
27.089629948036183 39.4063
27.112531573292053 39.3377
27.135434302194138 39.4565
27.158338135817015 39.3196
27.181422024430987 39.1657
27.204328079372566 39.1145
27.22723524226965 39.1946
27.250143514198573 39.1468
27.273231880156334 39.2073
27.296142382065014 38.9699
27.319053996245536 39.0789
27.341966723775965 39.0824
27.365059584515222 39.0711
27.38797455070062 39.1364
27.410890633481237 38.9696
27.433807833936918 39.0941
27.456905206923906 39.2672
27.47982465472398 39.2713
27.502745223449743 39.1855
27.525666914182825 39.2543
27.548768816912457 39.1076
27.571692763693633 39.1303
27.59461783573812 39.0246
27.617723149491244 38.8293
27.640650484125285 38.7504
27.66357894728264 38.6495
27.686508540048052 38.6913
27.709618414237887 38.5799
27.732550278321757 38.4739
27.755483275279115 38.4343
27.778417406196485 38.5556
27.801531858397514 38.5163
27.824468269376716 38.5165
27.847405817586786 38.579
27.870344504116094 38.6328
27.893463551932008 38.8336
27.916404527281053 39.0764
27.93934664422563 39.0574
27.962289903855886 39.0246
27.98541356491974 39.2236
28.00835912214229 39.3612
28.03130582533231 39.6282
28.054253675581805 39.6481
28.077381967556104 39.5514
28.100332124185126 39.4595
28.123283431160893 39.4652
28.146235889577238 39.4384
28.169368830154156 39.1833
28.192323603752033 39.0124
28.215279532083304 38.8072
28.238415973016764 38.6125
28.261374223145094 38.4294
28.284333631303806 38.2321
28.307294198589954 38.0929
28.330435319167677 37.6078
28.353398217078915 37.5284
28.376362277420153 37.3373
28.39932750129032 37.1264
28.422473319286713 37.0042
28.44544088262495 36.9098
28.468409612800283 36.8277
28.491379510913497 36.5727
28.51453004413313 36.4307
28.53750229057244 36.5982
28.56047570826344 36.5832
28.583450298308804 36.4941
28.606605564586562 36.2007
28.629582511831156 36.3157
28.65256063474956 36.1527
28.675539934446338 36.204
28.698699951647605 36.0901
28.72168161743193 36.0354
28.74466446331978 36.0701
28.767648490417624 35.9993
28.790813276438353 35.9103
28.813799678527303 35.9823
28.836787265157085 36.0175
28.859955641890075 35.9512
28.882945610203045 35.9788
28.905936766392035 35.8652
28.928929111566863 35.8998
28.952102288520145 35.8753
28.975097024308607 35.67
28.998092952423807 35.5265
29.021090073977508 35.4318
29.04426806913204 35.4581
29.067267590245258 35.1784
29.090268308143695 35.1699
29.11327022394099 35.1046
29.13645305530891 34.9526
29.159457379627167 34.9295
29.18246290519685 34.8412
29.20546963313352 34.7834
29.22865731875826 34.8456
29.25166646419296 34.9044
29.27467681535305 34.6904
29.29768837335608 34.8401
29.320880931312562 34.7198
29.34389491580634 34.7982
29.366910110507334 34.7664
29.38992651653503 34.7096
29.41312396492981 34.693000000000005
29.436142806456754 34.6133
29.45916286268059 34.5937
29.48236399319994 34.4549
29.50538649169417 34.3472
29.528410208259935 34.2048
29.55143514402014 33.9115
29.574641196749695 33.8643
29.597668583816574 33.7417
29.6206971934585 33.6492
29.64372702680042 33.6998
29.666938019934474 33.4784
29.689970313635285 33.4286
29.713003834422636 33.4481
29.73603858342347 33.382
29.759254535188578 33.2141
29.78229175361658 33.2708
29.80533020365064 33.2213
29.82836988641968 33.3711
29.85159081507472 33.2351
29.874632976355343 33.1432
29.89767637376955 33.2278
29.920721008448314 33.1383
29.9439469322847 33.1621
29.96699405457564 33.093
29.9900424175358 33.0615
30.013092022298157 33.0526
30.03632295963995 33.0327
30.059375061131373 33.14
30.08242840783577 33.0727
30.105483000888153 32.966
30.128718970092244 32.8619
30.151776069006917 32.8805
30.17483441768648 32.949
30.198074175317235 32.927
30.221135036724256 32.9007
30.24419715131772 32.7663
30.267260520236203 32.7283
30.290505341942243 32.821
30.313571232750228 32.9273
30.336638381310948 32.8811
30.35970678876503 32.7826
30.38295669299435 32.5241
30.40602763151657 32.6138
30.429099832366074 32.6471
30.452173296685572 32.5107
30.47542830191959 32.6018
30.498504306502497 32.598
30.521581577995562 32.628
30.544660117543582 32.628
30.56792024229725 32.7148
30.59100133132069 32.6388
30.614083691845494 32.6553
30.637167325018545 32.6058
30.660432587840603 32.7164
30.683518779717886 32.6522
30.70660624769615 32.7092
30.729694992924372 32.671
30.75296541239743 32.6945
30.77605672557558 32.6017
30.799149319462742 32.5596
30.8224236211637 32.4623
30.845518789950724 32.3126
30.868615242910597 32.3085
30.891712981195973 32.1685
30.91499247215866 32.0175
30.938092794619365 31.9975
30.96119440587579 31.9335
30.984297307082752 31.9081
31.00758200598383 31.7778
31.030687500658694 31.7069
31.053794288760695 31.6296
31.076902371446767 31.5918
31.100192296997445 31.6212
31.12330298246119 31.5686
31.14641496599209 31.5049
31.169528248749216 31.4747
31.19282341969534 31.471
31.215939314557186 31.5003
31.239056512134788 31.4659
31.262175013589378 31.4249
31.28547544871168 31.3237
31.30859657161541 31.2557
31.331719001892175 31.3345
31.35484274070538 31.424
31.378148458819545 31.3135
31.401274828443725 31.3329
31.424402510106933 31.5
31.447712205419993 31.4469
31.470842524931633 31.2436
31.493974159989783 31.2023
31.51710711176168 31.2771
31.54042212308802 31.307
31.563557722100917 31.2914
31.586694641341655 31.1276
31.609832881979628 30.9386
31.63315322823208 30.9377
31.656294125521327 30.8564
31.679436347728515 30.7818
31.70257989602529 30.7541
31.725905596152327 30.6621
31.74905181052835 30.5814
31.772199354521323 30.6191
31.79534822930507 30.6675
31.818679302290967 30.6991
31.84183085259981 30.6447
31.864983737233473 30.4771
31.88813795736804 30.5379
31.911474422233013 30.3991
31.934631327356435 30.6535
31.9577895715215 30.5019
31.980949155906522 30.462
32.004291031706956 30.5032
32.027453310562606 30.3564
32.05061693318573 30.1346
32.07396288236386 30.2675
32.09712920658542 30.154
32.12029687812702 30.0739
32.14346589817093 30.0212
32.166817291729984 29.9144
32.18998902288583 29.866
32.21316210610336 29.7987
32.23633654256711 29.6406
32.259693399663725 29.6188
32.282870556771144 29.6457
32.30604907069099 29.6322
32.329228942610065 29.5846
32.35259128243769 29.4407
32.375773884550505 29.3333
32.398957848235646 29.293000000000003
32.422143174682176 29.2551
32.445511016471215 29.2128
32.468699082679954 29.2786
32.49188851523011 29.0921
32.51507931531304 29.0449
32.538452678331 29.0377
32.56164622776311 29.0296
32.58484114831493 28.7888
32.60803744118015 28.8963
32.631416344731896 28.9384
32.654615396551876 28.9001
32.67781582427913 28.9108
32.701198898634416 28.7621
32.72440209253756 28.7149
32.747606665947124 28.723000000000003
32.77081262006088 28.5968
32.79420126883317 28.5745
32.81740999876112 28.5337
32.840620112999424 28.4584
32.86383161274818 28.4003
32.88722585534586 28.4612
32.91044014056596 28.4842
32.933655814909734 28.396
32.95687287957963 28.4485
32.98027273544904 28.3441
33.00349259526636 28.3357
33.026713849030116 28.3599
33.04993649794511 28.2152
33.073341986570746 28.2112
33.09656744032826 28.2488
33.11979429286444 28.1449
33.14302254538647 28.2236
33.166433686291185 28.1893
33.18966475336992 28.1481
33.212897224069096 28.0362
33.23613109959831 27.9974
33.259547912343415 28.0053
33.2827846121627 27.999000000000002
33.306022720453775 27.8954
33.32926223842861 27.8511
33.352684742614166 27.8021
33.37592709463173 27.7087
33.399170859982064 27.7541
33.422597648419426 27.6587
33.44584425514446 27.5409
33.46909227885668 27.4605
33.4923417207723 27.4069
33.51577423505344 27.4781
33.539026528130385 27.3418
33.56228024307245 27.3072
33.585535381098246 27.1023
33.60897364093058 27.122
33.63223163992385 27.1056
33.6554910656699 27.0146
33.678751919389796 27.1269
33.702195944520106 26.9656
33.72545966903325 27.0091
33.74872482519663 26.9525
33.771991414233746 26.8807
33.79544122444841 26.9312
33.81871069412428 26.7867
33.84198160035767 26.6995
33.86525394437455 26.7585
33.88870955949969 26.7651
33.911984794020626 26.7852
33.93526147001624 26.7349
33.958539588715006 26.6576
33.98200102861669 26.4967
34.0052820477047 26.4472
34.02856451319451 26.4984
34.05203033759056 26.3676
34.07531571090147 26.3784
34.09860253431845 26.3657
34.121890809074316 26.3425
34.145362493118924 26.3351
34.16865368561615 26.284000000000002
34.191946333164054 26.1421
34.21524043699793 26.1689
34.23871800066799 26.1814
34.26201503218366 26.0387
34.28531352370466 26.0626
34.30861347646881 26.0029
34.33209693978188 25.8994
34.3553998301885 25.9179
34.378704185565205 25.9073
34.402010007152356 25.8593
34.42549939016683 25.7484
34.44880815937748 25.6593
34.472118398533134 25.6281
34.49543010887669 25.6403
34.51892543169198 25.4839
34.54224009966052 25.5096
34.56555624255917 25.5576
34.58887386163339 25.3533
34.61237514439016 25.401
34.6356957311114 25.3161
34.65901779775809 25.2351
34.68252356662995 25.3285
34.705848608458616 25.355999999999998
34.72917513396849 25.2325
34.75250314440949 25.1676
34.77601490857862 25.1104
34.799345904259795 25.0756
34.82267838863559 25.0492
34.846012362958525 25.028000000000002
34.869530142679984 25.0348
34.89286711232212 24.9224
34.91620557568269 24.9737
34.93954553401677 25.0072
34.9630693495876 24.894000000000002
34.986412313340814 24.8505
35.00975677584668 24.8564
35.033102738362956 24.7527
35.05663261012228 24.6917
35.0799815881786 24.7256
35.10333207003229 24.6504
35.12668405694369 24.7268
35.150220005273056 24.6649
35.17357501786656 24.5626
35.19693153931268 24.5811
35.220289570874385 24.5936
35.24383161619786 24.5691
35.267192683604904 24.5085
35.290555264930376 24.5188
35.314101899412165 24.4246
35.33746752422433 24.4559
35.36083466676374 24.4169
35.38420332829803 24.3618
35.407756095629054 24.3467
35.43112781085063 24.3963
35.45450104888391 24.3012
35.477875810999194 24.2854
35.50143473172161 24.2123
35.52481255774625 24.1875
35.54819191167777 24.1267
35.57157279478914 24.1078
35.595137889488406 24.066999999999997
35.61852184675279 24.0618
35.641907337029984 23.9607
35.665294361595684 23.9573
35.68886565090076 23.8891
35.7122557598848 23.8539
35.73564740699838 23.8932
35.759040593519934 23.9192
35.78261809810353 23.7677
35.80601437933051 23.648000000000003
35.829412203814705 23.6242
35.85281157283719 23.6095
35.876395313415884 23.6006
35.8997977874528 23.5439
35.92320180988546 23.5311
35.946790244133936 23.3858
35.97019737933222 23.4372
35.993606066789866 23.3765
36.01701630779276 23.3586
36.04061101440684 23.348000000000003
36.06402437852291 23.3965
36.08743930005611 23.4081
36.1108557802951 23.2465
36.13445678011326 23.2172
36.15787639383515 23.1784
36.18129757014299 23.168000000000003
36.20472031032821 23.1567
36.22832762423364 23.0074
36.25175350829375 23.0428
36.275180960119776 23.0541
36.298609981005924 22.999000000000002
36.32222362992669 23.0092
36.34565580510207 22.924
36.36908955323448 22.8799
36.39252487562093 22.776999999999997
36.416144880530226 22.7497
36.43958336764275 22.7907
36.463023432914625 22.7207
36.486465077645676 22.6842
36.51009145956204 22.7768
36.53353627947859 22.7152
36.55698268276811 22.6958
36.58043067073321 22.6147
36.60406345072071 22.5376
36.62751462435344 22.5281
36.65096738658405 22.4711
36.67460498210655 22.469
36.69806093788647 22.4142
36.72151848619297 22.3846
36.744977628333636 22.3736
36.76862165890998 22.2264
36.79208400512205 22.3256
36.81554794910557 22.3032
36.83901349217101 22.215
36.862663978991606 22.1696
36.88613273667352 22.1313
36.90960309738324 22.1031
36.933075062434064 22.0204
36.95673202673572 22.0588
36.98020721697122 21.9959
37.003684015502365 21.8744
37.027162423645365 22.0054
37.050825886711465 21.8763
37.07430753063053 21.7572
37.09779078812467 21.8438
37.121275660513014 21.8255
37.144945643673694 21.7265
37.16843376245278 21.7202
37.19192350009803 21.7209
37.215414857931435 21.6731
37.239091382563885 21.5542
37.262585997426164 21.5614
37.28608223645736 21.6498
37.309763684451696 21.5154
37.33326318851098 21.4052
37.356764320726555 21.4345
37.380267082425526 21.5291
37.40395510942588 21.4636
37.42746114683234 21.3367
37.45096881771841 21.285999999999998
37.474478123414166 21.2924
37.49817275092816 21.2708
37.52168534303452 21.2421
37.54519957395567 21.1852
37.568715445024665 21.2184
37.592416694607714 21.1145
37.61593586281424 21.1522
37.63945667518264 21.1255
37.66297913304891 21.1197
37.68668702630454 21.0064
37.710212792059274 20.8792
37.733740207334854 20.9485
37.757269273470364 20.9347
37.780983832050374 20.8466
37.80451621684926 20.8191
37.82805025654007 20.7659
37.851585952464795 20.7282
37.8753071980695 20.6707
37.89884622345676 20.6772
37.92238690911902 20.6245
37.94611318753442 20.6321
37.969657210779765 20.4916
37.99320289834801 20.499000000000002
38.016750251586465 20.4281
38.04048325513017 20.4319
38.06403395679343 20.4509
38.087586328183946 20.3123
38.11114037065203 20.3644
38.13488012115898 20.4193
38.1584375229181 20.3061
38.181996599821 20.2603
38.205557353221124 20.2084
38.229303872575656 20.1654
38.2528679961576 20.2025
38.27643380031219 20.134
38.30000128639589 20.0965
38.32375459653193 20.1892
38.34732546371299 20.0712
38.37089801690786 19.9915
38.39447225747609 19.9716
38.418232380377425 19.9857
38.441810012983396 19.9801
38.46538933705673 19.8351
38.488970353960084 19.8727
38.51273731166058 19.9111
38.536321731567014 19.807000000000002
38.55990784840681 19.7384
38.58367995004091 19.7749
38.60726947812959 19.6797
38.63086070726198 19.7323
38.654453638806274 19.7133
38.678232613930824 19.6032
38.70182896773327 19.5357
38.72542702806741 19.5528
38.7490267963045 19.5512
38.77281266709232 19.4974
38.79641586862214 19.5108
38.8200207821842 19.4414
38.843627409152944 19.4513
38.86742019782782 19.4003
38.891030269149255 19.273
38.914642058016156 19.3064
38.938255565806124 19.2721
38.96205529464307 19.2071
38.98567225787121 19.2542
39.00929094417078 19.2105
39.03291135492255 19.2442
39.05671804624804 19.1526
39.080341923549106 19.0607
39.103967529460334 19.1218
39.127594865365744 19.0299
39.15140854155791 19.0147
39.17503935514948 19.0178
39.19867190290282 18.9645
39.22249083587951 18.9171
39.24612686969409 18.9066
39.269764641845306 18.8825
39.293404153722804 18.8312
39.317230110864074 18.7036
39.34087311998506 18.6814
39.36451787301696 18.7355
39.388164371352595 18.6398
39.41199737518003 18.6558
39.43564738196752 18.6445
39.45929913825317 18.584
39.48295264543308 18.621
39.506792718520884 18.6057
39.530449745387216 18.498
39.55410852735203 18.4958
39.57776906581474 18.5094
39.60161623079 18.4509
39.625280300200025 18.3937
39.64894613032202 18.4193
39.67261372255866 18.3722
39.6964680021016 18.3699
39.72013913657293 18.4099
39.74381203738292 18.2379
39.76748670593756 18.2275
39.79134812278169 18.2708
39.81502634488497 18.1607
39.83870633896685 18.186
39.862388106436654 18.1344
39.88625668336918 18.1062
39.90994201572829 18.0717
39.933629125719285 17.9881
39.957503091207826 17.9406
39.9811937746168 18.0184
40.00488623990914 17.9956
40.02858048850006 17.9177
40.05246165409549 17.9108
40.076159487492085 17.8082
40.099859108448875 17.8376
40.123560518384345 17.7408
40.1474489070226 17.7657
40.171153913178564 17.6951
40.194860712584955 17.7146
40.2185693066637 17.7528
40.242464941335314 17.6929
40.26617714307655 17.6197
40.289891143772046 17.5571
40.3136069448471 17.5841
40.33750984859743 17.5504
40.3612292688043 17.5182
40.3849504936829 17.5044
40.40867352466194 17.4772
40.43258372059144 17.4723
40.45631038219906 17.4659
40.48003885420956 17.3942
40.503769138055105 17.4
40.52768664931955 17.3696
40.55142057531802 17.354
40.57515631746428 17.2504
40.599079334038514 17.2121
40.62281872700477 17.157
40.64655994043941 17.1482
40.67030297578061 17.1441
40.69423334835778 17.1664
40.71798004609188 17.105999999999998
40.74172857006355 17.090999999999998
40.76547892171441 17.085
40.7894166736039 16.9789
40.813170699248566 16.9514
40.83692655691388 16.9377
40.86068424804498 16.9502
40.884629402612525 16.9359
40.908390779366385 16.936
40.932153993938 16.8974
40.95591904777605 16.89
40.979871628443995 16.8752
41.003640379561936 16.8163
41.02741097430883 16.7967
41.05118341413683 16.783
41.075143444384416 16.7336
41.098919593177826 16.677
41.1226975914255 16.6436
41.14647744058318 16.6118
41.170444943946755 16.6324
41.19422851378379 16.6309
41.218013938914645 16.5083
41.24198706625173 16.4998
41.26577622087193 16.4895
41.289567235177785 16.425
41.31336011063129 16.4553
41.337340752422875 16.385
41.361137369129835 16.3808
41.38493585138705 16.3382
41.40873620066004 16.317
41.43272438060107 16.2979
41.45652848292052 16.2364
41.48033445666918 16.2083
41.50414230331616 16.191
41.528138045159764 16.2245
41.551949656675205 16.1087
41.575763145513235 16.1566
41.59957851314666 16.1111
41.62358184070442 16.081
41.64740098505737 16.0764
41.6712220126409 16.0235
41.69504492493139 16.023
41.71905586207357 15.9595
41.74288256296395 15.9246
41.766711153007456 15.8997
41.79054163368412 15.856
41.814560204340054 15.8551
41.838394485526365 15.852
41.86223066180303 15.8405
41.88625497706819 15.7077
41.910094962812 15.719000000000001
41.93393684811168 15.7049
41.95778063445365 15.6545
41.981812625263366 15.628
42.00566023303407 15.5918
42.029509746323676 15.6021
42.05336116662236 15.6099
42.077400857069705 15.6212
42.10125611078846 15.5717
42.12511327600405 15.4972
42.14897235421036 15.4798
42.173019768448455 15.4856
42.19688269209613 15.4625
42.22074753323349 15.4451
42.24461429335818 15.3774
42.268669455600495 15.3683
42.292540073217886 15.3303
42.31641261433284 15.3343
42.34028708044675 15.2923
42.36435001496739 15.2582
42.38822835065557 15.2099
42.41210861586426 15.1702
42.4359908120986 15.1999
42.46006154323262 15.1108
42.48394762115317 15.1159
42.507835634632315 15.1144
42.531912233047436 15.1139
42.55580413732265 15.0429
42.579697981698 15.0279
42.60359376768525 14.9947
42.62767820545945 15.0164
42.65157789440821 14.9625
42.67547952952185 14.9172
42.699383112316 14.8134
42.72347541395347 14.82
42.74738291190531 14.8088
42.771292362102166 14.8305
42.795203766063516 14.7981
42.819303956130405 14.7792
42.843219287476536 14.7195
42.86713657716324 14.7393
42.89105582671383 14.6613
42.91516392983864 14.6268
42.939087119032166 14.6236
42.963012272677304 14.6102
42.98693939230129 14.5813
43.01105543317513 14.5918
43.034986504731386 14.5486
43.05891954686589 14.5092
43.08285456110972 14.5048
43.10697856448665 14.4504
43.130917542983475 14.4506
43.15485849820081 14.4557
43.17880143167367 14.3847
43.20293342237094 14.3405
43.226880332449 14.3017
43.25082922540554 14.3341
43.27496722682525 14.3245
43.29892010567796 14.2517
43.32287497204102 14.206
43.34683182745632 14.1613
43.370977859791836 14.1987
43.39493871351105 14.1734
43.41890156092628 14.1805
43.44286640358341 14.2031
43.46702049182749 14.1288
43.49098934522816 14.0371
43.51496019852649 14.0385
43.5389330532723 14.0336
43.56309522248204 13.9965
43.58707210044314 13.9781
43.61105098451946 13.9079
43.63503187626491 13.914000000000001
43.659202151562134 13.8885
43.68318707902681 13.9034
43.70717401884041 13.902000000000001
43.731162972560874 13.8341
43.75534137913236 13.832
43.779334381108384 13.7911
43.803329401683186 13.7701
43.82732644241872 13.7919
43.8515130055166 13.7486
43.87551410707659 13.6896
43.89951723350145 13.7014
43.923709934595614 13.6509
43.94771713129917 13.6656
43.97172635758096 13.5768
43.99573761501002 13.5784
44.0199385169922 13.5813
44.04395385732619 13.5861
44.067971233533086 13.5529
44.09199064718605 13.5026
44.11619977548961 13.5049
44.14022328470671 13.4447
44.16424883610785 13.4173
44.18827643127035 13.3632
44.21249381139513 13.3656
44.236525514814076 13.3544
44.26055926674478 13.3727
44.28459506876863 13.3672
44.3088207262813 13.2677
44.33286064928722 13.3091
44.35690262714919 13.2414
44.38094666145278 13.2084
44.4051806219871 13.1489
44.42922879003185 13.1446
44.45327901929361 13.1157
44.477331311362136 13.1283
44.501573600619416 13.0635
44.525630039221795 13.0649
44.54968854541895 13.072000000000001
44.573937102200176 13.0034
44.5979997645541 13.0281
44.622064499300315 13.01
44.64613130803592 12.9477
44.67038823869318 12.9294
44.69445921643748 12.888
44.718532272981385 12.857999999999999
44.742607409926194 12.8327
44.76687274034801 12.8132
44.79095205918753 12.7833
44.81503346325094 12.7592
44.839116954143876 12.7948
44.86339071028742 12.7823
44.88747839599524 12.7023
44.91156817336837 12.6583
44.93566004401666 12.6159
44.959942251908146 12.6406
44.984038330325966 12.6303
45.00813650686762 12.5895
45.03223678314731 12.5929
45.05652746888232 12.5457
45.08063196592069 12.5273
45.104738567558705 12.5223
45.128847275414856 12.4925
45.15314646515866 12.4224
45.17725940679741 12.4371
45.20137445952892 12.4252
45.22568004865265 12.4329
45.24979934496396 12.3677
45.27392075725247 12.3351
45.29804428714431 12.3386
45.322358426247604 12.3458
45.346486212804315 12.2707
45.370616121861914 12.272
45.39474815505086 12.2472
45.41907087049246 12.2166
45.4432071734666 12.1979
45.46734560548283 12.1853
45.49148616817604 12.1852
45.51581748638564 12.130999999999998
45.5399623320197 12.158
45.56410931325473 12.0691
45.58825843173002 12.0739
45.61259837920865 12.0716
45.636751793816 12.0952
45.66090735060093 12.0218
45.68506505120716 11.984000000000002
45.7094136545275 11.9719
45.73357566449271 11.9347
45.75773982322992 11.939
45.78190613238733 11.8807
45.806263418194064 11.8866
45.83043404997326 11.8741
45.85460683713677 11.8416
45.87897065658495 11.7887
45.90314777634752 11.7563
45.92732705646868 11.764000000000001
45.9515084986045 11.7256
45.97588104735473 11.7426
46.00006683541565 11.6904
46.02425479047904 11.7069
46.04844491420549 11.7188
46.0728262191024 11.7048
46.09702070211635 11.7032
46.12121735879483 11.6457
46.14541619080294 11.6053
46.169806278764455 11.5834
46.194009483459034 11.5389
46.21821486849841 11.5491
46.24242243555223 11.5336
46.266821333570014 11.4557
46.29103328674601 11.4319
46.31524742696538 11.4906
46.33946375590237 11.4293
46.36387149104216 11.4238
46.38809221957392 11.4033
46.41231514186606 11.3784
46.436540259597464 11.344000000000001
46.460956858999374 11.2905
46.48518638983522 11.3213
46.509418121166966 11.2734
46.533652054678114 11.2577
46.55807754555709 11.2591
46.58231590571962 11.2493
46.60655647313217 11.2261
46.630988654873654 11.1986
46.655233659129024 11.1564
46.67948087571551 11.1341
46.70373030632484 11.1169
46.72817142736393 11.1105
46.752425308428684 11.0991
46.77668140861147 11.0641
46.80093972960865 11.0062
46.82538981736788 11.0101
46.849652602470904 11.0077
46.87391761349769 10.987
46.8981848521493 10.9557
46.9226439341274 10.948
46.946915650573224 10.9254
46.97118959976749 10.8625
46.99546578341598 10.8356
47.019933887188216 10.8402
47.04421456235744 10.8418
47.06849747711879 10.8085
47.09278263318286 10.7873
47.11725978640143 10.776
47.14154944775105 10.7485
47.165841355555656 10.7097
47.1901355115306 10.6787
47.214621741924994 10.7031
47.23892041698887 10.6411
47.26322134538975 10.5934
47.28771440635075 10.6318
47.31201986422527 10.638
47.33632758061436 10.5868
47.360637557241866 10.5459
47.38513974410611 10.5491
47.40945426407847 10.5298
47.43377104948137 10.5061
47.45809010204344 10.5252
47.48260144275502 10.4756
47.506925052572285 10.3852
47.53125093475548 10.3829
47.55557909103813 10.4445
47.58009961361992 10.3759
47.60443234110732 10.325
47.62876734791564 10.37
47.65310463578333 10.3448
47.6776343683373 10.3317
47.7019762413987 10.2885
47.72632040075572 10.2701
47.75066684815169 10.2773
47.77520581885936 10.2623
47.799556865477655 10.2703
47.823910205386 10.221
47.84826584033272 10.1783
47.87281407745551 10.1764
47.89717432569297 10.1887
47.92153687423484 10.1582
47.94609208429692 10.1662
47.97045925671401 10.1066
47.99482873471275 10.0665
48.01920052005013 10.0849
48.04376504619224 10.0403
48.068141469543484 10.0768
48.09252020552573 10.037
48.11690125590099 9.95557
48.1414751266064 9.96304
48.16586082917454 9.972560000000001
48.19024885144316 9.94392
48.2146391951793 9.944180000000001
48.239222439012764 9.881839999999999
48.26361744916137 9.87533
48.28801478610016 9.89578
48.31241445160131 9.85472
48.337007097209366 9.849639999999999
48.36141144338331 9.812510000000001
48.38581812345755 9.79585
48.41022713920929 9.79398
48.434829215320704 9.75561
48.45924292604658 9.733460000000001
48.48365897780325 9.76038
48.50807737237308 9.71764
48.532688907799276 9.72504
48.55711201168574 9.6611
48.581537463754074 9.65433
48.60615611725119 9.62999
48.63058628942721 9.672089999999999
48.65501881516546 9.62819
48.6794536962573 9.55817
48.70408185970339 9.5918
48.72852147531801 9.56493
48.75296345168211 9.52754
48.77740779059232 9.545960000000001
48.80204549302823 9.52507
48.82649458091802 9.51982
48.85094603676547 9.45294
48.87539986237231 9.44327
48.90004713292306 9.42403
48.92450572200832 9.407789999999999
48.94896668628025 9.39199
48.97343002754588 9.3478
48.99808689542115 9.3515
49.02255501470614 9.36609
49.04702551642794 9.31162
49.0714984023988 9.3036
49.096164896893235 9.30831
49.120642575466796 9.27956
49.145122643748394 9.24727
49.16960510355558 9.2456
49.19428125404938 9.20687
49.2187685210852 9.18768
49.243258185121555 9.1269
49.26794160167084 9.16639
49.2924360839405 9.1265
49.31693296869764 9.1152
49.34143225776915 9.09705
49.36612538195438 9.09113
49.39062950396021 9.06833
49.41513603578346 9.059389999999999
49.4396449792564 9.044360000000001
49.46434784069503 9.04555
49.488861631846454 9.00882
49.513377840166804 8.9938
49.537896467493745 8.957419999999999
49.56260909589029 8.93281
49.587132585683285 8.92585
49.611658500018365 8.9248
49.636186840738596 8.93365
49.66090926588511 8.90708
49.685442483902584 8.86353
49.70997813385706 8.79693
49.734516217597076 8.811110000000001
49.75924846937352 8.79822
49.7837914452858 8.76737
49.80833686055187 8.74888
49.83288471702571 8.753210000000001
49.85762682540054 8.74954
49.882179588965734 8.7253
49.9067347993235 8.70615
49.93129245833333 8.71803
49.95604445336378 8.70204
49.98060703442832 8.64076
50.005172069746266 8.65015
50.02993150438364 8.62926
50.05450147301533 8.62202
50.07907390151433 8.58253
50.10364879174981 8.571589999999999
50.12841816587289 8.54845
50.1529980044635 8.52694
50.17758031042124 8.53549
50.20216508562089 8.5273
50.22694442953363 8.49328
50.25153416817468 8.49089
50.27612638170508 8.458919999999999
50.300721072005196 8.43662
50.325510416102105 8.449810000000001
50.350110084975064 8.4027
50.37471223628208 8.400730000000001
50.39931687190919 8.38755
50.424116246675766 8.386460000000001
50.44872587605249 8.34638
50.47333799543065 8.31353
50.49795260670191 8.34769
50.52276204271512 8.30645
50.54738166295838 8.28606
50.57200378079314 8.28132
50.596628398116835 8.27214
50.62144792604559 8.2314
50.646077567609396 8.22737
50.670709714377715 8.2263
50.69553683636198 8.213280000000001
50.72017401885922 8.18905
50.7448137122895 8.176169999999999
50.76945591856022 8.14232
50.79429318636823 8.18003
50.818940443716784 8.13139
50.84359021965163 8.12308
50.868242516085964 8.08653
50.893089960641895 8.05825
50.917747323549435 8.02032
50.94240721271973 8.05078
50.96706963007175 8.02776
50.99192728239342 8.00615
51.01659478166073 8.02875
51.04126481489051 7.97819
51.06593738400761 7.97452
51.090805275207074 7.954610000000001
51.11548294172845 7.9379800000000005
51.14016314993547 7.90508
51.164845901758845 7.90055
51.18972406304274 7.88599
51.21441192780656 7.8814
51.23910234200271 7.831510000000001
51.2637953075678 7.8161
51.288683770237945 7.78067
51.31338186432707 7.785539999999999
51.33808251561888 7.77647
51.362978729967345 7.769989999999999
51.387684521509755 7.755789999999999
51.41239287610203 7.752610000000001
51.437103795691165 7.701739999999999
51.46201036644977 7.695530000000001
51.486726441956634 7.69234
51.51144508832545 7.67841
51.536166307509156 7.64155
51.56108326624387 7.63915
51.58580965706056 7.61152
51.61053862657523 7.60037
51.635270176746864 7.60485
51.66019755512065 7.592969999999999
51.68493429268881 7.576639999999999
51.70967361681515 7.53482
51.73441552946465 7.513039999999999
51.759353359237934 7.51
51.7841004750961 7.537160000000001
51.80885018539685 7.485289999999999
51.833602492111254 7.4478100000000005
51.8585508051424 7.42655
51.883308330926425 7.43195
51.90806845906181 7.41875
51.932831191525715 7.4349
51.95779001977161 7.40878
51.98255798721516 7.352639999999999
52.00732856494335 7.39348
52.03229530577543 7.3426800000000005
52.057071130455945 7.33215
52.081849571391054 7.279260000000001
52.106630630568695 7.2748
52.13160794279417 7.25985
52.15639426492067 7.2796899999999996
52.18118321127822 7.2954
52.205974783860896 7.2076
52.23096269971011 7.215889999999999
52.255759551287994 7.18797
52.280559035098186 7.19136
52.30536115314103 7.20994
52.33035970494467 7.2104800000000004
52.35516711807904 7.169860000000001
52.37997717147198 7.12817
52.40478986713005 7.105910000000001
52.42979908731974 7.089360000000001
52.454617094216 7.06141
52.47943774942214 7.068810000000001
52.50426105495102 7.083410000000001
52.529280976059844 7.03303
52.554109609024096 7.01797
52.57894089837482 7.046589999999999
52.60377484613117 6.998189999999999
52.62880550079408 7.0094
52.65364479223379 6.951980000000001
52.67848674816189 6.94855
52.70352547971946 6.9511
52.72837279155837 6.96933
52.753222773982785 6.92324
52.778075429022984 6.89808
52.80312495150885 6.92057
52.827982978797436 6.8991
52.85284368481815 6.86982
52.87770707160767 6.82963
52.90276741793998 6.80577
52.92763619336701 6.7942100000000005
52.952507655698504 6.792000000000001
52.977381806977576 6.79652
53.00245301017842 6.77757
53.02733256653592 6.77394
53.052214817996074 6.76249
53.077099766608484 6.742089999999999
53.102181859804446 6.73965
53.127072229988265 6.6780800000000005
53.15196530349892 6.716469999999999
53.17686108239249 6.654380000000001
53.20195409881522 6.63975
53.22685531582556 6.64962
53.25175924441303 6.62175
53.27666588664027 6.6028899999999995
53.30176985962693 6.5962
53.3266819565689 6.600910000000001
53.35159677336455 6.54964
53.376514312083096 6.59098
53.40162927507703 6.55854
53.42655228516116 6.49989
53.45147802340193 6.4676800000000005
53.47660125628886 6.48488
53.50153247842639 6.4328
53.52646643496923 6.45486
53.55140312799818 6.50352
53.576537409691696 6.4560900000000006
53.60147960336152 6.42296
53.626424539786164 6.399030000000001
53.65137222105307 6.39055
53.67651758529126 6.39919
53.70147078399681 6.3956
53.72642673383343 6.36545
53.75138543689533 6.3733
53.776541917524526 6.353219999999999
53.801506154876755 6.30243
53.826473151763246 6.31363
53.851442910284916 6.3022599999999995
53.87661054126026 6.26185
53.9015858509782 6.29434
53.92656392866066 6.230519999999999
53.95154477641532 6.2045699999999995
53.976723591801296 6.18162
54.00171000771266 6.21546
54.02669920004598 6.18801
54.051691170915745 6.192769999999999
54.076881204886796 6.18797
54.101878760928514 6.13401
54.12687910187696 6.10725
54.152077577768296 6.14802
54.1770835166946 6.10366
54.20209224691339 6.13269
54.22710377055121 6.06346
54.25231352511594 6.04066
54.27733066384342 6.03038
54.30235060239643 6.03671
54.32737334290836 6.019430000000001
54.35259441062629 5.95648
54.377622783395324 5.95116
54.40265396455061 5.96574
54.42768795623251 5.98001
54.45292037169559 5.94095
54.477960012857906 5.93789
54.50300247099511 5.87341
54.52804774825457 5.8623
54.55329154616743 5.89466
54.57834249018678 5.8964
54.6033962597977 5.8285
54.6284528571545 5.786569999999999
54.653708072335164 5.80837
54.67877035378786 5.70648
54.70383546947698 5.75785
54.72890342156389 5.69776
54.7541700889442 5.6557
54.77924374251975 5.68834
54.8043202390049 5.65446
54.82959552413022 5.60186
54.8546777351945 5.60321
54.87976279569621 5.58495
54.90485070780914 5.60439
54.930137506558005 5.571969999999999
54.95523115074295 5.5834
54.98032765308844 5.49296
55.005427015775496 5.53012
55.03072536339621 5.5029900000000005
55.05583047570572 5.4374
55.080938454927676 5.42632
55.10604930325027 5.42621
55.131359235107396 5.41985
55.15647585066083 5.3858
55.181595341907496 5.39273
55.20671771104285 5.37324
55.232039262617704 5.36515
55.25716741665048 5.29648
55.28229845518636 5.337000000000001
55.30743238042802 5.24098
55.33276558731939 5.22411
55.357905315183636 5.22659
55.383047936390035 5.16935
55.40819345314859 5.13818
55.433538351073295 5.13021
55.458689688238415 5.0939
55.483843927614096 5.01155
55.509197623043605 5.10188
55.53435769621134 5.02491
55.55952067826466 4.99333
55.5846865714265 4.99475
55.61005202069737 4.9949
55.63522376553902 5.00111
55.66039842818645 4.96706
55.68557601087004 4.93813
55.7109532500271 4.8636099999999995
55.73613670233794 4.8752
