TT I
1.2716486653135266 7.83885
1.2939594142134223 7.2060699999999995
1.3162702121660406 6.770160000000001
1.3385810600174564 6.43086
1.3608919586137629 6.54513
1.383202908801069 6.1514
1.405513911425503 6.617660000000001
1.4278249673332093 6.65817
1.4501343378461518 6.65972
1.4724455028545926 5.68276
1.4947567236847858 6.01724
1.517068001182951 5.90423
1.5393793361953272 5.77217
1.5616907295681737 5.63716
1.5840021821477681 5.34815
1.60631369478041 5.3315
1.6286252683124185 5.59759
1.6509369035901333 4.69206
1.6732468618895553 5.17339
1.695558623192809 4.49594
1.7178704487808514 5.07235
1.7401823395001077 4.43865
1.7625012545597203 4.74405
1.7848028405262486 5.17915
1.8071218901122095 5.17307
1.8294236121921872 4.835780000000001
1.8517427996910911 4.125430000000001
1.8740620574440425 4.60084
1.8963639900671978 4.99825
1.9186833908139995 4.8701099999999995
1.9409854680117449 5.08125
1.9633050151394713 4.62228
1.9856246367570705 4.63569
2.0079269371922672 4.60872
2.03024671027244 4.23616
2.0525491637446027 4.59963
2.074869091674931 4.46695
2.097171701569106 4.82442
2.1194917877373847 4.80293
2.141811954326636 4.99836
2.164114805233074 4.41496
2.186435135143035 4.95263
2.208738150935709 8.99981
2.231058647554722 15.5851
2.2533792288321184 12.2125
2.275682498336085 7.44393
2.298003251406138 5.074319999999999
2.3203066942619714 5.38135
2.3426276225136022 5.79076
2.3649486396617507 5.5182400000000005
2.387252348930071 5.40453
2.4095735463442893 5.53054
2.4318774374315884 5.74205
2.4541988185014043 5.67619
2.476502894794693 6.17818
2.498824462909887 6.18187
2.521146125856138 6.4264
2.5434504863470337 6.90026
2.5657723414244717 7.049939999999999
2.588076895590662 7.42978
2.610398946189713 6.941669999999999
2.6327210958598384 6.8776399999999995
2.6550259469304716 7.76702
2.6773482972090137 7.1931899999999995
2.6996533504259 6.942489999999999
2.7219759047039602 7.749
2.744298562293959 7.56187
2.7666039251246595 7.06458
2.7889267918020164 7.7057199999999995
2.8112323652516555 8.12522
2.833555444408179 8.0268
2.8558786311183852 7.8537
2.8781845268938557 8.448939999999999
2.9005079311721484 8.39743
2.9228140460410397 8.950339999999999
2.9451376712799635 9.23396
2.967444008632326 9.57098
2.9897678582247247 9.76998
3.0120918213106695 10.0231
3.0343984987899373 10.5824
3.0567226913198637 10.9119
3.079029599759726 11.53
3.101354025127254 12.4559
3.123678568232338 13.3729
3.145985829517914 12.755
3.16831061055229 13.2578
3.1906181112775593 14.0391
3.212943133635653 14.5783
3.2352682779763207 15.0564
3.2575761442691227 15.2402
3.2799015350264273 15.8198
3.302209649240067 16.7601
3.3245352898092655 16.788
3.3468436553365257 17.6427
3.369169549113219 17.6894
3.3914955708171384 18.3261
3.413804319727358 18.6978
3.4361305997334863 18.9381
3.4584396084414553 19.6137
3.4807661501462652 20.5883
3.503092824025881 21.1919
3.5254022288463154 21.096
3.5477291695206588 21.5669
3.5700388426251948 22.389
3.5923660534916446 23.3156
3.6146934007816114 31.0951
3.637003482731501 54.2015
3.6593311053109985 58.1265
3.681641464033634 39.2417
3.7039693653009733 27.3114
3.726297407241705 25.7034
3.7486081875460804 25.2987
3.7709365132734978 26.0774
3.793247578841633 26.8059
3.8155761917550093 26.802
3.8378875459837216 27.0604
3.8602164494827234 27.5118
3.882545499606844 28.6269
3.9048572932539183 29.3065
3.9271866390645718 29.3729
3.9494987298666713 29.7805
3.971828374764527 29.8181
3.9941581705403255 30.6825
4.016470713506008 31.5127
4.038800813471445 32.4816
4.061113662089144 32.8425
4.0834440696459176 33.3878
4.105774632334751 33.5455
4.128087945865126 34.5801
4.150418821249301 35.2212
4.172732448931298 36.2579
4.195063640413578 37.6626
4.2173775856475215 39.959
4.239709096631102 57.4483
4.262040768704612 132.481
4.284355196706267 170.005
4.306687193387355 117.412
4.329001947444346 60.386
4.35133427213731 45.3846
4.373666762177566 44.1661
4.395982011761091 44.8186
4.418314834921175 44.8839
4.44063041906622 49.3066
4.4629635787515625 55.0098
4.4852969080429785 55.5863
4.5076130004776225 52.717
4.529946671403969 53.8912
4.552263106909177 55.0168
4.574597122877047 54.6378
4.596931312711224 53.9326
4.619248269273446 54.7502
4.6415828092605835 55.5552
4.663900117405352 56.2245
4.686235010953232 57.7002
4.708552674085913 59.3283
4.730887924602802 60.7142
4.753223354952695 62.4278
4.775541557023902 64.928
4.797877349456786 66.7839
4.820195915032126 68.5376
4.842532072957498 69.7656
4.864868414979744 71.9883
4.88718753227192 74.5453
4.909524244902505 76.2314
4.931843734218147 77.9546
4.954180820867835 80.0537
4.976518095879839 82.8091
4.998838149695359 85.6137
5.021175803844231 89.5913
5.043496238205739 93.6788
5.065834274903528 98.6563
5.088172504230693 104.199
5.1104935158799565 111.851
5.132832132875765 131.863
5.155153533596801 165.054
5.1774925416746225 226.835
5.199814334878411 536.927
5.2221537374521505 1423.94
5.244493338631803 3507.69
5.266815727034316 7836.06
5.289155727832427 11692.7
5.311478517248165 8610.68
5.333818921080011 2881.98
5.356159527788849 588.063
5.3784829252032536 206.843
5.400823940070432 157.22299999999998
5.423147747031976 135.25799999999998
5.445489173474152 124.32
5.467830807066149 120.044
5.490155234831516 116.619
5.512497285125229 111.322
5.534822130975162 107.785
5.557164601388673 105.038
5.579489868738879 102.10700000000001
5.601832762690846 100.759
5.6241758697774475 99.7205
5.646501775867269 98.8237
5.668845311622074 97.4666
5.691171647754637 97.4381
5.713515615597765 95.8317
5.735859800852677 95.32799999999999
5.758186788542988 95.4327
5.780531411018185 97.3181
5.802858837297399 96.67399999999999
5.825203900414495 96.5533
5.8475491852224 98.9018
5.869877275883075 98.6206
5.892223006467101 98.3064
5.914551544266608 98.9847
5.936897724049891 102.93
5.959244129804903 112.196
5.981573344815301 150.48
6.0039202049061 297.539
6.026249875609095 605.658
6.04859719346037 1183.88
6.070927323278297 2393.58
6.093275102315365 4281.07
6.115623113320588 5069.15
6.137953938319995 3271.7
6.160302415650845 1028.03
6.182633708324452 247.73
6.2049826554078376 118.334
6.227331838745022 95.6225
6.249663839443684 87.4111
6.27201349767565 83.3791
6.294345974611799 84.5195
6.316696111167083 87.9191
6.339046488263839 84.5638
6.361379686074702 76.6748
6.383730546639482 72.3269
6.406064229255215 70.7452
6.428415576718203 70.6233
6.450749747566656 69.1048
6.47310158535871 67.5501
6.495453669698332 65.9916
6.517788579421056 65.5359
6.540141159237969 64.5501
6.562476565766648 64.4278
6.5848296444934045 63.5527
6.607182974060425 63.1287
6.6295191323281015 62.9719
6.651872965955752 64.564
6.6742096296068985 76.2465
6.6965639707294615 97.6174
6.71891856698715 97.0728
6.741255995248479 76.6113
6.763611104154477 63.5814
6.785949046381137 60.0323
6.808304671371482 59.0804
6.8306605557940046 60.0465
6.852999275508618 59.0116
6.875355681171544 57.9825
6.897694923437771 57.5755
6.92005185377892 57.3527
6.9423916220322655 56.8177
6.964749080490181 56.3779
6.987106804399774 56.5838
7.009447368180821 56.6314
7.031805625367033 56.4352
7.054146723727803 56.2062
7.076505517631004 55.8995
7.098864581288365 55.6362
7.121206488070854 55.3619
7.143566093607822 55.7397
7.165908543567245 55.9308
7.188268694426048 55.9092
7.2106291193438095 55.5279
7.232972390625943 56.0333
7.255333366030969 61.868
7.277677189091925 86.9445
7.300038718428332 108.84200000000001
7.322400526130865 96.365
7.344745183422596 71.1432
7.367107550224791 58.4141
7.389452767901992 55.8441
7.411815697249891 55.1532
7.434161478756298 54.5569
7.456524974096713 54.1498
7.478888753837185 54.5564
7.501235387657368 55.2679
7.523599738562711 54.9275
7.545946944825532 55.3364
7.568311870344528 56.0333
7.5906770845765665 56.2085
7.613025156078678 56.8268
7.635390950099687 57.4566
7.657739602662809 56.8812
7.680105979923558 56.5376
7.702472650212829 57.0362
7.724822180948224 56.8075
7.747189439655568 57.1011
7.769539560075357 56.5526
7.791907410653562 57.0526
7.81425812420825 57.2363
7.836626570110925 57.4004
7.858995315087906 58.3872
7.881346924933401 58.3161
7.903716270417482 59.1757
7.926068482028405 59.5326
7.948438431475253 60.0007
7.9708086843180235 60.645
7.993161805171116 61.3747
8.015532667162402 61.7645
8.037886398416653 62.9424
8.060257873014221 63.6698
8.082629655331942 63.8169
8.104984308787587 64.7421
8.127356708900503 67.0846
8.149711981398308 71.3106
8.172085002766314 72.7766
8.194458336181368 71.3703
8.216814543847752 69.7004
8.23918850371002 70.9
8.26154533906492 71.9351
8.283919928836452 73.1497
8.306277395339652 74.1104
8.328652618483376 75.7696
8.351028159736202 77.9369
8.373386579575245 80.2988
8.395762759396959 82.4555
8.418121819038275 86.3732
8.440498640894003 95.461
8.462875785192262 109.48299999999999
8.485235811156207 140.841
8.507613602688501 211.05900000000003
8.529974277114228 316.051
8.552352719347912 468.273
8.574731488360351 748.617
8.59709314210385 1243.19
8.619472567021075 1846.86
8.64183487789147 2164.53
8.664214962183097 1791.54
8.686577933647762 965.45
8.708958680784317 369.74699999999996
8.731339760774953 166.90400000000002
8.753703729764451 113.936
8.77608547780821 101.509
8.798450116065078 97.6802
8.820832535634787 94.6534
8.843215292401656 93.6291
8.865580941199045 92.8301
8.887964374703538 91.4559
8.910330701447199 91.3757
8.932714815164482 91.88600000000001
8.955099270424924 90.181
8.977466620733543 87.8167
8.999851761421976 86.8656
9.022219798361645 85.3325
9.04460562795561 85.2789
9.066991803441677 84.6926
9.089360876979615 84.8716
9.111747746589993 84.7063
9.13411751544971 84.0156
9.156505082664324 83.5311
9.178875550323522 83.6397
9.20126381862328 83.5672
9.223652438908596 83.8889
9.246023961427412 83.5202
9.26841328802173 83.2028
9.290785518039224 84.0041
9.313175554425882 85.48899999999999
9.335565947154315 85.7602
9.357939245086508 85.7575
9.380330352834827 85.8831
9.40270436697103 86.2907
9.425096193225055 85.5569
9.447488380180165 86.3093
9.469863475295412 85.8338
9.492256385987508 86.1055
9.514632206018318 87.084
9.537025843935714 87.1237
9.559402392368193 88.1614
9.581796761000229 89.8834
9.604191496441521 91.552
9.626569144158516 93.198
9.648964615551032 95.7064
9.671343000390081 96.2159
9.693739211225699 95.6666
9.716135793237463 94.8247
9.738515290448102 95.0101
9.760912617143402 96.1911
9.783292860202891 98.0209
9.805690935076182 100.195
9.828089385495742 100.475
9.850470754023561 102.70299999999999
9.872869957865444 108.08200000000001
9.89525208097539 116.116
9.917652041736662 125.05
9.940052382417589 135.144
9.962435644102392 167.041
9.984836746950979 223.363
10.007220771957746 295.683
10.029622640473708 412.139
10.052007432299963 603.183
10.074410069984072 888.951
10.096813093716005 1291.49
10.119199042482517 1711.9
10.141602840636468 1936.52
10.163989564971628 1630.16
10.186394141051062 924.5369999999999
10.208799107559706 402.205
10.231187001965623 191.648
10.253592751657669 129.692
10.275981430388155 115.206
10.298387966769793 112.704
10.320794897965431 112.859
10.343184759907361 111.29700000000001
10.36559248305461 108.166
10.387983138083852 108.236
10.410391656691655 117.35
10.432800574501677 131.907
10.455192425893369 150.76
10.47760214443012 180.148
10.499994797678786 224.78
10.522405320453982 302.351
10.54479877906917 403.749
10.567210109595656 500.004
10.5896218454736 563.158
10.612016518879773 490.866
10.634429067781074 343.38199999999995
10.656824555333241 199.863
10.679237920773568 123.406
10.701651695961992 96.9926
10.724048411481384 90.6743
10.746463008485165 87.8508
10.768860546937125 86.3585
10.791275969274796 84.501
10.81369180576079 83.3802
10.836090585366925 82.1779
10.858507252467449 81.2372
10.88090686379991 80.1138
10.903324365036394 79.5057
10.925724811614439 78.4202
10.948143150509463 79.441
10.970561909719066 78.9135
10.992963615930844 77.5622
11.015383218085756 75.7585
11.037785768347074 74.4752
11.06020621697282 73.705
11.082627090322113 73.101
11.105030913430326 72.7654
11.12745263854165 72.7176
11.149857314510728 73.8299
11.172279894912576 76.2977
11.194702904450653 76.2735
11.217108866490921 74.3855
11.239532736615194 71.7033
11.26193956033512 70.5443
11.284364294577085 69.8982
11.306789462371718 68.5856
11.329197585398376 67.9339
11.351623622610898 68.0089
11.37403261614354 67.1952
11.396459526308487 66.9079
11.418869393879497 66.9279
11.441297180532617 66.4717
11.463725406927658 65.8267
11.486136592353875 65.5738
11.508565700543707 65.5489
11.530977768845315 66.3637
11.553407762368774 66.8288
11.575838200059769 66.5124
11.598251599479612 65.5464
11.620682927815501 64.4882
11.64309721895548 64.485
11.665529441478206 64.108
11.687962112597958 64.0153
11.710377748130886 64.0756
11.732811318753434 63.8048
11.755227854859067 63.6613
11.777662328529495 63.4712
11.800079768750786 63.3693
11.822515149015453 63.5867
11.844950984084935 63.7176
11.867369787303163 63.3885
11.889806534289491 63.214
11.912226250487029 63.8375
11.934663912939751 63.9553
11.9571020346363 64.2778
11.979523127133968 64.3973
12.001962169624331 65.8188
12.024384183972964 67.9932
12.046824150809913 72.4513
12.069264581333726 77.8602
12.091687985297767 84.0774
12.11412934550045 94.2388
12.136553680195208 109.537
12.158995973632788 131.161
12.181438735204349 155.798
12.20386447284199 182.418
12.226308172985636 202.21099999999998
12.24873485024193 200.747
12.271179492516982 168.011
12.293607112949127 123.209
12.316052700916226 91.2823
12.338498763250042 75.3574
12.360927805303868 68.7777
12.383374818673879 66.3017
12.405804812803074 65.1557
12.428252780773262 65.1038
12.45070122756722 64.7935
12.473132656675375 65.2247
12.49558206341869 65.7857
12.518014453510101 65.637
12.540464823770117 65.5328
12.562915677315177 65.5971
12.58534951575545 66.0273
12.607801338171472 66.7938
12.630236146511358 69.558
12.652688941369085 72.0989
12.675124723177234 72.6793
12.697578494048786 71.1931
12.720032754458185 69.3989
12.742470003354093 68.7678
12.764925245138771 68.8307
12.787363476431278 69.3093
12.809819703166806 69.7549
12.83227642391173 70.3622
12.854716135692716 70.9634
12.877173846755147 72.1125
12.899614549869717 72.1673
12.9220732548287 73.4549
12.94453245827299 73.8843
12.966974655289818 75.0484
12.989434858002571 75.8227
13.011878055298721 76.795
13.034339260862497 77.6622
13.056800969391883 79.066
13.079245674017244 82.1738
13.101708390774869 87.2456
13.12415410463411 97.7631
13.146617833206086 109.917
13.169064559883248 122.322
13.191529303857127 138.74
13.213994557076367 163.768
13.236442809902437 200.80700000000002
13.258909083908291 252.774
13.28135835851934 306.88599999999997
13.30382565690295 369.99699999999996
13.326293469022952 419.69300000000004
13.348744283242008 423.506
13.371213125129904 355.42199999999997
13.39366497011003 261.76099999999997
13.416134845360597 170.49099999999999
13.438605238843131 125.01299999999999
13.46105863690397 112.225
13.483530069144786 114.147
13.505984506951902 120.103
13.528456981549432 131.297
13.550929978879088 147.654
13.573385983253365 172.014
13.595860028340867 208.63400000000001
13.618317081455832 254.99400000000003
13.64079217790333 302.178
13.663250283359057 340.875
13.685726434770173 369.314
13.708203115221277 340.42
13.730662806148091 267.98400000000004
13.75314054697177 187.71599999999998
13.775601299246777 128.78799999999998
13.798080104050406 97.7076
13.820559442405358 86.76700000000001
13.843021793671388 83.1844
13.865502201420897 81.3822
13.887965623051947 80.9167
13.910447103807167 79.889
13.932929122629764 78.4922
13.955394156785959 77.9659
13.977877254034569 77.0944
14.000343367582113 76.357
14.022827546871707 75.737
14.045294743423524 74.7394
14.06778000837062 74.33
14.090265817715476 73.9842
14.112734645763819 73.663
14.13522154619454 73.193
14.157691466286913 73.2866
14.180179461423874 73.1893
14.202668005486178 72.4907
14.22513957064374 72.1043
14.247629214846473 71.5683
14.270101881097517 71.1705
14.29259262906496 71.295
14.315083930490205 71.8912
14.337558255389705 71.6875
14.360050666019726 71.3101
14.382526101071944 70.7597
14.405019624534942 70.4543
14.427513705993134 70.1211
14.449990813291825 70.2241
14.47248601302899 70.1164
14.49496423954951 70.2781
14.517460561197822 70.1598
14.539939910570322 69.836
14.562437357763558 70.2442
14.58493536931253 70.8932
14.607416409993311 71.2987
14.62991555254159 71.8418
14.652397725157423 71.9691
14.674898002342799 71.8326
14.697398848433282 71.9301
14.719882725991326 73.4739
14.74238471217934 76.123
14.764869730765593 80.6649
14.787372860692983 83.90700000000001
14.809876564079925 88.7341
14.83236330125751 95.1025
14.854868153850365 104.79899999999999
14.877356041159485 118.486
14.899862046604186 136.287
14.922351087688757 157.894
14.944858249632887 182.135
14.967365991421232 203.15099999999998
14.989856770231246 218.385
15.012365673994204 215.665
15.03485761569738 187.77599999999998
15.05736768508665 147.638
15.07987833888692 114.397
15.102372032001655 90.6854
15.124883856909658 77.7537
15.14737872204565 73.367
15.169891721717274 71.8381
15.192405310371893 71.4351
15.214901940621196 71.141
15.237416709527137 70.889
15.259914520936249 70.9008
15.282430473753607 69.9513
15.304947020131227 69.2036
15.327446610371178 68.759
15.349964346154254 68.1753
15.372465126703139 68.0527
15.394984055556009 67.703
15.417486030076159 67.52
15.44000615566487 67.235
15.462526881230803 67.0423
15.485030653812652 67.2705
15.507552581617434 67.0731
15.530057557334603 67.1827
15.55258069104857 67.0044
15.575104429329837 67.283
15.597611216864632 67.3975
15.620136166564563 68.2413
15.6426441664095 70.3807
15.665170331202765 73.5424
15.687697105158826 76.6423
15.710206930593545 80.3557
15.732734925158933 84.7576
15.755245972089478 91.6112
15.77777519094324 101.27799999999999
15.800287463046663 114.24600000000001
15.822817909869592 131.38
15.84534897229804 149.64700000000002
15.867863089299354 169.301
15.890395385222186 184.31
15.912910736597423 192.282
15.935444269699861 181.645
15.957978423016485 154.82299999999998
15.980495633101265 121.715
16.003031029129367 95.132
16.02554948280019 76.5038
16.048086125229432 68.2307
16.070623392487107 65.3202
16.09314371869582 64.1406
16.11568223789321 63.3324
16.13820381691126 62.6567
16.160743591742527 61.8199
16.183283996022084 61.2124
16.205807461423195 60.2237
16.228349126881973 59.8723
16.25087385432698 59.8285
16.27341678466365 59.0383
16.29594277784926 58.8775
16.31848697676433 58.8959
16.341031811604868 58.8652
16.36355971058487 58.8529
16.3861058195587 58.593
16.40863499352978 57.8353
16.431182380342005 57.2475
16.453730407713202 56.7517
16.476261501364792 56.81399999999999
16.498810812136167 56.5219
16.52134319004079 56.4312
16.54389378792203 56.3078
16.566445031001553 55.996
16.588979342490088 55.8954
16.61153187824822 56.0496
16.634067483263312 55.783
16.656621315414416 55.7064
16.679175797408888 55.3059
16.701713349928728 55.5626
16.72426913389191 55.8121
16.74680798922351 55.806999999999995
16.76936507887444 55.4909
16.791905240734874 55.6965
16.814463639794468 55.7448
16.837022695210294 55.7332
16.859564824093756 55.9036
16.882125194503903 56.1291
16.904668639217885 56.7399
16.927230328348003 56.7846
16.949792678493612 56.722
16.972338104193863 56.381
16.994901778652235 56.4093
17.017448529496576 56.6312
17.040013531998152 57.2913
17.06257920018044 57.8544
17.0851279459922 58.7056
17.107694947817667 59.391000000000005
17.130245028099072 60.4701
17.15281336730298 61.9247
17.17536478578733 63.4424
17.19793446610687 65.8767
17.220504818648422 68.6119
17.243058251703697 71.4827
17.265629950971032 75.3975
17.288184731571736 78.6518
17.310757781306908 82.3078
17.33333150794385 83.4731
17.355888317140174 81.8957
17.37846339986244 77.5186
17.401021565958885 71.7234
17.42359800851343 66.2874
17.44617513265564 62.8523
17.468735341390783 61.1276
17.491261035594565 60.3184
17.51396340099364 60.1259
17.536490463869136 60.181000000000004
17.559018209820174 60.1184
17.58154663977963 60.4473
17.604251766089718 60.5036
17.626781572227713 60.7284
17.64931206518155 60.9442
17.671843245885103 61.2862
17.69455114821572 61.4664
17.717083712612634 61.9099
17.739616967569667 62.1134
17.762150914021706 62.6107
17.78486160749854 62.7441
17.807396945166804 63.8375
17.829932977143503 65.3211
17.85246970436452 67.4019
17.875183204129467 69.1643
17.897721330097664 71.2243
17.920260154126645 74.0768
17.942799677153296 77.4421
17.9655159983646 81.4847
17.988056927677544 86.9854
18.010598558807683 94.3469
18.033140892692916 102.97399999999999
18.05586005052525 112.45200000000001
18.07840379824407 122.199
18.10094825154059 133.275
18.12366954819864 140.589
18.146215420998306 140.71
18.16876200220057 133.05700000000002
18.191309292745153 120.14
18.214033452627167 105.891
18.236582170236648 94.0277
18.259131600016456 88.8137
18.281681742907335 88.9145
18.304408781233683 92.1695
18.32696035875955 96.2914
18.349512652227624 100.762
18.372065662579683 105.425
18.394795594587553 106.82799999999999
18.41735004715306 103.491
18.43990521943684 96.8539
18.46246111238171 87.5857
18.485193953325208 78.0097
18.507751296070428 70.9816
18.530309362314178 66.8551
18.552868153000343 64.4703
18.57560391815056 63.1652
18.59816416623245 62.658
18.620725141597372 62.3608
18.643286845190268 61.8187
18.666025549835414 61.373999999999995
18.688588718427933 60.8545
18.711152618092243 60.5496
18.73389353884365 60.3683
18.75645890921984 59.9005
18.77902501351406 59.733999999999995
18.801591852673102 59.5463
18.824335739722738 58.9705
18.846904057212626 58.9733
18.8694731124168 58.66
18.89204290628315 58.7691
18.914789774966803 58.5352
18.937361054791623 58.16
18.959933076131318 58.0372
18.982505839934877 58.0992
19.00525570560582 58.0625
19.027829963004184 57.8795
19.05040496572238 57.9905
19.072980714710468 58.2511
19.095733592739563 58.4722
19.11831084296757 58.4929
19.140888842324735 58.9377
19.16346759176222 59.2916
19.18622349753803 59.7371
19.208803755869358 60.6404
19.231384767143577 62.0947
19.253966532312948 63.6679
19.276725481241822 65.5961
19.29930876296784 67.9273
19.3218928014549 70.3035
19.34465404436217 72.8593
19.36723960516257 75.691
19.389825925592426 76.7713
19.412413006605938 76.0458
19.43517731967805 72.9747
19.457765930683355 68.3962
19.48035530514408 63.9726
19.50294544401556 60.001999999999995
19.525712842708348 57.3091
19.54830451925909 56.0132
19.570896963095727 55.1169
19.593490175174704 54.6581
19.616260674962184 54.7288
19.638855432416964 54.3375
19.661450960992624 54.461000000000006
19.68404726164677 54.3901
19.706820878021247 54.2809
19.729418731756834 54.4377
19.752017360452857 54.2971
19.77461676506804 54.5611
19.797393513540218 54.9793
19.819994478951667 55.1295
19.84259622316767 55.6224
19.8651987471481 56.063
19.887978643247177 56.0477
19.91058273574792 56.7509
19.933187610901943 57.5188
19.955969879466828 58.7684
19.97857632894404 60.4568
20.00118356396599 61.7577
20.023791585494575 63.856
20.046577028914875 66.0476
20.069186632506966 67.9722
20.091797025500632 69.7301
20.114408208858933 70.4528
20.137196842715273 70.4532
20.159809615886765 69.3025
20.18242318232135 67.0554
20.20503754298326 64.7141
20.227829382875154 63.3495
20.250445341109344 62.996
20.27306209647285 63.4316
20.29567964993108 64.23
20.31847471147704 65.3728
20.34109387027612 66.1148
20.363713830075454 65.9674
20.386334591841646 64.7289
20.409132890679302 62.0023
20.431755265564437 58.7908
20.454378445325528 56.1493
20.477002430930366 53.9718
20.499803982716553 52.871
20.522429589228004 51.9863
20.54505600449589 51.595
20.567683229489194 51.6306
20.590488049900088 51.0805
20.61311690359731 50.8706
20.63574656993626 50.588
20.658553853717297 50.4587
20.681185154618298 50.4361
20.703817271080066 50.298
20.72645020407368 49.9663
20.749260783967177 49.9733
20.771895359337133 49.8544
20.794530754161617 49.7005
20.817166969412938 49.7082
20.83998086114876 49.6197
20.86261872660049 49.5017
20.885257415405402 49.6204
20.90789692853701 49.3548
20.930714147864748 49.4327
20.953355319030678 49.5065
20.97599731745334 49.559
20.99864014410749 49.3748
21.021460706796564 49.4804
21.044105199328826 49.7136
21.06675052302631 49.9834
21.089396678865015 50.1529
21.112220600704806 50.3862
21.134868430275347 50.8077
21.15751709492456 51.0236
21.180166595629693 51.2035
21.202993892429635 51.6551
21.22564507473034 51.9102
21.24829709602816 52.2163
21.27112693608965 52.2003
21.293780644891275 52.117
21.316435195634053 51.5418
21.339090589297417 50.5628
21.361923832041875 50.3437
21.384580921090404 49.6737
21.407238856007325 49.202
21.429897637773326 49.18899999999999
21.45273429906592 49.3322
21.475394784108598 49.3709
21.498056118951983 49.2906
21.520718304578022 49.603
21.543558400304388 49.6031
21.566222297108816 49.8806
21.58888704765135 50.0541
21.61155265291521 50.2956
21.63439619898156 50.8761
21.657063523335786 51.1845
21.67973170537063 51.7284
21.7024007460706 52.3668
21.72524775840385 52.9779
21.747918526116475 54.1171
21.770590155457388 55.2665
21.79326264741238 56.7272
21.816113141960237 58.3552
21.838787368860547 60.0644
21.861462461341976 61.603
21.884315579735777 63.1909
21.90699241312273 64.6303
21.92967011506078 65.4992
21.95234868653799 65.2902
21.9752053151131 64.0724
21.997885635446785 62.1923
22.020566828293532 60.43
22.04324889464272 58.4196
22.066109049404666 57.0331
22.088792872571794 56.5381
22.111477572219204 56.6135
22.1341631493376 56.6778
22.157026846313123 56.6861
22.179714188221507 56.0819
22.202402410582668 55.0573
22.22509151438863 53.6216
22.24795876962584 52.3609
22.270649646204486 51.33
22.293341407213727 50.6095
22.316034053646906 49.9736
22.338904883215342 49.6898
22.36159931041458 49.7572
22.38429462602756 49.5184
22.40699083104897 49.4232
22.429865251039757 49.3888
22.452563244831367 49.4144
22.47526213102522 49.5129
22.49813925616515 49.3678
22.520839937143307 49.4218
22.543541513520587 49.617
22.56624398629403 49.4316
22.589124730075895 49.4184
22.611829005656723 49.5533
22.63453418063466 49.8358
22.657240256008077 49.9414
22.680124634582935 50.0641
22.70283252079775 50.3507
22.725541310413075 50.6196
22.74825100442868 50.9642
22.771139033969575 51.3442
22.79385054687155 51.5444
22.81656296718292 52.2952
22.83927629590484 53.1535
22.862167992606945 53.9658
22.88488314827121 55.0134
22.907599215359284 55.7891
22.93031619487366 56.7448
22.953211574954405 57.5592
22.975930389478226 58.2916
22.998650119445763 58.7246
23.02137076586092 57.8952
23.044269845560063 56.8192
23.06699233506288 55.0322
23.089715744034912 53.0798
23.112617610931565 51.7272
23.135342869061212 50.4966
23.158069049684816 50.1266
23.1807961538087 49.6087
23.20370174880544 49.738
23.226430710184808 49.6494
23.249160598093425 49.9444
23.271891413539002 49.7866
23.294800752937697 49.8455
23.31753343374794 50.1331
23.340267045128353 50.2051
23.36300158808808 50.5523
23.38591468821339 50.9051
23.408651104658304 51.3056
23.431388455719986 51.835
23.454126742409 52.7023
23.4770436196085 53.7171
23.499783787914662 54.8042
23.522524894889884 55.3706
23.54526694154616 56.2539
23.56818761219047 57.3638
23.59093154860734 57.8436
23.613676427751283 58.3918
23.636422250635754 57.7497
23.659346731118656 56.3195
23.68209445191868 54.3291
23.704843119509587 52.2177
23.72759273490623 50.3151
23.750521041644767 48.9948
23.77327256312355 47.887
23.796025035462787 47.247
23.818956224555475 46.9647
23.841710609113413 46.8614
23.86446594758979 46.5097
23.887222241002014 46.1421
23.910157285144578 45.9176
23.932915498962537 45.9634
23.955674670778713 45.797
23.978434801611975 45.553000000000004
24.001373717286125 45.3046
24.024135776723917 45.3008
24.046898798245582 45.215
24.06966278287146 45.0791
24.092605586582614 44.8789
24.115371508023642 44.8842
24.1381383956401 44.7232
24.16090625045381 44.688
24.183852958731244 44.6214
24.206622758582608 44.6592
24.229393528706886 44.4854
24.252165270127392 44.4152
24.27511589952438 44.4709
24.297889594216997 44.2108
24.32066426328598 44.0052
24.34343990775613 43.948
24.36639447485003 43.8739
24.38917208083877 43.9333
24.41195066531332 43.6291
24.43490819850244 43.7356
24.457688750692377 43.7661
24.48047028445616 43.5314
24.503252800821233 43.72
24.526214300784112 43.6926
24.548998793132213 43.6781
24.57178427117417 43.5296
24.59457073593893 43.6658
24.617536219319863 43.645
24.64032466834748 43.5624
24.663114107195035 43.4233
24.685904536893013 43.1548
24.708874020360852 43.1764
24.731666442613744 43.1406
24.754459858818787 42.979
24.777254270007962 42.9197
24.80022777025625 42.8355
24.82302418230472 42.9967
24.845821592443674 42.9018
24.86862000170663 42.9267
24.891597535453727 42.7009
24.914397953892728 42.99100000000001
24.93719937456671 43.0187
24.96000179851076 43.1954
24.98298338249997 43.4349
25.00578782394922 43.7169
25.028593271784167 43.6634
25.05157790644186 44.0451
25.07438537804115 44.0424
25.097193859145293 44.1581
25.120003350792075 44.3758
25.142992065061257 44.8648
25.165803588823465 45.1324
25.18861612625217 45.3017
25.211429678386736 45.4836
25.234422489079968 45.3322
25.257238081693636 45.3823
25.280054692141732 45.3864
25.3028723214652 45.3438
25.325869245420463 45.5135
25.348688923599397 45.4716
25.371509623787006 45.5755
25.394331347025812 45.3516
25.41733240110666 44.8289
25.440156181590016 44.1424
25.46298098826268 43.5291
25.48580682216873 43.1222
25.50881202326435 42.4899
25.53163992281684 41.9722
25.55446885274561 41.7957
25.577298814096377 41.4879
25.600308179121807 41.4952
25.623140214533745 41.5126
25.64597328451537 41.4737
25.66898578564376 41.2642
25.691820936010206 41.2234
25.714657124097695 41.1968
25.737494350954734 41.1617
25.760511045684957 41.1299
25.783350361364224 41.1713
25.806190718969255 41.1894
25.82903211955018 41.2419
25.852053024868923 41.3075
25.874896522722523 41.3925
25.897741066713106 41.2602
25.920586657892454 41.3467
25.943611790812668 41.5474
25.966459487728237 41.7063
25.989308234998564 41.7287
26.01215803367705 42.0064
26.03518741123814 42.0829
26.05803932412957 42.2268
26.080892291600094 42.2495
26.10374631470478 42.1869
26.12677995397268 42.2403
26.14963609978026 42.1925
26.172493304397875 42.012
26.19535156888223 41.8574
26.218389486949604 41.6263
26.241249882640123 41.2492
26.26411134137826 40.8439
26.28715248187403 40.958
26.31001607820869 40.8295
26.3328807407756 40.6963
26.35574647063438 40.8889
26.37879191991473 40.7436
26.401659795896734 40.8234
26.424528742360263 40.9772
26.447398760366614 41.156000000000006
26.470448535598294 41.3088
26.49332070826805 41.4539
26.516193955675355 41.7397
26.53906827888316 41.9316
26.562122397260108 41.9575
26.584998883685063 42.2817
26.607876449110325 42.5467
26.63075509460056 42.6798
26.65381357334404 42.8649
26.67669439061878 42.839
26.699576291163382 42.7026
26.722459276044212 42.6367
26.745522132402975 42.3942
26.768407297649354 42.1257
26.791293550442003 41.6815
26.814180891848974 41.5173
26.837248143099337 41.0817
26.860137673466657 41.034
26.88302829566349 40.7133
26.90592001075963 40.6633
26.92899167420566 40.4735
26.951885586870763 40.1207
26.974780595655517 40.028
26.99785558178161 39.8705
27.020752794605112 39.6413
27.043651106772522 39.3695
27.06655051935668 39.5569
27.089629948036183 39.3779
27.112531573292053 39.3525
27.135434302194138 39.3883
27.158338135817015 39.2552
27.181422024430987 39.2734
27.204328079372566 39.0814
27.22723524226965 39.1756
27.250143514198573 39.1714
27.273231880156334 39.2613
27.296142382065014 39.0576
27.319053996245536 38.9406
27.341966723775965 39.1603
27.365059584515222 39.1007
27.38797455070062 39.0392
27.410890633481237 39.1417
27.433807833936918 39.1705
27.456905206923906 39.0705
27.47982465472398 39.0245
27.502745223449743 39.1504
27.525666914182825 39.4001
27.548768816912457 39.262
27.571692763693633 39.1277
27.59461783573812 39.1108
27.617723149491244 38.9272
27.640650484125285 38.8925
27.66357894728264 38.8679
27.686508540048052 38.7202
27.709618414237887 38.5651
27.732550278321757 38.491
27.755483275279115 38.5265
27.778417406196485 38.4656
27.801531858397514 38.5592
27.824468269376716 38.4763
27.847405817586786 38.4202
27.870344504116094 38.6882
27.893463551932008 38.7797
27.916404527281053 38.9309
27.93934664422563 39.0399
27.962289903855886 38.9956
27.98541356491974 39.2345
28.00835912214229 39.355
28.03130582533231 39.5701
28.054253675581805 39.7225
28.077381967556104 39.6201
28.100332124185126 39.6274
28.123283431160893 39.4827
28.146235889577238 39.2371
28.169368830154156 39.1334
28.192323603752033 38.9635
28.215279532083304 38.8054
28.238415973016764 38.4786
28.261374223145094 38.3434
28.284333631303806 38.209
28.307294198589954 38.0347
28.330435319167677 37.6617
28.353398217078915 37.4654
28.376362277420153 37.1814
28.39932750129032 36.9731
28.422473319286713 36.8873
28.44544088262495 36.9506
28.468409612800283 36.8799
28.491379510913497 36.6494
28.51453004413313 36.5627
28.53750229057244 36.36
28.56047570826344 36.397
28.583450298308804 36.4279
28.606605564586562 36.1974
28.629582511831156 36.3912
28.65256063474956 36.1388
28.675539934446338 36.2321
28.698699951647605 36.1708
28.72168161743193 36.0222
28.74466446331978 36.0686
28.767648490417624 35.9293
28.790813276438353 36.0286
28.813799678527303 36.0424
28.836787265157085 35.9993
28.859955641890075 35.9725
28.882945610203045 35.8701
28.905936766392035 35.7911
28.928929111566863 35.9406
28.952102288520145 35.7562
28.975097024308607 35.6927
28.998092952423807 35.6541
29.021090073977508 35.3814
29.04426806913204 35.2768
29.067267590245258 35.1093
29.090268308143695 35.1454
29.11327022394099 35.0811
29.13645305530891 35.0296
29.159457379627167 34.9762
29.18246290519685 34.8429
29.20546963313352 34.8867
29.22865731875826 34.9438
29.25166646419296 34.8033
29.27467681535305 34.7782
29.29768837335608 34.7468
29.320880931312562 34.8052
29.34389491580634 34.7216
29.366910110507334 34.6413
29.38992651653503 34.6519
29.41312396492981 34.6289
29.436142806456754 34.6417
29.45916286268059 34.5122
29.48236399319994 34.5101
29.50538649169417 34.4173
29.528410208259935 34.241
29.55143514402014 34.0029
29.574641196749695 33.8555
29.597668583816574 33.8119
29.6206971934585 33.5829
29.64372702680042 33.5868
29.666938019934474 33.5021
29.689970313635285 33.5105
29.713003834422636 33.467
29.73603858342347 33.4008
29.759254535188578 33.3428
29.78229175361658 33.34
29.80533020365064 33.4468
29.82836988641968 33.4316
29.85159081507472 33.4558
29.874632976355343 33.2142
29.89767637376955 33.2608
29.920721008448314 33.0508
29.9439469322847 33.0886
29.96699405457564 33.1514
29.9900424175358 33.1333
30.013092022298157 33.0213
30.03632295963995 32.9053
30.059375061131373 32.9665
30.08242840783577 33.0633
30.105483000888153 32.993
30.128718970092244 32.8956
30.151776069006917 32.8642
30.17483441768648 32.9657
30.198074175317235 32.8046
30.221135036724256 32.8895
30.24419715131772 32.949
30.267260520236203 32.7574
30.290505341942243 32.8957
30.313571232750228 32.8746
30.336638381310948 32.8392
30.35970678876503 32.7864
30.38295669299435 32.6205
30.40602763151657 32.6863
30.429099832366074 32.635
30.452173296685572 32.5744
30.47542830191959 32.5681
30.498504306502497 32.5182
30.521581577995562 32.6496
30.544660117543582 32.7016
30.56792024229725 32.7667
30.59100133132069 32.6415
30.614083691845494 32.5991
30.637167325018545 32.7194
30.660432587840603 32.7007
30.683518779717886 32.6951
30.70660624769615 32.7204
30.729694992924372 32.7694
30.75296541239743 32.757
30.77605672557558 32.5678
30.799149319462742 32.5182
30.8224236211637 32.435
30.845518789950724 32.4154
30.868615242910597 32.3565
30.891712981195973 32.1652
30.91499247215866 32.0959
30.938092794619365 32.0723
30.96119440587579 31.9359
30.984297307082752 31.9253
31.00758200598383 31.7884
31.030687500658694 31.7267
31.053794288760695 31.6414
31.076902371446767 31.5488
31.100192296997445 31.644000000000002
31.12330298246119 31.4504
31.14641496599209 31.4414
31.169528248749216 31.4875
31.19282341969534 31.4637
31.215939314557186 31.4997
31.239056512134788 31.416
31.262175013589378 31.4181
31.28547544871168 31.3394
31.30859657161541 31.2964
31.331719001892175 31.3661
31.35484274070538 31.5626
31.378148458819545 31.4899
31.401274828443725 31.364
31.424402510106933 31.3642
31.447712205419993 31.3383
31.470842524931633 31.304000000000002
31.493974159989783 31.3335
31.51710711176168 31.256
31.54042212308802 31.2624
31.563557722100917 31.2664
31.586694641341655 31.1208
31.609832881979628 31.024
31.63315322823208 30.9353
31.656294125521327 30.8326
31.679436347728515 30.8187
31.70257989602529 30.7787
31.725905596152327 30.6486
31.74905181052835 30.5338
31.772199354521323 30.691
31.79534822930507 30.671999999999997
31.818679302290967 30.6956
31.84183085259981 30.6236
31.864983737233473 30.635
31.88813795736804 30.6043
31.911474422233013 30.502
31.934631327356435 30.5642
31.9577895715215 30.5569
31.980949155906522 30.4633
32.004291031706956 30.4858
32.027453310562606 30.3653
32.05061693318573 30.2885
32.07396288236386 30.3074
32.09712920658542 30.2166
32.12029687812702 30.0425
32.14346589817093 29.9835
32.166817291729984 29.898000000000003
32.18998902288583 29.9837
32.21316210610336 29.7859
32.23633654256711 29.746
32.259693399663725 29.7579
32.282870556771144 29.6826
32.30604907069099 29.5939
32.329228942610065 29.4594
32.35259128243769 29.4264
32.375773884550505 29.4352
32.398957848235646 29.3004
32.422143174682176 29.2936
32.445511016471215 29.2849
32.468699082679954 29.2066
32.49188851523011 29.1414
32.51507931531304 29.018
32.538452678331 29.0093
32.56164622776311 29.0022
32.58484114831493 28.9727
32.60803744118015 28.9946
32.631416344731896 29.0132
32.654615396551876 28.8928
32.67781582427913 28.8664
32.701198898634416 28.7816
32.72440209253756 28.7079
32.747606665947124 28.7457
32.77081262006088 28.6362
32.79420126883317 28.5772
32.81740999876112 28.581
32.840620112999424 28.429000000000002
32.86383161274818 28.3873
32.88722585534586 28.5816
32.91044014056596 28.5611
32.933655814909734 28.4787
32.95687287957963 28.4424
32.98027273544904 28.3575
33.00349259526636 28.3438
33.026713849030116 28.3681
33.04993649794511 28.3115
33.073341986570746 28.0818
33.09656744032826 28.217
33.11979429286444 28.2637
33.14302254538647 28.2293
33.166433686291185 28.1397
33.18966475336992 28.1215
33.212897224069096 28.0777
33.23613109959831 27.9766
33.259547912343415 27.9894
33.2827846121627 27.9549
33.306022720453775 27.8971
33.32926223842861 27.7927
33.352684742614166 27.8735
33.37592709463173 27.7706
33.399170859982064 27.6042
33.422597648419426 27.6077
33.44584425514446 27.5534
33.46909227885668 27.4821
33.4923417207723 27.3575
33.51577423505344 27.4298
33.539026528130385 27.3467
33.56228024307245 27.2903
33.585535381098246 27.0993
33.60897364093058 27.1689
33.63223163992385 27.18
33.6554910656699 27.1314
33.678751919389796 27.1354
33.702195944520106 26.9842
33.72545966903325 27.0771
33.74872482519663 26.8696
33.771991414233746 26.9171
33.79544122444841 26.9258
33.81871069412428 26.7877
33.84198160035767 26.7668
33.86525394437455 26.8462
33.88870955949969 26.7916
33.911984794020626 26.74
33.93526147001624 26.758000000000003
33.958539588715006 26.6136
33.98200102861669 26.5303
34.0052820477047 26.471
34.02856451319451 26.3693
34.05203033759056 26.3865
34.07531571090147 26.3563
34.09860253431845 26.2501
34.121890809074316 26.3453
34.145362493118924 26.2229
34.16865368561615 26.2184
34.191946333164054 26.1968
34.21524043699793 26.1717
34.23871800066799 26.1127
34.26201503218366 26.0238
34.28531352370466 26.0784
34.30861347646881 25.9579
34.33209693978188 25.9959
34.3553998301885 26.0026
34.378704185565205 25.8583
34.402010007152356 25.8518
34.42549939016683 25.7676
34.44880815937748 25.7041
34.472118398533134 25.6933
34.49543010887669 25.6346
34.51892543169198 25.5309
34.54224009966052 25.6262
34.56555624255917 25.5335
34.58887386163339 25.4227
34.61237514439016 25.3513
34.6356957311114 25.3679
34.65901779775809 25.3195
34.68252356662995 25.2706
34.705848608458616 25.2989
34.72917513396849 25.1608
34.75250314440949 25.1889
34.77601490857862 25.1698
34.799345904259795 25.171999999999997
34.82267838863559 25.1015
34.846012362958525 25.1409
34.869530142679984 25.0068
34.89286711232212 25.0195
34.91620557568269 24.9515
34.93954553401677 24.8907
34.9630693495876 24.8586
34.986412313340814 24.8752
35.00975677584668 24.8446
35.033102738362956 24.7817
35.05663261012228 24.7549
35.0799815881786 24.7656
35.10333207003229 24.6706
35.12668405694369 24.6379
35.150220005273056 24.6696
35.17357501786656 24.6173
35.19693153931268 24.605999999999998
35.220289570874385 24.5993
35.24383161619786 24.5422
35.267192683604904 24.5858
35.290555264930376 24.5199
35.314101899412165 24.5046
35.33746752422433 24.4063
35.36083466676374 24.3344
35.38420332829803 24.3112
35.407756095629054 24.3989
35.43112781085063 24.4048
35.45450104888391 24.2855
35.477875810999194 24.2598
35.50143473172161 24.2715
35.52481255774625 24.2666
35.54819191167777 24.182
35.57157279478914 24.1019
35.595137889488406 24.0569
35.61852184675279 24.0197
35.641907337029984 24.0326
35.665294361595684 24.0204
35.68886565090076 23.9105
35.7122557598848 23.883000000000003
35.73564740699838 23.9002
35.759040593519934 23.8833
35.78261809810353 23.8082
35.80601437933051 23.653000000000002
35.829412203814705 23.6715
35.85281157283719 23.6226
35.876395313415884 23.6724
35.8997977874528 23.5738
35.92320180988546 23.511999999999997
35.946790244133936 23.4921
35.97019737933222 23.5141
35.993606066789866 23.4763
36.01701630779276 23.3916
36.04061101440684 23.4114
36.06402437852291 23.369
36.08743930005611 23.3583
36.1108557802951 23.2927
36.13445678011326 23.3426
36.15787639383515 23.2622
36.18129757014299 23.1292
36.20472031032821 23.0924
36.22832762423364 23.0333
36.25175350829375 23.1052
36.275180960119776 22.9724
36.298609981005924 23.0349
36.32222362992669 23.0054
36.34565580510207 22.983
36.36908955323448 22.8959
36.39252487562093 22.7838
36.416144880530226 22.7377
36.43958336764275 22.7878
36.463023432914625 22.724
36.486465077645676 22.6783
36.51009145956204 22.7797
36.53353627947859 22.7448
36.55698268276811 22.6789
36.58043067073321 22.645
36.60406345072071 22.5635
36.62751462435344 22.5141
36.65096738658405 22.4929
36.67460498210655 22.4486
36.69806093788647 22.4132
36.72151848619297 22.3979
36.744977628333636 22.3952
36.76862165890998 22.3117
36.79208400512205 22.3279
36.81554794910557 22.3222
36.83901349217101 22.2323
36.862663978991606 22.1502
36.88613273667352 22.1781
36.90960309738324 22.1189
36.933075062434064 22.1011
36.95673202673572 22.0426
36.98020721697122 22.0311
37.003684015502365 22.0048
37.027162423645365 21.8997
37.050825886711465 21.9239
37.07430753063053 21.8523
37.09779078812467 21.8108
37.121275660513014 21.8015
37.144945643673694 21.7526
37.16843376245278 21.7536
37.19192350009803 21.7271
37.215414857931435 21.615
37.239091382563885 21.6099
37.262585997426164 21.608
37.28608223645736 21.5403
37.309763684451696 21.5817
37.33326318851098 21.4868
37.356764320726555 21.4469
37.380267082425526 21.4978
37.40395510942588 21.4767
37.42746114683234 21.4367
37.45096881771841 21.3702
37.474478123414166 21.3074
37.49817275092816 21.3047
37.52168534303452 21.2254
37.54519957395567 21.1079
37.568715445024665 21.101
37.592416694607714 21.1291
37.61593586281424 21.1701
37.63945667518264 21.1592
37.66297913304891 21.0602
37.68668702630454 21.0517
37.710212792059274 20.9736
37.733740207334854 20.9023
37.757269273470364 20.901999999999997
37.780983832050374 20.9197
37.80451621684926 20.7622
37.82805025654007 20.8215
37.851585952464795 20.8112
37.8753071980695 20.7446
37.89884622345676 20.6545
37.92238690911902 20.6035
37.94611318753442 20.6053
37.969657210779765 20.5563
37.99320289834801 20.5421
38.016750251586465 20.4985
38.04048325513017 20.4588
38.06403395679343 20.459
38.087586328183946 20.4363
38.11114037065203 20.4446
38.13488012115898 20.4124
38.1584375229181 20.361
38.181996599821 20.2719
38.205557353221124 20.2854
38.229303872575656 20.2227
38.2528679961576 20.2063
38.27643380031219 20.1792
38.30000128639589 20.1406
38.32375459653193 20.1492
38.34732546371299 20.1474
38.37089801690786 19.9939
38.39447225747609 20.002
38.418232380377425 20.0138
38.441810012983396 20.0301
38.46538933705673 19.9155
38.488970353960084 19.9373
38.51273731166058 19.8173
38.536321731567014 19.7988
38.55990784840681 19.8438
38.58367995004091 19.7531
38.60726947812959 19.6703
38.63086070726198 19.7109
38.654453638806274 19.6725
38.678232613930824 19.6557
38.70182896773327 19.5678
38.72542702806741 19.5548
38.7490267963045 19.5832
38.77281266709232 19.5383
38.79641586862214 19.4912
38.8200207821842 19.4468
38.843627409152944 19.4703
38.86742019782782 19.3789
38.891030269149255 19.3641
38.914642058016156 19.2447
38.938255565806124 19.2614
38.96205529464307 19.255
38.98567225787121 19.2101
39.00929094417078 19.2123
39.03291135492255 19.2358
39.05671804624804 19.1337
39.080341923549106 19.1141
39.103967529460334 19.0659
39.127594865365744 19.0198
39.15140854155791 18.95
39.17503935514948 18.9724
39.19867190290282 18.9332
39.22249083587951 18.9514
39.24612686969409 18.8987
39.269764641845306 18.8608
39.293404153722804 18.8222
39.317230110864074 18.7593
39.34087311998506 18.7481
39.36451787301696 18.7315
39.388164371352595 18.6946
39.41199737518003 18.6494
39.43564738196752 18.657
39.45929913825317 18.5876
39.48295264543308 18.5604
39.506792718520884 18.542
39.530449745387216 18.5348
39.55410852735203 18.5423
39.57776906581474 18.4612
39.60161623079 18.4182
39.625280300200025 18.3808
39.64894613032202 18.3424
39.67261372255866 18.4067
39.6964680021016 18.3174
39.72013913657293 18.3193
39.74381203738292 18.3402
39.76748670593756 18.293
39.79134812278169 18.2584
39.81502634488497 18.2169
39.83870633896685 18.1438
39.862388106436654 18.132
39.88625668336918 18.0947
39.90994201572829 18.1448
39.933629125719285 18.0578
39.957503091207826 17.963
39.9811937746168 17.9738
40.00488623990914 17.9369
40.02858048850006 17.9475
40.05246165409549 17.8833
40.076159487492085 17.8835
40.099859108448875 17.8448
40.123560518384345 17.8059
40.1474489070226 17.8033
40.171153913178564 17.736
40.194860712584955 17.7075
40.2185693066637 17.7435
40.242464941335314 17.6384
40.26617714307655 17.6813
40.289891143772046 17.6312
40.3136069448471 17.5478
40.33750984859743 17.5412
40.3612292688043 17.4745
40.3849504936829 17.4886
40.40867352466194 17.4781
40.43258372059144 17.4506
40.45631038219906 17.4471
40.48003885420956 17.4222
40.503769138055105 17.384
40.52768664931955 17.3632
40.55142057531802 17.3443
40.57515631746428 17.28
40.599079334038514 17.2425
40.62281872700477 17.1943
40.64655994043941 17.2048
40.67030297578061 17.2518
40.69423334835778 17.1783
40.71798004609188 17.1971
40.74172857006355 17.1086
40.76547892171441 17.0885
40.7894166736039 17.0492
40.813170699248566 16.9337
40.83692655691388 16.9636
40.86068424804498 17.0401
40.884629402612525 16.9602
40.908390779366385 16.9217
40.932153993938 16.8422
40.95591904777605 16.8735
40.979871628443995 16.8548
41.003640379561936 16.8201
41.02741097430883 16.8175
41.05118341413683 16.7708
41.075143444384416 16.7457
41.098919593177826 16.7174
41.1226975914255 16.6703
41.14647744058318 16.622
41.170444943946755 16.6343
41.19422851378379 16.6389
41.218013938914645 16.5303
41.24198706625173 16.4984
41.26577622087193 16.489
41.289567235177785 16.4111
41.31336011063129 16.4861
41.337340752422875 16.4129
41.361137369129835 16.4163
41.38493585138705 16.337
41.40873620066004 16.2865
41.43272438060107 16.2685
41.45652848292052 16.2279
41.48033445666918 16.1692
41.50414230331616 16.1453
41.528138045159764 16.1555
41.551949656675205 16.1318
41.575763145513235 16.0964
41.59957851314666 16.0819
41.62358184070442 16.0443
41.64740098505737 16.0606
41.6712220126409 16.0427
41.69504492493139 15.9618
41.71905586207357 15.9155
41.74288256296395 15.8817
41.766711153007456 15.9081
41.79054163368412 15.901
41.814560204340054 15.8867
41.838394485526365 15.822000000000001
41.86223066180303 15.8135
41.88625497706819 15.7834
41.910094962812 15.7784
41.93393684811168 15.7378
41.95778063445365 15.6769
41.981812625263366 15.6582
42.00566023303407 15.6783
42.029509746323676 15.6277
42.05336116662236 15.6211
42.077400857069705 15.6196
42.10125611078846 15.5997
42.12511327600405 15.4891
42.14897235421036 15.4778
42.173019768448455 15.4636
42.19688269209613 15.4562
42.22074753323349 15.4525
42.24461429335818 15.3809
42.268669455600495 15.3214
42.292540073217886 15.3194
42.31641261433284 15.3385
42.34028708044675 15.2723
42.36435001496739 15.2843
42.38822835065557 15.2682
42.41210861586426 15.2272
42.4359908120986 15.2151
42.46006154323262 15.1392
42.48394762115317 15.1953
42.507835634632315 15.1121
42.531912233047436 15.0989
42.55580413732265 15.1081
42.579697981698 15.0707
42.60359376768525 15.0221
42.62767820545945 14.9852
42.65157789440821 14.982999999999999
42.67547952952185 14.9434
42.699383112316 14.8766
42.72347541395347 14.8297
42.74738291190531 14.8264
42.771292362102166 14.8051
42.795203766063516 14.8079
42.819303956130405 14.773
42.843219287476536 14.7215
42.86713657716324 14.7446
42.89105582671383 14.7184
42.91516392983864 14.7096
42.939087119032166 14.6402
42.963012272677304 14.6646
42.98693939230129 14.5703
43.01105543317513 14.5609
43.034986504731386 14.5527
43.05891954686589 14.4967
43.08285456110972 14.491
43.10697856448665 14.4776
43.130917542983475 14.4012
43.15485849820081 14.4203
43.17880143167367 14.3988
43.20293342237094 14.3664
43.226880332449 14.3679
43.25082922540554 14.3627
43.27496722682525 14.2897
43.29892010567796 14.2765
43.32287497204102 14.264000000000001
43.34683182745632 14.2232
43.370977859791836 14.173
43.39493871351105 14.137
43.41890156092628 14.1888
43.44286640358341 14.1771
43.46702049182749 14.120999999999999
43.49098934522816 14.0876
43.51496019852649 14.0311
43.5389330532723 14.0591
43.56309522248204 13.9923
43.58707210044314 13.9608
43.61105098451946 13.9302
43.63503187626491 13.9222
43.659202151562134 13.8964
43.68318707902681 13.9093
43.70717401884041 13.8471
43.731162972560874 13.8168
43.75534137913236 13.8083
43.779334381108384 13.8012
43.803329401683186 13.7267
43.82732644241872 13.7018
43.8515130055166 13.7276
43.87551410707659 13.6946
43.89951723350145 13.6827
43.923709934595614 13.6563
43.94771713129917 13.6192
43.97172635758096 13.5821
43.99573761501002 13.5579
44.0199385169922 13.5334
44.04395385732619 13.5226
44.067971233533086 13.5133
44.09199064718605 13.5475
44.11619977548961 13.4769
44.14022328470671 13.452
44.16424883610785 13.4443
44.18827643127035 13.4289
44.21249381139513 13.3741
44.236525514814076 13.3014
44.26055926674478 13.2936
44.28459506876863 13.3007
44.3088207262813 13.2994
44.33286064928722 13.2626
44.35690262714919 13.1847
44.38094666145278 13.1729
44.4051806219871 13.2178
44.42922879003185 13.1388
44.45327901929361 13.1364
44.477331311362136 13.0792
44.501573600619416 13.0572
44.525630039221795 13.0097
44.54968854541895 13.0649
44.573937102200176 13.0525
44.5979997645541 13.0254
44.622064499300315 13.002
44.64613130803592 12.9482
44.67038823869318 12.9787
44.69445921643748 12.933
44.718532272981385 12.856
44.742607409926194 12.8593
44.76687274034801 12.8596
44.79095205918753 12.8518
44.81503346325094 12.8001
44.839116954143876 12.7571
44.86339071028742 12.7518
44.88747839599524 12.7309
44.91156817336837 12.6993
44.93566004401666 12.6896
44.959942251908146 12.6173
44.984038330325966 12.6268
45.00813650686762 12.575999999999999
45.03223678314731 12.5748
45.05652746888232 12.5637
45.08063196592069 12.5486
45.104738567558705 12.4714
45.128847275414856 12.4591
45.15314646515866 12.4542
45.17725940679741 12.4537
45.20137445952892 12.4164
45.22568004865265 12.4205
45.24979934496396 12.445
45.27392075725247 12.3481
45.29804428714431 12.3505
45.322358426247604 12.3411
45.346486212804315 12.3227
45.370616121861914 12.3387
45.39474815505086 12.251
45.41907087049246 12.2111
45.4432071734666 12.2283
45.46734560548283 12.1828
45.49148616817604 12.2023
45.51581748638564 12.1547
45.5399623320197 12.1953
45.56410931325473 12.1509
45.58825843173002 12.1246
45.61259837920865 12.1145
45.636751793816 12.0761
45.66090735060093 12.0217
45.68506505120716 11.9553
45.7094136545275 11.9567
45.73357566449271 11.9341
45.75773982322992 11.9447
45.78190613238733 11.8905
45.806263418194064 11.8561
45.83043404997326 11.8509
45.85460683713677 11.8329
45.87897065658495 11.8011
45.90314777634752 11.8014
45.92732705646868 11.7884
45.9515084986045 11.8022
45.97588104735473 11.7455
46.00006683541565 11.7348
46.02425479047904 11.7194
46.04844491420549 11.7242
46.0728262191024 11.6592
46.09702070211635 11.6285
46.12121735879483 11.6322
46.14541619080294 11.6349
46.169806278764455 11.6106
46.194009483459034 11.5749
46.21821486849841 11.5653
46.24242243555223 11.513
46.266821333570014 11.4865
46.29103328674601 11.4793
46.31524742696538 11.4839
46.33946375590237 11.4161
46.36387149104216 11.4131
46.38809221957392 11.3721
46.41231514186606 11.401
46.436540259597464 11.4035
46.460956858999374 11.3638
46.48518638983522 11.3291
46.509418121166966 11.2546
46.533652054678114 11.2789
46.55807754555709 11.2152
46.58231590571962 11.2143
46.60655647313217 11.1952
46.630988654873654 11.1931
46.655233659129024 11.145
46.67948087571551 11.1667
46.70373030632484 11.1057
46.72817142736393 11.0887
46.752425308428684 11.1084
46.77668140861147 11.0606
46.80093972960865 11.0246
46.82538981736788 11.0234
46.849652602470904 10.9633
46.87391761349769 11.0022
46.8981848521493 10.9758
46.9226439341274 10.9419
46.946915650573224 10.9136
46.97118959976749 10.8642
46.99546578341598 10.8914
47.019933887188216 10.8511
47.04421456235744 10.8541
47.06849747711879 10.7817
47.09278263318286 10.7785
47.11725978640143 10.7695
47.14154944775105 10.7284
47.165841355555656 10.7626
47.1901355115306 10.735
47.214621741924994 10.6869
47.23892041698887 10.6976
47.26322134538975 10.6515
47.28771440635075 10.6394
47.31201986422527 10.6437
47.33632758061436 10.5871
47.360637557241866 10.5639
47.38513974410611 10.5679
47.40945426407847 10.5444
47.43377104948137 10.5407
47.45809010204344 10.4815
47.48260144275502 10.4767
47.506925052572285 10.4705
47.53125093475548 10.4338
47.55557909103813 10.4379
47.58009961361992 10.4247
47.60443234110732 10.3823
47.62876734791564 10.3507
47.65310463578333 10.3397
47.6776343683373 10.3178
47.7019762413987 10.2729
47.72632040075572 10.2632
47.75066684815169 10.2788
47.77520581885936 10.2353
47.799556865477655 10.2133
47.823910205386 10.2435
47.84826584033272 10.1812
47.87281407745551 10.1407
47.89717432569297 10.171
47.92153687423484 10.1439
47.94609208429692 10.1438
47.97045925671401 10.078
47.99482873471275 10.0425
48.01920052005013 10.0578
48.04376504619224 9.99385
48.068141469543484 10.0186
48.09252020552573 10.0413
48.11690125590099 9.99543
48.1414751266064 9.97617
48.16586082917454 9.95734
48.19024885144316 9.92185
48.2146391951793 9.929680000000001
48.239222439012764 9.95702
48.26361744916137 9.9148
48.28801478610016 9.88772
48.31241445160131 9.85055
48.337007097209366 9.82445
48.36141144338331 9.8254
48.38581812345755 9.82121
48.41022713920929 9.77394
48.434829215320704 9.77024
48.45924292604658 9.76653
48.48365897780325 9.73113
48.50807737237308 9.689589999999999
48.532688907799276 9.73508
48.55711201168574 9.73227
48.581537463754074 9.66318
48.60615611725119 9.65501
48.63058628942721 9.64953
48.65501881516546 9.6119
48.6794536962573 9.606819999999999
48.70408185970339 9.58767
48.72852147531801 9.56316
48.75296345168211 9.5133
48.77740779059232 9.52322
48.80204549302823 9.53304
48.82649458091802 9.4791
48.85094603676547 9.499789999999999
48.87539986237231 9.441180000000001
48.90004713292306 9.430530000000001
48.92450572200832 9.3976
48.94896668628025 9.373510000000001
48.97343002754588 9.37539
48.99808689542115 9.37955
49.02255501470614 9.33732
49.04702551642794 9.32093
49.0714984023988 9.27871
49.096164896893235 9.29217
49.120642575466796 9.27179
49.145122643748394 9.30155
49.16960510355558 9.245510000000001
49.19428125404938 9.217830000000001
49.2187685210852 9.227689999999999
49.243258185121555 9.20474
49.26794160167084 9.16489
49.2924360839405 9.146189999999999
49.31693296869764 9.11397
49.34143225776915 9.1166
49.36612538195438 9.07927
49.39062950396021 9.1059
49.41513603578346 9.09427
49.4396449792564 9.059280000000001
49.46434784069503 9.05286
49.488861631846454 9.01178
49.513377840166804 8.97063
49.537896467493745 8.96974
49.56260909589029 8.93721
49.587132585683285 8.92981
49.611658500018365 8.91911
49.636186840738596 8.88931
49.66090926588511 8.899460000000001
49.685442483902584 8.86646
49.70997813385706 8.84422
49.734516217597076 8.82007
49.75924846937352 8.80519
49.7837914452858 8.7963
49.80833686055187 8.78623
49.83288471702571 8.74741
49.85762682540054 8.7404
49.882179588965734 8.74045
49.9067347993235 8.70585
49.93129245833333 8.7224
49.95604445336378 8.71187
49.98060703442832 8.64793
50.005172069746266 8.65823
50.02993150438364 8.64458
50.05450147301533 8.60033
50.07907390151433 8.61867
50.10364879174981 8.5937
50.12841816587289 8.56664
50.1529980044635 8.55311
50.17758031042124 8.51958
50.20216508562089 8.52708
50.22694442953363 8.5157
50.25153416817468 8.512039999999999
50.27612638170508 8.471210000000001
50.300721072005196 8.43144
50.325510416102105 8.46606
50.350110084975064 8.42145
50.37471223628208 8.438930000000001
50.39931687190919 8.41726
50.424116246675766 8.34826
50.44872587605249 8.357439999999999
50.47333799543065 8.3649
50.49795260670191 8.33643
50.52276204271512 8.29712
50.54738166295838 8.28631
50.57200378079314 8.27464
50.596628398116835 8.26804
50.62144792604559 8.24238
50.646077567609396 8.20756
50.670709714377715 8.21875
50.69553683636198 8.195889999999999
50.72017401885922 8.18063
50.7448137122895 8.16191
50.76945591856022 8.16663
50.79429318636823 8.13738
50.818940443716784 8.14212
50.84359021965163 8.0593
50.868242516085964 8.0999
50.893089960641895 8.06513
50.917747323549435 8.0626
50.94240721271973 8.04877
50.96706963007175 8.02788
50.99192728239342 8.017610000000001
51.01659478166073 8.0291
51.04126481489051 7.97923
51.06593738400761 7.961010000000001
51.090805275207074 7.9143300000000005
51.11548294172845 7.9119600000000005
51.14016314993547 7.891539999999999
51.164845901758845 7.9264600000000005
51.18972406304274 7.901860000000001
51.21441192780656 7.8284899999999995
51.23910234200271 7.8016
51.2637953075678 7.81147
51.288683770237945 7.82458
51.31338186432707 7.82655
51.33808251561888 7.78114
51.362978729967345 7.759689999999999
51.387684521509755 7.743580000000001
51.41239287610203 7.7315
51.437103795691165 7.69902
51.46201036644977 7.69757
51.486726441956634 7.671589999999999
51.51144508832545 7.6691
51.536166307509156 7.67267
51.56108326624387 7.60957
51.58580965706056 7.62055
51.61053862657523 7.59059
51.635270176746864 7.56295
51.66019755512065 7.59198
51.68493429268881 7.58105
51.70967361681515 7.5837
51.73441552946465 7.56164
51.759353359237934 7.565180000000001
51.7841004750961 7.503769999999999
51.80885018539685 7.46852
51.833602492111254 7.48009
51.8585508051424 7.4386399999999995
51.883308330926425 7.44194
51.90806845906181 7.45257
51.932831191525715 7.422289999999999
51.95779001977161 7.44619
51.98255798721516 7.336010000000001
52.00732856494335 7.34704
52.03229530577543 7.340319999999999
52.057071130455945 7.33622
52.081849571391054 7.34638
52.106630630568695 7.331739999999999
52.13160794279417 7.284
52.15639426492067 7.253660000000001
52.18118321127822 7.25557
52.205974783860896 7.23251
52.23096269971011 7.20772
52.255759551287994 7.221310000000001
52.280559035098186 7.205030000000001
52.30536115314103 7.21333
52.33035970494467 7.17053
52.35516711807904 7.1306899999999995
52.37997717147198 7.1569
52.40478986713005 7.11658
52.42979908731974 7.05876
52.454617094216 7.05192
52.47943774942214 7.085319999999999
52.50426105495102 7.067019999999999
52.529280976059844 7.05598
52.554109609024096 7.022710000000001
52.57894089837482 7.025189999999999
52.60377484613117 6.99218
52.62880550079408 6.957439999999999
52.65364479223379 6.98803
52.67848674816189 6.939210000000001
52.70352547971946 6.95401
52.72837279155837 6.92202
52.753222773982785 6.89031
52.778075429022984 6.88935
52.80312495150885 6.910360000000001
52.827982978797436 6.895389999999999
52.85284368481815 6.84017
52.87770707160767 6.85597
52.90276741793998 6.8353
52.92763619336701 6.782889999999999
52.952507655698504 6.7662
52.977381806977576 6.790660000000001
53.00245301017842 6.75748
53.02733256653592 6.7571699999999995
53.052214817996074 6.73405
53.077099766608484 6.73233
53.102181859804446 6.7197
53.127072229988265 6.6941
53.15196530349892 6.70225
53.17686108239249 6.6649899999999995
53.20195409881522 6.67674
53.22685531582556 6.64067
53.25175924441303 6.6177600000000005
53.27666588664027 6.59152
53.30176985962693 6.6073699999999995
53.3266819565689 6.567810000000001
53.35159677336455 6.60308
53.376514312083096 6.53822
53.40162927507703 6.58887
53.42655228516116 6.59072
53.45147802340193 6.50085
53.47660125628886 6.47411
53.50153247842639 6.4894
53.52646643496923 6.45477
53.55140312799818 6.43769
53.576537409691696 6.42721
53.60147960336152 6.41818
53.626424539786164 6.389390000000001
53.65137222105307 6.41346
53.67651758529126 6.38957
53.70147078399681 6.36605
53.72642673383343 6.33639
53.75138543689533 6.33354
53.776541917524526 6.32797
53.801506154876755 6.31461
53.826473151763246 6.311319999999999
53.851442910284916 6.29188
53.87661054126026 6.313280000000001
53.9015858509782 6.28142
53.92656392866066 6.29024
53.95154477641532 6.26211
53.976723591801296 6.26775
54.00171000771266 6.2021
54.02669920004598 6.22612
54.051691170915745 6.195119999999999
54.076881204886796 6.207380000000001
54.101878760928514 6.15497
54.12687910187696 6.122999999999999
54.152077577768296 6.08413
54.1770835166946 6.10374
54.20209224691339 6.17214
54.22710377055121 6.10845
54.25231352511594 6.11653
54.27733066384342 6.0349699999999995
54.30235060239643 6.06816
54.32737334290836 6.03897
54.35259441062629 5.942
54.377622783395324 5.92584
54.40265396455061 5.94784
54.42768795623251 5.97043
54.45292037169559 5.97175
54.477960012857906 5.95106
54.50300247099511 5.9326099999999995
54.52804774825457 5.87295
54.55329154616743 5.83857
54.57834249018678 5.84628
54.6033962597977 5.80433
54.6284528571545 5.831840000000001
54.653708072335164 5.78815
54.67877035378786 5.76945
54.70383546947698 5.7150099999999995
54.72890342156389 5.70346
54.7541700889442 5.6551800000000005
54.77924374251975 5.693890000000001
54.8043202390049 5.64559
54.82959552413022 5.66142
54.8546777351945 5.62775
54.87976279569621 5.58871
54.90485070780914 5.60922
54.930137506558005 5.54703
54.95523115074295 5.57523
54.98032765308844 5.50132
55.005427015775496 5.5131
55.03072536339621 5.5016300000000005
55.05583047570572 5.51094
55.080938454927676 5.45064
55.10604930325027 5.474080000000001
55.131359235107396 5.44508
55.15647585066083 5.4065
55.181595341907496 5.352609999999999
55.20671771104285 5.32852
55.232039262617704 5.32597
55.25716741665048 5.2573
55.28229845518636 5.24611
55.30743238042802 5.21862
55.33276558731939 5.27255
55.357905315183636 5.25328
55.383047936390035 5.20441
55.40819345314859 5.12154
55.433538351073295 5.11822
55.458689688238415 5.14274
55.483843927614096 5.03094
55.509197623043605 5.08845
55.53435769621134 5.01814
55.55952067826466 4.94682
55.5846865714265 4.97133
55.61005202069737 4.92861
55.63522376553902 4.98801
55.66039842818645 4.95982
55.68557601087004 4.8964300000000005
55.7109532500271 4.82322
55.73613670233794 4.8369800000000005
