TT I
1.2716486653135266 7.04798
1.2939594142134223 6.87997
1.3162702121660406 6.560739999999999
1.3385810600174564 6.30841
1.3608919586137629 5.52759
1.383202908801069 5.79948
1.405513911425503 5.96077
1.4278249673332093 5.70277
1.4501343378461518 5.695119999999999
1.4724455028545926 5.48313
1.4947567236847858 5.12247
1.517068001182951 4.97066
1.5393793361953272 4.99985
1.5616907295681737 4.87143
1.5840021821477681 4.3701300000000005
1.60631369478041 4.95961
1.6286252683124185 4.86742
1.6509369035901333 4.49841
1.6732468618895553 4.74831
1.695558623192809 4.41169
1.7178704487808514 4.5845199999999995
1.7401823395001077 4.47786
1.7625012545597203 4.60865
1.7848028405262486 4.74794
1.8071218901122095 4.6024
1.8294236121921872 4.359430000000001
1.8517427996910911 4.018669999999999
1.8740620574440425 4.2099400000000005
1.8963639900671978 4.45929
1.9186833908139995 3.69253
1.9409854680117449 4.1012900000000005
1.9633050151394713 4.87406
1.9856246367570705 4.3171
2.0079269371922672 4.2221400000000004
2.03024671027244 3.95779
2.0525491637446027 3.75135
2.074869091674931 3.7806900000000003
2.097171701569106 4.07713
2.1194917877373847 4.74734
2.141811954326636 4.1826
2.164114805233074 4.1418099999999995
2.186435135143035 4.75154
2.208738150935709 5.56554
2.231058647554722 6.5118599999999995
2.2533792288321184 5.94332
2.275682498336085 5.29548
2.298003251406138 5.00159
2.3203066942619714 4.9935599999999996
2.3426276225136022 5.363230000000001
2.3649486396617507 4.81856
2.387252348930071 6.06025
2.4095735463442893 5.89415
2.4318774374315884 6.18845
2.4541988185014043 6.3751
2.476502894794693 7.0534300000000005
2.498824462909887 6.84363
2.521146125856138 7.0848
2.5434504863470337 6.99804
2.5657723414244717 7.49332
2.588076895590662 8.4744
2.610398946189713 8.96407
2.6327210958598384 8.50539
2.6550259469304716 8.80268
2.6773482972090137 8.4764
2.6996533504259 8.56898
2.7219759047039602 8.10182
2.744298562293959 8.08445
2.7666039251246595 8.67113
2.7889267918020164 8.15901
2.8112323652516555 7.94532
2.833555444408179 8.65889
2.8558786311183852 8.48841
2.8781845268938557 8.4644
2.9005079311721484 9.32289
2.9228140460410397 9.24646
2.9451376712799635 8.85571
2.967444008632326 9.52518
2.9897678582247247 9.834439999999999
3.0120918213106695 10.2331
3.0343984987899373 10.7771
3.0567226913198637 10.4555
3.079029599759726 11.5017
3.101354025127254 11.8203
3.123678568232338 12.2249
3.145985829517914 12.7934
3.16831061055229 13.1417
3.1906181112775593 13.9051
3.212943133635653 14.417
3.2352682779763207 14.6411
3.2575761442691227 14.8691
3.2799015350264273 15.1172
3.302209649240067 15.9941
3.3245352898092655 16.5628
3.3468436553365257 17.2022
3.369169549113219 17.1001
3.3914955708171384 17.3207
3.413804319727358 17.92
3.4361305997334863 18.4718
3.4584396084414553 19.0122
3.4807661501462652 18.9777
3.503092824025881 19.6901
3.5254022288463154 19.8314
3.5477291695206588 20.6091
3.5700388426251948 21.019000000000002
3.5923660534916446 21.3627
3.6146934007816114 22.2846
3.637003482731501 27.3844
3.6593311053109985 30.0122
3.681641464033634 26.828000000000003
3.7039693653009733 24.2048
3.726297407241705 23.9335
3.7486081875460804 23.8938
3.7709365132734978 24.4854
3.793247578841633 24.8257
3.8155761917550093 25.5743
3.8378875459837216 25.4901
3.8602164494827234 25.7403
3.882545499606844 26.9306
3.9048572932539183 27.2419
3.9271866390645718 27.4747
3.9494987298666713 28.0087
3.971828374764527 28.8091
3.9941581705403255 29.5309
4.016470713506008 29.92
4.038800813471445 30.9581
4.061113662089144 31.145
4.0834440696459176 31.3813
4.105774632334751 31.8795
4.128087945865126 32.1156
4.150418821249301 32.6735
4.172732448931298 33.7558
4.195063640413578 34.0871
4.2173775856475215 34.9104
4.239709096631102 37.6478
4.262040768704612 52.1689
4.284355196706267 63.6031
4.306687193387355 56.5339
4.329001947444346 44.1183
4.35133427213731 40.6153
4.373666762177566 40.3571
4.395982011761091 40.6521
4.418314834921175 41.808
4.44063041906622 43.4441
4.4629635787515625 45.1593
4.4852969080429785 46.2519
4.5076130004776225 46.5758
4.529946671403969 46.7916
4.552263106909177 47.3758
4.574597122877047 48.7412
4.596931312711224 49.6175
4.619248269273446 50.758
4.6415828092605835 51.3259
4.663900117405352 52.7124
4.686235010953232 54.2021
4.708552674085913 55.4456
4.730887924602802 56.5832
4.753223354952695 58.2126
4.775541557023902 59.2139
4.797877349456786 60.8114
4.820195915032126 62.4721
4.842532072957498 64.0188
4.864868414979744 65.9979
4.88718753227192 67.9469
4.909524244902505 69.8261
4.931843734218147 71.7461
4.954180820867835 74.0728
4.976518095879839 76.6008
4.998838149695359 79.3573
5.021175803844231 82.7138
5.043496238205739 85.5476
5.065834274903528 89.1778
5.088172504230693 93.5912
5.1104935158799565 97.4963
5.132832132875765 105.405
5.155153533596801 117.927
5.1774925416746225 137.219
5.199814334878411 228.888
5.2221537374521505 798.812
5.244493338631803 2493.79
5.266815727034316 7161.73
5.289155727832427 13676.5
5.311478517248165 9699.35
5.333818921080011 3363.86
5.356159527788849 688.056
5.3784829252032536 209.58599999999998
5.400823940070432 145.178
5.423147747031976 124.19200000000001
5.445489173474152 114.012
5.467830807066149 108.009
5.490155234831516 103.82700000000001
5.512497285125229 100.571
5.534822130975162 99.2751
5.557164601388673 97.5175
5.579489868738879 94.7402
5.601832762690846 93.6322
5.6241758697774475 91.7935
5.646501775867269 91.0977
5.668845311622074 90.4583
5.691171647754637 89.911
5.713515615597765 88.9825
5.735859800852677 88.0614
5.758186788542988 86.8978
5.780531411018185 86.7031
5.802858837297399 86.3529
5.825203900414495 86.3273
5.8475491852224 86.2158
5.869877275883075 86.7402
5.892223006467101 87.9289
5.914551544266608 89.0385
5.936897724049891 91.1027
5.959244129804903 95.5859
5.981573344815301 106.56700000000001
6.0039202049061 163.666
6.026249875609095 392.689
6.04859719346037 885.569
6.070927323278297 2037.45
6.093275102315365 4559.51
6.115623113320588 5637.46
6.137953938319995 3645.2
6.160302415650845 1089.03
6.182633708324452 241.887
6.2049826554078376 109.99799999999999
6.227331838745022 87.2814
6.249663839443684 80.2656
6.27201349767565 75.9902
6.294345974611799 74.0131
6.316696111167083 72.6771
6.339046488263839 71.5895
6.361379686074702 68.3404
6.383730546639482 66.605
6.406064229255215 65.2016
6.428415576718203 64.7236
6.450749747566656 63.5403
6.47310158535871 62.458
6.495453669698332 61.8864
6.517788579421056 61.065
6.540141159237969 60.213
6.562476565766648 59.5966
6.5848296444934045 58.9644
6.607182974060425 58.2056
6.6295191323281015 57.8573
6.651872965955752 57.6721
6.6742096296068985 58.7296
6.6965639707294615 63.2319
6.71891856698715 63.9346
6.741255995248479 60.2863
6.763611104154477 56.5992
6.785949046381137 55.0226
6.808304671371482 54.3221
6.8306605557940046 54.5092
6.852999275508618 53.7684
6.875355681171544 53.4129
6.897694923437771 53.5364
6.92005185377892 53.5274
6.9423916220322655 53.1626
6.964749080490181 52.3883
6.987106804399774 52.7602
7.009447368180821 52.6267
7.031805625367033 51.9711
7.054146723727803 52.1973
7.076505517631004 52.3792
7.098864581288365 52.4716
7.121206488070854 52.1019
7.143566093607822 51.5122
7.165908543567245 51.3634
7.188268694426048 51.137
7.2106291193438095 50.933
7.232972390625943 51.306999999999995
7.255333366030969 51.6305
7.277677189091925 55.6656
7.300038718428332 61.7602
7.322400526130865 61.193000000000005
7.344745183422596 56.0339
7.367107550224791 52.3133
7.389452767901992 51.9503
7.411815697249891 51.906000000000006
7.434161478756298 51.1229
7.456524974096713 51.3136
7.478888753837185 51.4853
7.501235387657368 52.8822
7.523599738562711 58.3106
7.545946944825532 68.0521
7.568311870344528 72.1197
7.5906770845765665 64.7423
7.613025156078678 56.4479
7.635390950099687 53.6698
7.657739602662809 53.2627
7.680105979923558 52.5206
7.702472650212829 52.99100000000001
7.724822180948224 53.0453
7.747189439655568 53.3423
7.769539560075357 53.4138
7.791907410653562 53.79600000000001
7.81425812420825 53.6938
7.836626570110925 54.1593
7.858995315087906 54.6817
7.881346924933401 54.9497
7.903716270417482 55.3743
7.926068482028405 55.9883
7.948438431475253 56.5193
7.9708086843180235 56.8118
7.993161805171116 57.3511
8.015532667162402 57.7109
8.037886398416653 58.3647
8.060257873014221 59.0296
8.082629655331942 59.7018
8.104984308787587 60.2796
8.127356708900503 61.2545
8.149711981398308 62.2312
8.172085002766314 63.4323
8.194458336181368 63.8601
8.216814543847752 64.8859
8.23918850371002 65.6127
8.26154533906492 66.4953
8.283919928836452 68.2589
8.306277395339652 69.1172
8.328652618483376 70.6294
8.351028159736202 72.3184
8.373386579575245 74.3267
8.395762759396959 75.4933
8.418121819038275 77.8359
8.440498640894003 80.9749
8.462875785192262 86.4623
8.485235811156207 94.3845
8.507613602688501 127.84100000000001
8.529974277114228 227.62599999999998
8.552352719347912 375.009
8.574731488360351 613.466
8.59709314210385 1103.64
8.619472567021075 1845.58
8.64183487789147 2295.04
8.664214962183097 1980.51
8.686577933647762 1112.38
8.708958680784317 413.995
8.731339760774953 171.222
8.753703729764451 108.948
8.77608547780821 95.0724
8.798450116065078 91.0544
8.820832535634787 88.4698
8.843215292401656 87.1307
8.865580941199045 85.6809
8.887964374703538 84.3604
8.910330701447199 83.488
8.932714815164482 83.0486
8.955099270424924 82.5744
8.977466620733543 81.7282
8.999851761421976 81.2411
9.022219798361645 80.3326
9.04460562795561 80.2409
9.066991803441677 79.7786
9.089360876979615 79.8336
9.111747746589993 79.6179
9.13411751544971 78.919
9.156505082664324 78.6978
9.178875550323522 79.2356
9.20126381862328 81.3837
9.223652438908596 90.568
9.246023961427412 105.154
9.26841328802173 111.64399999999999
9.290785518039224 102.15299999999999
9.313175554425882 88.8884
9.335565947154315 81.5832
9.357939245086508 79.9288
9.380330352834827 79.8464
9.40270436697103 79.8878
9.425096193225055 79.9995
9.447488380180165 80.4354
9.469863475295412 80.6904
9.492256385987508 81.1713
9.514632206018318 81.41199999999999
9.537025843935714 81.5961
9.559402392368193 82.2213
9.581796761000229 83.5939
9.604191496441521 83.7099
9.626569144158516 84.5449
9.648964615551032 85.6531
9.671343000390081 86.6191
9.693739211225699 87.6711
9.716135793237463 87.8368
9.738515290448102 88.0944
9.760912617143402 89.2955
9.783292860202891 90.5648
9.805690935076182 91.7848
9.828089385495742 92.2056
9.850470754023561 93.9943
9.872869957865444 96.1615
9.89525208097539 99.0232
9.917652041736662 102.59
9.940052382417589 106.301
9.962435644102392 115.15299999999999
9.984836746950979 146.664
10.007220771957746 226.715
10.029622640473708 347.601
10.052007432299963 516.5830000000001
10.074410069984072 773.5889999999999
10.096813093716005 1201.68
10.119199042482517 1775.3
10.141602840636468 2097.96
10.163989564971628 1732.46
10.186394141051062 1033.78
10.208799107559706 453.483
10.231187001965623 202.265
10.253592751657669 125.536
10.275981430388155 107.671
10.298387966769793 103.29899999999999
10.320794897965431 102.335
10.343184759907361 101.06200000000001
10.36559248305461 99.1302
10.387983138083852 97.8298
10.410391656691655 98.9889
10.432800574501677 107.54799999999999
10.455192425893369 129.445
10.47760214443012 161.929
10.499994797678786 204.14
10.522405320453982 272.784
10.54479877906917 384.288
10.567210109595656 511.441
10.5896218454736 593.18
10.612016518879773 555.952
10.634429067781074 396.911
10.656824555333241 232.618
10.679237920773568 140.207
10.701651695961992 103.37299999999999
10.724048411481384 92.4948
10.746463008485165 86.3155
10.768860546937125 82.57
10.791275969274796 79.7631
10.81369180576079 78.6915
10.836090585366925 77.7497
10.858507252467449 76.4429
10.88090686379991 75.6198
10.903324365036394 74.6287
10.925724811614439 73.6597
10.948143150509463 73.4371
10.970561909719066 72.4498
10.992963615930844 71.5137
11.015383218085756 70.7159
11.037785768347074 69.78699999999999
11.06020621697282 69.436
11.082627090322113 68.9193
11.105030913430326 68.0314
11.12745263854165 67.6865
11.149857314510728 67.1802
11.172279894912576 68.0094
11.194702904450653 67.4453
11.217108866490921 66.4425
11.239532736615194 65.8475
11.26193956033512 65.3255
11.284364294577085 64.6838
11.306789462371718 63.8994
11.329197585398376 63.7845
11.351623622610898 63.8828
11.37403261614354 63.2097
11.396459526308487 62.8995
11.418869393879497 62.646
11.441297180532617 62.3182
11.463725406927658 62.0546
11.486136592353875 61.5923
11.508565700543707 61.2695
11.530977768845315 61.3953
11.553407762368774 61.0922
11.575838200059769 61.2129
11.598251599479612 60.8137
11.620682927815501 60.9437
11.64309721895548 60.7097
11.665529441478206 60.2248
11.687962112597958 60.0984
11.710377748130886 60.2137
11.732811318753434 59.9967
11.755227854859067 59.5881
11.777662328529495 59.7742
11.800079768750786 59.8284
11.822515149015453 59.8331
11.844950984084935 59.7727
11.867369787303163 59.8994
11.889806534289491 60.4895
11.912226250487029 61.9235
11.934663912939751 64.9917
11.9571020346363 67.42399999999999
11.979523127133968 67.8986
12.001962169624331 66.031
12.024384183972964 63.7954
12.046824150809913 64.2188
12.069264581333726 69.3792
12.091687985297767 76.6323
12.11412934550045 86.1925
12.136553680195208 99.0432
12.158995973632788 119.675
12.181438735204349 146.77700000000002
12.20386447284199 178.076
12.226308172985636 205.03099999999998
12.24873485024193 210.923
12.271179492516982 177.642
12.293607112949127 138.421
12.316052700916226 97.7164
12.338498763250042 74.6741
12.360927805303868 64.8357
12.383374818673879 62.2008
12.405804812803074 61.3047
12.428252780773262 61.3097
12.45070122756722 61.1341
12.473132656675375 61.2137
12.49558206341869 61.4592
12.518014453510101 61.3167
12.540464823770117 61.5936
12.562915677315177 61.8233
12.58534951575545 62.0906
12.607801338171472 61.8927
12.630236146511358 62.7736
12.652688941369085 63.4841
12.675124723177234 64.0401
12.697578494048786 64.2482
12.720032754458185 64.0032
12.742470003354093 63.8111
12.764925245138771 64.54899999999999
12.787363476431278 65.1008
12.809819703166806 65.3067
12.83227642391173 66.046
12.854716135692716 66.5262
12.877173846755147 67.6564
12.899614549869717 68.1011
12.9220732548287 68.9208
12.94453245827299 69.3823
12.966974655289818 70.4289
12.989434858002571 70.9302
13.011878055298721 71.6975
13.034339260862497 72.8087
13.056800969391883 74.3494
13.079245674017244 76.833
13.101708390774869 78.514
13.12415410463411 82.7294
13.146617833206086 92.787
13.169064559883248 107.89399999999999
13.191529303857127 126.176
13.213994557076367 148.683
13.236442809902437 181.23
13.258909083908291 229.264
13.28135835851934 292.656
13.30382565690295 369.8
13.326293469022952 436.82
13.348744283242008 454.05199999999996
13.371213125129904 385.12800000000004
13.39366497011003 282.87
13.416134845360597 185.56900000000002
13.438605238843131 127.428
13.46105863690397 102.81
13.483530069144786 99.2683
13.505984506951902 107.219
13.528456981549432 120.09
13.550929978879088 136.0
13.573385983253365 156.77200000000002
13.595860028340867 189.675
13.618317081455832 236.92700000000002
13.64079217790333 297.541
13.663250283359057 357.82099999999997
13.685726434770173 390.11400000000003
13.708203115221277 364.522
13.730662806148091 290.02099999999996
13.75314054697177 207.671
13.775601299246777 137.832
13.798080104050406 100.212
13.820559442405358 84.8338
13.843021793671388 79.7313
13.865502201420897 77.8615
13.887965623051947 77.0199
13.910447103807167 75.8645
13.932929122629764 74.7854
13.955394156785959 74.2342
13.977877254034569 73.6405
14.000343367582113 72.6611
14.022827546871707 71.8999
14.045294743423524 71.2368
14.06778000837062 70.6482
14.090265817715476 70.7773
14.112734645763819 71.6449
14.13522154619454 73.4169
14.157691466286913 74.90100000000001
14.180179461423874 75.423
14.202668005486178 73.3103
14.22513957064374 70.6469
14.247629214846473 68.8232
14.270101881097517 67.7496
14.29259262906496 67.3555
14.315083930490205 67.6098
14.337558255389705 67.3664
14.360050666019726 67.2464
14.382526101071944 67.1354
14.405019624534942 66.6983
14.427513705993134 66.3993
14.449990813291825 66.2424
14.47248601302899 66.0064
14.49496423954951 66.2492
14.517460561197822 66.3071
14.539939910570322 66.0522
14.562437357763558 66.5979
14.58493536931253 66.8209
14.607416409993311 66.8219
14.62991555254159 67.0515
14.652397725157423 67.2495
14.674898002342799 67.4889
14.697398848433282 67.5165
14.719882725991326 68.117
14.74238471217934 68.5797
14.764869730765593 70.4555
14.787372860692983 74.2847
14.809876564079925 80.9197
14.83236330125751 88.6985
14.854868153850365 97.4663
14.877356041159485 110.163
14.899862046604186 125.96700000000001
14.922351087688757 148.7
14.944858249632887 179.488
14.967365991421232 209.31799999999998
14.989856770231246 229.218
15.012365673994204 230.764
15.03485761569738 201.797
15.05736768508665 160.22899999999998
15.07987833888692 122.26100000000001
15.102372032001655 94.2806
15.124883856909658 77.4277
15.14737872204565 71.1743
15.169891721717274 68.6415
15.192405310371893 67.764
15.214901940621196 67.1505
15.237416709527137 66.7294
15.259914520936249 66.5423
15.282430473753607 65.6927
15.304947020131227 65.0927
15.327446610371178 64.9995
15.349964346154254 64.696
15.372465126703139 64.5093
15.394984055556009 64.5489
15.417486030076159 64.2762
15.44000615566487 63.7132
15.462526881230803 63.8021
15.485030653812652 63.5932
15.507552581617434 63.5236
15.530057557334603 63.538999999999994
15.55258069104857 63.5556
15.575104429329837 63.6967
15.597611216864632 63.4202
15.620136166564563 63.318999999999996
15.6426441664095 63.8019
15.665170331202765 65.2255
15.687697105158826 68.7469
15.710206930593545 73.7656
15.732734925158933 79.7645
15.755245972089478 86.6856
15.77777519094324 95.0707
15.800287463046663 105.85
15.822817909869592 123.227
15.84534897229804 143.504
15.867863089299354 169.33
15.890395385222186 190.968
15.912910736597423 202.952
15.935444269699861 194.614
15.957978423016485 169.96900000000002
15.980495633101265 134.863
16.003031029129367 105.113
16.02554948280019 81.7245
16.048086125229432 69.4828
16.070623392487107 64.8324
16.09314371869582 62.8687
16.11568223789321 61.1988
16.13820381691126 59.8461
16.160743591742527 59.1291
16.183283996022084 58.4641
16.205807461423195 57.7421
16.228349126881973 57.068000000000005
16.25087385432698 56.8961
16.27341678466365 56.1911
16.29594277784926 56.1757
16.31848697676433 55.6243
16.341031811604868 55.227
16.36355971058487 55.3811
16.3861058195587 54.9537
16.40863499352978 54.4958
16.431182380342005 54.1872
16.453730407713202 54.1269
16.476261501364792 53.7469
16.498810812136167 53.266000000000005
16.52134319004079 53.6031
16.54389378792203 53.5069
16.566445031001553 53.3368
16.588979342490088 53.1242
16.61153187824822 53.3175
16.634067483263312 52.9454
16.656621315414416 52.879
16.679175797408888 52.4632
16.701713349928728 52.5971
16.72426913389191 52.6741
16.74680798922351 52.678000000000004
16.76936507887444 52.7471
16.791905240734874 52.6544
16.814463639794468 52.855
16.837022695210294 52.8352
16.859564824093756 52.7971
16.882125194503903 53.0349
16.904668639217885 53.68
16.927230328348003 53.6732
16.949792678493612 54.3701
16.972338104193863 54.1939
16.994901778652235 53.9152
17.017448529496576 53.8373
17.040013531998152 53.9271
17.06257920018044 54.1188
17.0851279459922 54.8897
17.107694947817667 56.0152
17.130245028099072 57.2399
17.15281336730298 58.52
17.17536478578733 60.5578
17.19793446610687 62.2326
17.220504818648422 64.8876
17.243058251703697 67.8263
17.265629950971032 72.5792
17.288184731571736 77.5671
17.310757781306908 82.575
17.33333150794385 83.7377
17.355888317140174 82.8667
17.37846339986244 78.7582
17.401021565958885 72.5605
17.42359800851343 66.0554
17.44617513265564 61.5827
17.468735341390783 59.316
17.491261035594565 57.8518
17.51396340099364 57.3869
17.536490463869136 57.1887
17.559018209820174 57.2221
17.58154663977963 57.3353
17.604251766089718 57.6079
17.626781572227713 57.7869
17.64931206518155 58.0157
17.671843245885103 58.3218
17.69455114821572 58.4681
17.717083712612634 58.7504
17.739616967569667 59.4288
17.762150914021706 59.9524
17.78486160749854 60.2603
17.807396945166804 60.8388
17.829932977143503 61.2861
17.85246970436452 61.9367
17.875183204129467 63.5021
17.897721330097664 66.5979
17.920260154126645 69.7946
17.942799677153296 73.4504
17.9655159983646 77.3008
17.988056927677544 82.3264
18.010598558807683 88.7249
18.033140892692916 97.7557
18.05586005052525 108.943
18.07840379824407 121.463
18.10094825154059 133.317
18.12366954819864 142.639
18.146215420998306 144.686
18.16876200220057 138.355
18.191309292745153 124.119
18.214033452627167 109.21700000000001
18.236582170236648 96.2266
18.259131600016456 88.6682
18.281681742907335 86.2011
18.304408781233683 88.7528
18.32696035875955 94.1575
18.349512652227624 99.7686
18.372065662579683 105.667
18.394795594587553 107.585
18.41735004715306 105.081
18.43990521943684 98.6414
18.46246111238171 89.4529
18.485193953325208 79.3326
18.507751296070428 70.8435
18.530309362314178 65.8419
18.552868153000343 62.9631
18.57560391815056 61.4022
18.59816416623245 60.9606
18.620725141597372 60.2272
18.643286845190268 59.6787
18.666025549835414 59.222
18.688588718427933 58.3144
18.711152618092243 58.0987
18.73389353884365 57.9283
18.75645890921984 57.3863
18.77902501351406 57.0157
18.801591852673102 57.1781
18.824335739722738 56.6788
18.846904057212626 56.6923
18.8694731124168 56.1921
18.89204290628315 56.3664
18.914789774966803 56.0461
18.937361054791623 55.6552
18.959933076131318 55.5248
18.982505839934877 55.4445
19.00525570560582 55.4211
19.027829963004184 55.2137
19.05040496572238 55.121
19.072980714710468 55.1141
19.095733592739563 55.2361
19.11831084296757 55.3502
19.140888842324735 55.9842
19.16346759176222 56.3786
19.18622349753803 57.2229
19.208803755869358 58.0883
19.231384767143577 59.3027
19.253966532312948 60.9502
19.276725481241822 62.9521
19.29930876296784 65.6742
19.3218928014549 69.1361
19.34465404436217 72.1297
19.36723960516257 74.658
19.389825925592426 76.2396
19.412413006605938 75.4622
19.43517731967805 72.3832
19.457765930683355 67.9511
19.48035530514408 63.4891
19.50294544401556 59.5015
19.525712842708348 56.426
19.54830451925909 54.6149
19.570896963095727 53.0418
19.593490175174704 52.4593
19.616260674962184 52.4768
19.638855432416964 52.2011
19.661450960992624 52.331
19.68404726164677 52.1445
19.706820878021247 52.0573
19.729418731756834 52.0855
19.752017360452857 51.8051
19.77461676506804 51.9796
19.797393513540218 52.0368
19.819994478951667 52.1777
19.84259622316767 52.6951
19.8651987471481 53.1766
19.887978643247177 53.7722
19.91058273574792 54.4762
19.933187610901943 55.346000000000004
19.955969879466828 56.375
19.97857632894404 57.7751
20.00118356396599 59.3579
20.023791585494575 61.1862
20.046577028914875 63.7913
20.069186632506966 66.6454
20.091797025500632 69.179
20.114408208858933 70.6188
20.137196842715273 70.824
20.159809615886765 69.4258
20.18242318232135 66.8945
20.20503754298326 64.2363
20.227829382875154 62.7247
20.250445341109344 61.9604
20.27306209647285 62.4441
20.29567964993108 63.7152
20.31847471147704 64.683
20.34109387027612 65.6581
20.363713830075454 65.5485
20.386334591841646 64.1404
20.409132890679302 61.8685
20.431755265564437 58.4333
20.454378445325528 55.2042
20.477002430930366 52.8545
20.499803982716553 51.2569
20.522429589228004 50.2079
20.54505600449589 49.4414
20.567683229489194 49.5091
20.590488049900088 49.2147
20.61311690359731 49.0015
20.63574656993626 48.8588
20.658553853717297 48.4874
20.681185154618298 48.4116
20.703817271080066 48.1452
20.72645020407368 47.9217
20.749260783967177 48.2678
20.771895359337133 48.1582
20.794530754161617 47.9107
20.817166969412938 47.9414
20.83998086114876 47.8462
20.86261872660049 47.59
20.885257415405402 47.5892
20.90789692853701 47.4875
20.930714147864748 47.2687
20.953355319030678 47.4689
20.97599731745334 47.3886
20.99864014410749 47.3914
21.021460706796564 47.4199
21.044105199328826 47.599
21.06675052302631 47.8005
21.089396678865015 48.0574
21.112220600704806 48.2033
21.134868430275347 48.4979
21.15751709492456 49.0149
21.180166595629693 49.1457
21.202993892429635 49.5813
21.22564507473034 50.1494
21.24829709602816 50.533
21.27112693608965 50.6068
21.293780644891275 50.6168
21.316435195634053 50.0802
21.339090589297417 49.3527
21.361923832041875 48.6563
21.384580921090404 47.9591
21.407238856007325 47.4207
21.429897637773326 47.4983
21.45273429906592 47.4947
21.475394784108598 47.3861
21.498056118951983 47.1293
21.520718304578022 47.4307
21.543558400304388 47.777
21.566222297108816 47.7053
21.58888704765135 47.6217
21.61155265291521 47.8922
21.63439619898156 48.4746
21.657063523335786 48.9029
21.67973170537063 49.6733
21.7024007460706 50.1361
21.72524775840385 50.8928
21.747918526116475 52.1148
21.770590155457388 53.0579
21.79326264741238 54.4589
21.816113141960237 56.2065
21.838787368860547 58.181999999999995
21.861462461341976 60.412
21.884315579735777 63.0118
21.90699241312273 64.6037
21.92967011506078 65.479
21.95234868653799 65.437
21.9752053151131 64.0984
21.997885635446785 62.1154
22.020566828293532 60.0768
22.04324889464272 58.0591
22.066109049404666 56.5404
22.088792872571794 55.8443
22.111477572219204 55.7634
22.1341631493376 56.195
22.157026846313123 56.2973
22.179714188221507 55.5698
22.202402410582668 54.5332
22.22509151438863 52.6451
22.24795876962584 51.273
22.270649646204486 50.0571
22.293341407213727 49.1285
22.316034053646906 48.6109
22.338904883215342 47.9945
22.36159931041458 48.0031
22.38429462602756 47.7036
22.40699083104897 47.6345
22.429865251039757 47.791000000000004
22.452563244831367 47.6624
22.47526213102522 47.5642
22.49813925616515 47.7348
22.520839937143307 47.619
22.543541513520587 47.6854
22.56624398629403 47.3994
22.589124730075895 47.4778
22.611829005656723 47.6694
22.63453418063466 47.6188
22.657240256008077 47.7676
22.680124634582935 47.93899999999999
22.70283252079775 48.2244
22.725541310413075 48.6515
22.74825100442868 48.9332
22.771139033969575 49.7429
22.79385054687155 49.8939
22.81656296718292 50.5804
22.83927629590484 51.396
22.862167992606945 52.0574
22.88488314827121 53.3441
22.907599215359284 54.4111
22.93031619487366 55.8735
22.953211574954405 56.9863
22.975930389478226 57.8297
22.998650119445763 58.0561
23.02137076586092 57.4367
23.044269845560063 56.5181
23.06699233506288 54.9035
23.089715744034912 52.7651
23.112617610931565 51.0376
23.135342869061212 49.5654
23.158069049684816 48.7532
23.1807961538087 48.137
23.20370174880544 47.8595
23.226430710184808 47.8647
23.249160598093425 47.8945
23.271891413539002 47.875
23.294800752937697 47.8751
23.31753343374794 48.3522
23.340267045128353 48.742
23.36300158808808 49.1421
23.38591468821339 49.4965
23.408651104658304 49.817
23.431388455719986 50.3844
23.454126742409 51.1942
23.4770436196085 52.3273
23.499783787914662 53.4639
23.522524894889884 54.7589
23.54526694154616 55.9463
23.56818761219047 57.2779
23.59093154860734 58.1297
23.613676427751283 58.678000000000004
23.636422250635754 58.1504
23.659346731118656 56.4698
23.68209445191868 54.6517
23.704843119509587 52.2113
23.72759273490623 50.1642
23.750521041644767 48.497
23.77327256312355 46.998000000000005
23.796025035462787 46.0877
23.818956224555475 45.4965
23.841710609113413 45.291000000000004
23.86446594758979 45.0265
23.887222241002014 44.5711
23.910157285144578 44.3389
23.932915498962537 44.3387
23.955674670778713 44.218
23.978434801611975 44.0439
24.001373717286125 43.9906
24.024135776723917 43.88
24.046898798245582 43.7491
24.06966278287146 43.5569
24.092605586582614 43.3347
24.115371508023642 43.2247
24.1381383956401 43.038999999999994
24.16090625045381 43.1022
24.183852958731244 43.1255
24.206622758582608 42.8601
24.229393528706886 42.6546
24.252165270127392 42.646
24.27511589952438 42.7523
24.297889594216997 42.5208
24.32066426328598 42.3269
24.34343990775613 42.3788
24.36639447485003 42.306999999999995
24.38917208083877 42.2358
24.41195066531332 42.2241
24.43490819850244 42.2456
24.457688750692377 42.0535
24.48047028445616 41.9597
24.503252800821233 42.1289
24.526214300784112 42.2578
24.548998793132213 42.1574
24.57178427117417 42.0949
24.59457073593893 42.2249
24.617536219319863 42.2738
24.64032466834748 42.1557
24.663114107195035 42.0022
24.685904536893013 41.901
24.708874020360852 41.7094
24.731666442613744 41.6357
24.754459858818787 41.5867
24.777254270007962 41.3165
24.80022777025625 41.3724
24.82302418230472 41.2403
24.845821592443674 41.3582
24.86862000170663 41.3437
24.891597535453727 41.1589
24.914397953892728 41.4897
24.93719937456671 41.3746
24.96000179851076 41.6332
24.98298338249997 41.8533
25.00578782394922 41.9987
25.028593271784167 42.0827
25.05157790644186 42.538000000000004
25.07438537804115 42.792
25.097193859145293 43.1857
25.120003350792075 43.3983
25.142992065061257 43.7747
25.165803588823465 44.1039
25.18861612625217 44.158
25.211429678386736 44.3991
25.234422489079968 44.4745
25.257238081693636 44.4039
25.280054692141732 44.6927
25.3028723214652 44.5653
25.325869245420463 44.7218
25.348688923599397 44.8335
25.371509623787006 44.7483
25.394331347025812 44.4071
25.41733240110666 44.0074
25.440156181590016 43.2491
25.46298098826268 42.7273
25.48580682216873 42.1577
25.50881202326435 41.4072
25.53163992281684 40.8341
25.55446885274561 40.6162
25.577298814096377 40.2003
25.600308179121807 40.1035
25.623140214533745 40.167
25.64597328451537 40.102
25.66898578564376 39.7887
25.691820936010206 39.9644
25.714657124097695 39.8256
25.737494350954734 39.891
25.760511045684957 39.7178
25.783350361364224 39.7543
25.806190718969255 39.8782
25.82903211955018 40.06
25.852053024868923 39.9464
25.874896522722523 39.9563
25.897741066713106 39.934
25.920586657892454 39.9532
25.943611790812668 40.2005
25.966459487728237 40.196999999999996
25.989308234998564 40.2809
26.01215803367705 40.5833
26.03518741123814 40.9746
26.05803932412957 41.0703
26.080892291600094 41.1235
26.10374631470478 41.2845
26.12677995397268 41.4478
26.14963609978026 41.4242
26.172493304397875 40.9931
26.19535156888223 40.8272
26.218389486949604 40.3786
26.241249882640123 40.1435
26.26411134137826 39.7136
26.28715248187403 39.6797
26.31001607820869 39.4768
26.3328807407756 39.3678
26.35574647063438 39.5106
26.37879191991473 39.4198
26.401659795896734 39.4773
26.424528742360263 39.7169
26.447398760366614 39.9249
26.470448535598294 39.9991
26.49332070826805 40.1217
26.516193955675355 40.4562
26.53906827888316 40.6357
26.562122397260108 40.9296
26.584998883685063 41.2402
26.607876449110325 41.5587
26.63075509460056 41.9176
26.65381357334404 42.075
26.67669439061878 42.0072
26.699576291163382 42.0703
26.722459276044212 41.854
26.745522132402975 41.5467
26.768407297649354 41.333
26.791293550442003 40.9468
26.814180891848974 40.556999999999995
26.837248143099337 40.2879
26.860137673466657 40.2009
26.88302829566349 39.9731
26.90592001075963 39.7462
26.92899167420566 39.5685
26.951885586870763 39.1888
26.974780595655517 38.9444
26.99785558178161 38.7511
27.020752794605112 38.6067
27.043651106772522 38.3238
27.06655051935668 38.2442
27.089629948036183 38.187
27.112531573292053 38.3482
27.135434302194138 38.2529
27.158338135817015 37.9465
27.181422024430987 37.939
27.204328079372566 37.9315
27.22723524226965 37.9494
27.250143514198573 38.0479
27.273231880156334 37.9647
27.296142382065014 37.7906
27.319053996245536 37.7932
27.341966723775965 37.9115
27.365059584515222 37.8397
27.38797455070062 37.9138
27.410890633481237 37.8198
27.433807833936918 37.9435
27.456905206923906 37.9688
27.47982465472398 37.9236
27.502745223449743 38.1237
27.525666914182825 38.0549
27.548768816912457 38.0631
27.571692763693633 38.0661
27.59461783573812 37.9352
27.617723149491244 37.9445
27.640650484125285 37.7687
27.66357894728264 37.6873
27.686508540048052 37.4842
27.709618414237887 37.5312
27.732550278321757 37.3462
27.755483275279115 37.287
27.778417406196485 37.3614
27.801531858397514 37.4074
27.824468269376716 37.4325
27.847405817586786 37.4787
27.870344504116094 37.5015
27.893463551932008 37.5391
27.916404527281053 37.8049
27.93934664422563 37.9684
27.962289903855886 37.8628
27.98541356491974 38.257
28.00835912214229 38.4286
28.03130582533231 38.7882
28.054253675581805 39.0823
28.077381967556104 38.9588
28.100332124185126 38.9286
28.123283431160893 38.9178
28.146235889577238 38.6761
28.169368830154156 38.6487
28.192323603752033 38.2892
28.215279532083304 37.9907
28.238415973016764 37.7705
28.261374223145094 37.7105
28.284333631303806 37.28
28.307294198589954 37.1234
28.330435319167677 36.846
28.353398217078915 36.65
28.376362277420153 36.3681
28.39932750129032 36.2487
28.422473319286713 35.9598
28.44544088262495 35.9237
28.468409612800283 35.8473
28.491379510913497 35.4305
28.51453004413313 35.4182
28.53750229057244 35.4338
28.56047570826344 35.3151
28.583450298308804 35.4572
28.606605564586562 35.1683
28.629582511831156 35.1974
28.65256063474956 35.1037
28.675539934446338 35.159
28.698699951647605 34.9946
28.72168161743193 34.8864
28.74466446331978 34.9379
28.767648490417624 34.8551
28.790813276438353 34.8215
28.813799678527303 34.8754
28.836787265157085 34.8651
28.859955641890075 34.8962
28.882945610203045 34.9661
28.905936766392035 34.803000000000004
28.928929111566863 34.9153
28.952102288520145 34.8024
28.975097024308607 34.601
28.998092952423807 34.5987
29.021090073977508 34.3963
29.04426806913204 34.2737
29.067267590245258 34.0973
29.090268308143695 34.0984
29.11327022394099 34.0299
29.13645305530891 33.9424
29.159457379627167 33.9218
29.18246290519685 33.794000000000004
29.20546963313352 33.836
29.22865731875826 33.7449
29.25166646419296 33.7679
29.27467681535305 33.6826
29.29768837335608 33.7118
29.320880931312562 33.7897
29.34389491580634 33.833
29.366910110507334 33.7352
29.38992651653503 33.7491
29.41312396492981 33.9226
29.436142806456754 33.7539
29.45916286268059 33.6685
29.48236399319994 33.644
29.50538649169417 33.4166
29.528410208259935 33.3297
29.55143514402014 33.1085
29.574641196749695 33.0087
29.597668583816574 32.7896
29.6206971934585 32.7112
29.64372702680042 32.6748
29.666938019934474 32.6013
29.689970313635285 32.4156
29.713003834422636 32.4672
29.73603858342347 32.4285
29.759254535188578 32.2448
29.78229175361658 32.2369
29.80533020365064 32.2776
29.82836988641968 32.3487
29.85159081507472 32.1745
29.874632976355343 32.1048
29.89767637376955 32.1907
29.920721008448314 31.9604
29.9439469322847 32.0527
29.96699405457564 31.9216
29.9900424175358 32.1028
30.013092022298157 32.0608
30.03632295963995 31.9598
30.059375061131373 32.0324
30.08242840783577 31.9991
30.105483000888153 32.0304
30.128718970092244 31.866
30.151776069006917 31.9321
30.17483441768648 31.9963
30.198074175317235 31.9806
30.221135036724256 31.9208
30.24419715131772 31.8777
30.267260520236203 31.8641
30.290505341942243 31.897
30.313571232750228 31.9353
30.336638381310948 31.8184
30.35970678876503 31.8515
30.38295669299435 31.7465
30.40602763151657 31.8112
30.429099832366074 31.7467
30.452173296685572 31.5855
30.47542830191959 31.6605
30.498504306502497 31.6755
30.521581577995562 31.735
30.544660117543582 31.886
30.56792024229725 31.7884
30.59100133132069 31.7102
30.614083691845494 31.6695
30.637167325018545 31.9038
30.660432587840603 31.9173
30.683518779717886 31.863000000000003
30.70660624769615 31.8834
30.729694992924372 31.8457
30.75296541239743 31.9453
30.77605672557558 31.8136
30.799149319462742 31.7699
30.8224236211637 31.7167
30.845518789950724 31.5635
30.868615242910597 31.4833
30.891712981195973 31.3156
30.91499247215866 31.3464
30.938092794619365 31.3499
30.96119440587579 31.1669
30.984297307082752 31.0222
31.00758200598383 30.9004
31.030687500658694 30.8799
31.053794288760695 30.8435
31.076902371446767 30.7002
31.100192296997445 30.7305
31.12330298246119 30.669
31.14641496599209 30.5816
31.169528248749216 30.6038
31.19282341969534 30.5412
31.215939314557186 30.5884
31.239056512134788 30.5713
31.262175013589378 30.6063
31.28547544871168 30.4632
31.30859657161541 30.441999999999997
31.331719001892175 30.5098
31.35484274070538 30.6258
31.378148458819545 30.5718
31.401274828443725 30.5274
31.424402510106933 30.4989
31.447712205419993 30.6226
31.470842524931633 30.4856
31.493974159989783 30.5012
31.51710711176168 30.4225
31.54042212308802 30.4357
31.563557722100917 30.4754
31.586694641341655 30.3595
31.609832881979628 30.2469
31.63315322823208 30.2087
31.656294125521327 30.0629
31.679436347728515 30.0061
31.70257989602529 29.958000000000002
31.725905596152327 29.8535
31.74905181052835 29.761
31.772199354521323 29.945999999999998
31.79534822930507 29.8113
31.818679302290967 29.7086
31.84183085259981 29.7101
31.864983737233473 29.7341
31.88813795736804 29.8512
31.911474422233013 29.8226
31.934631327356435 29.8549
31.9577895715215 29.8005
31.980949155906522 29.7607
32.004291031706956 29.7765
32.027453310562606 29.6108
32.05061693318573 29.5328
32.07396288236386 29.5723
32.09712920658542 29.4491
32.12029687812702 29.3282
32.14346589817093 29.2276
32.166817291729984 29.1563
32.18998902288583 29.1151
32.21316210610336 29.0365
32.23633654256711 28.9953
32.259693399663725 28.9117
32.282870556771144 28.7406
32.30604907069099 28.7756
32.329228942610065 28.7289
32.35259128243769 28.5159
32.375773884550505 28.5767
32.398957848235646 28.4824
32.422143174682176 28.4995
32.445511016471215 28.3804
32.468699082679954 28.3385
32.49188851523011 28.2811
32.51507931531304 28.2635
32.538452678331 28.3232
32.56164622776311 28.249000000000002
32.58484114831493 28.1191
32.60803744118015 28.1361
32.631416344731896 28.1146
32.654615396551876 28.122
32.67781582427913 28.0853
32.701198898634416 27.9606
32.72440209253756 27.8607
32.747606665947124 27.8497
32.77081262006088 27.7823
32.79420126883317 27.7668
32.81740999876112 27.8449
32.840620112999424 27.7186
32.86383161274818 27.6469
32.88722585534586 27.6532
32.91044014056596 27.679000000000002
32.933655814909734 27.6517
32.95687287957963 27.5966
32.98027273544904 27.4717
33.00349259526636 27.4657
33.026713849030116 27.579
33.04993649794511 27.4507
33.073341986570746 27.4941
33.09656744032826 27.4848
33.11979429286444 27.5156
33.14302254538647 27.418000000000003
33.166433686291185 27.399
33.18966475336992 27.3003
33.212897224069096 27.3068
33.23613109959831 27.3286
33.259547912343415 27.2631
33.2827846121627 27.2377
33.306022720453775 27.2109
33.32926223842861 27.1565
33.352684742614166 27.0634
33.37592709463173 27.1244
33.399170859982064 27.0163
33.422597648419426 26.8865
33.44584425514446 26.7189
33.46909227885668 26.7851
33.4923417207723 26.695999999999998
33.51577423505344 26.6904
33.539026528130385 26.6225
33.56228024307245 26.5892
33.585535381098246 26.4233
33.60897364093058 26.3831
33.63223163992385 26.3986
33.6554910656699 26.2964
33.678751919389796 26.2084
33.702195944520106 26.2599
33.72545966903325 26.2931
33.74872482519663 26.2007
33.771991414233746 26.2269
33.79544122444841 26.1816
33.81871069412428 26.0515
33.84198160035767 26.0614
33.86525394437455 26.158
33.88870955949969 26.0371
33.911984794020626 25.9691
33.93526147001624 25.8865
33.958539588715006 25.9251
33.98200102861669 25.7994
34.0052820477047 25.7565
34.02856451319451 25.7577
34.05203033759056 25.7078
34.07531571090147 25.6947
34.09860253431845 25.5756
34.121890809074316 25.5008
34.145362493118924 25.525
34.16865368561615 25.4824
34.191946333164054 25.4582
34.21524043699793 25.4837
34.23871800066799 25.4862
34.26201503218366 25.2361
34.28531352370466 25.2543
34.30861347646881 25.2875
34.33209693978188 25.2026
34.3553998301885 25.1537
34.378704185565205 25.0698
34.402010007152356 25.1633
34.42549939016683 25.0811
34.44880815937748 24.8971
34.472118398533134 24.9736
34.49543010887669 24.9365
34.51892543169198 24.8471
34.54224009966052 24.864
34.56555624255917 24.822
34.58887386163339 24.7551
34.61237514439016 24.701999999999998
34.6356957311114 24.6663
34.65901779775809 24.6634
34.68252356662995 24.6479
34.705848608458616 24.5916
34.72917513396849 24.5251
34.75250314440949 24.5285
34.77601490857862 24.4786
34.799345904259795 24.3014
34.82267838863559 24.3903
34.846012362958525 24.3757
34.869530142679984 24.2736
34.89286711232212 24.281999999999996
34.91620557568269 24.2498
34.93954553401677 24.2132
34.9630693495876 24.1971
34.986412313340814 24.2002
35.00975677584668 24.1228
35.033102738362956 24.0858
35.05663261012228 24.0319
35.0799815881786 24.0246
35.10333207003229 23.9737
35.12668405694369 23.9632
35.150220005273056 23.9501
35.17357501786656 23.9642
35.19693153931268 23.8756
35.220289570874385 23.8666
35.24383161619786 23.8295
35.267192683604904 23.8211
35.290555264930376 23.796
35.314101899412165 23.7923
35.33746752422433 23.7189
35.36083466676374 23.7545
35.38420332829803 23.6722
35.407756095629054 23.6868
35.43112781085063 23.6978
35.45450104888391 23.6345
35.477875810999194 23.6435
35.50143473172161 23.6068
35.52481255774625 23.6843
35.54819191167777 23.5666
35.57157279478914 23.5108
35.595137889488406 23.4956
35.61852184675279 23.4462
35.641907337029984 23.362
35.665294361595684 23.2845
35.68886565090076 23.3595
35.7122557598848 23.3136
35.73564740699838 23.2253
35.759040593519934 23.2109
35.78261809810353 23.1692
35.80601437933051 23.0673
35.829412203814705 23.0405
35.85281157283719 22.9864
35.876395313415884 22.9811
35.8997977874528 22.9436
35.92320180988546 22.888
35.946790244133936 22.8604
35.97019737933222 22.9199
35.993606066789866 22.8466
36.01701630779276 22.905
36.04061101440684 22.7414
36.06402437852291 22.8601
36.08743930005611 22.768
36.1108557802951 22.7074
36.13445678011326 22.66
36.15787639383515 22.511999999999997
36.18129757014299 22.4898
36.20472031032821 22.5212
36.22832762423364 22.4858
36.25175350829375 22.4879
36.275180960119776 22.3436
36.298609981005924 22.3877
36.32222362992669 22.353
36.34565580510207 22.3544
36.36908955323448 22.3342
36.39252487562093 22.1896
36.416144880530226 22.1613
36.43958336764275 22.2021
36.463023432914625 22.1948
36.486465077645676 22.085
36.51009145956204 22.1837
36.53353627947859 22.15
36.55698268276811 22.1155
36.58043067073321 22.1107
36.60406345072071 22.0013
36.62751462435344 21.9596
36.65096738658405 22.0019
36.67460498210655 21.9396
36.69806093788647 21.8918
36.72151848619297 21.767
36.744977628333636 21.7811
36.76862165890998 21.6922
36.79208400512205 21.7307
36.81554794910557 21.7753
36.83901349217101 21.5756
36.862663978991606 21.5792
36.88613273667352 21.5191
36.90960309738324 21.5601
36.933075062434064 21.4103
36.95673202673572 21.4829
36.98020721697122 21.4283
37.003684015502365 21.3897
37.027162423645365 21.3597
37.050825886711465 21.288
37.07430753063053 21.2306
37.09779078812467 21.1904
37.121275660513014 21.2029
37.144945643673694 21.1518
37.16843376245278 21.0759
37.19192350009803 21.076
37.215414857931435 21.0616
37.239091382563885 21.0614
37.262585997426164 21.0227
37.28608223645736 21.0485
37.309763684451696 20.9906
37.33326318851098 20.8969
37.356764320726555 20.8672
37.380267082425526 20.8781
37.40395510942588 20.7987
37.42746114683234 20.7013
37.45096881771841 20.7949
37.474478123414166 20.6697
37.49817275092816 20.6987
37.52168534303452 20.6796
37.54519957395567 20.6286
37.568715445024665 20.6501
37.592416694607714 20.5493
37.61593586281424 20.539
37.63945667518264 20.5355
37.66297913304891 20.4196
37.68668702630454 20.449
37.710212792059274 20.4246
37.733740207334854 20.3728
37.757269273470364 20.328
37.780983832050374 20.292
37.80451621684926 20.2553
37.82805025654007 20.2662
37.851585952464795 20.1857
37.8753071980695 20.1055
37.89884622345676 20.0101
37.92238690911902 20.0889
37.94611318753442 20.0561
37.969657210779765 19.9967
37.99320289834801 20.0385
38.016750251586465 19.9674
38.04048325513017 19.9569
38.06403395679343 19.9009
38.087586328183946 19.7785
38.11114037065203 19.7998
38.13488012115898 19.8116
38.1584375229181 19.705
38.181996599821 19.7225
38.205557353221124 19.7151
38.229303872575656 19.6713
38.2528679961576 19.6541
38.27643380031219 19.5763
38.30000128639589 19.5894
38.32375459653193 19.6324
38.34732546371299 19.5394
38.37089801690786 19.4217
38.39447225747609 19.3347
38.418232380377425 19.3747
38.441810012983396 19.426
38.46538933705673 19.3643
38.488970353960084 19.3226
38.51273731166058 19.2548
38.536321731567014 19.2976
38.55990784840681 19.2109
38.58367995004091 19.1895
38.60726947812959 19.1437
38.63086070726198 19.1367
38.654453638806274 19.1496
38.678232613930824 19.0931
38.70182896773327 19.0515
38.72542702806741 19.0649
38.7490267963045 19.0153
38.77281266709232 18.9612
38.79641586862214 18.9369
38.8200207821842 18.9001
38.843627409152944 18.9191
38.86742019782782 18.8809
38.891030269149255 18.7286
38.914642058016156 18.7912
38.938255565806124 18.7922
38.96205529464307 18.7206
38.98567225787121 18.7482
39.00929094417078 18.7492
39.03291135492255 18.6548
39.05671804624804 18.6043
39.080341923549106 18.6307
39.103967529460334 18.5733
39.127594865365744 18.4833
39.15140854155791 18.47
39.17503935514948 18.4802
39.19867190290282 18.4818
39.22249083587951 18.4171
39.24612686969409 18.4416
39.269764641845306 18.3732
39.293404153722804 18.3389
39.317230110864074 18.2544
39.34087311998506 18.2407
39.36451787301696 18.1696
39.388164371352595 18.1537
39.41199737518003 18.1298
39.43564738196752 18.1524
39.45929913825317 18.1002
39.48295264543308 18.073
39.506792718520884 18.0483
39.530449745387216 18.0286
39.55410852735203 18.0346
39.57776906581474 18.0172
39.60161623079 17.9565
39.625280300200025 17.8803
39.64894613032202 17.8215
39.67261372255866 17.8515
39.6964680021016 17.9025
39.72013913657293 17.7843
39.74381203738292 17.8131
39.76748670593756 17.7714
39.79134812278169 17.7691
39.81502634488497 17.7116
39.83870633896685 17.65
39.862388106436654 17.6148
39.88625668336918 17.6711
39.90994201572829 17.612000000000002
39.933629125719285 17.5531
39.957503091207826 17.4985
39.9811937746168 17.53
40.00488623990914 17.4913
40.02858048850006 17.4555
40.05246165409549 17.3915
40.076159487492085 17.3771
40.099859108448875 17.3674
40.123560518384345 17.2973
40.1474489070226 17.2889
40.171153913178564 17.2546
40.194860712584955 17.2172
40.2185693066637 17.2016
40.242464941335314 17.2207
40.26617714307655 17.1593
40.289891143772046 17.1158
40.3136069448471 17.0591
40.33750984859743 17.0957
40.3612292688043 17.0418
40.3849504936829 17.0448
40.40867352466194 17.0233
40.43258372059144 16.9219
40.45631038219906 16.9721
40.48003885420956 16.9316
40.503769138055105 16.8735
40.52768664931955 16.8956
40.55142057531802 16.8686
40.57515631746428 16.8296
40.599079334038514 16.8172
40.62281872700477 16.7686
40.64655994043941 16.7578
40.67030297578061 16.6877
40.69423334835778 16.7346
40.71798004609188 16.6683
40.74172857006355 16.5997
40.76547892171441 16.6663
40.7894166736039 16.6022
40.813170699248566 16.5606
40.83692655691388 16.4963
40.86068424804498 16.5332
40.884629402612525 16.4522
40.908390779366385 16.5564
40.932153993938 16.5006
40.95591904777605 16.3921
40.979871628443995 16.3976
41.003640379561936 16.374000000000002
41.02741097430883 16.3464
41.05118341413683 16.3073
41.075143444384416 16.3363
41.098919593177826 16.3379
41.1226975914255 16.2596
41.14647744058318 16.1366
41.170444943946755 16.1177
41.19422851378379 16.0941
41.218013938914645 16.0945
41.24198706625173 16.0682
41.26577622087193 16.0173
41.289567235177785 16.0475
41.31336011063129 15.9623
41.337340752422875 15.9523
41.361137369129835 15.9116
41.38493585138705 15.9095
41.40873620066004 15.8774
41.43272438060107 15.8397
41.45652848292052 15.8126
41.48033445666918 15.7714
41.50414230331616 15.7837
41.528138045159764 15.7579
41.551949656675205 15.671
41.575763145513235 15.6797
41.59957851314666 15.7076
41.62358184070442 15.6623
41.64740098505737 15.6471
41.6712220126409 15.5871
41.69504492493139 15.5037
41.71905586207357 15.5682
41.74288256296395 15.5744
41.766711153007456 15.488
41.79054163368412 15.4973
41.814560204340054 15.4923
41.838394485526365 15.4671
41.86223066180303 15.4393
41.88625497706819 15.3788
41.910094962812 15.3471
41.93393684811168 15.3361
41.95778063445365 15.2489
41.981812625263366 15.2611
42.00566023303407 15.2369
42.029509746323676 15.1995
42.05336116662236 15.177999999999999
42.077400857069705 15.1937
42.10125611078846 15.1305
42.12511327600405 15.0923
42.14897235421036 15.0326
42.173019768448455 14.9946
42.19688269209613 15.0206
42.22074753323349 14.9941
42.24461429335818 14.9797
42.268669455600495 14.9501
42.292540073217886 14.9746
42.31641261433284 14.8847
42.34028708044675 14.9043
42.36435001496739 14.9409
42.38822835065557 14.8793
42.41210861586426 14.7372
42.4359908120986 14.812000000000001
42.46006154323262 14.8248
42.48394762115317 14.6563
42.507835634632315 14.6792
42.531912233047436 14.6817
42.55580413732265 14.6675
42.579697981698 14.6323
42.60359376768525 14.5783
42.62767820545945 14.6049
42.65157789440821 14.5656
42.67547952952185 14.5274
42.699383112316 14.5223
42.72347541395347 14.4312
42.74738291190531 14.394
42.771292362102166 14.4372
42.795203766063516 14.3827
42.819303956130405 14.4027
42.843219287476536 14.3062
42.86713657716324 14.3149
42.89105582671383 14.3352
42.91516392983864 14.289000000000001
42.939087119032166 14.2601
42.963012272677304 14.2673
42.98693939230129 14.2762
43.01105543317513 14.1676
43.034986504731386 14.1385
43.05891954686589 14.0884
43.08285456110972 14.1236
43.10697856448665 14.036
43.130917542983475 14.0412
43.15485849820081 14.0468
43.17880143167367 13.9589
43.20293342237094 13.9595
43.226880332449 13.9394
43.25082922540554 13.9604
43.27496722682525 13.9327
43.29892010567796 13.876
43.32287497204102 13.8629
43.34683182745632 13.8735
43.370977859791836 13.8521
43.39493871351105 13.8522
43.41890156092628 13.7749
43.44286640358341 13.7716
43.46702049182749 13.7833
43.49098934522816 13.6989
43.51496019852649 13.6704
43.5389330532723 13.6745
43.56309522248204 13.6352
43.58707210044314 13.6448
43.61105098451946 13.5762
43.63503187626491 13.5512
43.659202151562134 13.565999999999999
43.68318707902681 13.5384
43.70717401884041 13.5283
43.731162972560874 13.4656
43.75534137913236 13.4231
43.779334381108384 13.4322
43.803329401683186 13.4091
43.82732644241872 13.3687
43.8515130055166 13.3295
43.87551410707659 13.3163
43.89951723350145 13.3761
43.923709934595614 13.2681
43.94771713129917 13.2751
43.97172635758096 13.2653
43.99573761501002 13.1844
44.0199385169922 13.1806
44.04395385732619 13.2508
44.067971233533086 13.175999999999998
44.09199064718605 13.1592
44.11619977548961 13.0574
44.14022328470671 13.0014
44.16424883610785 13.0622
44.18827643127035 13.001
44.21249381139513 12.9823
44.236525514814076 12.9843
44.26055926674478 12.9636
44.28459506876863 12.9089
44.3088207262813 12.8473
44.33286064928722 12.9069
44.35690262714919 12.8887
44.38094666145278 12.8771
44.4051806219871 12.8593
44.42922879003185 12.794
44.45327901929361 12.7533
44.477331311362136 12.7943
44.501573600619416 12.7241
44.525630039221795 12.7026
44.54968854541895 12.696
44.573937102200176 12.714
44.5979997645541 12.6981
44.622064499300315 12.6635
44.64613130803592 12.6329
44.67038823869318 12.6128
44.69445921643748 12.5928
44.718532272981385 12.5561
44.742607409926194 12.5312
44.76687274034801 12.4768
44.79095205918753 12.4375
44.81503346325094 12.4497
44.839116954143876 12.4472
44.86339071028742 12.4205
44.88747839599524 12.3587
44.91156817336837 12.3454
44.93566004401666 12.3532
44.959942251908146 12.3043
44.984038330325966 12.2918
45.00813650686762 12.2277
45.03223678314731 12.267999999999999
45.05652746888232 12.1813
45.08063196592069 12.1707
45.104738567558705 12.1871
45.128847275414856 12.2039
45.15314646515866 12.1344
45.17725940679741 12.1121
45.20137445952892 12.0966
45.22568004865265 12.1054
45.24979934496396 12.0885
45.27392075725247 12.0274
45.29804428714431 11.9865
45.322358426247604 11.9972
45.346486212804315 12.0396
45.370616121861914 11.9614
45.39474815505086 11.9033
45.41907087049246 11.915
45.4432071734666 11.8827
45.46734560548283 11.8945
45.49148616817604 11.8147
45.51581748638564 11.8483
45.5399623320197 11.8127
45.56410931325473 11.7977
45.58825843173002 11.7901
45.61259837920865 11.8132
45.636751793816 11.7356
45.66090735060093 11.6867
45.68506505120716 11.6888
45.7094136545275 11.6705
45.73357566449271 11.5757
45.75773982322992 11.6581
45.78190613238733 11.6067
45.806263418194064 11.568
45.83043404997326 11.5905
45.85460683713677 11.5456
45.87897065658495 11.5214
45.90314777634752 11.4773
45.92732705646868 11.5215
45.9515084986045 11.4825
45.97588104735473 11.4263
46.00006683541565 11.4228
46.02425479047904 11.3209
46.04844491420549 11.3711
46.0728262191024 11.369000000000002
46.09702070211635 11.3135
46.12121735879483 11.3221
46.14541619080294 11.2646
46.169806278764455 11.2932
46.194009483459034 11.3223
46.21821486849841 11.2485
46.24242243555223 11.2157
46.266821333570014 11.1891
46.29103328674601 11.2043
46.31524742696538 11.171
46.33946375590237 11.1278
46.36387149104216 11.106
46.38809221957392 11.0417
46.41231514186606 11.0723
46.436540259597464 11.0643
46.460956858999374 10.9857
46.48518638983522 11.0106
46.509418121166966 10.974
46.533652054678114 10.9704
46.55807754555709 10.9121
46.58231590571962 10.8878
46.60655647313217 10.8783
46.630988654873654 10.8784
46.655233659129024 10.8621
46.67948087571551 10.8277
46.70373030632484 10.8422
46.72817142736393 10.809000000000001
46.752425308428684 10.7856
46.77668140861147 10.8033
46.80093972960865 10.7361
46.82538981736788 10.7288
46.849652602470904 10.722000000000001
46.87391761349769 10.6753
46.8981848521493 10.6661
46.9226439341274 10.6518
46.946915650573224 10.5794
46.97118959976749 10.6058
46.99546578341598 10.6043
47.019933887188216 10.5751
47.04421456235744 10.557
47.06849747711879 10.4902
47.09278263318286 10.5218
47.11725978640143 10.4709
47.14154944775105 10.4903
47.165841355555656 10.5004
47.1901355115306 10.4457
47.214621741924994 10.4235
47.23892041698887 10.3843
47.26322134538975 10.3365
47.28771440635075 10.3381
47.31201986422527 10.3599
47.33632758061436 10.337
47.360637557241866 10.2975
47.38513974410611 10.3041
47.40945426407847 10.2519
47.43377104948137 10.267999999999999
47.45809010204344 10.2457
47.48260144275502 10.1757
47.506925052572285 10.1717
47.53125093475548 10.1304
47.55557909103813 10.1379
47.58009961361992 10.144
47.60443234110732 10.0774
47.62876734791564 10.0765
47.65310463578333 10.0745
47.6776343683373 10.0627
47.7019762413987 9.99975
47.72632040075572 9.98136
47.75066684815169 9.99513
47.77520581885936 9.98908
47.799556865477655 9.953389999999999
47.823910205386 9.94633
47.84826584033272 9.927010000000001
47.87281407745551 9.90894
47.89717432569297 9.905
47.92153687423484 9.88754
47.94609208429692 9.88425
47.97045925671401 9.83204
47.99482873471275 9.76853
48.01920052005013 9.76642
48.04376504619224 9.789530000000001
48.068141469543484 9.81363
48.09252020552573 9.74654
48.11690125590099 9.70963
48.1414751266064 9.70888
48.16586082917454 9.71712
48.19024885144316 9.70234
48.2146391951793 9.67501
48.239222439012764 9.64172
48.26361744916137 9.64023
48.28801478610016 9.61508
48.31241445160131 9.595289999999999
48.337007097209366 9.573739999999999
48.36141144338331 9.57276
48.38581812345755 9.53715
48.41022713920929 9.54932
48.434829215320704 9.51697
48.45924292604658 9.480080000000001
48.48365897780325 9.500919999999999
48.50807737237308 9.470239999999999
48.532688907799276 9.46918
48.55711201168574 9.43305
48.581537463754074 9.412989999999999
48.60615611725119 9.4024
48.63058628942721 9.37004
48.65501881516546 9.37685
48.6794536962573 9.30612
48.70408185970339 9.31723
48.72852147531801 9.328339999999999
48.75296345168211 9.285039999999999
48.77740779059232 9.276589999999999
48.80204549302823 9.2705
48.82649458091802 9.24792
48.85094603676547 9.21752
48.87539986237231 9.1963
48.90004713292306 9.164530000000001
48.92450572200832 9.15205
48.94896668628025 9.17225
48.97343002754588 9.15285
48.99808689542115 9.10115
49.02255501470614 9.11003
49.04702551642794 9.08666
49.0714984023988 9.05278
49.096164896893235 9.02166
49.120642575466796 9.00421
49.145122643748394 9.00298
49.16960510355558 9.01946
49.19428125404938 9.00896
49.2187685210852 8.96392
49.243258185121555 8.91655
49.26794160167084 8.91131
49.2924360839405 8.88611
49.31693296869764 8.89482
49.34143225776915 8.87847
49.36612538195438 8.82998
49.39062950396021 8.84469
49.41513603578346 8.84871
49.4396449792564 8.82
49.46434784069503 8.80968
49.488861631846454 8.77187
49.513377840166804 8.740219999999999
49.537896467493745 8.692960000000001
49.56260909589029 8.698039999999999
49.587132585683285 8.71467
49.611658500018365 8.695139999999999
49.636186840738596 8.70164
49.66090926588511 8.67202
49.685442483902584 8.646939999999999
49.70997813385706 8.60935
49.734516217597076 8.606160000000001
49.75924846937352 8.58663
49.7837914452858 8.59195
49.80833686055187 8.558639999999999
49.83288471702571 8.54523
49.85762682540054 8.52914
49.882179588965734 8.520589999999999
49.9067347993235 8.48799
49.93129245833333 8.51228
49.95604445336378 8.483130000000001
49.98060703442832 8.43982
50.005172069746266 8.41918
50.02993150438364 8.42049
50.05450147301533 8.392430000000001
50.07907390151433 8.37754
50.10364879174981 8.362810000000001
50.12841816587289 8.365960000000001
50.1529980044635 8.3345
50.17758031042124 8.28638
50.20216508562089 8.27854
50.22694442953363 8.27334
50.25153416817468 8.255460000000001
50.27612638170508 8.21615
50.300721072005196 8.24365
50.325510416102105 8.211969999999999
50.350110084975064 8.17849
50.37471223628208 8.19276
50.39931687190919 8.2138
50.424116246675766 8.1465
50.44872587605249 8.13911
50.47333799543065 8.12845
50.49795260670191 8.08256
50.52276204271512 8.10131
50.54738166295838 8.097660000000001
50.57200378079314 8.06664
50.596628398116835 8.03382
50.62144792604559 8.04014
50.646077567609396 7.99367
50.670709714377715 8.01568
50.69553683636198 7.996360000000001
50.72017401885922 7.96967
50.7448137122895 7.97397
50.76945591856022 7.94602
50.79429318636823 7.906039999999999
50.818940443716784 7.89773
50.84359021965163 7.87137
50.868242516085964 7.8504
50.893089960641895 7.8554
50.917747323549435 7.840260000000001
50.94240721271973 7.856510000000001
50.96706963007175 7.81579
50.99192728239342 7.80805
51.01659478166073 7.8034
51.04126481489051 7.76875
51.06593738400761 7.76757
51.090805275207074 7.72071
51.11548294172845 7.72253
51.14016314993547 7.68156
51.164845901758845 7.67068
51.18972406304274 7.645980000000001
51.21441192780656 7.64213
51.23910234200271 7.64642
51.2637953075678 7.6150899999999995
51.288683770237945 7.599060000000001
51.31338186432707 7.600210000000001
51.33808251561888 7.548960000000001
51.362978729967345 7.55695
51.387684521509755 7.52711
51.41239287610203 7.537910000000001
51.437103795691165 7.50347
51.46201036644977 7.513999999999999
51.486726441956634 7.48532
51.51144508832545 7.43611
51.536166307509156 7.446860000000001
51.56108326624387 7.4193
51.58580965706056 7.45097
51.61053862657523 7.40172
51.635270176746864 7.3921399999999995
51.66019755512065 7.395589999999999
51.68493429268881 7.35802
51.70967361681515 7.31686
51.73441552946465 7.32291
51.759353359237934 7.34117
51.7841004750961 7.3296
51.80885018539685 7.2891
51.833602492111254 7.25148
51.8585508051424 7.25213
51.883308330926425 7.25322
51.90806845906181 7.20793
51.932831191525715 7.191789999999999
51.95779001977161 7.1985399999999995
51.98255798721516 7.18425
52.00732856494335 7.142739999999999
52.03229530577543 7.156280000000001
52.057071130455945 7.14041
52.081849571391054 7.1558
52.106630630568695 7.12772
52.13160794279417 7.08845
52.15639426492067 7.05605
52.18118321127822 7.057239999999999
52.205974783860896 7.05507
52.23096269971011 7.055289999999999
52.255759551287994 7.023560000000001
52.280559035098186 6.99752
52.30536115314103 6.95463
52.33035970494467 6.9980199999999995
52.35516711807904 6.976710000000001
52.37997717147198 6.95215
52.40478986713005 6.933089999999999
52.42979908731974 6.88828
52.454617094216 6.8844899999999996
52.47943774942214 6.8945300000000005
52.50426105495102 6.846089999999999
52.529280976059844 6.836189999999999
52.554109609024096 6.85946
52.57894089837482 6.82676
52.60377484613117 6.802510000000001
52.62880550079408 6.798769999999999
52.65364479223379 6.776089999999999
52.67848674816189 6.74931
52.70352547971946 6.7276
52.72837279155837 6.73048
52.753222773982785 6.727180000000001
52.778075429022984 6.7248
52.80312495150885 6.687689999999999
52.827982978797436 6.708539999999999
52.85284368481815 6.6600600000000005
52.87770707160767 6.66708
52.90276741793998 6.65308
52.92763619336701 6.63316
52.952507655698504 6.614210000000001
52.977381806977576 6.6159
53.00245301017842 6.6143
53.02733256653592 6.599660000000001
53.052214817996074 6.5811399999999995
53.077099766608484 6.53768
53.102181859804446 6.5449
53.127072229988265 6.5183800000000005
53.15196530349892 6.51246
53.17686108239249 6.50215
53.20195409881522 6.50969
53.22685531582556 6.47154
53.25175924441303 6.42601
53.27666588664027 6.41266
53.30176985962693 6.41632
53.3266819565689 6.4217
53.35159677336455 6.4402800000000004
53.376514312083096 6.38935
53.40162927507703 6.34463
53.42655228516116 6.36425
53.45147802340193 6.33854
53.47660125628886 6.33171
53.50153247842639 6.32869
53.52646643496923 6.30684
53.55140312799818 6.2538
53.576537409691696 6.27562
53.60147960336152 6.2535099999999995
53.626424539786164 6.24446
53.65137222105307 6.25448
53.67651758529126 6.22501
53.70147078399681 6.1757
53.72642673383343 6.19339
53.75138543689533 6.22087
53.776541917524526 6.1820699999999995
53.801506154876755 6.15005
53.826473151763246 6.1166599999999995
53.851442910284916 6.08764
53.87661054126026 6.12606
53.9015858509782 6.07085
53.92656392866066 6.03578
53.95154477641532 6.09575
53.976723591801296 6.07672
54.00171000771266 6.0698
54.02669920004598 6.01017
54.051691170915745 6.01167
54.076881204886796 6.0136400000000005
54.101878760928514 6.007000000000001
54.12687910187696 5.997809999999999
54.152077577768296 5.98417
54.1770835166946 5.900580000000001
54.20209224691339 5.9148
54.22710377055121 5.879169999999999
54.25231352511594 5.89575
54.27733066384342 5.89266
54.30235060239643 5.87554
54.32737334290836 5.81727
54.35259441062629 5.80503
54.377622783395324 5.81008
54.40265396455061 5.81869
54.42768795623251 5.83097
54.45292037169559 5.764869999999999
54.477960012857906 5.76422
54.50300247099511 5.76843
54.52804774825457 5.72294
54.55329154616743 5.68079
54.57834249018678 5.703530000000001
54.6033962597977 5.67649
54.6284528571545 5.69439
54.653708072335164 5.632680000000001
54.67877035378786 5.6016699999999995
54.70383546947698 5.59488
54.72890342156389 5.52805
54.7541700889442 5.50632
54.77924374251975 5.53214
54.8043202390049 5.49784
54.82959552413022 5.50375
54.8546777351945 5.487509999999999
54.87976279569621 5.42207
54.90485070780914 5.4587900000000005
54.930137506558005 5.41395
54.95523115074295 5.457330000000001
54.98032765308844 5.39165
55.005427015775496 5.333080000000001
55.03072536339621 5.30417
55.05583047570572 5.31375
55.080938454927676 5.3150900000000005
55.10604930325027 5.30275
55.131359235107396 5.27541
55.15647585066083 5.2775
55.181595341907496 5.19949
55.20671771104285 5.21729
55.232039262617704 5.18308
55.25716741665048 5.14307
55.28229845518636 5.1378
55.30743238042802 5.10398
55.33276558731939 5.07067
55.357905315183636 5.11806
55.383047936390035 5.0856900000000005
55.40819345314859 5.0406699999999995
55.433538351073295 5.0167
55.458689688238415 4.9742
55.483843927614096 4.93997
55.509197623043605 4.97996
55.53435769621134 4.91965
55.55952067826466 4.82816
55.5846865714265 4.87071
55.61005202069737 4.85691
55.63522376553902 4.86262
55.66039842818645 4.83994
55.68557601087004 4.81876
55.7109532500271 4.7470300000000005
55.73613670233794 4.775930000000001
