TT I
1.2716486653135266 32.923
1.2939594142134223 33.6307
1.3162702121660406 32.1928
1.3385810600174564 30.991999999999997
1.3608919586137629 30.6048
1.383202908801069 29.8558
1.405513911425503 28.8775
1.4278249673332093 28.1131
1.4501343378461518 27.9209
1.4724455028545926 26.9227
1.4947567236847858 26.5642
1.517068001182951 26.204
1.5393793361953272 26.1684
1.5616907295681737 25.861
1.5840021821477681 25.3697
1.60631369478041 23.9771
1.6286252683124185 24.0673
1.6509369035901333 23.6369
1.6732468618895553 23.9123
1.695558623192809 23.2219
1.7178704487808514 23.2492
1.7401823395001077 23.2188
1.7625012545597203 22.8464
1.7848028405262486 23.0947
1.8071218901122095 22.087
1.8294236121921872 21.4674
1.8517427996910911 22.6344
1.8740620574440425 22.6044
1.8963639900671978 22.0275
1.9186833908139995 21.854
1.9409854680117449 22.9034
1.9633050151394713 22.7175
1.9856246367570705 21.8709
2.0079269371922672 22.0576
2.03024671027244 22.5074
2.0525491637446027 22.2883
2.074869091674931 22.3543
2.097171701569106 23.4291
2.1194917877373847 23.0905
2.141811954326636 23.9276
2.164114805233074 24.3273
2.186435135143035 24.5349
2.208738150935709 25.0042
2.231058647554722 25.4194
2.2533792288321184 25.2833
2.275682498336085 25.5963
2.298003251406138 25.4559
2.3203066942619714 25.0956
2.3426276225136022 24.6885
2.3649486396617507 24.0166
2.387252348930071 23.9579
2.4095735463442893 23.1658
2.4318774374315884 23.9632
2.4541988185014043 23.7052
2.476502894794693 24.4688
2.498824462909887 23.4933
2.521146125856138 23.3265
2.5434504863470337 24.4947
2.5657723414244717 24.5793
2.588076895590662 25.1901
2.610398946189713 25.1332
2.6327210958598384 25.0177
2.6550259469304716 25.4087
2.6773482972090137 26.2123
2.6996533504259 27.2435
2.7219759047039602 28.0778
2.744298562293959 29.5133
2.7666039251246595 30.0489
2.7889267918020164 31.28
2.8112323652516555 32.4231
2.833555444408179 33.5495
2.8558786311183852 35.9095
2.8781845268938557 37.4571
2.9005079311721484 40.3828
2.9228140460410397 42.0281
2.9451376712799635 44.6313
2.967444008632326 47.5594
2.9897678582247247 51.4882
3.0120918213106695 55.7513
3.0343984987899373 59.7539
3.0567226913198637 64.4554
3.079029599759726 69.6348
3.101354025127254 74.5353
3.123678568232338 77.83
3.145985829517914 79.6128
3.16831061055229 80.1164
3.1906181112775593 79.3998
3.212943133635653 77.6125
3.2352682779763207 72.3362
3.2575761442691227 67.5956
3.2799015350264273 61.9424
3.302209649240067 56.4517
3.3245352898092655 51.0846
3.3468436553365257 47.0095
3.369169549113219 43.4446
3.3914955708171384 41.0832
3.413804319727358 38.666
3.4361305997334863 36.3214
3.4584396084414553 35.7313
3.4807661501462652 34.9794
3.503092824025881 34.8788
3.5254022288463154 34.3022
3.5477291695206588 34.7931
3.5700388426251948 35.2376
3.5923660534916446 36.608000000000004
3.6146934007816114 37.9854
3.637003482731501 39.1276
3.6593311053109985 39.5041
3.681641464033634 39.6313
3.7039693653009733 39.3174
3.726297407241705 38.6551
3.7486081875460804 36.692
3.7709365132734978 35.4632
3.793247578841633 34.3298
3.8155761917550093 33.2386
3.8378875459837216 32.9722
3.8602164494827234 32.4759
3.882545499606844 32.2771
3.9048572932539183 32.353
3.9271866390645718 32.7261
3.9494987298666713 32.9494
3.971828374764527 33.5353
3.9941581705403255 33.6614
4.016470713506008 34.4714
4.038800813471445 35.8645
4.061113662089144 36.6191
4.0834440696459176 38.9049
4.105774632334751 40.702
4.128087945865126 42.9543
4.150418821249301 46.0755
4.172732448931298 50.817
4.195063640413578 56.9255
4.2173775856475215 62.9976
4.239709096631102 69.5371
4.262040768704612 76.387
4.284355196706267 81.2455
4.306687193387355 82.9114
4.329001947444346 82.0809
4.35133427213731 76.5013
4.373666762177566 70.5281
4.395982011761091 65.1099
4.418314834921175 60.3035
4.44063041906622 58.0884
4.4629635787515625 56.2868
4.4852969080429785 55.1513
4.5076130004776225 53.0736
4.529946671403969 50.5683
4.552263106909177 48.5271
4.574597122877047 47.224
4.596931312711224 46.6163
4.619248269273446 45.9802
4.6415828092605835 45.0921
4.663900117405352 44.481
4.686235010953232 44.9423
4.708552674085913 45.5106
4.730887924602802 46.1067
4.753223354952695 46.8265
4.775541557023902 48.0145
4.797877349456786 49.2902
4.820195915032126 51.1269
4.842532072957498 52.5386
4.864868414979744 54.8169
4.88718753227192 57.1103
4.909524244902505 59.7158
4.931843734218147 63.0418
4.954180820867835 67.544
4.976518095879839 72.3655
4.998838149695359 78.8591
5.021175803844231 89.0386
5.043496238205739 101.57700000000001
5.065834274903528 114.015
5.088172504230693 126.30799999999999
5.1104935158799565 140.79399999999998
5.132832132875765 163.28
5.155153533596801 191.283
5.1774925416746225 230.942
5.199814334878411 298.297
5.2221537374521505 425.73400000000004
5.244493338631803 627.3380000000001
5.266815727034316 893.439
5.289155727832427 1317.26
5.311478517248165 2228.6
5.333818921080011 3477.43
5.356159527788849 4310.81
5.3784829252032536 3503.15
5.400823940070432 2087.75
5.423147747031976 1011.72
5.445489173474152 528.261
5.467830807066149 342.20599999999996
5.490155234831516 258.078
5.512497285125229 206.43
5.534822130975162 176.235
5.557164601388673 154.314
5.579489868738879 137.19899999999998
5.601832762690846 126.225
5.6241758697774475 117.936
5.646501775867269 113.148
5.668845311622074 109.852
5.691171647754637 107.404
5.713515615597765 104.33200000000001
5.735859800852677 101.221
5.758186788542988 97.7996
5.780531411018185 97.3536
5.802858837297399 97.2289
5.825203900414495 98.09200000000001
5.8475491852224 100.06
5.869877275883075 103.336
5.892223006467101 108.265
5.914551544266608 114.001
5.936897724049891 122.36
5.959244129804903 134.536
5.981573344815301 153.539
6.0039202049061 181.748
6.026249875609095 228.74099999999999
6.04859719346037 293.904
6.070927323278297 381.8
6.093275102315365 501.385
6.115623113320588 649.227
6.137953938319995 897.946
6.160302415650845 1212.73
6.182633708324452 1278.41
6.2049826554078376 1043.82
6.227331838745022 673.8330000000001
6.249663839443684 416.35900000000004
6.27201349767565 279.05
6.294345974611799 203.90200000000002
6.316696111167083 154.453
6.339046488263839 123.79299999999999
6.361379686074702 104.625
6.383730546639482 91.7168
6.406064229255215 81.4472
6.428415576718203 74.8422
6.450749747566656 69.7326
6.47310158535871 65.5226
6.495453669698332 61.9114
6.517788579421056 59.1823
6.540141159237969 57.0283
6.562476565766648 55.8095
6.5848296444934045 54.9629
6.607182974060425 54.1809
6.6295191323281015 54.6666
6.651872965955752 54.6663
6.6742096296068985 55.4971
6.6965639707294615 56.4575
6.71891856698715 56.9798
6.741255995248479 57.093
6.763611104154477 56.5909
6.785949046381137 54.9946
6.808304671371482 52.9767
6.8306605557940046 51.5658
6.852999275508618 49.3494
6.875355681171544 47.9801
6.897694923437771 46.3035
6.92005185377892 45.3398
6.9423916220322655 44.4586
6.964749080490181 43.1363
6.987106804399774 42.0851
7.009447368180821 42.5596
7.031805625367033 42.2019
7.054146723727803 42.5118
7.076505517631004 42.7595
7.098864581288365 42.9311
7.121206488070854 43.3075
7.143566093607822 44.4982
7.165908543567245 45.5827
7.188268694426048 47.4105
7.2106291193438095 49.5629
7.232972390625943 52.7601
7.255333366030969 56.5564
7.277677189091925 62.1402
7.300038718428332 68.0618
7.322400526130865 71.715
7.344745183422596 72.0811
7.367107550224791 68.5913
7.389452767901992 63.4486
7.411815697249891 58.3202
7.434161478756298 53.3771
7.456524974096713 50.203
7.478888753837185 48.6082
7.501235387657368 49.3773
7.523599738562711 53.6765
7.545946944825532 69.2953
7.568311870344528 104.436
7.5906770845765665 148.496
7.613025156078678 149.929
7.635390950099687 106.595
7.657739602662809 68.2122
7.680105979923558 50.369
7.702472650212829 43.8677
7.724822180948224 41.0575
7.747189439655568 39.6309
7.769539560075357 38.689
7.791907410653562 38.3615
7.81425812420825 37.9761
7.836626570110925 37.4809
7.858995315087906 37.5343
7.881346924933401 37.9919
7.903716270417482 37.8738
7.926068482028405 37.9376
7.948438431475253 38.1062
7.9708086843180235 38.0309
7.993161805171116 38.423
8.015532667162402 38.6935
8.037886398416653 39.3072
8.060257873014221 39.6907
8.082629655331942 39.9549
8.104984308787587 40.4542
8.127356708900503 41.233000000000004
8.149711981398308 41.9646
8.172085002766314 42.7294
8.194458336181368 43.4333
8.216814543847752 44.4457
8.23918850371002 45.2954
8.26154533906492 45.8996
8.283919928836452 47.1319
8.306277395339652 47.8501
8.328652618483376 48.9285
8.351028159736202 51.0932
8.373386579575245 52.9771
8.395762759396959 55.4511
8.418121819038275 58.2279
8.440498640894003 62.4512
8.462875785192262 67.4613
8.485235811156207 73.5117
8.507613602688501 81.7287
8.529974277114228 95.4594
8.552352719347912 113.486
8.574731488360351 141.392
8.59709314210385 175.398
8.619472567021075 204.574
8.64183487789147 237.003
8.664214962183097 306.24
8.686577933647762 443.476
8.708958680784317 637.67
8.731339760774953 786.823
8.753703729764451 760.456
8.77608547780821 558.399
8.798450116065078 362.597
8.820832535634787 233.68200000000002
8.843215292401656 161.83
8.865580941199045 124.109
8.887964374703538 103.25299999999999
8.910330701447199 91.3886
8.932714815164482 83.2559
8.955099270424924 77.3854
8.977466620733543 73.4627
8.999851761421976 70.7539
9.022219798361645 67.358
9.04460562795561 65.2794
9.066991803441677 62.9701
9.089360876979615 61.9757
9.111747746589993 61.1389
9.13411751544971 60.5573
9.156505082664324 60.385
9.178875550323522 62.0622
9.20126381862328 65.0324
9.223652438908596 71.4595
9.246023961427412 90.9829
9.26841328802173 143.972
9.290785518039224 219.998
9.313175554425882 261.015
9.335565947154315 212.93099999999998
9.357939245086508 135.32299999999998
9.380330352834827 88.3055
9.40270436697103 68.4805
9.425096193225055 61.0995
9.447488380180165 57.9783
9.469863475295412 55.97
9.492256385987508 54.702
9.514632206018318 54.1714
9.537025843935714 53.5244
9.559402392368193 53.1345
9.581796761000229 53.7772
9.604191496441521 53.9647
9.626569144158516 53.9112
9.648964615551032 54.6407
9.671343000390081 54.8454
9.693739211225699 55.73
9.716135793237463 56.7269
9.738515290448102 57.0678
9.760912617143402 57.4443
9.783292860202891 58.5563
9.805690935076182 59.6854
9.828089385495742 60.3719
9.850470754023561 62.4058
9.872869957865444 64.5685
9.89525208097539 67.0951
9.917652041736662 69.7404
9.940052382417589 73.5029
9.962435644102392 78.4917
9.984836746950979 85.0311
10.007220771957746 93.6167
10.029622640473708 108.473
10.052007432299963 130.024
10.074410069984072 153.405
10.096813093716005 177.354
10.119199042482517 195.27599999999998
10.141602840636468 221.93
10.163989564971628 275.938
10.186394141051062 391.95
10.208799107559706 568.4680000000001
10.231187001965623 742.1469999999999
10.253592751657669 800.8989999999999
10.275981430388155 666.038
10.298387966769793 457.836
10.320794897965431 303.493
10.343184759907361 206.046
10.36559248305461 149.986
10.387983138083852 119.904
10.410391656691655 102.712
10.432800574501677 91.9779
10.455192425893369 85.9189
10.47760214443012 84.3923
10.499994797678786 85.4381
10.522405320453982 89.0329
10.54479877906917 92.9955
10.567210109595656 95.1632
10.5896218454736 97.7213
10.612016518879773 108.301
10.634429067781074 132.966
10.656824555333241 176.423
10.679237920773568 236.09
10.701651695961992 281.353
10.724048411481384 280.26599999999996
10.746463008485165 237.72799999999998
10.768860546937125 180.834
10.791275969274796 124.23200000000001
10.81369180576079 88.1019
10.836090585366925 69.4755
10.858507252467449 59.9505
10.88090686379991 55.0914
10.903324365036394 52.0681
10.925724811614439 49.5178
10.948143150509463 48.558
10.970561909719066 47.3823
10.992963615930844 46.5501
11.015383218085756 45.7555
11.037785768347074 45.0972
11.06020621697282 44.7087
11.082627090322113 44.3486
11.105030913430326 43.8417
11.12745263854165 43.4607
11.149857314510728 43.0953
11.172279894912576 43.4569
11.194702904450653 43.2529
11.217108866490921 43.1375
11.239532736615194 43.09
11.26193956033512 43.0048
11.284364294577085 42.7277
11.306789462371718 42.1212
11.329197585398376 41.6886
11.351623622610898 41.4245
11.37403261614354 40.2278
11.396459526308487 40.2373
11.418869393879497 39.7309
11.441297180532617 39.3022
11.463725406927658 38.7843
11.486136592353875 39.085
11.508565700543707 38.4257
11.530977768845315 38.5863
11.553407762368774 38.749
11.575838200059769 38.7459
11.598251599479612 38.6243
11.620682927815501 38.5533
11.64309721895548 38.4165
11.665529441478206 38.115
11.687962112597958 37.6969
11.710377748130886 37.5821
11.732811318753434 37.5711
11.755227854859067 37.6039
11.777662328529495 37.6922
11.800079768750786 37.4774
11.822515149015453 37.5541
11.844950984084935 38.2388
11.867369787303163 38.4671
11.889806534289491 39.1592
11.912226250487029 40.5715
11.934663912939751 42.9837
11.9571020346363 49.1187
11.979523127133968 62.0729
12.001962169624331 80.366
12.024384183972964 92.1725
12.046824150809913 88.9151
12.069264581333726 72.3261
12.091687985297767 56.9614
12.11412934550045 49.5845
12.136553680195208 47.3012
12.158995973632788 47.6593
12.181438735204349 48.6789
12.20386447284199 49.4513
12.226308172985636 51.0299
12.24873485024193 53.9032
12.271179492516982 58.6506
12.293607112949127 66.15100000000001
12.316052700916226 76.7389
12.338498763250042 89.059
12.360927805303868 95.6369
12.383374818673879 93.5389
12.405804812803074 83.0229
12.428252780773262 69.6514
12.45070122756722 59.4196
12.473132656675375 53.0051
12.49558206341869 48.8377
12.518014453510101 45.7493
12.540464823770117 43.9157
12.562915677315177 42.7465
12.58534951575545 42.0219
12.607801338171472 41.3162
12.630236146511358 41.3755
12.652688941369085 41.5411
12.675124723177234 41.8824
12.697578494048786 42.1942
12.720032754458185 42.3574
12.742470003354093 42.3027
12.764925245138771 42.0027
12.787363476431278 41.3104
12.809819703166806 40.6148
12.83227642391173 40.4497
12.854716135692716 40.2883
12.877173846755147 40.3613
12.899614549869717 40.3464
12.9220732548287 40.3028
12.94453245827299 40.3984
12.966974655289818 40.6735
12.989434858002571 41.108000000000004
13.011878055298721 41.3089
13.034339260862497 41.7416
13.056800969391883 42.6153
13.079245674017244 44.038000000000004
13.101708390774869 45.4027
13.12415410463411 49.0084
13.146617833206086 55.0018
13.169064559883248 60.0307
13.191529303857127 63.0019
13.213994557076367 63.833999999999996
13.236442809902437 64.5122
13.258909083908291 67.0904
13.28135835851934 69.7003
13.30382565690295 71.8346
13.326293469022952 74.4054
13.348744283242008 79.3599
13.371213125129904 89.1174
13.39366497011003 105.823
13.416134845360597 131.763
13.438605238843131 168.106
13.46105863690397 203.649
13.483530069144786 218.99200000000002
13.505984506951902 203.62900000000002
13.528456981549432 168.222
13.550929978879088 132.67600000000002
13.573385983253365 109.67
13.595860028340867 95.7275
13.618317081455832 88.5921
13.64079217790333 84.0368
13.663250283359057 81.203
13.685726434770173 80.7887
13.708203115221277 84.7635
13.730662806148091 94.6369
13.75314054697177 111.461
13.775601299246777 139.872
13.798080104050406 176.233
13.820559442405358 202.479
13.843021793671388 199.706
13.865502201420897 170.37
13.887965623051947 130.339
13.910447103807167 97.8273
13.932929122629764 76.8937
13.955394156785959 65.9521
13.977877254034569 58.3071
14.000343367582113 53.5275
14.022827546871707 50.8296
14.045294743423524 48.6082
14.06778000837062 47.2872
14.090265817715476 46.647
14.112734645763819 46.6445
14.13522154619454 47.5158
14.157691466286913 50.8453
14.180179461423874 59.1934
14.202668005486178 72.4676
14.22513957064374 83.7346
14.247629214846473 87.4716
14.270101881097517 78.5173
14.29259262906496 63.3415
14.315083930490205 52.4372
14.337558255389705 46.4674
14.360050666019726 43.5312
14.382526101071944 42.0698
14.405019624534942 41.2091
14.427513705993134 40.5675
14.449990813291825 40.3295
14.47248601302899 40.052
14.49496423954951 39.8203
14.517460561197822 39.3554
14.539939910570322 39.2288
14.562437357763558 39.1697
14.58493536931253 39.1036
14.607416409993311 39.2025
14.62991555254159 39.3933
14.652397725157423 39.4828
14.674898002342799 39.6875
14.697398848433282 39.6826
14.719882725991326 40.0618
14.74238471217934 40.0732
14.764869730765593 40.3315
14.787372860692983 40.4951
14.809876564079925 41.1729
14.83236330125751 42.0314
14.854868153850365 43.498999999999995
14.877356041159485 45.3789
14.899862046604186 47.3213
14.922351087688757 49.4796
14.944858249632887 50.3776
14.967365991421232 50.93899999999999
14.989856770231246 51.8177
15.012365673994204 54.1937
15.03485761569738 58.457
15.05736768508665 65.2221
15.07987833888692 75.3538
15.102372032001655 90.7244
15.124883856909658 108.454
15.14737872204565 121.97
15.169891721717274 123.02600000000001
15.192405310371893 112.53
15.214901940621196 94.8086
15.237416709527137 77.4159
15.259914520936249 65.0354
15.282430473753607 56.5949
15.304947020131227 51.2112
15.327446610371178 47.5754
15.349964346154254 45.1115
15.372465126703139 43.6212
15.394984055556009 42.5449
15.417486030076159 41.646
15.44000615566487 40.8721
15.462526881230803 40.5281
15.485030653812652 40.395
15.507552581617434 39.9992
15.530057557334603 39.7476
15.55258069104857 39.6552
15.575104429329837 39.6241
15.597611216864632 39.3747
15.620136166564563 39.2728
15.6426441664095 39.1163
15.665170331202765 39.1971
15.687697105158826 39.679
15.710206930593545 40.0869
15.732734925158933 40.6524
15.755245972089478 41.3967
15.77777519094324 43.0679
15.800287463046663 44.7506
15.822817909869592 46.6733
15.84534897229804 47.4955
15.867863089299354 48.583
15.890395385222186 49.1717
15.912910736597423 50.2493
15.935444269699861 52.5998
15.957978423016485 57.0226
15.980495633101265 63.5965
16.003031029129367 73.6314
16.02554948280019 88.2926
16.048086125229432 104.975
16.070623392487107 117.281
16.09314371869582 120.501
16.11568223789321 113.26899999999999
16.13820381691126 100.09
16.160743591742527 86.0956
16.183283996022084 73.1109
16.205807461423195 61.2587
16.228349126881973 52.1015
16.25087385432698 46.5771
16.27341678466365 42.9452
16.29594277784926 40.9208
16.31848697676433 39.2153
16.341031811604868 37.7843
16.36355971058487 37.2983
16.3861058195587 36.7072
16.40863499352978 36.0221
16.431182380342005 35.6646
16.453730407713202 35.1986
16.476261501364792 34.8717
16.498810812136167 34.2614
16.52134319004079 34.271
16.54389378792203 33.8338
16.566445031001553 33.5193
16.588979342490088 33.4039
16.61153187824822 33.1616
16.634067483263312 32.999
16.656621315414416 32.7452
16.679175797408888 32.5167
16.701713349928728 32.6682
16.72426913389191 32.5994
16.74680798922351 32.4539
16.76936507887444 32.5324
16.791905240734874 32.6371
16.814463639794468 32.551
16.837022695210294 32.4481
16.859564824093756 32.6502
16.882125194503903 32.6339
16.904668639217885 33.031
16.927230328348003 33.4289
16.949792678493612 34.3084
16.972338104193863 35.7472
16.994901778652235 37.9751
17.017448529496576 39.6835
17.040013531998152 40.4893
17.06257920018044 39.721
17.0851279459922 37.9051
17.107694947817667 35.9667
17.130245028099072 34.6148
17.15281336730298 34.2547
17.17536478578733 33.9926
17.19793446610687 34.2277
17.220504818648422 34.5332
17.243058251703697 34.6288
17.265629950971032 35.115
17.288184731571736 35.0252
17.310757781306908 35.328
17.33333150794385 35.3895
17.355888317140174 35.8799
17.37846339986244 36.6141
17.401021565958885 38.0032
17.42359800851343 39.6531
17.44617513265564 42.3377
17.468735341390783 45.7969
17.491261035594565 49.0924
17.51396340099364 50.732
17.536490463869136 50.2609
17.559018209820174 47.5415
17.58154663977963 44.131
17.604251766089718 41.1336
17.626781572227713 38.8373
17.64931206518155 37.294000000000004
17.671843245885103 36.5854
17.69455114821572 35.9313
17.717083712612634 35.9307
17.739616967569667 35.9888
17.762150914021706 36.1948
17.78486160749854 36.6127
17.807396945166804 38.0022
17.829932977143503 39.8729
17.85246970436452 41.5818
17.875183204129467 42.4059
17.897721330097664 42.5728
17.920260154126645 41.3026
17.942799677153296 40.372
17.9655159983646 40.0295
17.988056927677544 40.4763
18.010598558807683 41.5133
18.033140892692916 42.4355
18.05586005052525 42.8199
18.07840379824407 43.3938
18.10094825154059 43.5004
18.12366954819864 44.1461
18.146215420998306 45.1473
18.16876200220057 47.0351
18.191309292745153 50.0321
18.214033452627167 54.9711
18.236582170236648 61.6519
18.259131600016456 71.1544
18.281681742907335 82.8751
18.304408781233683 92.9733
18.32696035875955 96.9598
18.349512652227624 93.3971
18.372065662579683 83.9727
18.394795594587553 72.3105
18.41735004715306 63.4068
18.43990521943684 57.8243
18.46246111238171 55.4006
18.485193953325208 55.2051
18.507751296070428 57.6328
18.530309362314178 62.333999999999996
18.552868153000343 67.3631
18.57560391815056 70.7643
18.59816416623245 71.7148
18.620725141597372 68.2996
18.643286845190268 62.7947
18.666025549835414 56.9713
18.688588718427933 51.4905
18.711152618092243 47.0477
18.73389353884365 43.4486
18.75645890921984 40.72
18.77902501351406 39.1911
18.801591852673102 37.8246
18.824335739722738 36.8911
18.846904057212626 36.5541
18.8694731124168 35.9905
18.89204290628315 35.8128
18.914789774966803 35.5003
18.937361054791623 35.0647
18.959933076131318 34.7448
18.982505839934877 34.6183
19.00525570560582 34.5215
19.027829963004184 34.3783
19.05040496572238 34.3152
19.072980714710468 34.4193
19.095733592739563 34.2944
19.11831084296757 34.1436
19.140888842324735 34.0586
19.16346759176222 34.0926
19.18622349753803 34.3504
19.208803755869358 34.6487
19.231384767143577 34.9537
19.253966532312948 35.2563
19.276725481241822 35.6696
19.29930876296784 35.9104
19.3218928014549 36.5624
19.34465404436217 37.5377
19.36723960516257 39.2012
19.389825925592426 41.5111
19.412413006605938 44.411
19.43517731967805 46.6543
19.457765930683355 47.481
19.48035530514408 46.8455
19.50294544401556 45.5341
19.525712842708348 45.1284
19.54830451925909 46.0206
19.570896963095727 46.9928
19.593490175174704 47.9749
19.616260674962184 47.3301
19.638855432416964 45.2364
19.661450960992624 42.7163
19.68404726164677 39.7884
19.706820878021247 37.492
19.729418731756834 36.2268
19.752017360452857 35.0351
19.77461676506804 34.2131
19.797393513540218 33.4052
19.819994478951667 33.054
19.84259622316767 32.9464
19.8651987471481 32.68
19.887978643247177 32.4401
19.91058273574792 32.4904
19.933187610901943 32.501
19.955969879466828 32.5729
19.97857632894404 32.8441
20.00118356396599 32.8936
20.023791585494575 33.0975
20.046577028914875 33.1833
20.069186632506966 33.2525
20.091797025500632 33.1333
20.114408208858933 33.2306
20.137196842715273 33.6269
20.159809615886765 34.278
20.18242318232135 34.688
20.20503754298326 35.7654
20.227829382875154 37.2948
20.250445341109344 39.3155
20.27306209647285 41.6897
20.29567964993108 43.9454
20.31847471147704 45.4959
20.34109387027612 45.7076
20.363713830075454 44.727
20.386334591841646 42.678000000000004
20.409132890679302 40.7712
20.431755265564437 39.1301
20.454378445325528 38.7483
20.477002430930366 38.9239
20.499803982716553 40.128
20.522429589228004 41.7322
20.54505600449589 43.0845
20.567683229489194 43.6786
20.590488049900088 42.7143
20.61311690359731 40.7407
20.63574656993626 38.4738
20.658553853717297 35.9475
20.681185154618298 34.4731
20.703817271080066 33.402
20.72645020407368 32.4917
20.749260783967177 31.7395
20.771895359337133 31.6042
20.794530754161617 31.6057
20.817166969412938 31.9904
20.83998086114876 32.6616
20.86261872660049 33.3607
20.885257415405402 33.774
20.90789692853701 33.9595
20.930714147864748 33.3854
20.953355319030678 32.3215
20.97599731745334 31.3137
20.99864014410749 30.3886
21.021460706796564 29.9544
21.044105199328826 29.846999999999998
21.06675052302631 29.7014
21.089396678865015 29.4971
21.112220600704806 29.4895
21.134868430275347 29.6523
21.15751709492456 29.4219
21.180166595629693 29.2103
21.202993892429635 29.3305
21.22564507473034 29.0681
21.24829709602816 29.2602
21.27112693608965 29.326
21.293780644891275 29.5377
21.316435195634053 29.4831
21.339090589297417 29.5409
21.361923832041875 29.7343
21.384580921090404 29.9834
21.407238856007325 30.3049
21.429897637773326 30.9732
21.45273429906592 31.6347
21.475394784108598 32.2191
21.498056118951983 32.4688
21.520718304578022 32.445
21.543558400304388 32.2137
21.566222297108816 31.8812
21.58888704765135 31.2398
21.61155265291521 30.8958
21.63439619898156 30.6497
21.657063523335786 30.0768
21.67973170537063 29.8539
21.7024007460706 30.0119
21.72524775840385 30.0801
21.747918526116475 30.2209
21.770590155457388 30.4721
21.79326264741238 30.8097
21.816113141960237 31.0191
21.838787368860547 31.0545
21.861462461341976 31.2757
21.884315579735777 31.4369
21.90699241312273 31.5285
21.92967011506078 31.7241
21.95234868653799 32.1903
21.9752053151131 32.7376
21.997885635446785 33.4495
22.020566828293532 34.6269
22.04324889464272 35.9451
22.066109049404666 37.5184
22.088792872571794 39.4835
22.111477572219204 42.097
22.1341631493376 44.1864
22.157026846313123 45.7105
22.179714188221507 45.9768
22.202402410582668 45.3428
22.22509151438863 43.7986
22.24795876962584 42.0362
22.270649646204486 40.8515
22.293341407213727 40.0622
22.316034053646906 39.3876
22.338904883215342 38.9725
22.36159931041458 38.729
22.38429462602756 38.3006
22.40699083104897 37.3216
22.429865251039757 36.2464
22.452563244831367 35.0583
22.47526213102522 33.708
22.49813925616515 32.8737
22.520839937143307 32.1633
22.543541513520587 31.6434
22.56624398629403 31.1269
22.589124730075895 30.8814
22.611829005656723 30.7625
22.63453418063466 30.5078
22.657240256008077 30.4101
22.680124634582935 30.2983
22.70283252079775 30.125
22.725541310413075 30.2963
22.74825100442868 30.1005
22.771139033969575 30.3297
22.79385054687155 30.4076
22.81656296718292 30.5942
22.83927629590484 31.1646
22.862167992606945 31.6596
22.88488314827121 32.0229
22.907599215359284 32.2151
22.93031619487366 32.3236
22.953211574954405 32.1408
22.975930389478226 31.8876
22.998650119445763 31.6741
23.02137076586092 31.5926
23.044269845560063 31.6925
23.06699233506288 32.1266
23.089715744034912 32.5529
23.112617610931565 33.2768
23.135342869061212 34.5126
23.158069049684816 35.9384
23.1807961538087 37.8214
23.20370174880544 39.643
23.226430710184808 40.7434
23.249160598093425 40.8504
23.271891413539002 39.8994
23.294800752937697 38.1364
23.31753343374794 36.0958
23.340267045128353 34.4511
23.36300158808808 33.3954
23.38591468821339 32.7092
23.408651104658304 32.3004
23.431388455719986 32.1863
23.454126742409 32.3305
23.4770436196085 32.7937
23.499783787914662 33.3036
23.522524894889884 33.773
23.54526694154616 33.955999999999996
23.56818761219047 33.8852
23.59093154860734 33.5839
23.613676427751283 33.3204
23.636422250635754 32.7399
23.659346731118656 32.5381
23.68209445191868 32.7093
23.704843119509587 33.1176
23.72759273490623 33.8725
23.750521041644767 34.885999999999996
23.77327256312355 36.455
23.796025035462787 38.2114
23.818956224555475 40.1357
23.841710609113413 41.5668
23.86446594758979 41.7438
23.887222241002014 40.9875
23.910157285144578 39.0219
23.932915498962537 36.783
23.955674670778713 34.6757
23.978434801611975 32.9684
24.001373717286125 31.6193
24.024135776723917 30.7902
24.046898798245582 30.2419
24.06966278287146 29.8226
24.092605586582614 29.405
24.115371508023642 29.3409
24.1381383956401 29.2278
24.16090625045381 29.096
24.183852958731244 29.1611
24.206622758582608 28.7346
24.229393528706886 28.3936
24.252165270127392 28.154
24.27511589952438 27.9392
24.297889594216997 27.7198
24.32066426328598 27.5115
24.34343990775613 27.2893
24.36639447485003 27.1052
24.38917208083877 27.3038
24.41195066531332 27.1222
24.43490819850244 27.0934
24.457688750692377 26.9832
24.48047028445616 26.9332
24.503252800821233 26.9375
24.526214300784112 26.8877
24.548998793132213 26.7832
24.57178427117417 26.8485
24.59457073593893 26.8331
24.617536219319863 26.715
24.64032466834748 26.7719
24.663114107195035 26.991999999999997
24.685904536893013 27.0096
24.708874020360852 27.3314
24.731666442613744 27.5573
24.754459858818787 27.8821
24.777254270007962 28.2585
24.80022777025625 28.1208
24.82302418230472 28.141
24.845821592443674 27.8102
24.86862000170663 27.3858
24.891597535453727 27.1271
24.914397953892728 27.0857
24.93719937456671 26.7858
24.96000179851076 26.7232
24.98298338249997 26.6585
25.00578782394922 26.5964
25.028593271784167 26.5159
25.05157790644186 26.5756
25.07438537804115 26.4741
25.097193859145293 26.5083
25.120003350792075 26.4305
25.142992065061257 26.5345
25.165803588823465 26.6167
25.18861612625217 26.6307
25.211429678386736 26.7949
25.234422489079968 26.916999999999998
25.257238081693636 27.0381
25.280054692141732 27.2972
25.3028723214652 27.5177
25.325869245420463 27.7882
25.348688923599397 28.1364
25.371509623787006 28.5274
25.394331347025812 28.9995
25.41733240110666 29.3825
25.440156181590016 29.4303
25.46298098826268 29.6156
25.48580682216873 29.5811
25.50881202326435 29.6084
25.53163992281684 29.6649
25.55446885274561 29.8896
25.577298814096377 30.1947
25.600308179121807 30.6281
25.623140214533745 31.0634
25.64597328451537 31.1826
25.66898578564376 30.609
25.691820936010206 29.8799
25.714657124097695 29.0298
25.737494350954734 28.3485
25.760511045684957 27.551
25.783350361364224 27.1697
25.806190718969255 26.8294
25.82903211955018 26.6351
25.852053024868923 26.5501
25.874896522722523 26.5417
25.897741066713106 26.5389
25.920586657892454 26.6047
25.943611790812668 26.8475
25.966459487728237 26.8242
25.989308234998564 26.6412
26.01215803367705 26.5102
26.03518741123814 26.2317
26.05803932412957 26.0007
26.080892291600094 25.7882
26.10374631470478 25.6689
26.12677995397268 25.771
26.14963609978026 25.8212
26.172493304397875 25.7682
26.19535156888223 26.0003
26.218389486949604 25.991
26.241249882640123 26.1899
26.26411134137826 26.2907
26.28715248187403 26.6923
26.31001607820869 26.964000000000002
26.3328807407756 27.3016
26.35574647063438 27.8485
26.37879191991473 28.0512
26.401659795896734 28.0426
26.424528742360263 27.9686
26.447398760366614 27.7619
26.470448535598294 27.3826
26.49332070826805 27.0268
26.516193955675355 26.7794
26.53906827888316 26.5439
26.562122397260108 26.311999999999998
26.584998883685063 26.2222
26.607876449110325 26.2604
26.63075509460056 26.2092
26.65381357334404 26.035
26.67669439061878 26.0312
26.699576291163382 26.0389
26.722459276044212 26.1022
26.745522132402975 26.2245
26.768407297649354 26.4608
26.791293550442003 26.5786
26.814180891848974 26.8978
26.837248143099337 27.1859
26.860137673466657 27.6195
26.88302829566349 28.1901
26.90592001075963 28.8473
26.92899167420566 29.3526
26.951885586870763 29.4955
26.974780595655517 29.5627
26.99785558178161 29.5824
27.020752794605112 29.2869
27.043651106772522 28.9556
27.06655051935668 28.7834
27.089629948036183 28.4879
27.112531573292053 28.3207
27.135434302194138 28.0946
27.158338135817015 27.5109
27.181422024430987 27.0419
27.204328079372566 26.4569
27.22723524226965 26.1027
27.250143514198573 25.9157
27.273231880156334 25.6325
27.296142382065014 25.3309
27.319053996245536 25.2486
27.341966723775965 25.1114
27.365059584515222 25.0534
27.38797455070062 25.0519
27.410890633481237 24.9431
27.433807833936918 24.823
27.456905206923906 24.8333
27.47982465472398 24.8379
27.502745223449743 24.8077
27.525666914182825 24.8434
27.548768816912457 24.784000000000002
27.571692763693633 24.8543
27.59461783573812 24.8811
27.617723149491244 24.6817
27.640650484125285 24.8899
27.66357894728264 24.8824
27.686508540048052 24.8959
27.709618414237887 24.8904
27.732550278321757 24.8996
27.755483275279115 25.1341
27.778417406196485 25.2718
27.801531858397514 25.3875
27.824468269376716 25.4723
27.847405817586786 25.445
27.870344504116094 25.5548
27.893463551932008 25.4186
27.916404527281053 25.4176
27.93934664422563 25.2995
27.962289903855886 24.9655
27.98541356491974 24.98
28.00835912214229 24.8594
28.03130582533231 24.8742
28.054253675581805 24.9691
28.077381967556104 25.0948
28.100332124185126 25.3059
28.123283431160893 25.3192
28.146235889577238 25.5535
28.169368830154156 25.6614
28.192323603752033 25.7288
28.215279532083304 25.4989
28.238415973016764 25.6337
28.261374223145094 25.8114
28.284333631303806 26.0701
28.307294198589954 26.5514
28.330435319167677 27.0279
28.353398217078915 27.3685
28.376362277420153 27.4623
28.39932750129032 27.3189
28.422473319286713 27.2119
28.44544088262495 26.9473
28.468409612800283 26.7125
28.491379510913497 26.3183
28.51453004413313 26.2043
28.53750229057244 26.0885
28.56047570826344 25.9038
28.583450298308804 25.7837
28.606605564586562 25.4264
28.629582511831156 25.2012
28.65256063474956 24.7249
28.675539934446338 24.6014
28.698699951647605 24.343000000000004
28.72168161743193 24.1021
28.74466446331978 23.8626
28.767648490417624 23.7349
28.790813276438353 23.4935
28.813799678527303 23.4148
28.836787265157085 23.2495
28.859955641890075 23.3113
28.882945610203045 23.1821
28.905936766392035 22.9492
28.928929111566863 22.8933
28.952102288520145 22.9233
28.975097024308607 22.9414
28.998092952423807 22.7888
29.021090073977508 22.858
29.04426806913204 22.8231
29.067267590245258 22.8403
29.090268308143695 22.8707
29.11327022394099 22.9024
29.13645305530891 22.9509
29.159457379627167 23.0589
29.18246290519685 23.1519
29.20546963313352 23.2773
29.22865731875826 23.2142
29.25166646419296 23.2631
29.27467681535305 23.023000000000003
29.29768837335608 22.8411
29.320880931312562 22.7508
29.34389491580634 22.5367
29.366910110507334 22.4244
29.38992651653503 22.3094
29.41312396492981 22.2503
29.436142806456754 22.1668
29.45916286268059 22.1044
29.48236399319994 22.11
29.50538649169417 22.0927
29.528410208259935 22.1896
29.55143514402014 22.013
29.574641196749695 22.014
29.597668583816574 22.0745
29.6206971934585 22.118000000000002
29.64372702680042 22.339000000000002
29.666938019934474 22.480999999999998
29.689970313635285 22.5385
29.713003834422636 22.5669
29.73603858342347 22.583000000000002
29.759254535188578 22.514
29.78229175361658 22.3796
29.80533020365064 22.3158
29.82836988641968 22.1112
29.85159081507472 21.8738
29.874632976355343 21.7353
29.89767637376955 21.6992
29.920721008448314 21.5314
29.9439469322847 21.5446
29.96699405457564 21.4219
29.9900424175358 21.3395
30.013092022298157 21.3219
30.03632295963995 21.3498
30.059375061131373 21.3788
30.08242840783577 21.3574
30.105483000888153 21.4641
30.128718970092244 21.3919
30.151776069006917 21.3648
30.17483441768648 21.4519
30.198074175317235 21.4769
30.221135036724256 21.4179
30.24419715131772 21.397
30.267260520236203 21.2557
30.290505341942243 21.2296
30.313571232750228 21.1921
30.336638381310948 21.1597
30.35970678876503 21.1568
30.38295669299435 21.1563
30.40602763151657 21.2006
30.429099832366074 21.1561
30.452173296685572 21.171999999999997
30.47542830191959 21.2077
30.498504306502497 21.2357
30.521581577995562 21.3973
30.544660117543582 21.3357
30.56792024229725 21.3946
30.59100133132069 21.4031
30.614083691845494 21.2387
30.637167325018545 21.2497
30.660432587840603 21.2267
30.683518779717886 21.1017
30.70660624769615 21.104
30.729694992924372 20.9839
30.75296541239743 21.1089
30.77605672557558 21.051
30.799149319462742 20.9889
30.8224236211637 21.0074
30.845518789950724 21.122
30.868615242910597 21.1559
30.891712981195973 21.1396
30.91499247215866 21.2723
30.938092794619365 21.5102
30.96119440587579 21.6888
30.984297307082752 21.7942
31.00758200598383 21.8945
31.030687500658694 22.0428
31.053794288760695 22.1484
31.076902371446767 22.1693
31.100192296997445 22.1614
31.12330298246119 22.0661
31.14641496599209 21.8923
31.169528248749216 21.8557
31.19282341969534 21.7705
31.215939314557186 21.6738
31.239056512134788 21.514
31.262175013589378 21.3666
31.28547544871168 21.1539
31.30859657161541 21.0999
31.331719001892175 20.9882
31.35484274070538 20.9126
31.378148458819545 20.7272
31.401274828443725 20.6792
31.424402510106933 20.6526
31.447712205419993 20.5754
31.470842524931633 20.4467
31.493974159989783 20.5047
31.51710711176168 20.471
31.54042212308802 20.5295
31.563557722100917 20.4525
31.586694641341655 20.4957
31.609832881979628 20.524
31.63315322823208 20.5425
31.656294125521327 20.5368
31.679436347728515 20.5686
31.70257989602529 20.6375
31.725905596152327 20.734
31.74905181052835 20.7491
31.772199354521323 20.8818
31.79534822930507 20.9397
31.818679302290967 21.0012
31.84183085259981 21.1048
31.864983737233473 21.0694
31.88813795736804 20.9911
31.911474422233013 20.7688
31.934631327356435 20.6901
31.9577895715215 20.5431
31.980949155906522 20.3841
32.004291031706956 20.236
32.027453310562606 20.1839
32.05061693318573 20.1786
32.07396288236386 20.2656
32.09712920658542 20.2125
32.12029687812702 20.1815
32.14346589817093 20.2042
32.166817291729984 20.2764
32.18998902288583 20.3304
32.21316210610336 20.3017
32.23633654256711 20.3479
32.259693399663725 20.4802
32.282870556771144 20.5378
32.30604907069099 20.5542
32.329228942610065 20.6375
32.35259128243769 20.444000000000003
32.375773884550505 20.3215
32.398957848235646 20.250999999999998
32.422143174682176 20.2111
32.445511016471215 20.0838
32.468699082679954 19.9419
32.49188851523011 19.8295
32.51507931531304 19.7359
32.538452678331 19.6496
32.56164622776311 19.575
32.58484114831493 19.4925
32.60803744118015 19.435
32.631416344731896 19.3402
32.654615396551876 19.3287
32.67781582427913 19.3016
32.701198898634416 19.1599
32.72440209253756 19.1137
32.747606665947124 19.0408
32.77081262006088 18.9759
32.79420126883317 18.9482
32.81740999876112 18.9168
32.840620112999424 18.8377
32.86383161274818 18.7914
32.88722585534586 18.8561
32.91044014056596 18.8788
32.933655814909734 18.8876
32.95687287957963 18.8273
32.98027273544904 18.783
33.00349259526636 18.812
33.026713849030116 18.8198
33.04993649794511 18.8203
33.073341986570746 18.8573
33.09656744032826 18.8001
33.11979429286444 18.8234
33.14302254538647 18.7731
33.166433686291185 18.708
33.18966475336992 18.6136
33.212897224069096 18.5766
33.23613109959831 18.5457
33.259547912343415 18.5584
33.2827846121627 18.516
33.306022720453775 18.4712
33.32926223842861 18.4071
33.352684742614166 18.4744
33.37592709463173 18.4923
33.399170859982064 18.5769
33.422597648419426 18.5822
33.44584425514446 18.5402
33.46909227885668 18.6103
33.4923417207723 18.6874
33.51577423505344 18.7467
33.539026528130385 18.7126
33.56228024307245 18.7433
33.585535381098246 18.6998
33.60897364093058 18.6648
33.63223163992385 18.6678
33.6554910656699 18.6014
33.678751919389796 18.6671
33.702195944520106 18.5362
33.72545966903325 18.4406
33.74872482519663 18.3823
33.771991414233746 18.3057
33.79544122444841 18.2333
33.81871069412428 18.1083
33.84198160035767 17.9537
33.86525394437455 17.8713
33.88870955949969 17.8757
33.911984794020626 17.8444
33.93526147001624 17.8614
33.958539588715006 17.7734
33.98200102861669 17.7162
34.0052820477047 17.6115
34.02856451319451 17.6949
34.05203033759056 17.6703
34.07531571090147 17.654
34.09860253431845 17.6605
34.121890809074316 17.5992
34.145362493118924 17.6289
34.16865368561615 17.6672
34.191946333164054 17.636
34.21524043699793 17.5994
34.23871800066799 17.5586
34.26201503218366 17.5182
34.28531352370466 17.5619
34.30861347646881 17.4363
34.33209693978188 17.4594
34.3553998301885 17.4023
34.378704185565205 17.332
34.402010007152356 17.2535
34.42549939016683 17.2294
34.44880815937748 17.2
34.472118398533134 17.1344
34.49543010887669 17.1948
34.51892543169198 17.1256
34.54224009966052 17.1244
34.56555624255917 17.1042
34.58887386163339 17.0551
34.61237514439016 16.9757
34.6356957311114 16.9928
34.65901779775809 17.026
34.68252356662995 16.9991
34.705848608458616 17.0277
34.72917513396849 16.9688
34.75250314440949 16.9559
34.77601490857862 16.8471
34.799345904259795 16.7655
34.82267838863559 16.7995
34.846012362958525 16.8085
34.869530142679984 16.6906
34.89286711232212 16.607
34.91620557568269 16.7085
34.93954553401677 16.6148
34.9630693495876 16.5128
34.986412313340814 16.4917
35.00975677584668 16.4958
35.033102738362956 16.4883
35.05663261012228 16.4365
35.0799815881786 16.4457
35.10333207003229 16.3422
35.12668405694369 16.3923
35.150220005273056 16.3877
35.17357501786656 16.4172
35.19693153931268 16.3975
35.220289570874385 16.357
35.24383161619786 16.3896
35.267192683604904 16.4076
35.290555264930376 16.3627
35.314101899412165 16.3558
35.33746752422433 16.2375
35.36083466676374 16.3654
35.38420332829803 16.3569
35.407756095629054 16.3741
35.43112781085063 16.3165
35.45450104888391 16.2284
35.477875810999194 16.2059
35.50143473172161 16.2215
35.52481255774625 16.227
35.54819191167777 16.1985
35.57157279478914 16.163
35.595137889488406 16.1869
35.61852184675279 16.1648
35.641907337029984 16.2189
35.665294361595684 16.2803
35.68886565090076 16.1788
35.7122557598848 16.2286
35.73564740699838 16.3164
35.759040593519934 16.3507
35.78261809810353 16.3864
35.80601437933051 16.3632
35.829412203814705 16.3766
35.85281157283719 16.3686
35.876395313415884 16.396
35.8997977874528 16.355999999999998
35.92320180988546 16.2994
35.946790244133936 16.1847
35.97019737933222 16.1422
35.993606066789866 16.1195
36.01701630779276 16.1206
36.04061101440684 16.052
36.06402437852291 16.0367
36.08743930005611 15.9444
36.1108557802951 15.8324
36.13445678011326 15.7844
36.15787639383515 15.7903
36.18129757014299 15.7224
36.20472031032821 15.6209
36.22832762423364 15.6351
36.25175350829375 15.6098
36.275180960119776 15.5937
36.298609981005924 15.6063
36.32222362992669 15.585999999999999
36.34565580510207 15.5486
36.36908955323448 15.5156
36.39252487562093 15.4399
36.416144880530226 15.4245
36.43958336764275 15.4222
36.463023432914625 15.4897
36.486465077645676 15.4219
36.51009145956204 15.5005
36.53353627947859 15.5988
36.55698268276811 15.552999999999999
36.58043067073321 15.4681
36.60406345072071 15.3923
36.62751462435344 15.4146
36.65096738658405 15.3674
36.67460498210655 15.3957
36.69806093788647 15.3335
36.72151848619297 15.2932
36.744977628333636 15.2246
36.76862165890998 15.0952
36.79208400512205 15.1514
36.81554794910557 15.2288
36.83901349217101 15.1122
36.862663978991606 15.0985
36.88613273667352 15.1246
36.90960309738324 15.200999999999999
36.933075062434064 15.1119
36.95673202673572 15.129000000000001
36.98020721697122 15.0877
37.003684015502365 15.048
37.027162423645365 15.1229
37.050825886711465 15.0115
37.07430753063053 14.9515
37.09779078812467 15.001
37.121275660513014 14.9728
37.144945643673694 14.9046
37.16843376245278 14.9139
37.19192350009803 14.8496
37.215414857931435 14.8139
37.239091382563885 14.6846
37.262585997426164 14.6968
37.28608223645736 14.710999999999999
37.309763684451696 14.6415
37.33326318851098 14.5618
37.356764320726555 14.5849
37.380267082425526 14.5546
37.40395510942588 14.5772
37.42746114683234 14.5721
37.45096881771841 14.4672
37.474478123414166 14.4494
37.49817275092816 14.414000000000001
37.52168534303452 14.4379
37.54519957395567 14.3888
37.568715445024665 14.3967
37.592416694607714 14.3593
37.61593586281424 14.3917
37.63945667518264 14.379000000000001
37.66297913304891 14.38
37.68668702630454 14.2834
37.710212792059274 14.2348
37.733740207334854 14.1722
37.757269273470364 14.1754
37.780983832050374 14.2036
37.80451621684926 14.175
37.82805025654007 14.1921
37.851585952464795 14.1224
37.8753071980695 14.0434
37.89884622345676 14.0344
37.92238690911902 14.0353
37.94611318753442 14.017999999999999
37.969657210779765 14.0247
37.99320289834801 14.0398
38.016750251586465 13.9892
38.04048325513017 13.9652
38.06403395679343 13.9271
38.087586328183946 13.9776
38.11114037065203 13.9186
38.13488012115898 13.9031
38.1584375229181 13.898
38.181996599821 13.8758
38.205557353221124 13.8611
38.229303872575656 13.7804
38.2528679961576 13.7476
38.27643380031219 13.7363
38.30000128639589 13.682
38.32375459653193 13.6895
38.34732546371299 13.6557
38.37089801690786 13.623
38.39447225747609 13.6192
38.418232380377425 13.5691
38.441810012983396 13.5122
38.46538933705673 13.5208
38.488970353960084 13.5187
38.51273731166058 13.5091
38.536321731567014 13.487
38.55990784840681 13.408
38.58367995004091 13.4526
38.60726947812959 13.4035
38.63086070726198 13.4167
38.654453638806274 13.4316
38.678232613930824 13.4074
38.70182896773327 13.4261
38.72542702806741 13.3115
38.7490267963045 13.327
38.77281266709232 13.298
38.79641586862214 13.3051
38.8200207821842 13.2467
38.843627409152944 13.2196
38.86742019782782 13.2105
38.891030269149255 13.2069
38.914642058016156 13.1271
38.938255565806124 13.1645
38.96205529464307 13.1749
38.98567225787121 13.1498
39.00929094417078 13.1591
39.03291135492255 13.1621
39.05671804624804 13.1521
39.080341923549106 13.1291
39.103967529460334 13.1152
39.127594865365744 13.0278
39.15140854155791 13.0576
39.17503935514948 13.0405
39.19867190290282 12.9712
39.22249083587951 12.9354
39.24612686969409 12.9306
39.269764641845306 12.8824
39.293404153722804 12.8627
39.317230110864074 12.7999
39.34087311998506 12.8431
39.36451787301696 12.8451
39.388164371352595 12.7875
39.41199737518003 12.6873
39.43564738196752 12.7147
39.45929913825317 12.7177
39.48295264543308 12.6601
39.506792718520884 12.6468
39.530449745387216 12.6983
39.55410852735203 12.7014
39.57776906581474 12.6191
39.60161623079 12.6575
39.625280300200025 12.5972
39.64894613032202 12.6166
39.67261372255866 12.5152
39.6964680021016 12.4748
39.72013913657293 12.4878
39.74381203738292 12.4983
39.76748670593756 12.4836
39.79134812278169 12.4754
39.81502634488497 12.4534
39.83870633896685 12.4528
39.862388106436654 12.3869
39.88625668336918 12.3813
39.90994201572829 12.4021
39.933629125719285 12.3774
39.957503091207826 12.3402
39.9811937746168 12.2922
40.00488623990914 12.3126
40.02858048850006 12.2784
40.05246165409549 12.3183
40.076159487492085 12.2633
40.099859108448875 12.2498
40.123560518384345 12.2419
40.1474489070226 12.2613
40.171153913178564 12.1914
40.194860712584955 12.1956
40.2185693066637 12.2502
40.242464941335314 12.159
40.26617714307655 12.1792
40.289891143772046 12.1463
40.3136069448471 12.1389
40.33750984859743 12.1365
40.3612292688043 12.0714
40.3849504936829 12.0747
40.40867352466194 12.0814
40.43258372059144 12.0154
40.45631038219906 12.0147
40.48003885420956 11.9084
40.503769138055105 11.9774
40.52768664931955 11.9925
40.55142057531802 11.9591
40.57515631746428 11.9368
40.599079334038514 11.8792
40.62281872700477 11.9096
40.64655994043941 11.9079
40.67030297578061 11.8039
40.69423334835778 11.8123
40.71798004609188 11.8319
40.74172857006355 11.8146
40.76547892171441 11.7851
40.7894166736039 11.761
40.813170699248566 11.7441
40.83692655691388 11.693
40.86068424804498 11.7321
40.884629402612525 11.6793
40.908390779366385 11.6377
40.932153993938 11.6736
40.95591904777605 11.6172
40.979871628443995 11.5893
41.003640379561936 11.5918
41.02741097430883 11.6037
41.05118341413683 11.6111
41.075143444384416 11.6244
41.098919593177826 11.5705
41.1226975914255 11.5401
41.14647744058318 11.4972
41.170444943946755 11.470999999999998
41.19422851378379 11.4753
41.218013938914645 11.475999999999999
41.24198706625173 11.4816
41.26577622087193 11.4464
41.289567235177785 11.4183
41.31336011063129 11.3826
41.337340752422875 11.3564
41.361137369129835 11.3477
41.38493585138705 11.3192
41.40873620066004 11.2977
41.43272438060107 11.2923
41.45652848292052 11.2432
41.48033445666918 11.2486
41.50414230331616 11.1993
41.528138045159764 11.1779
41.551949656675205 11.1145
41.575763145513235 11.1252
41.59957851314666 11.1492
41.62358184070442 11.1084
41.64740098505737 11.0653
41.6712220126409 11.1354
41.69504492493139 11.0196
41.71905586207357 11.0213
41.74288256296395 10.9792
41.766711153007456 10.9947
41.79054163368412 10.9983
41.814560204340054 10.9924
41.838394485526365 11.0054
41.86223066180303 10.9261
41.88625497706819 10.9394
41.910094962812 10.9477
41.93393684811168 10.9032
41.95778063445365 10.8702
41.981812625263366 10.8719
42.00566023303407 10.8451
42.029509746323676 10.8585
42.05336116662236 10.8373
42.077400857069705 10.823
42.10125611078846 10.798
42.12511327600405 10.7889
42.14897235421036 10.7905
42.173019768448455 10.7691
42.19688269209613 10.7758
42.22074753323349 10.7521
42.24461429335818 10.7228
42.268669455600495 10.6989
42.292540073217886 10.6424
42.31641261433284 10.6845
42.34028708044675 10.6364
42.36435001496739 10.6189
42.38822835065557 10.6077
42.41210861586426 10.5803
42.4359908120986 10.556
42.46006154323262 10.4995
42.48394762115317 10.5179
42.507835634632315 10.5002
42.531912233047436 10.4685
42.55580413732265 10.4199
42.579697981698 10.3906
42.60359376768525 10.3688
42.62767820545945 10.3776
42.65157789440821 10.3433
42.67547952952185 10.3507
42.699383112316 10.3107
42.72347541395347 10.3568
42.74738291190531 10.3184
42.771292362102166 10.2895
42.795203766063516 10.2582
42.819303956130405 10.2168
42.843219287476536 10.2431
42.86713657716324 10.2514
42.89105582671383 10.1621
42.91516392983864 10.1488
42.939087119032166 10.1486
42.963012272677304 10.1721
42.98693939230129 10.173
43.01105543317513 10.0953
43.034986504731386 10.0795
43.05891954686589 10.0927
43.08285456110972 10.0734
43.10697856448665 10.0172
43.130917542983475 10.0244
43.15485849820081 10.0722
43.17880143167367 9.98782
43.20293342237094 9.98894
43.226880332449 9.922989999999999
43.25082922540554 9.95213
43.27496722682525 9.94326
43.29892010567796 9.90123
43.32287497204102 9.93355
43.34683182745632 9.833269999999999
43.370977859791836 9.86432
43.39493871351105 9.8017
43.41890156092628 9.88166
43.44286640358341 9.81359
43.46702049182749 9.776580000000001
43.49098934522816 9.73821
43.51496019852649 9.73055
43.5389330532723 9.729230000000001
43.56309522248204 9.72583
43.58707210044314 9.67019
43.61105098451946 9.70229
43.63503187626491 9.68832
43.659202151562134 9.605960000000001
43.68318707902681 9.65842
43.70717401884041 9.635110000000001
43.731162972560874 9.667689999999999
43.75534137913236 9.613669999999999
43.779334381108384 9.58883
43.803329401683186 9.60262
43.82732644241872 9.56385
43.8515130055166 9.51966
43.87551410707659 9.51348
43.89951723350145 9.51261
43.923709934595614 9.501610000000001
43.94771713129917 9.49231
43.97172635758096 9.47979
43.99573761501002 9.489519999999999
44.0199385169922 9.426739999999999
44.04395385732619 9.408610000000001
44.067971233533086 9.41142
44.09199064718605 9.37912
44.11619977548961 9.39003
44.14022328470671 9.35175
44.16424883610785 9.35449
44.18827643127035 9.38012
44.21249381139513 9.33291
44.236525514814076 9.31752
44.26055926674478 9.272860000000001
44.28459506876863 9.28294
44.3088207262813 9.241389999999999
44.33286064928722 9.2441
44.35690262714919 9.24107
44.38094666145278 9.2081
44.4051806219871 9.19356
44.42922879003185 9.18115
44.45327901929361 9.13362
44.477331311362136 9.15461
44.501573600619416 9.13645
44.525630039221795 9.10858
44.54968854541895 9.13156
44.573937102200176 9.09521
44.5979997645541 9.08586
44.622064499300315 9.05258
44.64613130803592 9.05631
44.67038823869318 8.99548
44.69445921643748 9.01796
44.718532272981385 8.96849
44.742607409926194 8.9876
44.76687274034801 8.996739999999999
44.79095205918753 8.918339999999999
44.81503346325094 8.93574
44.839116954143876 8.8927
44.86339071028742 8.94517
44.88747839599524 8.917119999999999
44.91156817336837 8.91273
44.93566004401666 8.88844
44.959942251908146 8.85487
44.984038330325966 8.83319
45.00813650686762 8.843169999999999
45.03223678314731 8.795
45.05652746888232 8.7845
45.08063196592069 8.78238
45.104738567558705 8.7571
45.128847275414856 8.7538
45.15314646515866 8.71998
45.17725940679741 8.7289
45.20137445952892 8.69069
45.22568004865265 8.64433
45.24979934496396 8.64657
45.27392075725247 8.64456
45.29804428714431 8.70391
45.322358426247604 8.6544
45.346486212804315 8.63612
45.370616121861914 8.61465
45.39474815505086 8.59585
45.41907087049246 8.564969999999999
45.4432071734666 8.53921
45.46734560548283 8.53863
45.49148616817604 8.55711
45.51581748638564 8.508560000000001
45.5399623320197 8.5097
45.56410931325473 8.48969
45.58825843173002 8.54274
45.61259837920865 8.46172
45.636751793816 8.44787
45.66090735060093 8.447560000000001
45.68506505120716 8.4235
45.7094136545275 8.43083
45.73357566449271 8.372810000000001
45.75773982322992 8.34881
45.78190613238733 8.37458
45.806263418194064 8.3843
45.83043404997326 8.358239999999999
45.85460683713677 8.32215
45.87897065658495 8.305710000000001
45.90314777634752 8.32286
45.92732705646868 8.29492
45.9515084986045 8.26062
45.97588104735473 8.269680000000001
46.00006683541565 8.24893
46.02425479047904 8.22074
46.04844491420549 8.22185
46.0728262191024 8.23265
46.09702070211635 8.20388
46.12121735879483 8.197410000000001
46.14541619080294 8.12903
46.169806278764455 8.130360000000001
46.194009483459034 8.12355
46.21821486849841 8.09854
46.24242243555223 8.10188
46.266821333570014 8.086039999999999
46.29103328674601 8.06405
46.31524742696538 8.0825
46.33946375590237 8.03664
46.36387149104216 8.00169
46.38809221957392 8.00475
46.41231514186606 8.00234
46.436540259597464 8.01797
46.460956858999374 8.0003
46.48518638983522 7.93955
46.509418121166966 7.97042
46.533652054678114 7.96295
46.55807754555709 7.934069999999999
46.58231590571962 7.934089999999999
46.60655647313217 7.90658
46.630988654873654 7.874
46.655233659129024 7.82693
46.67948087571551 7.858110000000001
46.70373030632484 7.84008
46.72817142736393 7.815230000000001
46.752425308428684 7.8026
46.77668140861147 7.78543
46.80093972960865 7.75128
46.82538981736788 7.724469999999999
46.849652602470904 7.767589999999999
46.87391761349769 7.745369999999999
46.8981848521493 7.7023
46.9226439341274 7.70154
46.946915650573224 7.71307
46.97118959976749 7.68403
46.99546578341598 7.656160000000001
47.019933887188216 7.665210000000001
47.04421456235744 7.63702
47.06849747711879 7.641830000000001
47.09278263318286 7.6257399999999995
47.11725978640143 7.59196
47.14154944775105 7.5643899999999995
47.165841355555656 7.55824
47.1901355115306 7.56522
47.214621741924994 7.535139999999999
47.23892041698887 7.50436
47.26322134538975 7.5021
47.28771440635075 7.467510000000001
47.31201986422527 7.46365
47.33632758061436 7.45935
47.360637557241866 7.4394
47.38513974410611 7.43796
47.40945426407847 7.40828
47.43377104948137 7.41505
47.45809010204344 7.43572
47.48260144275502 7.389530000000001
47.506925052572285 7.3928199999999995
47.53125093475548 7.351310000000001
47.55557909103813 7.3724
47.58009961361992 7.363589999999999
47.60443234110732 7.2985
47.62876734791564 7.29294
47.65310463578333 7.31047
47.6776343683373 7.27353
47.7019762413987 7.27491
47.72632040075572 7.244669999999999
47.75066684815169 7.255139999999999
47.77520581885936 7.237539999999999
47.799556865477655 7.1928600000000005
47.823910205386 7.21937
47.84826584033272 7.21903
47.87281407745551 7.1929
47.89717432569297 7.20832
47.92153687423484 7.149889999999999
47.94609208429692 7.15267
47.97045925671401 7.11066
47.99482873471275 7.113460000000001
48.01920052005013 7.0930100000000005
48.04376504619224 7.13475
48.068141469543484 7.11609
48.09252020552573 7.08525
48.11690125590099 7.07136
48.1414751266064 7.032439999999999
48.16586082917454 7.05543
48.19024885144316 7.05386
48.2146391951793 7.04149
48.239222439012764 7.0171399999999995
48.26361744916137 6.99135
48.28801478610016 6.990489999999999
48.31241445160131 6.99706
48.337007097209366 6.95883
48.36141144338331 6.932939999999999
48.38581812345755 6.91253
48.41022713920929 6.9272100000000005
48.434829215320704 6.9162
48.45924292604658 6.91667
48.48365897780325 6.89182
48.50807737237308 6.86378
48.532688907799276 6.8982399999999995
48.55711201168574 6.85349
48.581537463754074 6.833810000000001
48.60615611725119 6.83828
48.63058628942721 6.818460000000001
48.65501881516546 6.78837
48.6794536962573 6.80346
48.70408185970339 6.781210000000001
48.72852147531801 6.758789999999999
48.75296345168211 6.73877
48.77740779059232 6.73671
48.80204549302823 6.75091
48.82649458091802 6.72065
48.85094603676547 6.68929
48.87539986237231 6.71685
48.90004713292306 6.686489999999999
48.92450572200832 6.67468
48.94896668628025 6.63311
48.97343002754588 6.633319999999999
48.99808689542115 6.6367899999999995
49.02255501470614 6.59115
49.04702551642794 6.59218
49.0714984023988 6.59342
49.096164896893235 6.61152
49.120642575466796 6.55333
49.145122643748394 6.5227699999999995
49.16960510355558 6.56705
49.19428125404938 6.54662
49.2187685210852 6.5019599999999995
49.243258185121555 6.47358
49.26794160167084 6.484430000000001
49.2924360839405 6.4519400000000005
49.31693296869764 6.477469999999999
49.34143225776915 6.455030000000001
49.36612538195438 6.4277
49.39062950396021 6.45076
49.41513603578346 6.43631
49.4396449792564 6.3971800000000005
49.46434784069503 6.40695
49.488861631846454 6.4224
49.513377840166804 6.3878699999999995
49.537896467493745 6.36905
49.56260909589029 6.34765
49.587132585683285 6.3775900000000005
49.611658500018365 6.33807
49.636186840738596 6.29544
49.66090926588511 6.26613
49.685442483902584 6.27262
49.70997813385706 6.2735
49.734516217597076 6.294169999999999
49.75924846937352 6.27366
49.7837914452858 6.25646
49.80833686055187 6.25841
49.83288471702571 6.22618
49.85762682540054 6.20178
49.882179588965734 6.17214
49.9067347993235 6.18844
49.93129245833333 6.14297
49.95604445336378 6.16525
49.98060703442832 6.17127
50.005172069746266 6.17384
50.02993150438364 6.13013
50.05450147301533 6.14567
50.07907390151433 6.12287
50.10364879174981 6.10072
50.12841816587289 6.113519999999999
50.1529980044635 6.093780000000001
50.17758031042124 6.12252
50.20216508562089 6.081230000000001
50.22694442953363 6.05828
50.25153416817468 6.02238
50.27612638170508 6.01809
50.300721072005196 6.03165
50.325510416102105 6.02688
50.350110084975064 6.00254
50.37471223628208 6.00959
50.39931687190919 5.98661
50.424116246675766 5.98601
50.44872587605249 5.9731
50.47333799543065 5.9614199999999995
50.49795260670191 5.9217900000000006
50.52276204271512 5.9232
50.54738166295838 5.927630000000001
50.57200378079314 5.92435
50.596628398116835 5.91525
50.62144792604559 5.86292
50.646077567609396 5.84743
50.670709714377715 5.89319
50.69553683636198 5.85745
50.72017401885922 5.86395
50.7448137122895 5.83934
50.76945591856022 5.80015
50.79429318636823 5.81234
50.818940443716784 5.8265199999999995
50.84359021965163 5.79392
50.868242516085964 5.78585
50.893089960641895 5.77615
50.917747323549435 5.7419
50.94240721271973 5.75971
50.96706963007175 5.75162
50.99192728239342 5.71393
51.01659478166073 5.71467
51.04126481489051 5.70691
51.06593738400761 5.66994
51.090805275207074 5.67732
51.11548294172845 5.63811
51.14016314993547 5.67316
51.164845901758845 5.6513
51.18972406304274 5.6701
51.21441192780656 5.62298
51.23910234200271 5.6319300000000005
51.2637953075678 5.60804
51.288683770237945 5.60711
51.31338186432707 5.57447
51.33808251561888 5.57903
51.362978729967345 5.5431
51.387684521509755 5.55462
51.41239287610203 5.57452
51.437103795691165 5.53245
51.46201036644977 5.52586
51.486726441956634 5.515
51.51144508832545 5.53445
51.536166307509156 5.4945
51.56108326624387 5.47543
51.58580965706056 5.45253
51.61053862657523 5.4505300000000005
51.635270176746864 5.43676
51.66019755512065 5.43818
51.68493429268881 5.4126900000000004
51.70967361681515 5.39968
51.73441552946465 5.4066
51.759353359237934 5.40414
51.7841004750961 5.40682
51.80885018539685 5.40648
51.833602492111254 5.33817
51.8585508051424 5.33615
51.883308330926425 5.35046
51.90806845906181 5.34016
51.932831191525715 5.32139
51.95779001977161 5.2924
51.98255798721516 5.29282
52.00732856494335 5.298430000000001
52.03229530577543 5.2679800000000006
52.057071130455945 5.26698
52.081849571391054 5.25657
52.106630630568695 5.23604
52.13160794279417 5.18936
52.15639426492067 5.2384900000000005
52.18118321127822 5.21767
52.205974783860896 5.21941
52.23096269971011 5.1718
52.255759551287994 5.18653
52.280559035098186 5.16619
52.30536115314103 5.13379
52.33035970494467 5.15428
52.35516711807904 5.1587
52.37997717147198 5.16234
52.40478986713005 5.15722
52.42979908731974 5.13624
52.454617094216 5.10361
52.47943774942214 5.086040000000001
52.50426105495102 5.05875
52.529280976059844 5.05919
52.554109609024096 5.0214099999999995
52.57894089837482 5.01853
52.60377484613117 5.02315
52.62880550079408 5.0117
52.65364479223379 5.02924
52.67848674816189 4.97434
52.70352547971946 4.99451
52.72837279155837 4.98037
52.753222773982785 4.96206
52.778075429022984 4.96339
52.80312495150885 4.94649
52.827982978797436 4.95976
52.85284368481815 4.94689
52.87770707160767 4.92336
52.90276741793998 4.92849
52.92763619336701 4.90613
52.952507655698504 4.9117
52.977381806977576 4.89141
53.00245301017842 4.85224
53.02733256653592 4.85516
53.052214817996074 4.86639
53.077099766608484 4.84624
53.102181859804446 4.8371
53.127072229988265 4.8435
53.15196530349892 4.85161
53.17686108239249 4.77766
53.20195409881522 4.80279
53.22685531582556 4.78909
53.25175924441303 4.78989
53.27666588664027 4.77484
53.30176985962693 4.76074
53.3266819565689 4.75999
53.35159677336455 4.756419999999999
53.376514312083096 4.68844
53.40162927507703 4.70003
53.42655228516116 4.7270199999999996
53.45147802340193 4.6926
53.47660125628886 4.7072
53.50153247842639 4.68021
53.52646643496923 4.67331
53.55140312799818 4.675
53.576537409691696 4.67666
53.60147960336152 4.64049
53.626424539786164 4.65261
53.65137222105307 4.62315
53.67651758529126 4.63968
53.70147078399681 4.56784
53.72642673383343 4.58071
53.75138543689533 4.58194
53.776541917524526 4.584919999999999
53.801506154876755 4.5914
53.826473151763246 4.52525
53.851442910284916 4.55264
53.87661054126026 4.53705
53.9015858509782 4.52731
53.92656392866066 4.50742
53.95154477641532 4.47578
53.976723591801296 4.4770900000000005
54.00171000771266 4.5096
54.02669920004598 4.45944
54.051691170915745 4.44569
54.076881204886796 4.44473
54.101878760928514 4.4348
54.12687910187696 4.436
54.152077577768296 4.4025099999999995
54.1770835166946 4.395230000000001
54.20209224691339 4.44343
54.22710377055121 4.36817
54.25231352511594 4.35952
54.27733066384342 4.34313
54.30235060239643 4.3405
54.32737334290836 4.33845
54.35259441062629 4.27862
54.377622783395324 4.30184
54.40265396455061 4.31222
54.42768795623251 4.30206
54.45292037169559 4.2599
54.477960012857906 4.24262
54.50300247099511 4.21911
54.52804774825457 4.1512199999999995
54.55329154616743 4.17105
54.57834249018678 4.14659
54.6033962597977 4.118119999999999
54.6284528571545 4.07522
54.653708072335164 4.09227
54.67877035378786 4.083819999999999
54.70383546947698 4.06156
54.72890342156389 4.03155
54.7541700889442 4.039219999999999
54.77924374251975 4.0952
54.8043202390049 4.05346
54.82959552413022 4.00875
54.8546777351945 3.9815
54.87976279569621 4.02306
54.90485070780914 4.03043
54.930137506558005 3.97084
54.95523115074295 3.9666900000000003
54.98032765308844 3.9489699999999996
55.005427015775496 3.94425
55.03072536339621 3.9239800000000002
55.05583047570572 3.8540300000000003
55.080938454927676 3.8701
55.10604930325027 3.8534900000000003
55.131359235107396 3.8783800000000004
55.15647585066083 3.79215
55.181595341907496 3.82504
55.20671771104285 3.7617599999999998
55.232039262617704 3.77711
55.25716741665048 3.73527
55.28229845518636 3.7606300000000004
55.30743238042802 3.6882699999999997
55.33276558731939 3.69414
55.357905315183636 3.66295
55.383047936390035 3.5956699999999997
55.40819345314859 3.6175699999999997
55.433538351073295 3.5832800000000002
55.458689688238415 3.60875
55.483843927614096 3.5689900000000003
55.509197623043605 3.54124
55.53435769621134 3.5218800000000003
55.55952067826466 3.49329
55.5846865714265 3.50221
55.61005202069737 3.54439
55.63522376553902 3.5173400000000004
55.66039842818645 3.4819199999999997
55.68557601087004 3.49128
55.7109532500271 3.4518800000000005
55.73613670233794 3.42709
