TT I
1.2716486653135266 7.110110000000001
1.2939594142134223 6.75253
1.3162702121660406 5.68129
1.3385810600174564 5.8285
1.3608919586137629 6.1902800000000004
1.383202908801069 6.36454
1.405513911425503 6.31837
1.4278249673332093 6.16982
1.4501343378461518 5.6281099999999995
1.4724455028545926 5.01877
1.4947567236847858 5.31879
1.517068001182951 5.74523
1.5393793361953272 5.36829
1.5616907295681737 5.39844
1.5840021821477681 4.9913300000000005
1.60631369478041 4.68518
1.6286252683124185 4.4436800000000005
1.6509369035901333 4.87197
1.6732468618895553 5.26356
1.695558623192809 4.52653
1.7178704487808514 4.36397
1.7401823395001077 4.8199
1.7625012545597203 4.53081
1.7848028405262486 4.66317
1.8071218901122095 3.85279
1.8294236121921872 3.6651300000000004
1.8517427996910911 4.31562
1.8740620574440425 3.84973
1.8963639900671978 3.9391199999999995
1.9186833908139995 4.13492
1.9409854680117449 4.59502
1.9633050151394713 4.93011
1.9856246367570705 4.60763
2.0079269371922672 4.2054599999999995
2.03024671027244 4.0450099999999996
2.0525491637446027 3.8377
2.074869091674931 3.9426
2.097171701569106 4.31222
2.1194917877373847 4.4303300000000005
2.141811954326636 4.65693
2.164114805233074 4.12
2.186435135143035 4.86897
2.208738150935709 5.655930000000001
2.231058647554722 7.03056
2.2533792288321184 6.92382
2.275682498336085 5.54978
2.298003251406138 4.74044
2.3203066942619714 4.690930000000001
2.3426276225136022 4.62545
2.3649486396617507 5.36068
2.387252348930071 5.89254
2.4095735463442893 6.01397
2.4318774374315884 6.08686
2.4541988185014043 6.581989999999999
2.476502894794693 7.27499
2.498824462909887 7.06151
2.521146125856138 7.157019999999999
2.5434504863470337 7.325880000000001
2.5657723414244717 7.543880000000001
2.588076895590662 8.24123
2.610398946189713 8.428930000000001
2.6327210958598384 8.21906
2.6550259469304716 7.63404
2.6773482972090137 8.77015
2.6996533504259 8.52777
2.7219759047039602 8.30443
2.744298562293959 9.06737
2.7666039251246595 7.94619
2.7889267918020164 8.16395
2.8112323652516555 8.241389999999999
2.833555444408179 8.48997
2.8558786311183852 8.63844
2.8781845268938557 9.1093
2.9005079311721484 9.23109
2.9228140460410397 9.0502
2.9451376712799635 9.18641
2.967444008632326 9.31253
2.9897678582247247 9.90048
3.0120918213106695 9.91468
3.0343984987899373 10.41
3.0567226913198637 10.417
3.079029599759726 11.254000000000001
3.101354025127254 12.3911
3.123678568232338 12.9715
3.145985829517914 12.923
3.16831061055229 13.6106
3.1906181112775593 14.0246
3.212943133635653 14.3241
3.2352682779763207 14.9556
3.2575761442691227 14.7429
3.2799015350264273 15.1174
3.302209649240067 15.4947
3.3245352898092655 15.9125
3.3468436553365257 16.6501
3.369169549113219 16.9359
3.3914955708171384 17.8438
3.413804319727358 18.4527
3.4361305997334863 18.1623
3.4584396084414553 18.3778
3.4807661501462652 19.3175
3.503092824025881 19.5789
3.5254022288463154 20.0826
3.5477291695206588 20.4742
3.5700388426251948 20.6984
3.5923660534916446 21.4755
3.6146934007816114 22.6773
3.637003482731501 27.3244
3.6593311053109985 29.4863
3.681641464033634 26.4512
3.7039693653009733 23.8552
3.726297407241705 23.6757
3.7486081875460804 23.6784
3.7709365132734978 24.5757
3.793247578841633 25.1011
3.8155761917550093 25.6525
3.8378875459837216 25.5764
3.8602164494827234 25.8691
3.882545499606844 26.8753
3.9048572932539183 27.1153
3.9271866390645718 27.434
3.9494987298666713 28.2216
3.971828374764527 29.0391
3.9941581705403255 29.2736
4.016470713506008 29.6895
4.038800813471445 30.3611
4.061113662089144 30.9372
4.0834440696459176 31.1556
4.105774632334751 31.8236
4.128087945865126 32.2986
4.150418821249301 32.4611
4.172732448931298 33.8419
4.195063640413578 34.6324
4.2173775856475215 35.2121
4.239709096631102 37.8016
4.262040768704612 52.0245
4.284355196706267 63.6679
4.306687193387355 56.7743
4.329001947444346 43.9318
4.35133427213731 40.4636
4.373666762177566 40.5175
4.395982011761091 41.4235
4.418314834921175 41.6811
4.44063041906622 43.3263
4.4629635787515625 45.2337
4.4852969080429785 45.8851
4.5076130004776225 46.253
4.529946671403969 46.7666
4.552263106909177 47.2311
4.574597122877047 48.5673
4.596931312711224 49.7019
4.619248269273446 50.5947
4.6415828092605835 51.2314
4.663900117405352 52.7189
4.686235010953232 54.1009
4.708552674085913 55.1448
4.730887924602802 56.7132
4.753223354952695 57.9133
4.775541557023902 59.5728
4.797877349456786 60.9203
4.820195915032126 62.4903
4.842532072957498 64.1036
4.864868414979744 66.1868
4.88718753227192 68.4807
4.909524244902505 70.2167
4.931843734218147 71.8981
4.954180820867835 74.0913
4.976518095879839 76.7365
4.998838149695359 79.818
5.021175803844231 83.3089
5.043496238205739 85.5851
5.065834274903528 89.4022
5.088172504230693 92.8623
5.1104935158799565 98.2449
5.132832132875765 105.977
5.155153533596801 118.226
5.1774925416746225 137.90200000000002
5.199814334878411 229.64700000000002
5.2221537374521505 802.75
5.244493338631803 2498.07
5.266815727034316 7160.28
5.289155727832427 13668.6
5.311478517248165 9669.59
5.333818921080011 3368.78
5.356159527788849 688.78
5.3784829252032536 210.03900000000002
5.400823940070432 144.846
5.423147747031976 123.764
5.445489173474152 113.73700000000001
5.467830807066149 108.014
5.490155234831516 103.874
5.512497285125229 100.805
5.534822130975162 99.4758
5.557164601388673 97.5555
5.579489868738879 94.3938
5.601832762690846 93.1644
5.6241758697774475 92.27
5.646501775867269 91.2351
5.668845311622074 90.3852
5.691171647754637 89.8613
5.713515615597765 88.7058
5.735859800852677 88.10799999999999
5.758186788542988 87.3293
5.780531411018185 86.8316
5.802858837297399 86.5388
5.825203900414495 86.4125
5.8475491852224 86.4216
5.869877275883075 87.162
5.892223006467101 88.0531
5.914551544266608 88.7092
5.936897724049891 91.0448
5.959244129804903 94.8781
5.981573344815301 106.916
6.0039202049061 163.27100000000002
6.026249875609095 394.601
6.04859719346037 888.587
6.070927323278297 2052.47
6.093275102315365 4531.94
6.115623113320588 5597.05
6.137953938319995 3650.91
6.160302415650845 1086.75
6.182633708324452 240.74099999999999
6.2049826554078376 109.273
6.227331838745022 87.4225
6.249663839443684 79.9298
6.27201349767565 76.1451
6.294345974611799 74.0174
6.316696111167083 73.3425
6.339046488263839 71.5733
6.361379686074702 68.499
6.383730546639482 66.8972
6.406064229255215 65.1283
6.428415576718203 64.4789
6.450749747566656 63.5958
6.47310158535871 62.5123
6.495453669698332 61.9069
6.517788579421056 61.3242
6.540141159237969 60.4034
6.562476565766648 59.7662
6.5848296444934045 59.1151
6.607182974060425 58.6521
6.6295191323281015 57.9091
6.651872965955752 57.2354
6.6742096296068985 58.6813
6.6965639707294615 63.292
6.71891856698715 64.3386
6.741255995248479 60.5168
6.763611104154477 56.6375
6.785949046381137 55.2306
6.808304671371482 54.6693
6.8306605557940046 54.1647
6.852999275508618 53.6686
6.875355681171544 53.6091
6.897694923437771 53.6569
6.92005185377892 53.5443
6.9423916220322655 53.1224
6.964749080490181 52.6033
6.987106804399774 52.4877
7.009447368180821 52.6086
7.031805625367033 52.3386
7.054146723727803 51.9303
7.076505517631004 51.898999999999994
7.098864581288365 52.2697
7.121206488070854 51.9984
7.143566093607822 51.4558
7.165908543567245 51.7706
7.188268694426048 51.5451
7.2106291193438095 51.162
7.232972390625943 51.0616
7.255333366030969 51.7399
7.277677189091925 55.4093
7.300038718428332 61.7708
7.322400526130865 61.0478
7.344745183422596 55.8339
7.367107550224791 52.6548
7.389452767901992 52.0339
7.411815697249891 51.7613
7.434161478756298 51.228
7.456524974096713 51.5915
7.478888753837185 51.8341
7.501235387657368 53.1976
7.523599738562711 58.3095
7.545946944825532 68.0236
7.568311870344528 72.1847
7.5906770845765665 64.8854
7.613025156078678 56.6016
7.635390950099687 53.6362
7.657739602662809 52.7302
7.680105979923558 52.9009
7.702472650212829 53.2558
7.724822180948224 52.836999999999996
7.747189439655568 53.2696
7.769539560075357 53.6442
7.791907410653562 53.8522
7.81425812420825 53.7064
7.836626570110925 53.9902
7.858995315087906 54.786
7.881346924933401 55.1056
7.903716270417482 55.8721
7.926068482028405 55.8421
7.948438431475253 56.3969
7.9708086843180235 56.7525
7.993161805171116 57.5264
8.015532667162402 57.6663
8.037886398416653 58.4705
8.060257873014221 59.1968
8.082629655331942 59.6289
8.104984308787587 59.9393
8.127356708900503 60.9972
8.149711981398308 62.1863
8.172085002766314 63.1762
8.194458336181368 64.0922
8.216814543847752 64.4999
8.23918850371002 65.9808
8.26154533906492 66.9021
8.283919928836452 68.2776
8.306277395339652 69.2229
8.328652618483376 70.4681
8.351028159736202 72.0721
8.373386579575245 73.9595
8.395762759396959 75.3879
8.418121819038275 77.9084
8.440498640894003 81.5803
8.462875785192262 86.3226
8.485235811156207 94.3462
8.507613602688501 128.024
8.529974277114228 229.05700000000002
8.552352719347912 377.395
8.574731488360351 616.405
8.59709314210385 1103.61
8.619472567021075 1842.21
8.64183487789147 2297.94
8.664214962183097 1968.8
8.686577933647762 1106.73
8.708958680784317 415.186
8.731339760774953 171.99
8.753703729764451 109.12
8.77608547780821 94.9347
8.798450116065078 91.057
8.820832535634787 88.7256
8.843215292401656 87.2449
8.865580941199045 85.6983
8.887964374703538 84.652
8.910330701447199 84.0951
8.932714815164482 83.2489
8.955099270424924 82.2472
8.977466620733543 81.6626
8.999851761421976 80.9154
9.022219798361645 80.3033
9.04460562795561 80.3966
9.066991803441677 79.8833
9.089360876979615 79.5515
9.111747746589993 79.6378
9.13411751544971 79.2566
9.156505082664324 79.2241
9.178875550323522 79.2384
9.20126381862328 81.3695
9.223652438908596 90.0707
9.246023961427412 105.01899999999999
9.26841328802173 111.81200000000001
9.290785518039224 101.978
9.313175554425882 88.7849
9.335565947154315 81.6268
9.357939245086508 79.8404
9.380330352834827 79.9183
9.40270436697103 79.8804
9.425096193225055 79.744
9.447488380180165 81.1082
9.469863475295412 80.8519
9.492256385987508 81.362
9.514632206018318 81.8699
9.537025843935714 82.2952
9.559402392368193 82.5398
9.581796761000229 83.2941
9.604191496441521 83.9843
9.626569144158516 84.5641
9.648964615551032 85.8593
9.671343000390081 86.5797
9.693739211225699 87.2923
9.716135793237463 87.8892
9.738515290448102 88.4963
9.760912617143402 89.8136
9.783292860202891 90.7389
9.805690935076182 91.7379
9.828089385495742 92.1298
9.850470754023561 94.2047
9.872869957865444 96.3222
9.89525208097539 99.4215
9.917652041736662 102.76100000000001
9.940052382417589 106.225
9.962435644102392 115.5
9.984836746950979 147.375
10.007220771957746 227.778
10.029622640473708 349.13
10.052007432299963 518.265
10.074410069984072 777.462
10.096813093716005 1204.47
10.119199042482517 1776.37
10.141602840636468 2093.19
10.163989564971628 1715.92
10.186394141051062 1027.94
10.208799107559706 449.375
10.231187001965623 201.12400000000002
10.253592751657669 125.573
10.275981430388155 107.771
10.298387966769793 103.152
10.320794897965431 101.932
10.343184759907361 100.68299999999999
10.36559248305461 98.9141
10.387983138083852 98.0809
10.410391656691655 98.9795
10.432800574501677 107.84200000000001
10.455192425893369 130.116
10.47760214443012 162.256
10.499994797678786 204.334
10.522405320453982 273.247
10.54479877906917 385.51
10.567210109595656 512.362
10.5896218454736 593.448
10.612016518879773 567.393
10.634429067781074 401.661
10.656824555333241 231.32
10.679237920773568 141.457
10.701651695961992 103.802
10.724048411481384 92.5643
10.746463008485165 86.5173
10.768860546937125 82.9568
10.791275969274796 80.1681
10.81369180576079 79.1917
10.836090585366925 77.8324
10.858507252467449 76.5304
10.88090686379991 75.7083
10.903324365036394 74.94
10.925724811614439 73.5625
10.948143150509463 73.7654
10.970561909719066 72.626
10.992963615930844 71.9384
11.015383218085756 70.953
11.037785768347074 69.8246
11.06020621697282 69.5135
11.082627090322113 68.9379
11.105030913430326 68.2999
11.12745263854165 67.671
11.149857314510728 67.2868
11.172279894912576 68.0252
11.194702904450653 67.4413
11.217108866490921 66.4041
11.239532736615194 65.4825
11.26193956033512 65.0668
11.284364294577085 64.8444
11.306789462371718 64.1262
11.329197585398376 63.8492
11.351623622610898 63.9059
11.37403261614354 63.2066
11.396459526308487 63.0554
11.418869393879497 62.7954
11.441297180532617 62.3722
11.463725406927658 61.9754
11.486136592353875 61.9542
11.508565700543707 61.2696
11.530977768845315 61.339
11.553407762368774 61.2799
11.575838200059769 61.4016
11.598251599479612 60.7392
11.620682927815501 60.4574
11.64309721895548 60.4964
11.665529441478206 60.2773
11.687962112597958 59.8828
11.710377748130886 60.0788
11.732811318753434 59.8907
11.755227854859067 59.9183
11.777662328529495 59.9718
11.800079768750786 59.9184
11.822515149015453 59.868
11.844950984084935 60.076
11.867369787303163 59.8622
11.889806534289491 60.0972
11.912226250487029 62.0295
11.934663912939751 64.9451
11.9571020346363 67.8701
11.979523127133968 68.3046
12.001962169624331 66.7023
12.024384183972964 63.9028
12.046824150809913 64.2962
12.069264581333726 69.5463
12.091687985297767 76.8873
12.11412934550045 86.4439
12.136553680195208 99.2876
12.158995973632788 120.42299999999999
12.181438735204349 146.855
12.20386447284199 179.09400000000002
12.226308172985636 204.542
12.24873485024193 210.72400000000002
12.271179492516982 176.58700000000002
12.293607112949127 136.7
12.316052700916226 97.7384
12.338498763250042 74.4881
12.360927805303868 64.8309
12.383374818673879 62.3454
12.405804812803074 61.4436
12.428252780773262 61.248000000000005
12.45070122756722 61.0382
12.473132656675375 61.0024
12.49558206341869 61.2505
12.518014453510101 61.4224
12.540464823770117 61.4591
12.562915677315177 61.6792
12.58534951575545 62.105
12.607801338171472 61.7196
12.630236146511358 62.7859
12.652688941369085 63.5159
12.675124723177234 64.2718
12.697578494048786 64.2787
12.720032754458185 64.0736
12.742470003354093 64.362
12.764925245138771 64.9068
12.787363476431278 65.0205
12.809819703166806 65.4825
12.83227642391173 66.2259
12.854716135692716 66.5325
12.877173846755147 67.8175
12.899614549869717 67.8771
12.9220732548287 68.7038
12.94453245827299 69.45
12.966974655289818 70.4722
12.989434858002571 71.0311
13.011878055298721 71.6085
13.034339260862497 72.7749
13.056800969391883 74.4726
13.079245674017244 76.7128
13.101708390774869 78.363
13.12415410463411 82.3512
13.146617833206086 92.7778
13.169064559883248 108.06
13.191529303857127 126.111
13.213994557076367 148.92600000000002
13.236442809902437 181.525
13.258909083908291 230.278
13.28135835851934 292.676
13.30382565690295 369.57300000000004
13.326293469022952 436.652
13.348744283242008 454.374
13.371213125129904 383.777
13.39366497011003 282.223
13.416134845360597 185.21200000000002
13.438605238843131 127.35600000000001
13.46105863690397 102.851
13.483530069144786 99.3574
13.505984506951902 107.417
13.528456981549432 120.37299999999999
13.550929978879088 136.059
13.573385983253365 157.17
13.595860028340867 190.12900000000002
13.618317081455832 237.03
13.64079217790333 298.972
13.663250283359057 355.839
13.685726434770173 390.689
13.708203115221277 363.98
13.730662806148091 288.82099999999997
13.75314054697177 206.451
13.775601299246777 138.18
13.798080104050406 100.682
13.820559442405358 84.5428
13.843021793671388 79.8149
13.865502201420897 77.6409
13.887965623051947 76.9648
13.910447103807167 76.036
13.932929122629764 74.6277
13.955394156785959 74.4842
13.977877254034569 73.5589
14.000343367582113 72.815
14.022827546871707 72.0786
14.045294743423524 71.3627
14.06778000837062 70.7111
14.090265817715476 70.9701
14.112734645763819 71.7699
14.13522154619454 73.1912
14.157691466286913 75.1976
14.180179461423874 75.4232
14.202668005486178 73.28699999999999
14.22513957064374 70.6694
14.247629214846473 69.0046
14.270101881097517 67.88
14.29259262906496 67.6179
14.315083930490205 67.5829
14.337558255389705 67.1313
14.360050666019726 67.3068
14.382526101071944 66.9083
14.405019624534942 66.7403
14.427513705993134 66.3651
14.449990813291825 66.4793
14.47248601302899 66.0839
14.49496423954951 66.4859
14.517460561197822 66.4283
14.539939910570322 66.2912
14.562437357763558 66.223
14.58493536931253 66.6232
14.607416409993311 66.9925
14.62991555254159 66.9066
14.652397725157423 67.1911
14.674898002342799 67.6511
14.697398848433282 67.51899999999999
14.719882725991326 68.4438
14.74238471217934 68.7952
14.764869730765593 70.9198
14.787372860692983 74.6003
14.809876564079925 81.2191
14.83236330125751 89.0679
14.854868153850365 98.0903
14.877356041159485 110.611
14.899862046604186 125.887
14.922351087688757 148.895
14.944858249632887 180.273
14.967365991421232 209.016
14.989856770231246 229.005
15.012365673994204 228.855
15.03485761569738 201.55900000000003
15.05736768508665 160.19
15.07987833888692 122.08
15.102372032001655 94.0217
15.124883856909658 77.6045
15.14737872204565 71.3126
15.169891721717274 68.6803
15.192405310371893 67.8402
15.214901940621196 67.3608
15.237416709527137 66.7384
15.259914520936249 66.6982
15.282430473753607 65.9015
15.304947020131227 65.4248
15.327446610371178 64.92699999999999
15.349964346154254 64.4862
15.372465126703139 64.2698
15.394984055556009 64.3312
15.417486030076159 63.968999999999994
15.44000615566487 63.7108
15.462526881230803 63.7917
15.485030653812652 63.5669
15.507552581617434 63.5323
15.530057557334603 63.5641
15.55258069104857 63.6464
15.575104429329837 63.6796
15.597611216864632 63.6551
15.620136166564563 63.7049
15.6426441664095 64.0404
15.665170331202765 65.2043
15.687697105158826 68.4945
15.710206930593545 74.1586
15.732734925158933 79.8262
15.755245972089478 86.8518
15.77777519094324 95.11399999999999
15.800287463046663 105.97200000000001
15.822817909869592 123.152
15.84534897229804 143.635
15.867863089299354 169.074
15.890395385222186 190.762
15.912910736597423 202.667
15.935444269699861 194.305
15.957978423016485 169.923
15.980495633101265 134.845
16.003031029129367 104.925
16.02554948280019 81.748
16.048086125229432 69.727
16.070623392487107 64.7959
16.09314371869582 63.0436
16.11568223789321 61.2391
16.13820381691126 59.865
16.160743591742527 59.2178
16.183283996022084 58.4181
16.205807461423195 57.5387
16.228349126881973 56.9025
16.25087385432698 57.0102
16.27341678466365 56.4784
16.29594277784926 56.0167
16.31848697676433 55.7116
16.341031811604868 55.248000000000005
16.36355971058487 55.3534
16.3861058195587 55.2007
16.40863499352978 54.521
16.431182380342005 54.3564
16.453730407713202 54.0818
16.476261501364792 53.7849
16.498810812136167 53.5643
16.52134319004079 53.7604
16.54389378792203 53.635
16.566445031001553 53.3976
16.588979342490088 53.2146
16.61153187824822 53.1452
16.634067483263312 53.2496
16.656621315414416 53.0626
16.679175797408888 52.6194
16.701713349928728 52.6033
16.72426913389191 52.9158
16.74680798922351 52.8958
16.76936507887444 52.8158
16.791905240734874 52.9479
16.814463639794468 52.8893
16.837022695210294 52.83
16.859564824093756 52.8751
16.882125194503903 53.1274
16.904668639217885 53.7377
16.927230328348003 54.0068
16.949792678493612 54.2937
16.972338104193863 54.1979
16.994901778652235 53.8937
17.017448529496576 53.8906
17.040013531998152 53.9269
17.06257920018044 54.2927
17.0851279459922 54.903
17.107694947817667 56.0054
17.130245028099072 57.1248
17.15281336730298 58.4645
17.17536478578733 60.3594
17.19793446610687 62.1665
17.220504818648422 65.0515
17.243058251703697 67.9245
17.265629950971032 72.5149
17.288184731571736 77.3622
17.310757781306908 82.3125
17.33333150794385 83.711
17.355888317140174 83.0133
17.37846339986244 78.8108
17.401021565958885 72.4061
17.42359800851343 66.0368
17.44617513265564 61.5561
17.468735341390783 59.1284
17.491261035594565 57.6713
17.51396340099364 57.27
17.536490463869136 57.2975
17.559018209820174 57.2438
17.58154663977963 57.5069
17.604251766089718 57.7025
17.626781572227713 57.7133
17.64931206518155 58.0393
17.671843245885103 58.238
17.69455114821572 58.4555
17.717083712612634 58.9492
17.739616967569667 59.4199
17.762150914021706 60.0698
17.78486160749854 60.2144
17.807396945166804 60.7269
17.829932977143503 61.2654
17.85246970436452 61.8702
17.875183204129467 63.5953
17.897721330097664 66.6754
17.920260154126645 70.0509
17.942799677153296 73.4261
17.9655159983646 77.814
17.988056927677544 82.4449
18.010598558807683 89.1513
18.033140892692916 98.1402
18.05586005052525 109.324
18.07840379824407 121.29799999999999
18.10094825154059 133.32
18.12366954819864 142.515
18.146215420998306 144.653
18.16876200220057 138.608
18.191309292745153 124.235
18.214033452627167 109.596
18.236582170236648 96.2952
18.259131600016456 88.5264
18.281681742907335 86.2714
18.304408781233683 89.1459
18.32696035875955 94.2398
18.349512652227624 99.2747
18.372065662579683 105.32
18.394795594587553 107.84700000000001
18.41735004715306 104.84700000000001
18.43990521943684 99.2264
18.46246111238171 89.3935
18.485193953325208 79.3269
18.507751296070428 71.038
18.530309362314178 65.9629
18.552868153000343 62.9706
18.57560391815056 61.2986
18.59816416623245 60.8001
18.620725141597372 60.2259
18.643286845190268 59.5097
18.666025549835414 59.0428
18.688588718427933 58.367
18.711152618092243 58.3024
18.73389353884365 58.001000000000005
18.75645890921984 57.6967
18.77902501351406 57.3515
18.801591852673102 57.0907
18.824335739722738 56.5251
18.846904057212626 56.5869
18.8694731124168 56.1766
18.89204290628315 56.1329
18.914789774966803 56.0409
18.937361054791623 56.0298
18.959933076131318 55.6164
18.982505839934877 55.5358
19.00525570560582 55.41
19.027829963004184 55.1809
19.05040496572238 55.2964
19.072980714710468 55.1358
19.095733592739563 55.2165
19.11831084296757 55.3322
19.140888842324735 56.0652
19.16346759176222 56.3517
19.18622349753803 57.1025
19.208803755869358 58.2868
19.231384767143577 59.4426
19.253966532312948 60.7524
19.276725481241822 62.8111
19.29930876296784 65.7189
19.3218928014549 69.2147
19.34465404436217 72.2473
19.36723960516257 74.7731
19.389825925592426 76.4373
19.412413006605938 75.3366
19.43517731967805 72.3491
19.457765930683355 68.0597
19.48035530514408 63.6066
19.50294544401556 59.6453
19.525712842708348 56.3103
19.54830451925909 54.4181
19.570896963095727 53.0156
19.593490175174704 52.6661
19.616260674962184 52.5343
19.638855432416964 52.3233
19.661450960992624 52.3524
19.68404726164677 52.3185
19.706820878021247 51.9771
19.729418731756834 52.0354
19.752017360452857 51.7566
19.77461676506804 52.0392
19.797393513540218 52.0109
19.819994478951667 52.1986
19.84259622316767 52.8195
19.8651987471481 53.4793
19.887978643247177 53.7756
19.91058273574792 54.4492
19.933187610901943 55.2449
19.955969879466828 56.3652
19.97857632894404 57.6155
20.00118356396599 58.9867
20.023791585494575 61.1587
20.046577028914875 64.1764
20.069186632506966 66.6638
20.091797025500632 69.0301
20.114408208858933 70.6546
20.137196842715273 70.7449
20.159809615886765 69.3894
20.18242318232135 67.1873
20.20503754298326 64.4064
20.227829382875154 62.8267
20.250445341109344 62.012
20.27306209647285 62.2427
20.29567964993108 63.5679
20.31847471147704 64.7486
20.34109387027612 65.6262
20.363713830075454 65.8882
20.386334591841646 64.3126
20.409132890679302 61.5713
20.431755265564437 58.3841
20.454378445325528 55.3183
20.477002430930366 52.8947
20.499803982716553 51.3824
20.522429589228004 50.3014
20.54505600449589 49.4704
20.567683229489194 49.3511
20.590488049900088 49.3301
20.61311690359731 48.9986
20.63574656993626 48.7003
20.658553853717297 48.4708
20.681185154618298 48.3843
20.703817271080066 48.3022
20.72645020407368 48.0989
20.749260783967177 48.1528
20.771895359337133 48.1566
20.794530754161617 48.3046
20.817166969412938 48.1837
20.83998086114876 48.074
20.86261872660049 47.7698
20.885257415405402 47.6699
20.90789692853701 47.633
20.930714147864748 47.342
20.953355319030678 47.3194
20.97599731745334 47.4097
20.99864014410749 47.3222
21.021460706796564 47.3548
21.044105199328826 47.5282
21.06675052302631 47.8926
21.089396678865015 48.0355
21.112220600704806 48.1827
21.134868430275347 48.5241
21.15751709492456 48.8482
21.180166595629693 49.1077
21.202993892429635 49.6268
21.22564507473034 50.2628
21.24829709602816 50.4032
21.27112693608965 50.5955
21.293780644891275 50.7578
21.316435195634053 50.1623
21.339090589297417 49.3426
21.361923832041875 48.6829
21.384580921090404 48.0072
21.407238856007325 47.4629
21.429897637773326 47.3857
21.45273429906592 47.3015
21.475394784108598 47.5428
21.498056118951983 47.2146
21.520718304578022 47.4051
21.543558400304388 47.4501
21.566222297108816 47.6934
21.58888704765135 47.6924
21.61155265291521 47.9002
21.63439619898156 48.5531
21.657063523335786 49.0675
21.67973170537063 49.727
21.7024007460706 50.3483
21.72524775840385 51.028999999999996
21.747918526116475 51.9156
21.770590155457388 52.9175
21.79326264741238 54.3813
21.816113141960237 56.0754
21.838787368860547 58.2571
21.861462461341976 60.5774
21.884315579735777 62.9307
21.90699241312273 64.7325
21.92967011506078 65.3513
21.95234868653799 65.4367
21.9752053151131 64.1637
21.997885635446785 62.2762
22.020566828293532 60.0432
22.04324889464272 58.0217
22.066109049404666 56.6448
22.088792872571794 56.0818
22.111477572219204 56.1183
22.1341631493376 56.3077
22.157026846313123 56.1695
22.179714188221507 55.5223
22.202402410582668 54.4692
22.22509151438863 52.8972
22.24795876962584 51.4618
22.270649646204486 50.0457
22.293341407213727 49.104
22.316034053646906 48.4239
22.338904883215342 48.0343
22.36159931041458 48.0676
22.38429462602756 47.7207
22.40699083104897 47.4077
22.429865251039757 47.6274
22.452563244831367 47.636
22.47526213102522 47.6322
22.49813925616515 47.5583
22.520839937143307 47.6738
22.543541513520587 47.5221
22.56624398629403 47.5162
22.589124730075895 47.5012
22.611829005656723 47.7546
22.63453418063466 47.6462
22.657240256008077 47.7783
22.680124634582935 47.9467
22.70283252079775 48.5187
22.725541310413075 48.8831
22.74825100442868 49.2084
22.771139033969575 49.7465
22.79385054687155 49.9903
22.81656296718292 50.452
22.83927629590484 51.4329
22.862167992606945 52.3339
22.88488314827121 53.3917
22.907599215359284 54.3932
22.93031619487366 55.8907
22.953211574954405 56.9491
22.975930389478226 57.886
22.998650119445763 58.1251
23.02137076586092 57.3986
23.044269845560063 56.2854
23.06699233506288 54.7296
23.089715744034912 52.8028
23.112617610931565 51.1355
23.135342869061212 49.6877
23.158069049684816 48.6368
23.1807961538087 48.1265
23.20370174880544 47.8043
23.226430710184808 47.8474
23.249160598093425 47.8199
23.271891413539002 47.79600000000001
23.294800752937697 47.8932
23.31753343374794 48.473
23.340267045128353 48.7381
23.36300158808808 49.1125
23.38591468821339 49.4488
23.408651104658304 49.8918
23.431388455719986 50.5437
23.454126742409 51.2647
23.4770436196085 52.2869
23.499783787914662 53.548
23.522524894889884 54.7163
23.54526694154616 56.1035
23.56818761219047 57.2767
23.59093154860734 58.0062
23.613676427751283 58.8677
23.636422250635754 58.1368
23.659346731118656 56.5347
23.68209445191868 54.6213
23.704843119509587 52.2058
23.72759273490623 50.0949
23.750521041644767 48.2932
23.77327256312355 46.8611
23.796025035462787 46.1218
23.818956224555475 45.5428
23.841710609113413 45.2417
23.86446594758979 44.9257
23.887222241002014 44.6558
23.910157285144578 44.3914
23.932915498962537 44.4145
23.955674670778713 44.3559
23.978434801611975 44.0823
24.001373717286125 43.8335
24.024135776723917 43.9665
24.046898798245582 43.6475
24.06966278287146 43.5611
24.092605586582614 43.2464
24.115371508023642 43.2135
24.1381383956401 43.0581
24.16090625045381 42.9322
24.183852958731244 42.9822
24.206622758582608 42.901
24.229393528706886 42.6251
24.252165270127392 42.7056
24.27511589952438 42.6148
24.297889594216997 42.4704
24.32066426328598 42.4232
24.34343990775613 42.2273
24.36639447485003 42.1823
24.38917208083877 42.318000000000005
24.41195066531332 42.16
24.43490819850244 42.2102
24.457688750692377 42.0268
24.48047028445616 42.0856
24.503252800821233 42.2816
24.526214300784112 42.2046
24.548998793132213 42.2302
24.57178427117417 42.125
24.59457073593893 42.1831
24.617536219319863 42.1092
24.64032466834748 42.1586
24.663114107195035 42.0401
24.685904536893013 41.8369
24.708874020360852 41.615
24.731666442613744 41.6294
24.754459858818787 41.5067
24.777254270007962 41.4701
24.80022777025625 41.2933
24.82302418230472 41.3016
24.845821592443674 41.3872
24.86862000170663 41.4235
24.891597535453727 41.2826
24.914397953892728 41.5884
24.93719937456671 41.4875
24.96000179851076 41.674
24.98298338249997 41.6183
25.00578782394922 41.8137
25.028593271784167 42.0379
25.05157790644186 42.5885
25.07438537804115 42.5221
25.097193859145293 42.8803
25.120003350792075 43.3703
25.142992065061257 43.7941
25.165803588823465 43.8499
25.18861612625217 44.2035
25.211429678386736 44.3059
25.234422489079968 44.3985
25.257238081693636 44.4999
25.280054692141732 44.6144
25.3028723214652 44.6108
25.325869245420463 44.7223
25.348688923599397 44.7149
25.371509623787006 44.633
25.394331347025812 44.504
25.41733240110666 43.9622
25.440156181590016 43.1085
25.46298098826268 42.808
25.48580682216873 41.9846
25.50881202326435 41.4648
25.53163992281684 41.0041
25.55446885274561 40.5372
25.577298814096377 40.2476
25.600308179121807 40.141999999999996
25.623140214533745 40.2216
25.64597328451537 39.9999
25.66898578564376 39.9534
25.691820936010206 39.7988
25.714657124097695 39.7819
25.737494350954734 39.8302
25.760511045684957 39.6678
25.783350361364224 39.7791
25.806190718969255 39.7045
25.82903211955018 39.8042
25.852053024868923 40.0094
25.874896522722523 40.1072
25.897741066713106 39.8737
25.920586657892454 40.0144
25.943611790812668 40.1673
25.966459487728237 40.1774
25.989308234998564 40.2259
26.01215803367705 40.6579
26.03518741123814 40.9605
26.05803932412957 41.0902
26.080892291600094 41.1375
26.10374631470478 41.2536
26.12677995397268 41.387
26.14963609978026 41.349
26.172493304397875 40.9404
26.19535156888223 40.7763
26.218389486949604 40.3263
26.241249882640123 40.0513
26.26411134137826 39.7797
26.28715248187403 39.725
26.31001607820869 39.4949
26.3328807407756 39.3517
26.35574647063438 39.5035
26.37879191991473 39.5843
26.401659795896734 39.5457
26.424528742360263 39.7385
26.447398760366614 39.9802
26.470448535598294 39.8759
26.49332070826805 40.1363
26.516193955675355 40.5173
26.53906827888316 40.7062
26.562122397260108 40.9107
26.584998883685063 41.3207
26.607876449110325 41.7319
26.63075509460056 41.8941
26.65381357334404 42.0312
26.67669439061878 42.085
26.699576291163382 42.0206
26.722459276044212 41.9566
26.745522132402975 41.6779
26.768407297649354 41.3227
26.791293550442003 40.9568
26.814180891848974 40.6518
26.837248143099337 40.3786
26.860137673466657 40.0653
26.88302829566349 39.9821
26.90592001075963 39.8242
26.92899167420566 39.5672
26.951885586870763 39.2288
26.974780595655517 38.9535
26.99785558178161 38.8523
27.020752794605112 38.6263
27.043651106772522 38.4266
27.06655051935668 38.3214
27.089629948036183 38.1337
27.112531573292053 38.1965
27.135434302194138 38.2253
27.158338135817015 38.0545
27.181422024430987 38.116
27.204328079372566 37.8984
27.22723524226965 37.8949
27.250143514198573 38.0585
27.273231880156334 37.9578
27.296142382065014 37.8539
27.319053996245536 37.7787
27.341966723775965 37.8754
27.365059584515222 37.8519
27.38797455070062 37.9407
27.410890633481237 37.7555
27.433807833936918 37.9189
27.456905206923906 38.0859
27.47982465472398 38.0536
27.502745223449743 38.0777
27.525666914182825 38.098
27.548768816912457 38.0731
27.571692763693633 38.1474
27.59461783573812 37.9123
27.617723149491244 37.8145
27.640650484125285 37.7733
27.66357894728264 37.794000000000004
27.686508540048052 37.7231
27.709618414237887 37.5214
27.732550278321757 37.3754
27.755483275279115 37.4545
27.778417406196485 37.3623
27.801531858397514 37.336999999999996
27.824468269376716 37.2313
27.847405817586786 37.387
27.870344504116094 37.575
27.893463551932008 37.5093
27.916404527281053 37.7977
27.93934664422563 37.9139
27.962289903855886 38.0719
27.98541356491974 38.3137
28.00835912214229 38.4909
28.03130582533231 38.8862
28.054253675581805 39.0278
28.077381967556104 38.9973
28.100332124185126 38.8939
28.123283431160893 38.8671
28.146235889577238 38.7762
28.169368830154156 38.5863
28.192323603752033 38.3636
28.215279532083304 38.029
28.238415973016764 37.8837
28.261374223145094 37.7707
28.284333631303806 37.3287
28.307294198589954 37.3038
28.330435319167677 36.9936
28.353398217078915 36.6709
28.376362277420153 36.3494
28.39932750129032 36.1417
28.422473319286713 36.0235
28.44544088262495 35.9209
28.468409612800283 35.7393
28.491379510913497 35.4958
28.51453004413313 35.4089
28.53750229057244 35.3792
28.56047570826344 35.2222
28.583450298308804 35.3539
28.606605564586562 35.1888
28.629582511831156 35.2161
28.65256063474956 35.2633
28.675539934446338 35.1818
28.698699951647605 35.0724
28.72168161743193 35.007
28.74466446331978 34.9724
28.767648490417624 34.7529
28.790813276438353 34.8587
28.813799678527303 34.9491
28.836787265157085 34.9186
28.859955641890075 34.9948
28.882945610203045 34.9592
28.905936766392035 34.7826
28.928929111566863 34.9404
28.952102288520145 34.7561
28.975097024308607 34.711
28.998092952423807 34.4411
29.021090073977508 34.4325
29.04426806913204 34.371
29.067267590245258 34.1408
29.090268308143695 34.1568
29.11327022394099 34.0565
29.13645305530891 33.9194
29.159457379627167 33.8814
29.18246290519685 33.8306
29.20546963313352 33.7449
29.22865731875826 33.8555
29.25166646419296 33.7459
29.27467681535305 33.6291
29.29768837335608 33.7032
29.320880931312562 33.7668
29.34389491580634 33.8102
29.366910110507334 33.8627
29.38992651653503 33.8018
29.41312396492981 33.812
29.436142806456754 33.8195
29.45916286268059 33.6
29.48236399319994 33.4925
29.50538649169417 33.4475
29.528410208259935 33.3758
29.55143514402014 33.0499
29.574641196749695 32.968
29.597668583816574 32.8998
29.6206971934585 32.6953
29.64372702680042 32.6051
29.666938019934474 32.5235
29.689970313635285 32.565
29.713003834422636 32.4941
29.73603858342347 32.4816
29.759254535188578 32.4021
29.78229175361658 32.2515
29.80533020365064 32.3737
29.82836988641968 32.2627
29.85159081507472 32.1954
29.874632976355343 32.2738
29.89767637376955 32.3306
29.920721008448314 32.161
29.9439469322847 32.1363
29.96699405457564 32.0565
29.9900424175358 32.0042
30.013092022298157 32.0549
30.03632295963995 31.9622
30.059375061131373 31.9849
30.08242840783577 31.9754
30.105483000888153 32.038000000000004
30.128718970092244 31.897
30.151776069006917 31.9412
30.17483441768648 32.0499
30.198074175317235 31.9702
30.221135036724256 31.9249
30.24419715131772 31.9792
30.267260520236203 31.7473
30.290505341942243 31.8101
30.313571232750228 31.9517
30.336638381310948 31.9343
30.35970678876503 31.8171
30.38295669299435 31.8752
30.40602763151657 31.8121
30.429099832366074 31.7313
30.452173296685572 31.6812
30.47542830191959 31.6176
30.498504306502497 31.6053
30.521581577995562 31.638
30.544660117543582 31.76
30.56792024229725 31.7594
30.59100133132069 31.6484
30.614083691845494 31.7413
30.637167325018545 31.868000000000002
30.660432587840603 31.9025
30.683518779717886 31.8359
30.70660624769615 31.9715
30.729694992924372 31.916999999999998
30.75296541239743 32.0014
30.77605672557558 31.8912
30.799149319462742 31.8123
30.8224236211637 31.6921
30.845518789950724 31.4719
30.868615242910597 31.5604
30.891712981195973 31.4977
30.91499247215866 31.3049
30.938092794619365 31.2354
30.96119440587579 31.1276
30.984297307082752 31.0003
31.00758200598383 30.8901
31.030687500658694 30.8903
31.053794288760695 30.8639
31.076902371446767 30.7229
31.100192296997445 30.7599
31.12330298246119 30.7426
31.14641496599209 30.5658
31.169528248749216 30.6457
31.19282341969534 30.5522
31.215939314557186 30.5025
31.239056512134788 30.5753
31.262175013589378 30.5481
31.28547544871168 30.5297
31.30859657161541 30.4847
31.331719001892175 30.4385
31.35484274070538 30.5937
31.378148458819545 30.5542
31.401274828443725 30.6147
31.424402510106933 30.4947
31.447712205419993 30.5762
31.470842524931633 30.5041
31.493974159989783 30.5372
31.51710711176168 30.4335
31.54042212308802 30.4797
31.563557722100917 30.4568
31.586694641341655 30.2722
31.609832881979628 30.3265
31.63315322823208 30.1646
31.656294125521327 29.8943
31.679436347728515 30.0193
31.70257989602529 29.9347
31.725905596152327 29.8907
31.74905181052835 29.7395
31.772199354521323 29.8822
31.79534822930507 29.8214
31.818679302290967 29.793000000000003
31.84183085259981 29.8468
31.864983737233473 29.8075
31.88813795736804 29.8521
31.911474422233013 29.8294
31.934631327356435 29.8548
31.9577895715215 29.7015
31.980949155906522 29.789
32.004291031706956 29.7587
32.027453310562606 29.6408
32.05061693318573 29.4613
32.07396288236386 29.5493
32.09712920658542 29.496
32.12029687812702 29.3969
32.14346589817093 29.249000000000002
32.166817291729984 29.1832
32.18998902288583 29.205
32.21316210610336 29.0691
32.23633654256711 28.8732
32.259693399663725 28.864
32.282870556771144 28.91
32.30604907069099 28.8848
32.329228942610065 28.7795
32.35259128243769 28.5813
32.375773884550505 28.5397
32.398957848235646 28.5091
32.422143174682176 28.4201
32.445511016471215 28.4893
32.468699082679954 28.3893
32.49188851523011 28.2719
32.51507931531304 28.1242
32.538452678331 28.1582
32.56164622776311 28.1597
32.58484114831493 28.0719
32.60803744118015 28.0866
32.631416344731896 28.1339
32.654615396551876 28.1593
32.67781582427913 28.0802
32.701198898634416 27.973000000000003
32.72440209253756 27.8851
32.747606665947124 27.9372
32.77081262006088 27.767
32.79420126883317 27.840999999999998
32.81740999876112 27.7525
32.840620112999424 27.6826
32.86383161274818 27.6439
32.88722585534586 27.6809
32.91044014056596 27.6706
32.933655814909734 27.6057
32.95687287957963 27.7668
32.98027273544904 27.5375
33.00349259526636 27.52
33.026713849030116 27.5395
33.04993649794511 27.5207
33.073341986570746 27.4928
33.09656744032826 27.456
33.11979429286444 27.5641
33.14302254538647 27.4857
33.166433686291185 27.3984
33.18966475336992 27.3829
33.212897224069096 27.3215
33.23613109959831 27.275
33.259547912343415 27.2289
33.2827846121627 27.2916
33.306022720453775 27.2214
33.32926223842861 27.1197
33.352684742614166 27.1082
33.37592709463173 27.0663
33.399170859982064 26.997
33.422597648419426 26.973000000000003
33.44584425514446 26.8144
33.46909227885668 26.7878
33.4923417207723 26.6434
33.51577423505344 26.7089
33.539026528130385 26.6103
33.56228024307245 26.5399
33.585535381098246 26.4046
33.60897364093058 26.384
33.63223163992385 26.4589
33.6554910656699 26.344
33.678751919389796 26.3491
33.702195944520106 26.2492
33.72545966903325 26.2904
33.74872482519663 26.1217
33.771991414233746 26.1942
33.79544122444841 26.1889
33.81871069412428 26.0549
33.84198160035767 26.0726
33.86525394437455 26.08
33.88870955949969 26.0694
33.911984794020626 25.9161
33.93526147001624 26.0013
33.958539588715006 25.9739
33.98200102861669 25.8028
34.0052820477047 25.7334
34.02856451319451 25.7198
34.05203033759056 25.6488
34.07531571090147 25.775
34.09860253431845 25.5736
34.121890809074316 25.5409
34.145362493118924 25.6237
34.16865368561615 25.5629
34.191946333164054 25.5667
34.21524043699793 25.3651
34.23871800066799 25.3819
34.26201503218366 25.1901
34.28531352370466 25.2786
34.30861347646881 25.2033
34.33209693978188 25.2845
34.3553998301885 25.1791
34.378704185565205 25.0867
34.402010007152356 25.061
34.42549939016683 25.0767
34.44880815937748 24.8906
34.472118398533134 24.9806
34.49543010887669 24.9187
34.51892543169198 24.8478
34.54224009966052 24.7805
34.56555624255917 24.8344
34.58887386163339 24.7821
34.61237514439016 24.7007
34.6356957311114 24.6941
34.65901779775809 24.644000000000002
34.68252356662995 24.5903
34.705848608458616 24.5018
34.72917513396849 24.5
34.75250314440949 24.4628
34.77601490857862 24.4536
34.799345904259795 24.4262
34.82267838863559 24.3734
34.846012362958525 24.3887
34.869530142679984 24.3244
34.89286711232212 24.2808
34.91620557568269 24.2928
34.93954553401677 24.2065
34.9630693495876 24.1185
34.986412313340814 24.1736
35.00975677584668 24.1911
35.033102738362956 24.0525
35.05663261012228 24.0442
35.0799815881786 24.1122
35.10333207003229 24.0114
35.12668405694369 24.0118
35.150220005273056 23.985
35.17357501786656 23.9204
35.19693153931268 23.8857
35.220289570874385 23.8592
35.24383161619786 23.8559
35.267192683604904 23.7902
35.290555264930376 23.8248
35.314101899412165 23.8329
35.33746752422433 23.7992
35.36083466676374 23.8493
35.38420332829803 23.6966
35.407756095629054 23.7207
35.43112781085063 23.7672
35.45450104888391 23.6249
35.477875810999194 23.7028
35.50143473172161 23.6259
35.52481255774625 23.5691
35.54819191167777 23.5789
35.57157279478914 23.5188
35.595137889488406 23.5249
35.61852184675279 23.4333
35.641907337029984 23.3539
35.665294361595684 23.3325
35.68886565090076 23.2579
35.7122557598848 23.2236
35.73564740699838 23.2963
35.759040593519934 23.1857
35.78261809810353 23.2223
35.80601437933051 23.0512
35.829412203814705 22.9637
35.85281157283719 22.943
35.876395313415884 22.9659
35.8997977874528 22.8794
35.92320180988546 22.7548
35.946790244133936 22.8475
35.97019737933222 22.9438
35.993606066789866 22.814
36.01701630779276 22.7781
36.04061101440684 22.7301
36.06402437852291 22.7421
36.08743930005611 22.6992
36.1108557802951 22.6045
36.13445678011326 22.6114
36.15787639383515 22.554000000000002
36.18129757014299 22.575
36.20472031032821 22.5221
36.22832762423364 22.5136
36.25175350829375 22.4201
36.275180960119776 22.3757
36.298609981005924 22.4088
36.32222362992669 22.3251
36.34565580510207 22.3053
36.36908955323448 22.2506
36.39252487562093 22.2067
36.416144880530226 22.2061
36.43958336764275 22.2701
36.463023432914625 22.1532
36.486465077645676 22.0904
36.51009145956204 22.1941
36.53353627947859 22.2113
36.55698268276811 22.0645
36.58043067073321 22.0338
36.60406345072071 21.8871
36.62751462435344 21.9826
36.65096738658405 21.8971
36.67460498210655 21.8938
36.69806093788647 21.8432
36.72151848619297 21.844
36.744977628333636 21.7932
36.76862165890998 21.6473
36.79208400512205 21.673000000000002
36.81554794910557 21.6999
36.83901349217101 21.588
36.862663978991606 21.4674
36.88613273667352 21.5506
36.90960309738324 21.5754
36.933075062434064 21.4489
36.95673202673572 21.4298
36.98020721697122 21.3898
37.003684015502365 21.3425
37.027162423645365 21.3102
37.050825886711465 21.3039
37.07430753063053 21.2439
37.09779078812467 21.2707
37.121275660513014 21.2447
37.144945643673694 21.1799
37.16843376245278 21.2078
37.19192350009803 21.1675
37.215414857931435 21.1194
37.239091382563885 20.9982
37.262585997426164 20.9473
37.28608223645736 20.9595
37.309763684451696 20.9761
37.33326318851098 20.9481
37.356764320726555 20.8164
37.380267082425526 20.8674
37.40395510942588 20.8165
37.42746114683234 20.7433
37.45096881771841 20.7596
37.474478123414166 20.8008
37.49817275092816 20.6925
37.52168534303452 20.7031
37.54519957395567 20.5826
37.568715445024665 20.5631
37.592416694607714 20.5469
37.61593586281424 20.6252
37.63945667518264 20.537
37.66297913304891 20.4764
37.68668702630454 20.5051
37.710212792059274 20.3633
37.733740207334854 20.3361
37.757269273470364 20.2456
37.780983832050374 20.3051
37.80451621684926 20.2315
37.82805025654007 20.25
37.851585952464795 20.2532
37.8753071980695 20.1813
37.89884622345676 20.1016
37.92238690911902 20.113
37.94611318753442 20.098
37.969657210779765 20.1037
37.99320289834801 20.0585
38.016750251586465 19.9812
38.04048325513017 19.9563
38.06403395679343 19.8536
38.087586328183946 19.8639
38.11114037065203 19.9175
38.13488012115898 19.8724
38.1584375229181 19.7251
38.181996599821 19.702
38.205557353221124 19.7292
38.229303872575656 19.6802
38.2528679961576 19.7023
38.27643380031219 19.6145
38.30000128639589 19.5694
38.32375459653193 19.5101
38.34732546371299 19.5727
38.37089801690786 19.4413
38.39447225747609 19.4376
38.418232380377425 19.3995
38.441810012983396 19.4529
38.46538933705673 19.4015
38.488970353960084 19.4228
38.51273731166058 19.3695
38.536321731567014 19.2482
38.55990784840681 19.2406
38.58367995004091 19.2416
38.60726947812959 19.208
38.63086070726198 19.1308
38.654453638806274 19.1235
38.678232613930824 19.1065
38.70182896773327 19.0582
38.72542702806741 18.9926
38.7490267963045 19.0417
38.77281266709232 19.008
38.79641586862214 18.9656
38.8200207821842 18.9088
38.843627409152944 18.9406
38.86742019782782 18.886
38.891030269149255 18.792
38.914642058016156 18.8022
38.938255565806124 18.7596
38.96205529464307 18.7169
38.98567225787121 18.6751
39.00929094417078 18.7065
39.03291135492255 18.6546
39.05671804624804 18.6494
39.080341923549106 18.5675
39.103967529460334 18.5541
39.127594865365744 18.4605
39.15140854155791 18.4912
39.17503935514948 18.4321
39.19867190290282 18.42
39.22249083587951 18.407
39.24612686969409 18.4276
39.269764641845306 18.4235
39.293404153722804 18.3694
39.317230110864074 18.2485
39.34087311998506 18.2739
39.36451787301696 18.2338
39.388164371352595 18.2055
39.41199737518003 18.156
39.43564738196752 18.1214
39.45929913825317 18.0871
39.48295264543308 18.0525
39.506792718520884 18.0144
39.530449745387216 18.0292
39.55410852735203 17.9915
39.57776906581474 18.0522
39.60161623079 17.947
39.625280300200025 17.8856
39.64894613032202 17.9126
39.67261372255866 17.8491
39.6964680021016 17.7959
39.72013913657293 17.8341
39.74381203738292 17.7954
39.76748670593756 17.7706
39.79134812278169 17.7379
39.81502634488497 17.7117
39.83870633896685 17.6954
39.862388106436654 17.5903
39.88625668336918 17.5889
39.90994201572829 17.6038
39.933629125719285 17.535
39.957503091207826 17.537
39.9811937746168 17.5052
40.00488623990914 17.457
40.02858048850006 17.4583
40.05246165409549 17.4489
40.076159487492085 17.3631
40.099859108448875 17.3712
40.123560518384345 17.3291
40.1474489070226 17.3115
40.171153913178564 17.2693
40.194860712584955 17.2552
40.2185693066637 17.2668
40.242464941335314 17.2374
40.26617714307655 17.1324
40.289891143772046 17.1701
40.3136069448471 17.1154
40.33750984859743 17.1298
40.3612292688043 17.1259
40.3849504936829 16.9772
40.40867352466194 17.0245
40.43258372059144 16.9768
40.45631038219906 16.9777
40.48003885420956 16.9278
40.503769138055105 16.9182
40.52768664931955 16.8775
40.55142057531802 16.8854
40.57515631746428 16.8276
40.599079334038514 16.8351
40.62281872700477 16.8677
40.64655994043941 16.7194
40.67030297578061 16.6987
40.69423334835778 16.695
40.71798004609188 16.6341
40.74172857006355 16.6365
40.76547892171441 16.6074
40.7894166736039 16.5834
40.813170699248566 16.5338
40.83692655691388 16.5291
40.86068424804498 16.5628
40.884629402612525 16.4862
40.908390779366385 16.5031
40.932153993938 16.4221
40.95591904777605 16.3518
40.979871628443995 16.3897
41.003640379561936 16.4041
41.02741097430883 16.3639
41.05118341413683 16.3312
41.075143444384416 16.2765
41.098919593177826 16.2409
41.1226975914255 16.2202
41.14647744058318 16.2043
41.170444943946755 16.1403
41.19422851378379 16.082
41.218013938914645 16.081
41.24198706625173 16.09
41.26577622087193 16.0594
41.289567235177785 16.0499
41.31336011063129 15.967
41.337340752422875 15.9477
41.361137369129835 15.9255
41.38493585138705 15.9201
41.40873620066004 15.8988
41.43272438060107 15.8624
41.45652848292052 15.8198
41.48033445666918 15.7832
41.50414230331616 15.7642
41.528138045159764 15.7583
41.551949656675205 15.7123
41.575763145513235 15.6608
41.59957851314666 15.7009
41.62358184070442 15.6193
41.64740098505737 15.584000000000001
41.6712220126409 15.6382
41.69504492493139 15.5703
41.71905586207357 15.5026
41.74288256296395 15.5032
41.766711153007456 15.4465
41.79054163368412 15.4872
41.814560204340054 15.4558
41.838394485526365 15.4237
41.86223066180303 15.3899
41.88625497706819 15.3572
41.910094962812 15.3144
41.93393684811168 15.2865
41.95778063445365 15.2401
41.981812625263366 15.2226
42.00566023303407 15.2299
42.029509746323676 15.1822
42.05336116662236 15.1813
42.077400857069705 15.2342
42.10125611078846 15.1321
42.12511327600405 15.1168
42.14897235421036 15.0983
42.173019768448455 15.0561
42.19688269209613 15.0073
42.22074753323349 15.026
42.24461429335818 14.9455
42.268669455600495 14.9671
42.292540073217886 14.9765
42.31641261433284 14.9713
42.34028708044675 14.8929
42.36435001496739 14.8774
42.38822835065557 14.8859
42.41210861586426 14.8051
42.4359908120986 14.7945
42.46006154323262 14.7719
42.48394762115317 14.6996
42.507835634632315 14.7141
42.531912233047436 14.7168
42.55580413732265 14.6992
42.579697981698 14.6975
42.60359376768525 14.5782
42.62767820545945 14.6009
42.65157789440821 14.5909
42.67547952952185 14.5541
42.699383112316 14.5025
42.72347541395347 14.4767
42.74738291190531 14.4482
42.771292362102166 14.4467
42.795203766063516 14.4405
42.819303956130405 14.3903
42.843219287476536 14.3299
42.86713657716324 14.3332
42.89105582671383 14.352
42.91516392983864 14.3244
42.939087119032166 14.3043
42.963012272677304 14.2689
42.98693939230129 14.239
43.01105543317513 14.2298
43.034986504731386 14.1325
43.05891954686589 14.1223
43.08285456110972 14.120999999999999
43.10697856448665 14.0532
43.130917542983475 14.022
43.15485849820081 14.0789
43.17880143167367 14.0098
43.20293342237094 13.9558
43.226880332449 13.9383
43.25082922540554 13.9811
43.27496722682525 13.9432
43.29892010567796 13.9048
43.32287497204102 13.863
43.34683182745632 13.8349
43.370977859791836 13.827
43.39493871351105 13.8268
43.41890156092628 13.7856
43.44286640358341 13.7778
43.46702049182749 13.7527
43.49098934522816 13.7145
43.51496019852649 13.662
43.5389330532723 13.6893
43.56309522248204 13.6624
43.58707210044314 13.6301
43.61105098451946 13.5495
43.63503187626491 13.5739
43.659202151562134 13.5506
43.68318707902681 13.5112
43.70717401884041 13.4977
43.731162972560874 13.4612
43.75534137913236 13.4584
43.779334381108384 13.4625
43.803329401683186 13.4089
43.82732644241872 13.3829
43.8515130055166 13.3396
43.87551410707659 13.3294
43.89951723350145 13.2957
43.923709934595614 13.2041
43.94771713129917 13.239
43.97172635758096 13.2667
43.99573761501002 13.2293
44.0199385169922 13.232999999999999
44.04395385732619 13.1653
44.067971233533086 13.1395
44.09199064718605 13.1214
44.11619977548961 13.0706
44.14022328470671 13.0571
44.16424883610785 13.0839
44.18827643127035 13.0071
44.21249381139513 12.9943
44.236525514814076 12.9653
44.26055926674478 12.985
44.28459506876863 13.0004
44.3088207262813 12.9236
44.33286064928722 12.895999999999999
44.35690262714919 12.8913
44.38094666145278 12.8624
44.4051806219871 12.8606
44.42922879003185 12.8266
44.45327901929361 12.7966
44.477331311362136 12.754000000000001
44.501573600619416 12.7383
44.525630039221795 12.6638
44.54968854541895 12.6947
44.573937102200176 12.6481
44.5979997645541 12.6342
44.622064499300315 12.6441
44.64613130803592 12.6008
44.67038823869318 12.5929
44.69445921643748 12.5333
44.718532272981385 12.5377
44.742607409926194 12.5217
44.76687274034801 12.4692
44.79095205918753 12.4809
44.81503346325094 12.4509
44.839116954143876 12.4103
44.86339071028742 12.3836
44.88747839599524 12.4174
44.91156817336837 12.4169
44.93566004401666 12.3676
44.959942251908146 12.3464
44.984038330325966 12.309000000000001
45.00813650686762 12.2448
45.03223678314731 12.2768
45.05652746888232 12.2328
45.08063196592069 12.2066
45.104738567558705 12.2043
45.128847275414856 12.1729
45.15314646515866 12.0847
45.17725940679741 12.1417
45.20137445952892 12.1169
45.22568004865265 12.1075
45.24979934496396 12.107000000000001
45.27392075725247 12.0553
45.29804428714431 12.0714
45.322358426247604 12.029000000000002
45.346486212804315 11.9727
45.370616121861914 11.9742
45.39474815505086 11.9528
45.41907087049246 11.8794
45.4432071734666 11.8774
45.46734560548283 11.8469
45.49148616817604 11.8706
45.51581748638564 11.8409
45.5399623320197 11.82
45.56410931325473 11.7933
45.58825843173002 11.8099
45.61259837920865 11.7379
45.636751793816 11.722000000000001
45.66090735060093 11.697000000000001
45.68506505120716 11.710999999999999
45.7094136545275 11.6974
45.73357566449271 11.6377
45.75773982322992 11.6294
45.78190613238733 11.6303
45.806263418194064 11.5707
45.83043404997326 11.5733
45.85460683713677 11.5373
45.87897065658495 11.5386
45.90314777634752 11.5039
45.92732705646868 11.4961
45.9515084986045 11.4743
45.97588104735473 11.4337
46.00006683541565 11.4572
46.02425479047904 11.4215
46.04844491420549 11.4084
46.0728262191024 11.3802
46.09702070211635 11.3416
46.12121735879483 11.3365
46.14541619080294 11.3101
46.169806278764455 11.2866
46.194009483459034 11.2867
46.21821486849841 11.2591
46.24242243555223 11.210999999999999
46.266821333570014 11.1676
46.29103328674601 11.1453
46.31524742696538 11.1783
46.33946375590237 11.1389
46.36387149104216 11.1099
46.38809221957392 11.0952
46.41231514186606 11.0775
46.436540259597464 11.0979
46.460956858999374 11.0637
46.48518638983522 11.0299
46.509418121166966 10.9804
46.533652054678114 10.9662
46.55807754555709 10.9003
46.58231590571962 10.9382
46.60655647313217 10.9416
46.630988654873654 10.8969
46.655233659129024 10.8817
46.67948087571551 10.8455
46.70373030632484 10.8539
46.72817142736393 10.8082
46.752425308428684 10.8044
46.77668140861147 10.7706
46.80093972960865 10.7291
46.82538981736788 10.6833
46.849652602470904 10.6842
46.87391761349769 10.6972
46.8981848521493 10.6611
46.9226439341274 10.6583
46.946915650573224 10.587
46.97118959976749 10.5736
46.99546578341598 10.5616
47.019933887188216 10.5691
47.04421456235744 10.544
47.06849747711879 10.4973
47.09278263318286 10.5246
47.11725978640143 10.4707
47.14154944775105 10.4765
47.165841355555656 10.4861
47.1901355115306 10.4417
47.214621741924994 10.4541
47.23892041698887 10.4044
47.26322134538975 10.3399
47.28771440635075 10.3246
47.31201986422527 10.3379
47.33632758061436 10.3424
47.360637557241866 10.3079
47.38513974410611 10.2759
47.40945426407847 10.2566
47.43377104948137 10.2834
47.45809010204344 10.2263
47.48260144275502 10.2228
47.506925052572285 10.184
47.53125093475548 10.1126
47.55557909103813 10.1196
47.58009961361992 10.0934
47.60443234110732 10.0936
47.62876734791564 10.0814
47.65310463578333 10.0538
47.6776343683373 10.0619
47.7019762413987 10.036
47.72632040075572 10.0099
47.75066684815169 10.021
47.77520581885936 9.97302
47.799556865477655 9.95267
47.823910205386 9.951789999999999
47.84826584033272 9.91388
47.87281407745551 9.90479
47.89717432569297 9.916
47.92153687423484 9.86097
47.94609208429692 9.87113
47.97045925671401 9.86665
47.99482873471275 9.80663
48.01920052005013 9.80867
48.04376504619224 9.78314
48.068141469543484 9.82558
48.09252020552573 9.798630000000001
48.11690125590099 9.74209
48.1414751266064 9.713339999999999
48.16586082917454 9.701989999999999
48.19024885144316 9.641010000000001
48.2146391951793 9.65254
48.239222439012764 9.66535
48.26361744916137 9.601939999999999
48.28801478610016 9.62235
48.31241445160131 9.57348
48.337007097209366 9.59923
48.36141144338331 9.576139999999999
48.38581812345755 9.54594
48.41022713920929 9.56033
48.434829215320704 9.52656
48.45924292604658 9.51931
48.48365897780325 9.484580000000001
48.50807737237308 9.42187
48.532688907799276 9.39654
48.55711201168574 9.39325
48.581537463754074 9.385580000000001
48.60615611725119 9.4221
48.63058628942721 9.3975
48.65501881516546 9.37012
48.6794536962573 9.37856
48.70408185970339 9.34735
48.72852147531801 9.30753
48.75296345168211 9.26191
48.77740779059232 9.25688
48.80204549302823 9.244639999999999
48.82649458091802 9.2489
48.85094603676547 9.20265
48.87539986237231 9.194339999999999
48.90004713292306 9.191989999999999
48.92450572200832 9.16275
48.94896668628025 9.13327
48.97343002754588 9.1019
48.99808689542115 9.09432
49.02255501470614 9.0839
49.04702551642794 9.08366
49.0714984023988 9.04575
49.096164896893235 9.067039999999999
49.120642575466796 9.026589999999999
49.145122643748394 9.00659
49.16960510355558 8.946539999999999
49.19428125404938 8.96327
49.2187685210852 8.9625
49.243258185121555 8.94169
49.26794160167084 8.94619
49.2924360839405 8.88429
49.31693296869764 8.8857
49.34143225776915 8.85459
49.36612538195438 8.87695
49.39062950396021 8.86788
49.41513603578346 8.78523
49.4396449792564 8.79038
49.46434784069503 8.77863
49.488861631846454 8.76398
49.513377840166804 8.72457
49.537896467493745 8.71795
49.56260909589029 8.70576
49.587132585683285 8.68704
49.611658500018365 8.6665
49.636186840738596 8.66606
49.66090926588511 8.629669999999999
49.685442483902584 8.64323
49.70997813385706 8.63083
49.734516217597076 8.62326
49.75924846937352 8.593639999999999
49.7837914452858 8.55745
49.80833686055187 8.48514
49.83288471702571 8.511280000000001
49.85762682540054 8.50371
49.882179588965734 8.53083
49.9067347993235 8.49007
49.93129245833333 8.47006
49.95604445336378 8.44632
49.98060703442832 8.39241
50.005172069746266 8.413030000000001
50.02993150438364 8.4308
50.05450147301533 8.40152
50.07907390151433 8.368910000000001
50.10364879174981 8.362219999999999
50.12841816587289 8.35657
50.1529980044635 8.327580000000001
50.17758031042124 8.330680000000001
50.20216508562089 8.33102
50.22694442953363 8.26779
50.25153416817468 8.2494
50.27612638170508 8.27069
50.300721072005196 8.19806
50.325510416102105 8.20231
50.350110084975064 8.2082
50.37471223628208 8.19866
50.39931687190919 8.1727
50.424116246675766 8.17028
50.44872587605249 8.15125
50.47333799543065 8.13463
50.49795260670191 8.08893
50.52276204271512 8.10111
50.54738166295838 8.084719999999999
50.57200378079314 8.019639999999999
50.596628398116835 8.0294
50.62144792604559 8.0485
50.646077567609396 8.0215
50.670709714377715 8.00185
50.69553683636198 7.99603
50.72017401885922 7.96132
50.7448137122895 7.95247
50.76945591856022 7.942880000000001
50.79429318636823 7.9154800000000005
50.818940443716784 7.921930000000001
50.84359021965163 7.893
50.868242516085964 7.89555
50.893089960641895 7.82498
50.917747323549435 7.82562
50.94240721271973 7.81765
50.96706963007175 7.79046
50.99192728239342 7.78618
51.01659478166073 7.79529
51.04126481489051 7.79385
51.06593738400761 7.775760000000001
51.090805275207074 7.727119999999999
51.11548294172845 7.7151
51.14016314993547 7.7207
51.164845901758845 7.71956
51.18972406304274 7.66657
51.21441192780656 7.66565
51.23910234200271 7.64927
51.2637953075678 7.6538
51.288683770237945 7.61905
51.31338186432707 7.58286
51.33808251561888 7.54978
51.362978729967345 7.56239
51.387684521509755 7.57711
51.41239287610203 7.55728
51.437103795691165 7.488230000000001
51.46201036644977 7.49458
51.486726441956634 7.485989999999999
51.51144508832545 7.48124
51.536166307509156 7.450410000000001
51.56108326624387 7.412089999999999
51.58580965706056 7.3891
51.61053862657523 7.406569999999999
51.635270176746864 7.356669999999999
51.66019755512065 7.348389999999999
51.68493429268881 7.35548
51.70967361681515 7.365010000000001
51.73441552946465 7.3376399999999995
51.759353359237934 7.33663
51.7841004750961 7.29408
51.80885018539685 7.327030000000001
51.833602492111254 7.2553
51.8585508051424 7.25386
51.883308330926425 7.225619999999999
51.90806845906181 7.22478
51.932831191525715 7.22852
51.95779001977161 7.19009
51.98255798721516 7.18123
52.00732856494335 7.15348
52.03229530577543 7.15601
52.057071130455945 7.13674
52.081849571391054 7.1246
52.106630630568695 7.144989999999999
52.13160794279417 7.07773
52.15639426492067 7.06557
52.18118321127822 7.116169999999999
52.205974783860896 7.05721
52.23096269971011 7.019430000000001
52.255759551287994 7.0237300000000005
52.280559035098186 7.041360000000001
52.30536115314103 6.99218
52.33035970494467 6.9766699999999995
52.35516711807904 6.96662
52.37997717147198 6.926310000000001
52.40478986713005 6.939030000000001
52.42979908731974 6.916360000000001
52.454617094216 6.910810000000001
52.47943774942214 6.88536
52.50426105495102 6.855460000000001
52.529280976059844 6.8575
52.554109609024096 6.862139999999999
52.57894089837482 6.836060000000001
52.60377484613117 6.81735
52.62880550079408 6.78235
52.65364479223379 6.73906
52.67848674816189 6.75367
52.70352547971946 6.76232
52.72837279155837 6.727060000000001
52.753222773982785 6.70449
52.778075429022984 6.7386
52.80312495150885 6.713310000000001
52.827982978797436 6.70205
52.85284368481815 6.654260000000001
52.87770707160767 6.66782
52.90276741793998 6.66325
52.92763619336701 6.6521
52.952507655698504 6.63363
52.977381806977576 6.623010000000001
53.00245301017842 6.624339999999999
53.02733256653592 6.605739999999999
53.052214817996074 6.574139999999999
53.077099766608484 6.563110000000001
53.102181859804446 6.5521400000000005
53.127072229988265 6.5121
53.15196530349892 6.48229
53.17686108239249 6.50429
53.20195409881522 6.49495
53.22685531582556 6.478619999999999
53.25175924441303 6.42335
53.27666588664027 6.46272
53.30176985962693 6.459230000000001
53.3266819565689 6.4065
53.35159677336455 6.36744
53.376514312083096 6.3863199999999996
53.40162927507703 6.4084
53.42655228516116 6.36636
53.45147802340193 6.37146
53.47660125628886 6.3345199999999995
53.50153247842639 6.34687
53.52646643496923 6.31735
53.55140312799818 6.30729
53.576537409691696 6.28744
53.60147960336152 6.2625
53.626424539786164 6.235469999999999
53.65137222105307 6.1942
53.67651758529126 6.22086
53.70147078399681 6.19909
53.72642673383343 6.16657
53.75138543689533 6.15081
53.776541917524526 6.1709
53.801506154876755 6.16346
53.826473151763246 6.15085
53.851442910284916 6.15107
53.87661054126026 6.10625
53.9015858509782 6.10279
53.92656392866066 6.08857
53.95154477641532 6.08869
53.976723591801296 6.052309999999999
54.00171000771266 6.0206599999999995
54.02669920004598 6.0302
54.051691170915745 6.043819999999999
54.076881204886796 6.0048900000000005
54.101878760928514 5.9884699999999995
54.12687910187696 5.932919999999999
54.152077577768296 5.95601
54.1770835166946 5.947830000000001
54.20209224691339 5.96278
54.22710377055121 5.95601
54.25231352511594 5.93685
54.27733066384342 5.9282900000000005
54.30235060239643 5.9343
54.32737334290836 5.885
54.35259441062629 5.83685
54.377622783395324 5.81378
54.40265396455061 5.796819999999999
54.42768795623251 5.81761
54.45292037169559 5.78793
54.477960012857906 5.74538
54.50300247099511 5.72696
54.52804774825457 5.69885
54.55329154616743 5.71432
54.57834249018678 5.71021
54.6033962597977 5.66918
54.6284528571545 5.6435900000000006
54.653708072335164 5.5782300000000005
54.67877035378786 5.6447400000000005
54.70383546947698 5.581519999999999
54.72890342156389 5.56987
54.7541700889442 5.5305800000000005
54.77924374251975 5.53456
54.8043202390049 5.543069999999999
54.82959552413022 5.47846
54.8546777351945 5.49033
54.87976279569621 5.4110000000000005
54.90485070780914 5.486190000000001
54.930137506558005 5.43957
54.95523115074295 5.41725
54.98032765308844 5.4082300000000005
55.005427015775496 5.39107
55.03072536339621 5.35915
55.05583047570572 5.317
55.080938454927676 5.316730000000001
55.10604930325027 5.34644
55.131359235107396 5.30474
55.15647585066083 5.25068
55.181595341907496 5.2711
55.20671771104285 5.2358400000000005
55.232039262617704 5.23989
55.25716741665048 5.16116
55.28229845518636 5.14733
55.30743238042802 5.10255
55.33276558731939 5.073230000000001
55.357905315183636 5.043830000000001
55.383047936390035 5.03832
55.40819345314859 5.00431
55.433538351073295 5.05204
55.458689688238415 4.95927
55.483843927614096 4.95721
55.509197623043605 4.97288
55.53435769621134 4.90244
55.55952067826466 4.8685
55.5846865714265 4.863169999999999
55.61005202069737 4.9168199999999995
55.63522376553902 4.850619999999999
55.66039842818645 4.78414
55.68557601087004 4.79511
55.7109532500271 4.7180599999999995
55.73613670233794 4.75366
