TT I
1.2716486653135266 7.08874
1.2939594142134223 6.97721
1.3162702121660406 6.98997
1.3385810600174564 5.94835
1.3608919586137629 6.3087800000000005
1.383202908801069 5.9875300000000005
1.405513911425503 5.4926
1.4278249673332093 5.3802900000000005
1.4501343378461518 5.795030000000001
1.4724455028545926 5.5129
1.4947567236847858 5.63365
1.517068001182951 5.9158599999999995
1.5393793361953272 5.64864
1.5616907295681737 5.35381
1.5840021821477681 5.30804
1.60631369478041 4.66929
1.6286252683124185 4.86909
1.6509369035901333 4.30555
1.6732468618895553 4.564
1.695558623192809 4.65337
1.7178704487808514 4.6287
1.7401823395001077 4.48831
1.7625012545597203 4.80549
1.7848028405262486 4.8988
1.8071218901122095 4.7778599999999996
1.8294236121921872 4.24644
1.8517427996910911 4.20377
1.8740620574440425 4.32489
1.8963639900671978 4.17632
1.9186833908139995 4.63002
1.9409854680117449 4.50855
1.9633050151394713 4.39508
1.9856246367570705 4.635619999999999
2.0079269371922672 3.99936
2.03024671027244 4.08865
2.0525491637446027 4.15941
2.074869091674931 3.39685
2.097171701569106 4.26577
2.1194917877373847 4.92719
2.141811954326636 4.24012
2.164114805233074 4.46866
2.186435135143035 4.7711
2.208738150935709 5.06545
2.231058647554722 6.51227
2.2533792288321184 6.3844199999999995
2.275682498336085 5.4319
2.298003251406138 5.07886
2.3203066942619714 5.55946
2.3426276225136022 5.85395
2.3649486396617507 5.16345
2.387252348930071 6.20024
2.4095735463442893 6.19367
2.4318774374315884 6.30932
2.4541988185014043 6.48629
2.476502894794693 6.8296399999999995
2.498824462909887 7.41516
2.521146125856138 7.298760000000001
2.5434504863470337 7.81118
2.5657723414244717 7.917889999999999
2.588076895590662 8.1847
2.610398946189713 8.97246
2.6327210958598384 8.34268
2.6550259469304716 8.98853
2.6773482972090137 8.818389999999999
2.6996533504259 8.55119
2.7219759047039602 8.23247
2.744298562293959 8.30162
2.7666039251246595 8.442169999999999
2.7889267918020164 9.00024
2.8112323652516555 8.780389999999999
2.833555444408179 8.94409
2.8558786311183852 9.03815
2.8781845268938557 9.17802
2.9005079311721484 9.53316
2.9228140460410397 9.2895
2.9451376712799635 9.74436
2.967444008632326 9.17631
2.9897678582247247 10.4194
3.0120918213106695 10.7189
3.0343984987899373 11.1209
3.0567226913198637 11.0833
3.079029599759726 11.5343
3.101354025127254 12.0861
3.123678568232338 12.8025
3.145985829517914 12.7741
3.16831061055229 13.5413
3.1906181112775593 14.3953
3.212943133635653 14.1524
3.2352682779763207 15.1504
3.2575761442691227 14.9466
3.2799015350264273 15.1915
3.302209649240067 15.8533
3.3245352898092655 15.9405
3.3468436553365257 16.9905
3.369169549113219 17.1544
3.3914955708171384 17.8371
3.413804319727358 18.4049
3.4361305997334863 18.558
3.4584396084414553 18.8961
3.4807661501462652 19.4411
3.503092824025881 19.8815
3.5254022288463154 19.8258
3.5477291695206588 20.3012
3.5700388426251948 20.7345
3.5923660534916446 21.4158
3.6146934007816114 23.1631
3.637003482731501 27.9895
3.6593311053109985 30.465999999999998
3.681641464033634 26.8314
3.7039693653009733 24.4626
3.726297407241705 24.3352
3.7486081875460804 23.9005
3.7709365132734978 24.8307
3.793247578841633 25.1511
3.8155761917550093 25.0388
3.8378875459837216 25.625
3.8602164494827234 26.129
3.882545499606844 27.0452
3.9048572932539183 27.5139
3.9271866390645718 27.6428
3.9494987298666713 28.2934
3.971828374764527 28.265
3.9941581705403255 29.1446
4.016470713506008 29.7735
4.038800813471445 30.1894
4.061113662089144 30.809
4.0834440696459176 31.3072
4.105774632334751 31.8236
4.128087945865126 32.425
4.150418821249301 32.7487
4.172732448931298 33.8297
4.195063640413578 34.3186
4.2173775856475215 35.1679
4.239709096631102 37.594
4.262040768704612 52.7114
4.284355196706267 64.6949
4.306687193387355 57.3898
4.329001947444346 44.4428
4.35133427213731 40.4838
4.373666762177566 40.2746
4.395982011761091 40.9243
4.418314834921175 41.9237
4.44063041906622 43.2362
4.4629635787515625 44.7515
4.4852969080429785 46.1796
4.5076130004776225 46.4819
4.529946671403969 46.6617
4.552263106909177 47.1761
4.574597122877047 48.7446
4.596931312711224 49.6846
4.619248269273446 50.5062
4.6415828092605835 51.6413
4.663900117405352 52.7451
4.686235010953232 54.2319
4.708552674085913 55.1414
4.730887924602802 56.6777
4.753223354952695 58.1485
4.775541557023902 59.1666
4.797877349456786 60.568999999999996
4.820195915032126 62.637
4.842532072957498 64.4453
4.864868414979744 66.2245
4.88718753227192 67.2625
4.909524244902505 69.8817
4.931843734218147 71.6811
4.954180820867835 73.6818
4.976518095879839 76.7259
4.998838149695359 79.8128
5.021175803844231 82.8293
5.043496238205739 85.3532
5.065834274903528 89.0548
5.088172504230693 93.1558
5.1104935158799565 97.0788
5.132832132875765 104.837
5.155153533596801 117.743
5.1774925416746225 136.749
5.199814334878411 230.02900000000002
5.2221537374521505 779.073
5.244493338631803 2440.29
5.266815727034316 7116.75
5.289155727832427 13504.9
5.311478517248165 9559.43
5.333818921080011 3321.53
5.356159527788849 706.5210000000001
5.3784829252032536 220.155
5.400823940070432 147.944
5.423147747031976 124.727
5.445489173474152 114.105
5.467830807066149 108.59100000000001
5.490155234831516 104.191
5.512497285125229 100.62200000000001
5.534822130975162 99.1542
5.557164601388673 97.0256
5.579489868738879 94.1656
5.601832762690846 92.9596
5.6241758697774475 91.9182
5.646501775867269 91.1786
5.668845311622074 90.6367
5.691171647754637 89.4377
5.713515615597765 88.5777
5.735859800852677 87.6982
5.758186788542988 86.4071
5.780531411018185 86.72
5.802858837297399 86.4729
5.825203900414495 85.9018
5.8475491852224 86.1692
5.869877275883075 87.0968
5.892223006467101 87.98899999999999
5.914551544266608 88.464
5.936897724049891 90.8822
5.959244129804903 94.8416
5.981573344815301 106.345
6.0039202049061 161.942
6.026249875609095 384.095
6.04859719346037 870.166
6.070927323278297 2038.24
6.093275102315365 4552.08
6.115623113320588 5730.53
6.137953938319995 3549.4
6.160302415650845 1056.66
6.182633708324452 241.264
6.2049826554078376 109.50299999999999
6.227331838745022 87.3066
6.249663839443684 79.7853
6.27201349767565 75.5849
6.294345974611799 73.7878
6.316696111167083 73.2774
6.339046488263839 71.8256
6.361379686074702 68.4405
6.383730546639482 66.2912
6.406064229255215 64.7416
6.428415576718203 64.4229
6.450749747566656 63.6491
6.47310158535871 62.5728
6.495453669698332 61.8372
6.517788579421056 60.8965
6.540141159237969 60.1514
6.562476565766648 59.3284
6.5848296444934045 58.5282
6.607182974060425 57.898
6.6295191323281015 57.711999999999996
6.651872965955752 57.5966
6.6742096296068985 58.3818
6.6965639707294615 62.7302
6.71891856698715 63.9784
6.741255995248479 60.3373
6.763611104154477 56.5964
6.785949046381137 55.0823
6.808304671371482 54.4135
6.8306605557940046 54.5086
6.852999275508618 53.6569
6.875355681171544 53.6972
6.897694923437771 53.2146
6.92005185377892 53.2816
6.9423916220322655 53.1601
6.964749080490181 52.5176
6.987106804399774 52.3418
7.009447368180821 52.7222
7.031805625367033 51.9005
7.054146723727803 51.9534
7.076505517631004 51.8233
7.098864581288365 52.0131
7.121206488070854 51.6781
7.143566093607822 51.5895
7.165908543567245 52.0031
7.188268694426048 51.3702
7.2106291193438095 50.8866
7.232972390625943 51.2712
7.255333366030969 51.9514
7.277677189091925 55.7702
7.300038718428332 61.903
7.322400526130865 61.6052
7.344745183422596 55.9833
7.367107550224791 52.3147
7.389452767901992 51.7366
7.411815697249891 51.3943
7.434161478756298 51.254
7.456524974096713 51.5861
7.478888753837185 51.5358
7.501235387657368 53.3296
7.523599738562711 60.4038
7.545946944825532 73.3998
7.568311870344528 77.5223
7.5906770845765665 67.9524
7.613025156078678 57.791000000000004
7.635390950099687 53.964
7.657739602662809 52.7699
7.680105979923558 52.378
7.702472650212829 53.1933
7.724822180948224 53.0834
7.747189439655568 53.0582
7.769539560075357 53.4245
7.791907410653562 53.9044
7.81425812420825 53.6438
7.836626570110925 53.7385
7.858995315087906 54.5668
7.881346924933401 54.8349
7.903716270417482 55.18600000000001
7.926068482028405 55.798
7.948438431475253 56.3349
7.9708086843180235 56.6258
7.993161805171116 57.1853
8.015532667162402 57.3569
8.037886398416653 58.4594
8.060257873014221 58.8101
8.082629655331942 59.423
8.104984308787587 59.9521
8.127356708900503 60.6774
8.149711981398308 62.1929
8.172085002766314 63.0871
8.194458336181368 63.7757
8.216814543847752 64.3452
8.23918850371002 65.376
8.26154533906492 66.4683
8.283919928836452 67.9075
8.306277395339652 68.8493
8.328652618483376 69.8804
8.351028159736202 72.0328
8.373386579575245 73.9137
8.395762759396959 75.3401
8.418121819038275 77.2984
8.440498640894003 81.0319
8.462875785192262 86.0547
8.485235811156207 94.2364
8.507613602688501 126.521
8.529974277114228 224.872
8.552352719347912 360.983
8.574731488360351 601.369
8.59709314210385 1069.06
8.619472567021075 1821.46
8.64183487789147 2251.39
8.664214962183097 1971.27
8.686577933647762 1111.92
8.708958680784317 423.36400000000003
8.731339760774953 177.188
8.753703729764451 109.852
8.77608547780821 95.0292
8.798450116065078 90.9212
8.820832535634787 88.4938
8.843215292401656 86.8317
8.865580941199045 85.7275
8.887964374703538 84.0701
8.910330701447199 83.057
8.932714815164482 82.7299
8.955099270424924 82.2744
8.977466620733543 81.639
8.999851761421976 80.6828
9.022219798361645 80.0301
9.04460562795561 80.077
9.066991803441677 79.7752
9.089360876979615 79.6027
9.111747746589993 79.4604
9.13411751544971 79.0094
9.156505082664324 78.8162
9.178875550323522 79.5305
9.20126381862328 82.1945
9.223652438908596 93.7229
9.246023961427412 112.535
9.26841328802173 119.87899999999999
9.290785518039224 107.31299999999999
9.313175554425882 91.3614
9.335565947154315 82.3869
9.357939245086508 80.2189
9.380330352834827 79.9731
9.40270436697103 80.1628
9.425096193225055 79.9185
9.447488380180165 80.3124
9.469863475295412 80.346
9.492256385987508 80.6111
9.514632206018318 81.5613
9.537025843935714 81.7116
9.559402392368193 82.2519
9.581796761000229 82.9706
9.604191496441521 83.4222
9.626569144158516 84.193
9.648964615551032 85.1261
9.671343000390081 86.3267
9.693739211225699 86.8089
9.716135793237463 87.4231
9.738515290448102 88.3589
9.760912617143402 89.3994
9.783292860202891 90.2301
9.805690935076182 91.1611
9.828089385495742 91.9398
9.850470754023561 93.5145
9.872869957865444 95.8877
9.89525208097539 98.3887
9.917652041736662 102.399
9.940052382417589 105.87200000000001
9.962435644102392 114.366
9.984836746950979 145.299
10.007220771957746 222.416
10.029622640473708 339.04699999999997
10.052007432299963 501.228
10.074410069984072 757.7180000000001
10.096813093716005 1185.92
10.119199042482517 1746.61
10.141602840636468 2099.2
10.163989564971628 1676.08
10.186394141051062 1004.86
10.208799107559706 444.745
10.231187001965623 203.99
10.253592751657669 125.95700000000001
10.275981430388155 107.525
10.298387966769793 102.801
10.320794897965431 101.56299999999999
10.343184759907361 100.279
10.36559248305461 98.7287
10.387983138083852 97.6905
10.410391656691655 98.6303
10.432800574501677 107.053
10.455192425893369 128.042
10.47760214443012 157.717
10.499994797678786 198.266
10.522405320453982 264.845
10.54479877906917 374.87300000000005
10.567210109595656 504.824
10.5896218454736 591.3290000000001
10.612016518879773 539.818
10.634429067781074 378.80800000000005
10.656824555333241 224.954
10.679237920773568 141.945
10.701651695961992 105.774
10.724048411481384 93.6804
10.746463008485165 86.6143
10.768860546937125 82.4788
10.791275969274796 79.8018
10.81369180576079 78.6942
10.836090585366925 77.7804
10.858507252467449 76.2214
10.88090686379991 75.24600000000001
10.903324365036394 74.3461
10.925724811614439 73.5224
10.948143150509463 73.5688
10.970561909719066 72.4472
10.992963615930844 71.5589
11.015383218085756 70.7025
11.037785768347074 69.6972
11.06020621697282 69.3269
11.082627090322113 68.8401
11.105030913430326 67.7725
11.12745263854165 67.6823
11.149857314510728 66.7906
11.172279894912576 67.5968
11.194702904450653 66.9339
11.217108866490921 66.25
11.239532736615194 65.4506
11.26193956033512 64.8948
11.284364294577085 64.6189
11.306789462371718 63.9331
11.329197585398376 63.5826
11.351623622610898 63.6248
11.37403261614354 62.9048
11.396459526308487 62.7751
11.418869393879497 62.2364
11.441297180532617 62.0436
11.463725406927658 61.7435
11.486136592353875 61.1717
11.508565700543707 60.9313
11.530977768845315 60.9762
11.553407762368774 60.8993
11.575838200059769 61.0758
11.598251599479612 60.7156
11.620682927815501 60.3838
11.64309721895548 60.3416
11.665529441478206 60.0763
11.687962112597958 59.8873
11.710377748130886 59.9878
11.732811318753434 59.9655
11.755227854859067 59.8025
11.777662328529495 59.4959
11.800079768750786 59.5075
11.822515149015453 59.6382
11.844950984084935 59.7959
11.867369787303163 59.6688
11.889806534289491 60.1442
11.912226250487029 62.0758
11.934663912939751 65.9961
11.9571020346363 69.3426
11.979523127133968 69.7358
12.001962169624331 67.273
12.024384183972964 64.2863
12.046824150809913 64.4352
12.069264581333726 69.5876
12.091687985297767 76.2185
12.11412934550045 85.0021
12.136553680195208 98.066
12.158995973632788 118.193
12.181438735204349 146.72799999999998
12.20386447284199 177.579
12.226308172985636 207.11700000000002
12.24873485024193 210.31799999999998
12.271179492516982 176.225
12.293607112949127 133.399
12.316052700916226 95.7253
12.338498763250042 73.096
12.360927805303868 64.2827
12.383374818673879 61.7441
12.405804812803074 61.0743
12.428252780773262 61.03
12.45070122756722 60.8043
12.473132656675375 60.6082
12.49558206341869 61.1345
12.518014453510101 61.0692
12.540464823770117 61.16
12.562915677315177 61.5642
12.58534951575545 61.7632
12.607801338171472 61.7281
12.630236146511358 62.38
12.652688941369085 63.5397
12.675124723177234 63.6842
12.697578494048786 63.9181
12.720032754458185 63.6836
12.742470003354093 63.6424
12.764925245138771 64.081
12.787363476431278 64.4117
12.809819703166806 65.1215
12.83227642391173 65.6735
12.854716135692716 66.4261
12.877173846755147 67.3985
12.899614549869717 67.4809
12.9220732548287 68.6186
12.94453245827299 69.0639
12.966974655289818 69.8566
12.989434858002571 70.6862
13.011878055298721 71.4906
13.034339260862497 72.4391
13.056800969391883 74.1494
13.079245674017244 76.322
13.101708390774869 78.2241
13.12415410463411 82.4808
13.146617833206086 92.5034
13.169064559883248 106.64200000000001
13.191529303857127 123.803
13.213994557076367 144.884
13.236442809902437 176.55700000000002
13.258909083908291 224.85
13.28135835851934 288.491
13.30382565690295 362.759
13.326293469022952 427.12199999999996
13.348744283242008 440.725
13.371213125129904 376.86699999999996
13.39366497011003 279.139
13.416134845360597 184.64700000000002
13.438605238843131 127.054
13.46105863690397 102.26899999999999
13.483530069144786 98.3424
13.505984506951902 106.13600000000001
13.528456981549432 118.292
13.550929978879088 133.291
13.573385983253365 153.928
13.595860028340867 186.415
13.618317081455832 234.165
13.64079217790333 292.438
13.663250283359057 353.324
13.685726434770173 390.82099999999997
13.708203115221277 362.851
13.730662806148091 290.54900000000004
13.75314054697177 206.90900000000002
13.775601299246777 138.655
13.798080104050406 100.728
13.820559442405358 84.6096
13.843021793671388 79.3198
13.865502201420897 77.3397
13.887965623051947 76.4892
13.910447103807167 75.5591
13.932929122629764 74.4464
13.955394156785959 74.0417
13.977877254034569 72.9606
14.000343367582113 72.2932
14.022827546871707 71.7852
14.045294743423524 71.2512
14.06778000837062 70.6568
14.090265817715476 70.8003
14.112734645763819 71.7697
14.13522154619454 74.0372
14.157691466286913 76.3826
14.180179461423874 76.7187
14.202668005486178 74.4134
14.22513957064374 71.0929
14.247629214846473 69.0144
14.270101881097517 67.8626
14.29259262906496 67.3603
14.315083930490205 67.2284
14.337558255389705 67.1722
14.360050666019726 66.9967
14.382526101071944 66.6765
14.405019624534942 66.5071
14.427513705993134 66.0122
14.449990813291825 66.0778
14.47248601302899 65.9131
14.49496423954951 66.2811
14.517460561197822 66.2186
14.539939910570322 66.0698
14.562437357763558 65.9416
14.58493536931253 66.388
14.607416409993311 66.393
14.62991555254159 66.7223
14.652397725157423 66.8714
14.674898002342799 67.2227
14.697398848433282 67.1703
14.719882725991326 67.8899
14.74238471217934 68.3041
14.764869730765593 70.1706
14.787372860692983 73.8659
14.809876564079925 80.4572
14.83236330125751 87.8331
14.854868153850365 96.2366
14.877356041159485 108.02
14.899862046604186 123.633
14.922351087688757 145.966
14.944858249632887 177.273
14.967365991421232 206.856
14.989856770231246 225.516
15.012365673994204 228.61
15.03485761569738 200.125
15.05736768508665 160.352
15.07987833888692 122.206
15.102372032001655 93.2774
15.124883856909658 77.1561
15.14737872204565 71.06
15.169891721717274 68.6115
15.192405310371893 67.7114
15.214901940621196 67.1183
15.237416709527137 66.546
15.259914520936249 66.154
15.282430473753607 65.5056
15.304947020131227 65.108
15.327446610371178 64.5756
15.349964346154254 64.1304
15.372465126703139 64.2465
15.394984055556009 64.1003
15.417486030076159 63.9661
15.44000615566487 63.5839
15.462526881230803 63.3336
15.485030653812652 63.1948
15.507552581617434 63.2006
15.530057557334603 63.4051
15.55258069104857 63.1195
15.575104429329837 63.394
15.597611216864632 63.1498
15.620136166564563 63.3118
15.6426441664095 63.6901
15.665170331202765 64.8139
15.687697105158826 68.248
15.710206930593545 73.1617
15.732734925158933 78.6381
15.755245972089478 85.2778
15.77777519094324 93.2688
15.800287463046663 104.124
15.822817909869592 120.79899999999999
15.84534897229804 142.131
15.867863089299354 167.553
15.890395385222186 189.153
15.912910736597423 200.842
15.935444269699861 191.17700000000002
15.957978423016485 167.018
15.980495633101265 132.468
16.003031029129367 102.82600000000001
16.02554948280019 80.9716
16.048086125229432 69.5999
16.070623392487107 65.0386
16.09314371869582 62.94
16.11568223789321 61.1639
16.13820381691126 59.9677
16.160743591742527 59.0271
16.183283996022084 58.338
16.205807461423195 57.4721
16.228349126881973 56.5732
16.25087385432698 56.7747
16.27341678466365 56.0646
16.29594277784926 55.7561
16.31848697676433 55.4125
16.341031811604868 55.0851
16.36355971058487 54.9953
16.3861058195587 54.6703
16.40863499352978 54.2055
16.431182380342005 54.0406
16.453730407713202 53.6341
16.476261501364792 53.3755
16.498810812136167 53.3022
16.52134319004079 53.3501
16.54389378792203 53.141000000000005
16.566445031001553 53.1775
16.588979342490088 52.8937
16.61153187824822 52.9228
16.634067483263312 52.8357
16.656621315414416 52.6806
16.679175797408888 52.5312
16.701713349928728 52.445
16.72426913389191 52.528
16.74680798922351 52.5266
16.76936507887444 52.6157
16.791905240734874 52.4825
16.814463639794468 52.4408
16.837022695210294 52.5382
16.859564824093756 52.6696
16.882125194503903 52.7845
16.904668639217885 53.5681
16.927230328348003 53.8611
16.949792678493612 54.4409
16.972338104193863 54.201
16.994901778652235 53.8452
17.017448529496576 53.6323
17.040013531998152 53.7421
17.06257920018044 53.8092
17.0851279459922 54.6525
17.107694947817667 55.817
17.130245028099072 56.7365
17.15281336730298 58.0498
17.17536478578733 59.7065
17.19793446610687 61.7817
17.220504818648422 64.316
17.243058251703697 67.5736
17.265629950971032 72.0852
17.288184731571736 77.0764
17.310757781306908 81.4732
17.33333150794385 82.664
17.355888317140174 82.6001
17.37846339986244 78.4013
17.401021565958885 71.6177
17.42359800851343 65.406
17.44617513265564 61.1707
17.468735341390783 58.6009
17.491261035594565 57.4071
17.51396340099364 57.0096
17.536490463869136 57.083999999999996
17.559018209820174 56.7815
17.58154663977963 57.1151
17.604251766089718 57.1096
17.626781572227713 57.3839
17.64931206518155 57.7617
17.671843245885103 58.0054
17.69455114821572 58.1343
17.717083712612634 58.7238
17.739616967569667 59.1797
17.762150914021706 59.6916
17.78486160749854 60.1261
17.807396945166804 60.8059
17.829932977143503 61.0721
17.85246970436452 61.688
17.875183204129467 63.201
17.897721330097664 66.0607
17.920260154126645 69.0995
17.942799677153296 72.4668
17.9655159983646 76.29
17.988056927677544 81.0666
18.010598558807683 87.8078
18.033140892692916 96.8132
18.05586005052525 108.039
18.07840379824407 120.266
18.10094825154059 132.028
18.12366954819864 141.611
18.146215420998306 143.43
18.16876200220057 136.86700000000002
18.191309292745153 123.18
18.214033452627167 108.48100000000001
18.236582170236648 95.3176
18.259131600016456 87.5513
18.281681742907335 85.4345
18.304408781233683 88.2526
18.32696035875955 93.7715
18.349512652227624 98.866
18.372065662579683 104.36399999999999
18.394795594587553 106.71700000000001
18.41735004715306 104.241
18.43990521943684 97.6565
18.46246111238171 88.8038
18.485193953325208 79.0219
18.507751296070428 71.2553
18.530309362314178 65.5501
18.552868153000343 62.8773
18.57560391815056 61.317
18.59816416623245 60.7463
18.620725141597372 60.0328
18.643286845190268 59.1468
18.666025549835414 58.5022
18.688588718427933 57.79600000000001
18.711152618092243 57.8054
18.73389353884365 57.5374
18.75645890921984 57.1354
18.77902501351406 56.873000000000005
18.801591852673102 56.8987
18.824335739722738 56.431000000000004
18.846904057212626 56.2391
18.8694731124168 55.9083
18.89204290628315 55.9189
18.914789774966803 55.8422
18.937361054791623 55.4042
18.959933076131318 55.1936
18.982505839934877 55.0494
19.00525570560582 55.1573
19.027829963004184 54.7766
19.05040496572238 54.8853
19.072980714710468 54.7704
19.095733592739563 54.8239
19.11831084296757 54.9277
19.140888842324735 55.4428
19.16346759176222 55.9921
19.18622349753803 56.753
19.208803755869358 57.566
19.231384767143577 58.7471
19.253966532312948 60.2939
19.276725481241822 62.5001
19.29930876296784 65.5129
19.3218928014549 68.9631
19.34465404436217 71.9542
19.36723960516257 74.8108
19.389825925592426 75.9624
19.412413006605938 75.0958
19.43517731967805 72.1989
19.457765930683355 68.0263
19.48035530514408 63.1152
19.50294544401556 59.1521
19.525712842708348 56.0545
19.54830451925909 54.0982
19.570896963095727 52.7211
19.593490175174704 52.2418
19.616260674962184 52.3716
19.638855432416964 51.9926
19.661450960992624 52.2029
19.68404726164677 51.8947
19.706820878021247 51.5805
19.729418731756834 51.9777
19.752017360452857 51.7571
19.77461676506804 51.7258
19.797393513540218 51.7293
19.819994478951667 51.7718
19.84259622316767 52.4787
19.8651987471481 53.1297
19.887978643247177 53.2237
19.91058273574792 54.0556
19.933187610901943 54.8818
19.955969879466828 55.9145
19.97857632894404 57.096000000000004
20.00118356396599 58.5731
20.023791585494575 60.7013
20.046577028914875 63.6146
20.069186632506966 66.1468
20.091797025500632 68.3987
20.114408208858933 70.1491
20.137196842715273 70.3324
20.159809615886765 68.6638
20.18242318232135 66.10300000000001
20.20503754298326 63.7509
20.227829382875154 62.1233
20.250445341109344 61.4018
20.27306209647285 61.8748
20.29567964993108 63.1187
20.31847471147704 64.2457
20.34109387027612 65.2268
20.363713830075454 65.2945
20.386334591841646 63.9832
20.409132890679302 61.2252
20.431755265564437 58.0008
20.454378445325528 54.8669
20.477002430930366 52.6881
20.499803982716553 50.9957
20.522429589228004 49.6782
20.54505600449589 49.1429
20.567683229489194 48.9697
20.590488049900088 48.8587
20.61311690359731 48.7524
20.63574656993626 48.5862
20.658553853717297 48.32
20.681185154618298 48.0182
20.703817271080066 48.0228
20.72645020407368 47.7319
20.749260783967177 48.1319
20.771895359337133 48.0342
20.794530754161617 47.8328
20.817166969412938 47.7635
20.83998086114876 47.8468
20.86261872660049 47.4526
20.885257415405402 47.1641
20.90789692853701 47.0623
20.930714147864748 46.9396
20.953355319030678 47.1481
20.97599731745334 47.2045
20.99864014410749 47.0472
21.021460706796564 47.1361
21.044105199328826 47.3444
21.06675052302631 47.5052
21.089396678865015 47.6515
21.112220600704806 47.8737
21.134868430275347 48.1278
21.15751709492456 48.5066
21.180166595629693 48.8403
21.202993892429635 49.328
21.22564507473034 49.961999999999996
21.24829709602816 50.2499
21.27112693608965 50.4565
21.293780644891275 50.5453
21.316435195634053 49.74
21.339090589297417 49.0855
21.361923832041875 48.5296
21.384580921090404 47.9012
21.407238856007325 47.2936
21.429897637773326 47.0551
21.45273429906592 47.0974
21.475394784108598 47.086000000000006
21.498056118951983 47.0371
21.520718304578022 47.4826
21.543558400304388 47.2959
21.566222297108816 47.4209
21.58888704765135 47.3165
21.61155265291521 47.5964
21.63439619898156 48.1685
21.657063523335786 48.643
21.67973170537063 49.2077
21.7024007460706 49.6752
21.72524775840385 50.2159
21.747918526116475 51.4225
21.770590155457388 52.3558
21.79326264741238 53.854
21.816113141960237 55.4822
21.838787368860547 57.6637
21.861462461341976 60.0202
21.884315579735777 62.3489
21.90699241312273 64.1991
21.92967011506078 65.0676
21.95234868653799 64.75399999999999
21.9752053151131 63.7994
21.997885635446785 61.7042
22.020566828293532 59.6086
22.04324889464272 57.4463
22.066109049404666 56.0795
22.088792872571794 55.6436
22.111477572219204 55.7554
22.1341631493376 55.9841
22.157026846313123 55.8368
22.179714188221507 55.3119
22.202402410582668 54.2933
22.22509151438863 52.6313
22.24795876962584 51.0692
22.270649646204486 50.0302
22.293341407213727 48.9415
22.316034053646906 48.2384
22.338904883215342 47.735
22.36159931041458 47.6586
22.38429462602756 47.5625
22.40699083104897 47.2958
22.429865251039757 47.3745
22.452563244831367 47.2871
22.47526213102522 47.2858
22.49813925616515 47.278
22.520839937143307 47.22
22.543541513520587 47.2562
22.56624398629403 47.1494
22.589124730075895 47.1506
22.611829005656723 47.1437
22.63453418063466 47.2906
22.657240256008077 47.4927
22.680124634582935 47.5865
22.70283252079775 48.1973
22.725541310413075 48.5074
22.74825100442868 48.8813
22.771139033969575 49.2445
22.79385054687155 49.4716
22.81656296718292 50.2654
22.83927629590484 51.0054
22.862167992606945 51.9127
22.88488314827121 53.0565
22.907599215359284 54.055
22.93031619487366 55.4608
22.953211574954405 56.5797
22.975930389478226 57.611999999999995
22.998650119445763 57.9293
23.02137076586092 57.3336
23.044269845560063 56.1488
23.06699233506288 54.4547
23.089715744034912 52.6459
23.112617610931565 50.7412
23.135342869061212 49.2961
23.158069049684816 48.4657
23.1807961538087 47.8778
23.20370174880544 47.5808
23.226430710184808 47.5639
23.249160598093425 47.463
23.271891413539002 47.4654
23.294800752937697 47.6697
23.31753343374794 48.0344
23.340267045128353 48.2427
23.36300158808808 48.6825
23.38591468821339 49.1046
23.408651104658304 49.5679
23.431388455719986 50.0123
23.454126742409 50.722
23.4770436196085 51.8477
23.499783787914662 53.2397
23.522524894889884 54.281000000000006
23.54526694154616 55.5382
23.56818761219047 56.9016
23.59093154860734 57.7461
23.613676427751283 58.2524
23.636422250635754 57.8482
23.659346731118656 56.3526
23.68209445191868 54.1963
23.704843119509587 51.8961
23.72759273490623 49.9068
23.750521041644767 48.0191
23.77327256312355 46.7326
23.796025035462787 45.8421
23.818956224555475 45.2297
23.841710609113413 44.9626
23.86446594758979 44.792
23.887222241002014 44.4426
23.910157285144578 44.1439
23.932915498962537 44.1031
23.955674670778713 44.0047
23.978434801611975 43.802
24.001373717286125 43.8095
24.024135776723917 43.7227
24.046898798245582 43.4376
24.06966278287146 43.4966
24.092605586582614 43.1004
24.115371508023642 43.07899999999999
24.1381383956401 42.9244
24.16090625045381 42.7753
24.183852958731244 42.7315
24.206622758582608 42.693000000000005
24.229393528706886 42.4134
24.252165270127392 42.533
24.27511589952438 42.4829
24.297889594216997 42.3235
24.32066426328598 42.1578
24.34343990775613 42.2068
24.36639447485003 41.9775
24.38917208083877 42.0385
24.41195066531332 41.958
24.43490819850244 41.9749
24.457688750692377 41.8191
24.48047028445616 41.7763
24.503252800821233 41.9382
24.526214300784112 41.8781
24.548998793132213 42.0427
24.57178427117417 41.9641
24.59457073593893 42.0308
24.617536219319863 41.9524
24.64032466834748 41.9252
24.663114107195035 41.812
24.685904536893013 41.6746
24.708874020360852 41.5329
24.731666442613744 41.4481
24.754459858818787 41.5574
24.777254270007962 41.3587
24.80022777025625 40.9871
24.82302418230472 40.9792
24.845821592443674 41.1649
24.86862000170663 41.099
24.891597535453727 41.1384
24.914397953892728 41.3664
24.93719937456671 41.353
24.96000179851076 41.2301
24.98298338249997 41.5061
25.00578782394922 41.6352
25.028593271784167 41.948
25.05157790644186 42.2855
25.07438537804115 42.4672
25.097193859145293 42.7414
25.120003350792075 43.0713
25.142992065061257 43.5243
25.165803588823465 43.721000000000004
25.18861612625217 43.9231
25.211429678386736 43.8612
25.234422489079968 44.2408
25.257238081693636 44.2243
25.280054692141732 44.36
25.3028723214652 44.3284
25.325869245420463 44.3764
25.348688923599397 44.4458
25.371509623787006 44.4292
25.394331347025812 44.1982
25.41733240110666 43.7797
25.440156181590016 43.1033
25.46298098826268 42.4418
25.48580682216873 41.8128
25.50881202326435 41.1309
25.53163992281684 40.6036
25.55446885274561 40.3748
25.577298814096377 40.1858
25.600308179121807 39.9653
25.623140214533745 39.9776
25.64597328451537 39.8562
25.66898578564376 39.6079
25.691820936010206 39.5871
25.714657124097695 39.5975
25.737494350954734 39.6667
25.760511045684957 39.4946
25.783350361364224 39.6134
25.806190718969255 39.6584
25.82903211955018 39.7684
25.852053024868923 39.6882
25.874896522722523 39.7192
25.897741066713106 39.7162
25.920586657892454 39.6874
25.943611790812668 39.829
25.966459487728237 40.0219
25.989308234998564 40.2037
26.01215803367705 40.4547
26.03518741123814 40.6302
26.05803932412957 40.8005
26.080892291600094 40.8994
26.10374631470478 41.1037
26.12677995397268 41.198
26.14963609978026 41.1825
26.172493304397875 40.8853
26.19535156888223 40.4966
26.218389486949604 40.2468
26.241249882640123 39.905
26.26411134137826 39.5287
26.28715248187403 39.5508
26.31001607820869 39.3984
26.3328807407756 39.1735
26.35574647063438 39.2952
26.37879191991473 39.408
26.401659795896734 39.4421
26.424528742360263 39.4844
26.447398760366614 39.4888
26.470448535598294 39.8004
26.49332070826805 39.8904
26.516193955675355 40.0904
26.53906827888316 40.4483
26.562122397260108 40.63
26.584998883685063 41.1259
26.607876449110325 41.3439
26.63075509460056 41.5619
26.65381357334404 41.7745
26.67669439061878 41.7629
26.699576291163382 41.6345
26.722459276044212 41.5598
26.745522132402975 41.2124
26.768407297649354 41.2218
26.791293550442003 40.7792
26.814180891848974 40.466
26.837248143099337 40.0881
26.860137673466657 39.8842
26.88302829566349 39.6233
26.90592001075963 39.6075
26.92899167420566 39.449
26.951885586870763 38.8632
26.974780595655517 38.7406
26.99785558178161 38.6103
27.020752794605112 38.365
27.043651106772522 38.1572
27.06655051935668 38.1869
27.089629948036183 38.0928
27.112531573292053 37.816
27.135434302194138 37.9081
27.158338135817015 37.691
27.181422024430987 37.7711
27.204328079372566 37.6826
27.22723524226965 37.7792
27.250143514198573 37.69
27.273231880156334 37.7084
27.296142382065014 37.6097
27.319053996245536 37.4979
27.341966723775965 37.6224
27.365059584515222 37.6618
27.38797455070062 37.7148
27.410890633481237 37.5878
27.433807833936918 37.6034
27.456905206923906 37.7159
27.47982465472398 37.8679
27.502745223449743 37.7813
27.525666914182825 37.9334
27.548768816912457 37.9273
27.571692763693633 37.799
27.59461783573812 37.7335
27.617723149491244 37.644
27.640650484125285 37.4936
27.66357894728264 37.3805
27.686508540048052 37.4214
27.709618414237887 37.2033
27.732550278321757 37.0772
27.755483275279115 37.0985
27.778417406196485 37.2156
27.801531858397514 37.1823
27.824468269376716 37.0096
27.847405817586786 37.0383
27.870344504116094 37.2134
27.893463551932008 37.3449
27.916404527281053 37.6333
27.93934664422563 37.7177
27.962289903855886 37.8687
27.98541356491974 38.1728
28.00835912214229 38.2647
28.03130582533231 38.4963
28.054253675581805 38.7447
28.077381967556104 38.7199
28.100332124185126 38.835
28.123283431160893 38.6299
28.146235889577238 38.4631
28.169368830154156 38.4133
28.192323603752033 38.145
28.215279532083304 37.8829
28.238415973016764 37.6087
28.261374223145094 37.4612
28.284333631303806 37.1904
28.307294198589954 36.9161
28.330435319167677 36.6038
28.353398217078915 36.4616
28.376362277420153 36.2129
28.39932750129032 35.9034
28.422473319286713 35.6832
28.44544088262495 35.6949
28.468409612800283 35.4858
28.491379510913497 35.4763
28.51453004413313 35.2974
28.53750229057244 35.2332
28.56047570826344 35.0381
28.583450298308804 35.13
28.606605564586562 34.9227
28.629582511831156 34.9543
28.65256063474956 34.8753
28.675539934446338 34.8825
28.698699951647605 34.8246
28.72168161743193 34.7071
28.74466446331978 34.7087
28.767648490417624 34.649
28.790813276438353 34.6558
28.813799678527303 34.6198
28.836787265157085 34.6478
28.859955641890075 34.7228
28.882945610203045 34.7428
28.905936766392035 34.6487
28.928929111566863 34.7316
28.952102288520145 34.5446
28.975097024308607 34.4075
28.998092952423807 34.3462
29.021090073977508 34.313
29.04426806913204 34.0981
29.067267590245258 34.0982
29.090268308143695 33.9523
29.11327022394099 33.8742
29.13645305530891 33.695
29.159457379627167 33.5944
29.18246290519685 33.56
29.20546963313352 33.5896
29.22865731875826 33.5576
29.25166646419296 33.6003
29.27467681535305 33.4384
29.29768837335608 33.5588
29.320880931312562 33.5615
29.34389491580634 33.4507
29.366910110507334 33.549
29.38992651653503 33.6216
29.41312396492981 33.549
29.436142806456754 33.5732
29.45916286268059 33.4525
29.48236399319994 33.263000000000005
29.50538649169417 33.1671
29.528410208259935 33.1108
29.55143514402014 32.8224
29.574641196749695 32.746
29.597668583816574 32.5667
29.6206971934585 32.4492
29.64372702680042 32.4269
29.666938019934474 32.3412
29.689970313635285 32.3102
29.713003834422636 32.2356
29.73603858342347 32.1639
29.759254535188578 32.0305
29.78229175361658 32.0262
29.80533020365064 32.1739
29.82836988641968 32.1291
29.85159081507472 32.0439
29.874632976355343 31.9836
29.89767637376955 32.1117
29.920721008448314 31.9326
29.9439469322847 31.9116
29.96699405457564 31.8033
29.9900424175358 31.8439
30.013092022298157 31.8652
30.03632295963995 31.8554
30.059375061131373 31.72
30.08242840783577 31.7731
30.105483000888153 31.7585
30.128718970092244 31.7735
30.151776069006917 31.7541
30.17483441768648 31.7687
30.198074175317235 31.8111
30.221135036724256 31.7224
30.24419715131772 31.6412
30.267260520236203 31.6683
30.290505341942243 31.7092
30.313571232750228 31.8008
30.336638381310948 31.6742
30.35970678876503 31.6109
30.38295669299435 31.5468
30.40602763151657 31.5657
30.429099832366074 31.478
30.452173296685572 31.4431
30.47542830191959 31.4681
30.498504306502497 31.383000000000003
30.521581577995562 31.4687
30.544660117543582 31.4812
30.56792024229725 31.468000000000004
30.59100133132069 31.4899
30.614083691845494 31.6045
30.637167325018545 31.6344
30.660432587840603 31.7163
30.683518779717886 31.675
30.70660624769615 31.7728
30.729694992924372 31.7616
30.75296541239743 31.7531
30.77605672557558 31.6572
30.799149319462742 31.6408
30.8224236211637 31.5342
30.845518789950724 31.4032
30.868615242910597 31.3299
30.891712981195973 31.0901
30.91499247215866 30.9778
30.938092794619365 30.945999999999998
30.96119440587579 30.9636
30.984297307082752 30.765
31.00758200598383 30.7106
31.030687500658694 30.6205
31.053794288760695 30.5798
31.076902371446767 30.5995
31.100192296997445 30.5756
31.12330298246119 30.4641
31.14641496599209 30.3572
31.169528248749216 30.3545
31.19282341969534 30.3635
31.215939314557186 30.3785
31.239056512134788 30.3284
31.262175013589378 30.3231
31.28547544871168 30.2854
31.30859657161541 30.2301
31.331719001892175 30.2974
31.35484274070538 30.3727
31.378148458819545 30.4045
31.401274828443725 30.3963
31.424402510106933 30.3113
31.447712205419993 30.4151
31.470842524931633 30.3517
31.493974159989783 30.3483
31.51710711176168 30.3206
31.54042212308802 30.2645
31.563557722100917 30.2502
31.586694641341655 30.1651
31.609832881979628 30.1075
31.63315322823208 30.0139
31.656294125521327 29.8107
31.679436347728515 29.7489
31.70257989602529 29.7512
31.725905596152327 29.6697
31.74905181052835 29.5718
31.772199354521323 29.6561
31.79534822930507 29.5963
31.818679302290967 29.6516
31.84183085259981 29.6868
31.864983737233473 29.6558
31.88813795736804 29.6735
31.911474422233013 29.4983
31.934631327356435 29.587
31.9577895715215 29.5978
31.980949155906522 29.609
32.004291031706956 29.5333
32.027453310562606 29.4858
32.05061693318573 29.3423
32.07396288236386 29.3317
32.09712920658542 29.2308
32.12029687812702 29.13
32.14346589817093 29.0114
32.166817291729984 29.0215
32.18998902288583 29.0197
32.21316210610336 28.8243
32.23633654256711 28.7211
32.259693399663725 28.7233
32.282870556771144 28.5915
32.30604907069099 28.5907
32.329228942610065 28.5334
32.35259128243769 28.4143
32.375773884550505 28.3014
32.398957848235646 28.2881
32.422143174682176 28.307
32.445511016471215 28.2121
32.468699082679954 28.2843
32.49188851523011 28.1878
32.51507931531304 28.2101
32.538452678331 28.1329
32.56164622776311 28.0129
32.58484114831493 27.9434
32.60803744118015 27.9713
32.631416344731896 27.9536
32.654615396551876 27.904
32.67781582427913 27.8044
32.701198898634416 27.7892
32.72440209253756 27.6482
32.747606665947124 27.7422
32.77081262006088 27.6288
32.79420126883317 27.6667
32.81740999876112 27.6452
32.840620112999424 27.5455
32.86383161274818 27.5182
32.88722585534586 27.4287
32.91044014056596 27.5898
32.933655814909734 27.4854
32.95687287957963 27.4585
32.98027273544904 27.3641
33.00349259526636 27.3719
33.026713849030116 27.4408
33.04993649794511 27.2975
33.073341986570746 27.2961
33.09656744032826 27.3401
33.11979429286444 27.3102
33.14302254538647 27.29
33.166433686291185 27.1963
33.18966475336992 27.146
33.212897224069096 27.1143
33.23613109959831 27.0879
33.259547912343415 27.0312
33.2827846121627 27.1635
33.306022720453775 27.0174
33.32926223842861 26.8464
33.352684742614166 26.9762
33.37592709463173 26.9527
33.399170859982064 26.9386
33.422597648419426 26.814
33.44584425514446 26.6825
33.46909227885668 26.5958
33.4923417207723 26.5016
33.51577423505344 26.4661
33.539026528130385 26.3664
33.56228024307245 26.4409
33.585535381098246 26.2656
33.60897364093058 26.3237
33.63223163992385 26.3079
33.6554910656699 26.1475
33.678751919389796 26.1045
33.702195944520106 26.1671
33.72545966903325 26.1194
33.74872482519663 26.0422
33.771991414233746 25.9438
33.79544122444841 26.0114
33.81871069412428 25.7654
33.84198160035767 25.8897
33.86525394437455 25.8594
33.88870955949969 25.8301
33.911984794020626 25.8078
33.93526147001624 25.7731
33.958539588715006 25.7213
33.98200102861669 25.6481
34.0052820477047 25.6673
34.02856451319451 25.6091
34.05203033759056 25.5715
34.07531571090147 25.4683
34.09860253431845 25.4388
34.121890809074316 25.4213
34.145362493118924 25.4095
34.16865368561615 25.308000000000003
34.191946333164054 25.232
34.21524043699793 25.2201
34.23871800066799 25.241
34.26201503218366 25.1409
34.28531352370466 25.1734
34.30861347646881 25.0821
34.33209693978188 25.1054
34.3553998301885 25.0729
34.378704185565205 24.8811
34.402010007152356 24.885
34.42549939016683 24.9497
34.44880815937748 24.814
34.472118398533134 24.7431
34.49543010887669 24.7581
34.51892543169198 24.6925
34.54224009966052 24.7138
34.56555624255917 24.6846
34.58887386163339 24.5565
34.61237514439016 24.4792
34.6356957311114 24.4057
34.65901779775809 24.4176
34.68252356662995 24.3265
34.705848608458616 24.3861
34.72917513396849 24.4092
34.75250314440949 24.326999999999998
34.77601490857862 24.2302
34.799345904259795 24.2077
34.82267838863559 24.2445
34.846012362958525 24.2208
34.869530142679984 24.142
34.89286711232212 24.1477
34.91620557568269 24.1489
34.93954553401677 24.1348
34.9630693495876 24.0245
34.986412313340814 24.0514
35.00975677584668 24.1009
35.033102738362956 23.9845
35.05663261012228 23.9068
35.0799815881786 23.9066
35.10333207003229 23.8628
35.12668405694369 23.8397
35.150220005273056 23.7628
35.17357501786656 23.8103
35.19693153931268 23.77
35.220289570874385 23.6765
35.24383161619786 23.6638
35.267192683604904 23.6764
35.290555264930376 23.6646
35.314101899412165 23.6505
35.33746752422433 23.5438
35.36083466676374 23.6018
35.38420332829803 23.5464
35.407756095629054 23.6223
35.43112781085063 23.4684
35.45450104888391 23.5573
35.477875810999194 23.4778
35.50143473172161 23.4593
35.52481255774625 23.4476
35.54819191167777 23.4431
35.57157279478914 23.3387
35.595137889488406 23.345
35.61852184675279 23.2825
35.641907337029984 23.2409
35.665294361595684 23.2214
35.68886565090076 23.0926
35.7122557598848 23.1263
35.73564740699838 23.0983
35.759040593519934 23.0443
35.78261809810353 22.9563
35.80601437933051 22.8578
35.829412203814705 22.8394
35.85281157283719 22.7549
35.876395313415884 22.9351
35.8997977874528 22.7817
35.92320180988546 22.7487
35.946790244133936 22.7575
35.97019737933222 22.6519
35.993606066789866 22.6995
36.01701630779276 22.6676
36.04061101440684 22.5449
36.06402437852291 22.6032
36.08743930005611 22.6133
36.1108557802951 22.4388
36.13445678011326 22.4124
36.15787639383515 22.4622
36.18129757014299 22.4246
36.20472031032821 22.3494
36.22832762423364 22.2055
36.25175350829375 22.2353
36.275180960119776 22.2623
36.298609981005924 22.2785
36.32222362992669 22.267
36.34565580510207 22.2461
36.36908955323448 22.143
36.39252487562093 22.0642
36.416144880530226 22.0648
36.43958336764275 21.9928
36.463023432914625 22.029
36.486465077645676 21.9275
36.51009145956204 21.9957
36.53353627947859 21.9744
36.55698268276811 21.9699
36.58043067073321 21.8886
36.60406345072071 21.7703
36.62751462435344 21.8287
36.65096738658405 21.7616
36.67460498210655 21.7763
36.69806093788647 21.7174
36.72151848619297 21.666
36.744977628333636 21.6664
36.76862165890998 21.5352
36.79208400512205 21.5196
36.81554794910557 21.5789
36.83901349217101 21.4796
36.862663978991606 21.5011
36.88613273667352 21.4704
36.90960309738324 21.4529
36.933075062434064 21.3577
36.95673202673572 21.3034
36.98020721697122 21.271
37.003684015502365 21.2032
37.027162423645365 21.1446
37.050825886711465 21.14
37.07430753063053 21.1405
37.09779078812467 21.0751
37.121275660513014 21.0524
37.144945643673694 21.0663
37.16843376245278 21.0252
37.19192350009803 21.0174
37.215414857931435 20.9638
37.239091382563885 20.8976
37.262585997426164 20.8855
37.28608223645736 20.9198
37.309763684451696 20.8285
37.33326318851098 20.7806
37.356764320726555 20.7985
37.380267082425526 20.7484
37.40395510942588 20.6487
37.42746114683234 20.6459
37.45096881771841 20.607
37.474478123414166 20.6216
37.49817275092816 20.5048
37.52168534303452 20.5174
37.54519957395567 20.4284
37.568715445024665 20.3482
37.592416694607714 20.3482
37.61593586281424 20.4466
37.63945667518264 20.4389
37.66297913304891 20.2908
37.68668702630454 20.2929
37.710212792059274 20.1941
37.733740207334854 20.2226
37.757269273470364 20.172
37.780983832050374 20.1834
37.80451621684926 20.1553
37.82805025654007 20.0953
37.851585952464795 20.0784
37.8753071980695 19.9806
37.89884622345676 19.9553
37.92238690911902 19.962
37.94611318753442 19.909000000000002
37.969657210779765 19.927
37.99320289834801 19.9345
38.016750251586465 19.8064
38.04048325513017 19.7808
38.06403395679343 19.7149
38.087586328183946 19.6643
38.11114037065203 19.6254
38.13488012115898 19.6551
38.1584375229181 19.5816
38.181996599821 19.5829
38.205557353221124 19.5684
38.229303872575656 19.5561
38.2528679961576 19.5798
38.27643380031219 19.503
38.30000128639589 19.4106
38.32375459653193 19.4347
38.34732546371299 19.4362
38.37089801690786 19.3259
38.39447225747609 19.3256
38.418232380377425 19.3389
38.441810012983396 19.3063
38.46538933705673 19.2701
38.488970353960084 19.2657
38.51273731166058 19.2511
38.536321731567014 19.1046
38.55990784840681 19.1239
38.58367995004091 19.0543
38.60726947812959 18.9719
38.63086070726198 18.9909
38.654453638806274 19.0391
38.678232613930824 18.979
38.70182896773327 18.9288
38.72542702806741 18.8989
38.7490267963045 18.8764
38.77281266709232 18.8428
38.79641586862214 18.7881
38.8200207821842 18.7129
38.843627409152944 18.7716
38.86742019782782 18.7578
38.891030269149255 18.6816
38.914642058016156 18.6523
38.938255565806124 18.66
38.96205529464307 18.5589
38.98567225787121 18.6091
39.00929094417078 18.5909
39.03291135492255 18.5658
39.05671804624804 18.4548
39.080341923549106 18.4334
39.103967529460334 18.4011
39.127594865365744 18.3487
39.15140854155791 18.3305
39.17503935514948 18.3071
39.19867190290282 18.3161
39.22249083587951 18.2747
39.24612686969409 18.2579
39.269764641845306 18.2316
39.293404153722804 18.146
39.317230110864074 18.1249
39.34087311998506 18.1223
39.36451787301696 18.0545
39.388164371352595 17.9953
39.41199737518003 18.0014
39.43564738196752 18.0244
39.45929913825317 18.0057
39.48295264543308 17.9385
39.506792718520884 17.969
39.530449745387216 17.925
39.55410852735203 17.9203
39.57776906581474 17.9033
39.60161623079 17.8246
39.625280300200025 17.809
39.64894613032202 17.7582
39.67261372255866 17.7695
39.6964680021016 17.7779
39.72013913657293 17.7333
39.74381203738292 17.6891
39.76748670593756 17.6616
39.79134812278169 17.646
39.81502634488497 17.5741
39.83870633896685 17.5224
39.862388106436654 17.4271
39.88625668336918 17.4748
39.90994201572829 17.521
39.933629125719285 17.4362
39.957503091207826 17.3738
39.9811937746168 17.3932
40.00488623990914 17.4094
40.02858048850006 17.3605
40.05246165409549 17.3013
40.076159487492085 17.2616
40.099859108448875 17.2533
40.123560518384345 17.2299
40.1474489070226 17.2677
40.171153913178564 17.1359
40.194860712584955 17.0788
40.2185693066637 17.1347
40.242464941335314 17.0789
40.26617714307655 17.0778
40.289891143772046 17.0107
40.3136069448471 17.0248
40.33750984859743 16.9884
40.3612292688043 16.9515
40.3849504936829 16.9213
40.40867352466194 16.9435
40.43258372059144 16.8873
40.45631038219906 16.8993
40.48003885420956 16.7458
40.503769138055105 16.7869
40.52768664931955 16.7674
40.55142057531802 16.8181
40.57515631746428 16.7296
40.599079334038514 16.6399
40.62281872700477 16.6729
40.64655994043941 16.6582
40.67030297578061 16.593
40.69423334835778 16.5538
40.71798004609188 16.5563
40.74172857006355 16.5242
40.76547892171441 16.4704
40.7894166736039 16.4744
40.813170699248566 16.441
40.83692655691388 16.3973
40.86068424804498 16.4023
40.884629402612525 16.37
40.908390779366385 16.4297
40.932153993938 16.3625
40.95591904777605 16.3499
40.979871628443995 16.3312
41.003640379561936 16.2942
41.02741097430883 16.2223
41.05118341413683 16.1895
41.075143444384416 16.1171
41.098919593177826 16.1622
41.1226975914255 16.1325
41.14647744058318 16.0927
41.170444943946755 16.0736
41.19422851378379 15.993
41.218013938914645 15.9401
41.24198706625173 15.9618
41.26577622087193 15.9542
41.289567235177785 15.8892
41.31336011063129 15.8142
41.337340752422875 15.8096
41.361137369129835 15.8427
41.38493585138705 15.8646
41.40873620066004 15.7974
41.43272438060107 15.7432
41.45652848292052 15.7068
41.48033445666918 15.7101
41.50414230331616 15.672
41.528138045159764 15.6676
41.551949656675205 15.5476
41.575763145513235 15.5439
41.59957851314666 15.5523
41.62358184070442 15.5749
41.64740098505737 15.5551
41.6712220126409 15.4788
41.69504492493139 15.4964
41.71905586207357 15.425999999999998
41.74288256296395 15.4837
41.766711153007456 15.431
41.79054163368412 15.3509
41.814560204340054 15.3568
41.838394485526365 15.3866
41.86223066180303 15.2808
41.88625497706819 15.2657
41.910094962812 15.2572
41.93393684811168 15.219000000000001
41.95778063445365 15.1305
41.981812625263366 15.1451
42.00566023303407 15.1097
42.029509746323676 15.133
42.05336116662236 15.1309
42.077400857069705 15.0931
42.10125611078846 15.073
42.12511327600405 14.988
42.14897235421036 14.9469
42.173019768448455 14.9702
42.19688269209613 14.9884
42.22074753323349 14.9544
42.24461429335818 14.8114
42.268669455600495 14.8485
42.292540073217886 14.8015
42.31641261433284 14.8584
42.34028708044675 14.7644
42.36435001496739 14.7539
42.38822835065557 14.7434
42.41210861586426 14.7287
42.4359908120986 14.727
42.46006154323262 14.6096
42.48394762115317 14.5712
42.507835634632315 14.6253
42.531912233047436 14.5931
42.55580413732265 14.5865
42.579697981698 14.5499
42.60359376768525 14.5497
42.62767820545945 14.4933
42.65157789440821 14.4983
42.67547952952185 14.4684
42.699383112316 14.4634
42.72347541395347 14.3779
42.74738291190531 14.3463
42.771292362102166 14.3649
42.795203766063516 14.3207
42.819303956130405 14.2382
42.843219287476536 14.2357
42.86713657716324 14.1893
42.89105582671383 14.1919
42.91516392983864 14.1982
42.939087119032166 14.1725
42.963012272677304 14.129000000000001
42.98693939230129 14.1276
43.01105543317513 14.1013
43.034986504731386 14.056
43.05891954686589 14.0343
43.08285456110972 14.0527
43.10697856448665 14.0105
43.130917542983475 13.912
43.15485849820081 13.9676
43.17880143167367 13.9249
43.20293342237094 13.8608
43.226880332449 13.8362
43.25082922540554 13.8369
43.27496722682525 13.8538
43.29892010567796 13.8152
43.32287497204102 13.7594
43.34683182745632 13.7388
43.370977859791836 13.739
43.39493871351105 13.7362
43.41890156092628 13.6844
43.44286640358341 13.6488
43.46702049182749 13.6504
43.49098934522816 13.595999999999998
43.51496019852649 13.5838
43.5389330532723 13.5464
43.56309522248204 13.5378
43.58707210044314 13.5216
43.61105098451946 13.4579
43.63503187626491 13.452
43.659202151562134 13.4615
43.68318707902681 13.489
43.70717401884041 13.3963
43.731162972560874 13.3241
43.75534137913236 13.3546
43.779334381108384 13.3202
43.803329401683186 13.3055
43.82732644241872 13.294
43.8515130055166 13.2983
43.87551410707659 13.26
43.89951723350145 13.2802
43.923709934595614 13.1815
43.94771713129917 13.1285
43.97172635758096 13.1408
43.99573761501002 13.120999999999999
44.0199385169922 13.125
44.04395385732619 13.0781
44.067971233533086 13.0616
44.09199064718605 13.0485
44.11619977548961 12.995999999999999
44.14022328470671 12.9515
44.16424883610785 12.966
44.18827643127035 12.9846
44.21249381139513 12.985
44.236525514814076 12.9086
44.26055926674478 12.8801
44.28459506876863 12.9239
44.3088207262813 12.796
44.33286064928722 12.8146
44.35690262714919 12.7589
44.38094666145278 12.7281
44.4051806219871 12.7312
44.42922879003185 12.7464
44.45327901929361 12.705
44.477331311362136 12.6961
44.501573600619416 12.665
44.525630039221795 12.6308
44.54968854541895 12.6407
44.573937102200176 12.6107
44.5979997645541 12.645
44.622064499300315 12.5917
44.64613130803592 12.5591
44.67038823869318 12.5429
44.69445921643748 12.4599
44.718532272981385 12.4402
44.742607409926194 12.4605
44.76687274034801 12.415999999999999
44.79095205918753 12.3683
44.81503346325094 12.3743
44.839116954143876 12.3943
44.86339071028742 12.3727
44.88747839599524 12.3404
44.91156817336837 12.2464
44.93566004401666 12.2894
44.959942251908146 12.270999999999999
44.984038330325966 12.2262
45.00813650686762 12.1792
45.03223678314731 12.192
45.05652746888232 12.2035
45.08063196592069 12.1434
45.104738567558705 12.1362
45.128847275414856 12.1011
45.15314646515866 12.0098
45.17725940679741 12.0727
45.20137445952892 11.9945
45.22568004865265 12.008
45.24979934496396 11.995999999999999
45.27392075725247 12.0186
45.29804428714431 11.9787
45.322358426247604 11.9278
45.346486212804315 11.869000000000002
45.370616121861914 11.8674
45.39474815505086 11.8352
45.41907087049246 11.795
45.4432071734666 11.7846
45.46734560548283 11.8373
45.49148616817604 11.8236
45.51581748638564 11.7804
45.5399623320197 11.7315
45.56410931325473 11.7112
45.58825843173002 11.7237
45.61259837920865 11.6955
45.636751793816 11.6355
45.66090735060093 11.6351
45.68506505120716 11.5579
45.7094136545275 11.5897
45.73357566449271 11.5879
45.75773982322992 11.5312
45.78190613238733 11.515999999999998
45.806263418194064 11.4398
45.83043404997326 11.4627
45.85460683713677 11.4355
45.87897065658495 11.4563
45.90314777634752 11.4072
45.92732705646868 11.3932
45.9515084986045 11.4294
45.97588104735473 11.4093
46.00006683541565 11.3611
46.02425479047904 11.3332
46.04844491420549 11.3398
46.0728262191024 11.2471
46.09702070211635 11.2699
46.12121735879483 11.2572
46.14541619080294 11.2314
46.169806278764455 11.2024
46.194009483459034 11.1824
46.21821486849841 11.1899
46.24242243555223 11.1452
46.266821333570014 11.1522
46.29103328674601 11.0867
46.31524742696538 11.0621
46.33946375590237 11.0493
46.36387149104216 11.0485
46.38809221957392 10.954
46.41231514186606 11.0085
46.436540259597464 11.0101
46.460956858999374 11.030999999999999
46.48518638983522 10.9386
46.509418121166966 10.9163
46.533652054678114 10.9267
46.55807754555709 10.8978
46.58231590571962 10.8975
46.60655647313217 10.8596
46.630988654873654 10.8366
46.655233659129024 10.8068
46.67948087571551 10.8361
46.70373030632484 10.7402
46.72817142736393 10.7687
46.752425308428684 10.72
46.77668140861147 10.7113
46.80093972960865 10.6281
46.82538981736788 10.6422
46.849652602470904 10.6302
46.87391761349769 10.5827
46.8981848521493 10.5862
46.9226439341274 10.5601
46.946915650573224 10.5438
46.97118959976749 10.5248
46.99546578341598 10.5027
47.019933887188216 10.5121
47.04421456235744 10.5021
47.06849747711879 10.4362
47.09278263318286 10.4333
47.11725978640143 10.4461
47.14154944775105 10.3992
47.165841355555656 10.3695
47.1901355115306 10.3618
47.214621741924994 10.3399
47.23892041698887 10.3194
47.26322134538975 10.3115
47.28771440635075 10.2844
47.31201986422527 10.2891
47.33632758061436 10.247
47.360637557241866 10.2313
47.38513974410611 10.2266
47.40945426407847 10.202
47.43377104948137 10.2195
47.45809010204344 10.168
47.48260144275502 10.1834
47.506925052572285 10.1423
47.53125093475548 10.0846
47.55557909103813 10.0468
47.58009961361992 10.0659
47.60443234110732 10.0426
47.62876734791564 10.045
47.65310463578333 10.0299
47.6776343683373 10.0317
47.7019762413987 9.95272
47.72632040075572 9.93631
47.75066684815169 9.963230000000001
47.77520581885936 9.902000000000001
47.799556865477655 9.89052
47.823910205386 9.883510000000001
47.84826584033272 9.85374
47.87281407745551 9.813830000000001
47.89717432569297 9.82414
47.92153687423484 9.822510000000001
47.94609208429692 9.79861
47.97045925671401 9.72907
47.99482873471275 9.75564
48.01920052005013 9.74292
48.04376504619224 9.70847
48.068141469543484 9.72437
48.09252020552573 9.7228
48.11690125590099 9.67412
48.1414751266064 9.673969999999999
48.16586082917454 9.680860000000001
48.19024885144316 9.644910000000001
48.2146391951793 9.61787
48.239222439012764 9.5997
48.26361744916137 9.57287
48.28801478610016 9.58986
48.31241445160131 9.554860000000001
48.337007097209366 9.52951
48.36141144338331 9.54529
48.38581812345755 9.48648
48.41022713920929 9.47621
48.434829215320704 9.45169
48.45924292604658 9.49014
48.48365897780325 9.45523
48.50807737237308 9.40676
48.532688907799276 9.39315
48.55711201168574 9.35217
48.581537463754074 9.3495
48.60615611725119 9.368030000000001
48.63058628942721 9.326089999999999
48.65501881516546 9.30604
48.6794536962573 9.286480000000001
48.70408185970339 9.27487
48.72852147531801 9.23199
48.75296345168211 9.24424
48.77740779059232 9.259260000000001
48.80204549302823 9.20358
48.82649458091802 9.206719999999999
48.85094603676547 9.1452
48.87539986237231 9.126719999999999
48.90004713292306 9.12851
48.92450572200832 9.13303
48.94896668628025 9.07732
48.97343002754588 9.052439999999999
48.99808689542115 9.051739999999999
49.02255501470614 9.08429
49.04702551642794 9.04188
49.0714984023988 9.01776
49.096164896893235 8.95498
49.120642575466796 8.95668
49.145122643748394 8.949069999999999
49.16960510355558 8.92582
49.19428125404938 8.940610000000001
49.2187685210852 8.91595
49.243258185121555 8.925089999999999
49.26794160167084 8.862169999999999
49.2924360839405 8.84569
49.31693296869764 8.82093
49.34143225776915 8.8117
49.36612538195438 8.806410000000001
49.39062950396021 8.771180000000001
49.41513603578346 8.75808
49.4396449792564 8.72253
49.46434784069503 8.73162
49.488861631846454 8.7234
49.513377840166804 8.72533
49.537896467493745 8.676110000000001
49.56260909589029 8.65369
49.587132585683285 8.66713
49.611658500018365 8.6465
49.636186840738596 8.58254
49.66090926588511 8.603530000000001
49.685442483902584 8.555480000000001
49.70997813385706 8.56212
49.734516217597076 8.5385
49.75924846937352 8.55269
49.7837914452858 8.517539999999999
49.80833686055187 8.48955
49.83288471702571 8.470410000000001
49.85762682540054 8.50315
49.882179588965734 8.45139
49.9067347993235 8.427810000000001
49.93129245833333 8.425419999999999
49.95604445336378 8.37603
49.98060703442832 8.3969
50.005172069746266 8.37323
50.02993150438364 8.35117
50.05450147301533 8.37236
50.07907390151433 8.31524
50.10364879174981 8.30758
50.12841816587289 8.2888
50.1529980044635 8.28295
50.17758031042124 8.25071
50.20216508562089 8.23142
50.22694442953363 8.21172
50.25153416817468 8.20549
50.27612638170508 8.20849
50.300721072005196 8.141910000000001
50.325510416102105 8.148539999999999
50.350110084975064 8.17817
50.37471223628208 8.15058
50.39931687190919 8.13147
50.424116246675766 8.067160000000001
50.44872587605249 8.09939
50.47333799543065 8.07226
50.49795260670191 8.04647
50.52276204271512 8.02068
50.54738166295838 8.00512
50.57200378079314 8.00854
50.596628398116835 8.00424
50.62144792604559 8.01403
50.646077567609396 7.9718800000000005
50.670709714377715 7.945239999999999
50.69553683636198 7.945939999999999
50.72017401885922 7.921410000000001
50.7448137122895 7.901689999999999
50.76945591856022 7.87638
50.79429318636823 7.873639999999999
50.818940443716784 7.8808
50.84359021965163 7.83471
50.868242516085964 7.84788
50.893089960641895 7.794010000000001
50.917747323549435 7.77239
50.94240721271973 7.773389999999999
50.96706963007175 7.73488
50.99192728239342 7.7344800000000005
51.01659478166073 7.721760000000001
51.04126481489051 7.74113
51.06593738400761 7.75453
51.090805275207074 7.6726399999999995
51.11548294172845 7.692589999999999
51.14016314993547 7.6955800000000005
51.164845901758845 7.6329
51.18972406304274 7.633839999999999
51.21441192780656 7.56539
51.23910234200271 7.62485
51.2637953075678 7.570189999999999
51.288683770237945 7.54558
51.31338186432707 7.534560000000001
51.33808251561888 7.52636
51.362978729967345 7.54559
51.387684521509755 7.534910000000001
51.41239287610203 7.491060000000001
51.437103795691165 7.44187
51.46201036644977 7.436839999999999
51.486726441956634 7.425339999999999
51.51144508832545 7.457910000000001
51.536166307509156 7.41518
51.56108326624387 7.374789999999999
51.58580965706056 7.39306
51.61053862657523 7.36264
51.635270176746864 7.3498399999999995
51.66019755512065 7.31912
51.68493429268881 7.316889999999999
51.70967361681515 7.33078
51.73441552946465 7.3244
51.759353359237934 7.32155
51.7841004750961 7.26205
51.80885018539685 7.22358
51.833602492111254 7.23637
51.8585508051424 7.1969899999999996
51.883308330926425 7.20223
51.90806845906181 7.176
51.932831191525715 7.1498
51.95779001977161 7.1253
51.98255798721516 7.11649
52.00732856494335 7.105689999999999
52.03229530577543 7.10615
52.057071130455945 7.08137
52.081849571391054 7.07626
52.106630630568695 7.09687
52.13160794279417 7.030189999999999
52.15639426492067 7.0404800000000005
52.18118321127822 7.03123
52.205974783860896 7.007389999999999
52.23096269971011 6.96073
52.255759551287994 6.957269999999999
52.280559035098186 6.946210000000001
52.30536115314103 6.9879999999999995
52.33035970494467 6.93279
52.35516711807904 6.95825
52.37997717147198 6.900989999999999
52.40478986713005 6.886710000000001
52.42979908731974 6.88132
52.454617094216 6.860810000000001
52.47943774942214 6.86123
52.50426105495102 6.82572
52.529280976059844 6.8110800000000005
52.554109609024096 6.791710000000001
52.57894089837482 6.80313
52.60377484613117 6.80248
52.62880550079408 6.7744100000000005
52.65364479223379 6.727930000000001
52.67848674816189 6.69469
52.70352547971946 6.741569999999999
52.72837279155837 6.7149600000000005
52.753222773982785 6.670380000000001
52.778075429022984 6.66608
52.80312495150885 6.68346
52.827982978797436 6.63922
52.85284368481815 6.590839999999999
52.87770707160767 6.59505
52.90276741793998 6.61015
52.92763619336701 6.57066
52.952507655698504 6.56515
52.977381806977576 6.56005
53.00245301017842 6.575360000000001
53.02733256653592 6.55243
53.052214817996074 6.5205400000000004
53.077099766608484 6.53303
53.102181859804446 6.4955300000000005
53.127072229988265 6.50026
53.15196530349892 6.49681
53.17686108239249 6.44131
53.20195409881522 6.41721
53.22685531582556 6.40509
53.25175924441303 6.4080900000000005
53.27666588664027 6.39684
53.30176985962693 6.390680000000001
53.3266819565689 6.36627
53.35159677336455 6.3613800000000005
53.376514312083096 6.37485
53.40162927507703 6.356669999999999
53.42655228516116 6.33862
53.45147802340193 6.34879
53.47660125628886 6.3258
53.50153247842639 6.28285
53.52646643496923 6.2742
53.55140312799818 6.24308
53.576537409691696 6.2349
53.60147960336152 6.24029
53.626424539786164 6.19606
53.65137222105307 6.1698900000000005
53.67651758529126 6.15653
53.70147078399681 6.16524
53.72642673383343 6.16151
53.75138543689533 6.12357
53.776541917524526 6.1567099999999995
53.801506154876755 6.10808
53.826473151763246 6.11373
53.851442910284916 6.0909
53.87661054126026 6.08522
53.9015858509782 6.06594
53.92656392866066 6.08821
53.95154477641532 6.05604
53.976723591801296 6.03995
54.00171000771266 6.03937
54.02669920004598 6.013319999999999
54.051691170915745 6.02109
54.076881204886796 6.0109
54.101878760928514 6.00344
54.12687910187696 5.94753
54.152077577768296 5.9440599999999995
54.1770835166946 5.90468
54.20209224691339 5.92624
54.22710377055121 5.94059
54.25231352511594 5.8625300000000005
54.27733066384342 5.80136
54.30235060239643 5.8211
54.32737334290836 5.81952
54.35259441062629 5.80708
54.377622783395324 5.81013
54.40265396455061 5.79929
54.42768795623251 5.76996
54.45292037169559 5.76964
54.477960012857906 5.744730000000001
54.50300247099511 5.74546
54.52804774825457 5.67786
54.55329154616743 5.67485
54.57834249018678 5.67621
54.6033962597977 5.61376
54.6284528571545 5.6009199999999995
54.653708072335164 5.552219999999999
54.67877035378786 5.57846
54.70383546947698 5.54865
54.72890342156389 5.50044
54.7541700889442 5.51628
54.77924374251975 5.51931
54.8043202390049 5.54558
54.82959552413022 5.48985
54.8546777351945 5.43982
54.87976279569621 5.416119999999999
54.90485070780914 5.4343900000000005
54.930137506558005 5.41145
54.95523115074295 5.3670599999999995
54.98032765308844 5.36364
55.005427015775496 5.35246
55.03072536339621 5.35571
55.05583047570572 5.290030000000001
55.080938454927676 5.27933
55.10604930325027 5.24404
55.131359235107396 5.27911
55.15647585066083 5.18544
55.181595341907496 5.16982
55.20671771104285 5.19624
55.232039262617704 5.18927
55.25716741665048 5.1018
55.28229845518636 5.14405
55.30743238042802 5.08715
55.33276558731939 5.028919999999999
55.357905315183636 5.03418
55.383047936390035 5.00758
55.40819345314859 5.02522
55.433538351073295 4.98346
55.458689688238415 4.97785
55.483843927614096 4.94145
55.509197623043605 4.92621
55.53435769621134 4.8518300000000005
55.55952067826466 4.83133
55.5846865714265 4.8371
55.61005202069737 4.79558
55.63522376553902 4.80567
55.66039842818645 4.76518
55.68557601087004 4.7443
55.7109532500271 4.71095
55.73613670233794 4.80504
