TT I
1.2716486653135266 7.900589999999999
1.2939594142134223 6.9985800000000005
1.3162702121660406 6.502730000000001
1.3385810600174564 7.02623
1.3608919586137629 6.876060000000001
1.383202908801069 6.93008
1.405513911425503 6.352
1.4278249673332093 6.5420300000000005
1.4501343378461518 6.03942
1.4724455028545926 5.8165
1.4947567236847858 6.71842
1.517068001182951 6.13774
1.5393793361953272 5.7249
1.5616907295681737 5.28641
1.5840021821477681 5.26441
1.60631369478041 5.23695
1.6286252683124185 5.3227400000000005
1.6509369035901333 4.88544
1.6732468618895553 5.07046
1.695558623192809 4.58453
1.7178704487808514 5.47714
1.7401823395001077 4.93029
1.7625012545597203 5.0262400000000005
1.7848028405262486 4.38155
1.8071218901122095 4.9679199999999994
1.8294236121921872 4.80781
1.8517427996910911 4.676880000000001
1.8740620574440425 4.90551
1.8963639900671978 4.554119999999999
1.9186833908139995 4.6504
1.9409854680117449 4.57744
1.9633050151394713 6.1410800000000005
1.9856246367570705 5.61688
2.0079269371922672 4.81199
2.03024671027244 4.1114
2.0525491637446027 4.34629
2.074869091674931 4.57236
2.097171701569106 4.55169
2.1194917877373847 5.04188
2.141811954326636 5.22516
2.164114805233074 4.7266699999999995
2.186435135143035 5.13401
2.208738150935709 10.0488
2.231058647554722 19.1904
2.2533792288321184 14.7162
2.275682498336085 7.77349
2.298003251406138 5.47016
2.3203066942619714 4.90192
2.3426276225136022 5.16144
2.3649486396617507 5.80995
2.387252348930071 5.85786
2.4095735463442893 6.0037400000000005
2.4318774374315884 5.621230000000001
2.4541988185014043 6.05354
2.476502894794693 6.35994
2.498824462909887 6.92822
2.521146125856138 7.045560000000001
2.5434504863470337 6.790210000000001
2.5657723414244717 7.01318
2.588076895590662 7.30215
2.610398946189713 7.4656199999999995
2.6327210958598384 7.79864
2.6550259469304716 8.0946
2.6773482972090137 7.66103
2.6996533504259 7.74637
2.7219759047039602 7.84837
2.744298562293959 8.36497
2.7666039251246595 8.20618
2.7889267918020164 8.1291
2.8112323652516555 7.97582
2.833555444408179 8.40441
2.8558786311183852 8.33357
2.8781845268938557 9.15248
2.9005079311721484 8.79834
2.9228140460410397 8.70932
2.9451376712799635 9.08509
2.967444008632326 9.93425
2.9897678582247247 9.71927
3.0120918213106695 10.5471
3.0343984987899373 10.6903
3.0567226913198637 11.4871
3.079029599759726 11.2249
3.101354025127254 12.1299
3.123678568232338 13.0206
3.145985829517914 12.9515
3.16831061055229 12.8334
3.1906181112775593 14.0115
3.212943133635653 14.3148
3.2352682779763207 15.0662
3.2575761442691227 15.3964
3.2799015350264273 15.8031
3.302209649240067 15.877
3.3245352898092655 16.6793
3.3468436553365257 16.6747
3.369169549113219 17.8708
3.3914955708171384 18.95
3.413804319727358 19.6883
3.4361305997334863 19.3491
3.4584396084414553 19.5818
3.4807661501462652 20.2108
3.503092824025881 20.8169
3.5254022288463154 21.3897
3.5477291695206588 21.6678
3.5700388426251948 22.2169
3.5923660534916446 23.5777
3.6146934007816114 32.7774
3.637003482731501 62.5752
3.6593311053109985 67.9616
3.681641464033634 43.3098
3.7039693653009733 28.076
3.726297407241705 25.7289
3.7486081875460804 25.7622
3.7709365132734978 25.8356
3.793247578841633 26.5047
3.8155761917550093 26.6739
3.8378875459837216 26.9475
3.8602164494827234 27.459
3.882545499606844 28.3654
3.9048572932539183 28.6535
3.9271866390645718 28.8983
3.9494987298666713 30.1478
3.971828374764527 30.7706
3.9941581705403255 30.7678
4.016470713506008 31.3538
4.038800813471445 31.5571
4.061113662089144 32.7298
4.0834440696459176 33.6998
4.105774632334751 33.8086
4.128087945865126 34.5006
4.150418821249301 35.1445
4.172732448931298 36.5645
4.195063640413578 37.8554
4.2173775856475215 40.6727
4.239709096631102 61.4907
4.262040768704612 160.469
4.284355196706267 207.707
4.306687193387355 136.649
4.329001947444346 63.9991
4.35133427213731 45.6364
4.373666762177566 43.6908
4.395982011761091 43.7547
4.418314834921175 45.1451
4.44063041906622 50.5092
4.4629635787515625 58.06
4.4852969080429785 58.1676
4.5076130004776225 52.4396
4.529946671403969 51.9792
4.552263106909177 53.0984
4.574597122877047 53.1511
4.596931312711224 53.3466
4.619248269273446 53.8074
4.6415828092605835 55.107
4.663900117405352 55.9148
4.686235010953232 57.0614
4.708552674085913 58.8639
4.730887924602802 60.5229
4.753223354952695 61.5747
4.775541557023902 63.4026
4.797877349456786 65.5386
4.820195915032126 67.4602
4.842532072957498 67.9905
4.864868414979744 70.346
4.88718753227192 72.852
4.909524244902505 75.2765
4.931843734218147 76.6506
4.954180820867835 79.5128
4.976518095879839 82.288
4.998838149695359 85.3046
5.021175803844231 88.7116
5.043496238205739 92.3288
5.065834274903528 96.7876
5.088172504230693 102.109
5.1104935158799565 108.851
5.132832132875765 128.494
5.155153533596801 164.734
5.1774925416746225 211.18599999999998
5.199814334878411 453.155
5.2221537374521505 1251.98
5.244493338631803 3207.01
5.266815727034316 7806.96
5.289155727832427 12279.8
5.311478517248165 8411.23
5.333818921080011 2826.41
5.356159527788849 591.222
5.3784829252032536 197.745
5.400823940070432 149.618
5.423147747031976 130.94899999999998
5.445489173474152 121.03399999999999
5.467830807066149 116.137
5.490155234831516 112.876
5.512497285125229 108.454
5.534822130975162 105.589
5.557164601388673 103.509
5.579489868738879 100.242
5.601832762690846 99.0144
5.6241758697774475 97.868
5.646501775867269 97.3803
5.668845311622074 96.2883
5.691171647754637 95.4163
5.713515615597765 94.4429
5.735859800852677 93.8169
5.758186788542988 92.8409
5.780531411018185 94.3502
5.802858837297399 94.2223
5.825203900414495 94.3841
5.8475491852224 95.6204
5.869877275883075 95.8752
5.892223006467101 95.4487
5.914551544266608 97.1551
5.936897724049891 100.93
5.959244129804903 108.62299999999999
5.981573344815301 137.686
6.0039202049061 262.653
6.026249875609095 548.111
6.04859719346037 1110.88
6.070927323278297 2359.44
6.093275102315365 4485.78
6.115623113320588 5478.99
6.137953938319995 3386.55
6.160302415650845 1067.08
6.182633708324452 249.187
6.2049826554078376 115.85700000000001
6.227331838745022 93.9941
6.249663839443684 85.9701
6.27201349767565 82.5341
6.294345974611799 84.8051
6.316696111167083 90.6476
6.339046488263839 86.8352
6.361379686074702 77.2364
6.383730546639482 71.7444
6.406064229255215 69.3907
6.428415576718203 69.1054
6.450749747566656 68.1163
6.47310158535871 66.8294
6.495453669698332 65.64699999999999
6.517788579421056 65.087
6.540141159237969 63.9491
6.562476565766648 63.3461
6.5848296444934045 62.778999999999996
6.607182974060425 62.7482
6.6295191323281015 62.7105
6.651872965955752 64.4278
6.6742096296068985 80.5892
6.6965639707294615 108.552
6.71891856698715 107.542
6.741255995248479 80.6523
6.763611104154477 64.3917
6.785949046381137 59.9069
6.808304671371482 59.0676
6.8306605557940046 58.8818
6.852999275508618 58.2692
6.875355681171544 57.1807
6.897694923437771 56.8287
6.92005185377892 56.7674
6.9423916220322655 56.5709
6.964749080490181 55.8639
6.987106804399774 55.8374
7.009447368180821 56.1241
7.031805625367033 55.724
7.054146723727803 55.3682
7.076505517631004 55.6108
7.098864581288365 55.4508
7.121206488070854 54.96
7.143566093607822 55.2837
7.165908543567245 55.5512
7.188268694426048 55.6912
7.2106291193438095 55.4429
7.232972390625943 56.3708
7.255333366030969 64.2424
7.277677189091925 96.8876
7.300038718428332 126.569
7.322400526130865 109.02799999999999
7.344745183422596 75.7713
7.367107550224791 58.8609
7.389452767901992 55.6795
7.411815697249891 54.9336
7.434161478756298 54.6016
7.456524974096713 54.3804
7.478888753837185 54.2875
7.501235387657368 54.4618
7.523599738562711 54.5566
7.545946944825532 55.4189
7.568311870344528 55.5013
7.5906770845765665 55.7419
7.613025156078678 56.5255
7.635390950099687 57.5031
7.657739602662809 56.6606
7.680105979923558 56.1825
7.702472650212829 56.4153
7.724822180948224 56.1206
7.747189439655568 56.6297
7.769539560075357 56.2942
7.791907410653562 56.6952
7.81425812420825 57.0833
7.836626570110925 57.0699
7.858995315087906 57.9166
7.881346924933401 57.931000000000004
7.903716270417482 58.5753
7.926068482028405 59.0171
7.948438431475253 59.7613
7.9708086843180235 60.2275
7.993161805171116 60.538000000000004
8.015532667162402 60.937
8.037886398416653 62.2701
8.060257873014221 62.6433
8.082629655331942 63.4349
8.104984308787587 64.2407
8.127356708900503 66.8767
8.149711981398308 70.8608
8.172085002766314 72.6947
8.194458336181368 70.8114
8.216814543847752 69.5393
8.23918850371002 69.9868
8.26154533906492 70.7647
8.283919928836452 72.547
8.306277395339652 73.4604
8.328652618483376 74.8941
8.351028159736202 77.1473
8.373386579575245 79.472
8.395762759396959 81.0807
8.418121819038275 85.4732
8.440498640894003 95.6336
8.462875785192262 108.89
8.485235811156207 132.327
8.507613602688501 191.697
8.529974277114228 292.217
8.552352719347912 437.58
8.574731488360351 715.883
8.59709314210385 1229.62
8.619472567021075 1870.11
8.64183487789147 2174.71
8.664214962183097 1765.83
8.686577933647762 944.84
8.708958680784317 359.834
8.731339760774953 159.841
8.753703729764451 111.646
8.77608547780821 99.5739
8.798450116065078 96.221
8.820832535634787 93.3518
8.843215292401656 92.1119
8.865580941199045 91.0642
8.887964374703538 90.125
8.910330701447199 90.4971
8.932714815164482 91.2814
8.955099270424924 89.7961
8.977466620733543 87.6803
8.999851761421976 85.545
9.022219798361645 84.1332
9.04460562795561 84.1814
9.066991803441677 83.9882
9.089360876979615 83.9339
9.111747746589993 83.4303
9.13411751544971 82.9435
9.156505082664324 82.4161
9.178875550323522 82.6422
9.20126381862328 82.5417
9.223652438908596 83.3787
9.246023961427412 83.0714
9.26841328802173 83.0215
9.290785518039224 82.5044
9.313175554425882 83.6883
9.335565947154315 84.275
9.357939245086508 84.4971
9.380330352834827 84.3092
9.40270436697103 84.6975
9.425096193225055 84.1245
9.447488380180165 85.0577
9.469863475295412 85.0388
9.492256385987508 85.0027
9.514632206018318 85.6167
9.537025843935714 86.1831
9.559402392368193 87.0592
9.581796761000229 88.7114
9.604191496441521 89.5766
9.626569144158516 92.2046
9.648964615551032 95.2485
9.671343000390081 96.6546
9.693739211225699 95.2577
9.716135793237463 93.7586
9.738515290448102 94.0589
9.760912617143402 95.0049
9.783292860202891 96.6228
9.805690935076182 98.3222
9.828089385495742 99.36399999999999
9.850470754023561 101.126
9.872869957865444 106.425
9.89525208097539 116.773
9.917652041736662 126.875
9.940052382417589 132.874
9.962435644102392 156.338
9.984836746950979 205.84900000000002
10.007220771957746 273.052
10.029622640473708 380.98900000000003
10.052007432299963 570.308
10.074410069984072 855.7589999999999
10.096813093716005 1276.37
10.119199042482517 1704.69
10.141602840636468 1888.01
10.163989564971628 1510.42
10.186394141051062 851.674
10.208799107559706 371.185
10.231187001965623 180.079
10.253592751657669 125.441
10.275981430388155 113.485
10.298387966769793 111.359
10.320794897965431 112.18
10.343184759907361 111.17399999999999
10.36559248305461 107.898
10.387983138083852 106.199
10.410391656691655 112.573
10.432800574501677 126.565
10.455192425893369 143.931
10.47760214443012 170.908
10.499994797678786 217.208
10.522405320453982 297.808
10.54479877906917 412.923
10.567210109595656 523.255
10.5896218454736 567.8330000000001
10.612016518879773 503.565
10.634429067781074 334.19300000000004
10.656824555333241 192.46
10.679237920773568 120.189
10.701651695961992 95.7298
10.724048411481384 89.5274
10.746463008485165 86.79799999999999
10.768860546937125 85.0895
10.791275969274796 83.1559
10.81369180576079 82.5975
10.836090585366925 81.4982
10.858507252467449 80.1887
10.88090686379991 79.3954
10.903324365036394 78.4558
10.925724811614439 78.2059
10.948143150509463 78.8346
10.970561909719066 77.9863
10.992963615930844 76.6708
11.015383218085756 75.1679
11.037785768347074 73.7204
11.06020621697282 72.9301
11.082627090322113 72.7734
11.105030913430326 72.0867
11.12745263854165 72.1603
11.149857314510728 73.9442
11.172279894912576 77.5697
11.194702904450653 77.7072
11.217108866490921 75.0293
11.239532736615194 72.2474
11.26193956033512 70.6696
11.284364294577085 69.4926
11.306789462371718 68.2451
11.329197585398376 67.2988
11.351623622610898 67.3092
11.37403261614354 66.4717
11.396459526308487 66.1413
11.418869393879497 65.824
11.441297180532617 65.5235
11.463725406927658 65.0536
11.486136592353875 65.1884
11.508565700543707 65.3993
11.530977768845315 66.4263
11.553407762368774 66.749
11.575838200059769 66.4594
11.598251599479612 64.8607
11.620682927815501 63.9493
11.64309721895548 64.0803
11.665529441478206 63.5331
11.687962112597958 63.2189
11.710377748130886 63.471000000000004
11.732811318753434 63.2737
11.755227854859067 63.2236
11.777662328529495 63.125
11.800079768750786 62.8221
11.822515149015453 62.7467
11.844950984084935 63.261
11.867369787303163 62.7507
11.889806534289491 62.9067
11.912226250487029 63.1751
11.934663912939751 63.3978
11.9571020346363 63.7458
11.979523127133968 63.8823
12.001962169624331 64.7997
12.024384183972964 66.418
12.046824150809913 70.4305
12.069264581333726 75.6063
12.091687985297767 82.2763
12.11412934550045 91.3837
12.136553680195208 106.57600000000001
12.158995973632788 129.069
12.181438735204349 155.856
12.20386447284199 184.922
12.226308172985636 201.92700000000002
12.24873485024193 197.051
12.271179492516982 160.088
12.293607112949127 120.24700000000001
12.316052700916226 90.0738
12.338498763250042 74.9816
12.360927805303868 68.3893
12.383374818673879 65.9107
12.405804812803074 64.5288
12.428252780773262 64.4426
12.45070122756722 64.5696
12.473132656675375 64.3824
12.49558206341869 64.5668
12.518014453510101 64.7212
12.540464823770117 64.7759
12.562915677315177 64.9655
12.58534951575545 65.718
12.607801338171472 66.9433
12.630236146511358 70.2124
12.652688941369085 73.2711
12.675124723177234 73.5273
12.697578494048786 71.9135
12.720032754458185 68.9742
12.742470003354093 68.14399999999999
12.764925245138771 68.278
12.787363476431278 68.5895
12.809819703166806 68.8239
12.83227642391173 69.6457
12.854716135692716 70.3076
12.877173846755147 71.2041
12.899614549869717 71.4964
12.9220732548287 72.6727
12.94453245827299 73.1195
12.966974655289818 74.1364
12.989434858002571 74.946
13.011878055298721 75.5012
13.034339260862497 76.5873
13.056800969391883 78.0037
13.079245674017244 80.6951
13.101708390774869 84.7754
13.12415410463411 93.8939
13.146617833206086 106.008
13.169064559883248 117.82799999999999
13.191529303857127 133.237
13.213994557076367 157.832
13.236442809902437 196.726
13.258909083908291 250.78400000000002
13.28135835851934 309.187
13.30382565690295 374.103
13.326293469022952 425.074
13.348744283242008 422.523
13.371213125129904 347.11800000000005
13.39366497011003 252.75099999999998
13.416134845360597 167.139
13.438605238843131 121.618
13.46105863690397 108.551
13.483530069144786 110.455
13.505984506951902 116.25
13.528456981549432 126.40899999999999
13.550929978879088 142.658
13.573385983253365 167.762
13.595860028340867 206.61
13.618317081455832 256.54
13.64079217790333 308.805
13.663250283359057 352.81
13.685726434770173 366.83099999999996
13.708203115221277 334.8
13.730662806148091 256.27299999999997
13.75314054697177 181.21099999999998
13.775601299246777 125.381
13.798080104050406 96.7002
13.820559442405358 85.3313
13.843021793671388 82.0112
13.865502201420897 80.7434
13.887965623051947 80.074
13.910447103807167 78.9685
13.932929122629764 77.7197
13.955394156785959 77.3803
13.977877254034569 76.3547
14.000343367582113 75.3612
14.022827546871707 75.0433
14.045294743423524 74.3882
14.06778000837062 73.7163
14.090265817715476 73.4553
14.112734645763819 72.8903
14.13522154619454 72.6967
14.157691466286913 72.5595
14.180179461423874 72.3423
14.202668005486178 71.7717
14.22513957064374 71.3551
14.247629214846473 70.8411
14.270101881097517 70.6795
14.29259262906496 70.7069
14.315083930490205 71.2308
14.337558255389705 71.3306
14.360050666019726 70.9663
14.382526101071944 70.2795
14.405019624534942 69.5828
14.427513705993134 69.0825
14.449990813291825 69.2884
14.47248601302899 69.1398
14.49496423954951 69.1024
14.517460561197822 69.566
14.539939910570322 69.2793
14.562437357763558 69.4092
14.58493536931253 70.0841
14.607416409993311 70.8426
14.62991555254159 71.5502
14.652397725157423 71.5356
14.674898002342799 71.2976
14.697398848433282 71.2201
14.719882725991326 72.2946
14.74238471217934 74.2421
14.764869730765593 78.3345
14.787372860692983 81.891
14.809876564079925 86.4184
14.83236330125751 92.6295
14.854868153850365 102.016
14.877356041159485 115.97200000000001
14.899862046604186 134.476
14.922351087688757 158.00799999999998
14.944858249632887 185.16
14.967365991421232 210.10299999999998
14.989856770231246 222.27
15.012365673994204 217.442
15.03485761569738 185.09599999999998
15.05736768508665 144.584
15.07987833888692 110.09100000000001
15.102372032001655 88.7368
15.124883856909658 76.9221
15.14737872204565 72.7692
15.169891721717274 70.9342
15.192405310371893 70.7044
15.214901940621196 70.8227
15.237416709527137 70.4195
15.259914520936249 70.6209
15.282430473753607 69.7516
15.304947020131227 68.7855
15.327446610371178 68.266
15.349964346154254 67.6358
15.372465126703139 67.3712
15.394984055556009 67.1983
15.417486030076159 66.7643
15.44000615566487 66.619
15.462526881230803 66.3838
15.485030653812652 66.6469
15.507552581617434 66.5128
15.530057557334603 66.5946
15.55258069104857 66.4804
15.575104429329837 66.5162
15.597611216864632 66.4172
15.620136166564563 67.0123
15.6426441664095 68.5854
15.665170331202765 71.9998
15.687697105158826 75.1247
15.710206930593545 78.3101
15.732734925158933 82.5486
15.755245972089478 89.0986
15.77777519094324 99.258
15.800287463046663 112.65799999999999
15.822817909869592 130.876
15.84534897229804 149.851
15.867863089299354 172.06
15.890395385222186 189.455
15.912910736597423 194.274
15.935444269699861 180.513
15.957978423016485 151.535
15.980495633101265 119.836
16.003031029129367 94.4726
16.02554948280019 75.3382
16.048086125229432 67.03699999999999
16.070623392487107 64.7387
16.09314371869582 63.9722
16.11568223789321 63.0375
16.13820381691126 62.3803
16.160743591742527 61.5062
16.183283996022084 60.81
16.205807461423195 59.7558
16.228349126881973 59.1708
16.25087385432698 59.1828
16.27341678466365 58.72
16.29594277784926 58.4394
16.31848697676433 58.4196
16.341031811604868 58.5128
16.36355971058487 58.7729
16.3861058195587 58.4534
16.40863499352978 57.4592
16.431182380342005 56.8404
16.453730407713202 56.3711
16.476261501364792 56.1947
16.498810812136167 55.8578
16.52134319004079 55.8675
16.54389378792203 55.6819
16.566445031001553 55.5613
16.588979342490088 55.4656
16.61153187824822 55.324
16.634067483263312 55.2198
16.656621315414416 55.1798
16.679175797408888 54.9508
16.701713349928728 55.0584
16.72426913389191 55.077
16.74680798922351 55.1869
16.76936507887444 55.1171
16.791905240734874 55.0799
16.814463639794468 55.086999999999996
16.837022695210294 55.202
16.859564824093756 55.6788
16.882125194503903 55.9097
16.904668639217885 56.3911
16.927230328348003 56.4512
16.949792678493612 56.5655
16.972338104193863 56.1139
16.994901778652235 55.7167
17.017448529496576 56.0038
17.040013531998152 56.1898
17.06257920018044 57.187
17.0851279459922 57.7626
17.107694947817667 58.5336
17.130245028099072 59.4698
17.15281336730298 60.8987
17.17536478578733 62.6829
17.19793446610687 64.8973
17.220504818648422 67.6816
17.243058251703697 71.0262
17.265629950971032 75.1967
17.288184731571736 79.0948
17.310757781306908 82.9456
17.33333150794385 84.0574
17.355888317140174 82.0009
17.37846339986244 77.2041
17.401021565958885 70.8771
17.42359800851343 65.8121
17.44617513265564 62.3139
17.468735341390783 60.4597
17.491261035594565 59.5595
17.51396340099364 59.4097
17.536490463869136 59.333
17.559018209820174 59.5322
17.58154663977963 59.5365
17.604251766089718 59.7149
17.626781572227713 60.0798
17.64931206518155 60.1967
17.671843245885103 60.6851
17.69455114821572 60.9203
17.717083712612634 61.2595
17.739616967569667 61.5168
17.762150914021706 61.8279
17.78486160749854 62.1391
17.807396945166804 63.048
17.829932977143503 64.1949
17.85246970436452 66.1509
17.875183204129467 67.8889
17.897721330097664 69.8584
17.920260154126645 72.5163
17.942799677153296 75.6859
17.9655159983646 79.4726
17.988056927677544 85.1707
18.010598558807683 92.9567
18.033140892692916 102.715
18.05586005052525 112.79799999999999
18.07840379824407 123.59
18.10094825154059 135.016
18.12366954819864 141.825
18.146215420998306 141.67
18.16876200220057 132.881
18.191309292745153 117.336
18.214033452627167 103.113
18.236582170236648 91.7195
18.259131600016456 87.2644
18.281681742907335 87.8543
18.304408781233683 91.8205
18.32696035875955 96.3713
18.349512652227624 101.10799999999999
18.372065662579683 105.51
18.394795594587553 106.23899999999999
18.41735004715306 102.51799999999999
18.43990521943684 95.4165
18.46246111238171 86.3881
18.485193953325208 76.9925
18.507751296070428 69.8143
18.530309362314178 66.0139
18.552868153000343 63.6899
18.57560391815056 62.6171
18.59816416623245 62.1863
18.620725141597372 61.6143
18.643286845190268 61.1141
18.666025549835414 60.8368
18.688588718427933 60.1574
18.711152618092243 59.98
18.73389353884365 59.7298
18.75645890921984 59.4872
18.77902501351406 59.1978
18.801591852673102 59.115
18.824335739722738 58.6355
18.846904057212626 58.4842
18.8694731124168 58.0592
18.89204290628315 58.0644
18.914789774966803 58.0459
18.937361054791623 57.6462
18.959933076131318 57.3306
18.982505839934877 57.4697
19.00525570560582 57.4874
19.027829963004184 57.2142
19.05040496572238 57.4791
19.072980714710468 57.5217
19.095733592739563 57.8168
19.11831084296757 58.0113
19.140888842324735 58.4294
19.16346759176222 58.6782
19.18622349753803 59.0828
19.208803755869358 60.1793
19.231384767143577 61.4383
19.253966532312948 63.0131
19.276725481241822 65.2076
19.29930876296784 67.5284
19.3218928014549 70.2148
19.34465404436217 72.903
19.36723960516257 75.2463
19.389825925592426 76.1777
19.412413006605938 75.2361
19.43517731967805 72.0526
19.457765930683355 67.4158
19.48035530514408 63.1557
19.50294544401556 59.2709
19.525712842708348 56.8861
19.54830451925909 55.7153
19.570896963095727 54.71
19.593490175174704 54.4778
19.616260674962184 54.2573
19.638855432416964 54.0458
19.661450960992624 54.176
19.68404726164677 53.843999999999994
19.706820878021247 53.6569
19.729418731756834 53.9966
19.752017360452857 53.8928
19.77461676506804 54.0577
19.797393513540218 54.2661
19.819994478951667 54.4419
19.84259622316767 55.07
19.8651987471481 55.4539
19.887978643247177 55.5866
19.91058273574792 56.1571
19.933187610901943 56.9182
19.955969879466828 58.1855
19.97857632894404 59.8139
20.00118356396599 61.3066
20.023791585494575 63.2626
20.046577028914875 65.8616
20.069186632506966 68.0544
20.091797025500632 69.8601
20.114408208858933 70.3707
20.137196842715273 69.6987
20.159809615886765 68.3016
20.18242318232135 65.9444
20.20503754298326 63.8792
20.227829382875154 62.4945
20.250445341109344 62.5449
20.27306209647285 63.1983
20.29567964993108 64.2655
20.31847471147704 65.3252
20.34109387027612 65.8749
20.363713830075454 65.592
20.386334591841646 63.9697
20.409132890679302 61.4121
20.431755265564437 58.2314
20.454378445325528 55.5199
20.477002430930366 53.5341
20.499803982716553 52.4177
20.522429589228004 51.7334
20.54505600449589 51.2543
20.567683229489194 51.1437
20.590488049900088 50.8873
20.61311690359731 50.5633
20.63574656993626 50.2833
20.658553853717297 49.7484
20.681185154618298 49.9255
20.703817271080066 49.906000000000006
20.72645020407368 49.5262
20.749260783967177 49.4273
20.771895359337133 49.379
20.794530754161617 49.3825
20.817166969412938 49.3364
20.83998086114876 49.2389
20.86261872660049 49.0755
20.885257415405402 49.0367
20.90789692853701 49.1302
20.930714147864748 49.0912
20.953355319030678 48.9479
20.97599731745334 49.1151
20.99864014410749 48.917
21.021460706796564 49.0041
21.044105199328826 49.2828
21.06675052302631 49.34
21.089396678865015 49.5371
21.112220600704806 49.8499
21.134868430275347 50.2163
21.15751709492456 50.48
21.180166595629693 50.6575
21.202993892429635 51.2122
21.22564507473034 51.5636
21.24829709602816 51.5527
21.27112693608965 51.8107
21.293780644891275 51.7244
21.316435195634053 50.9531
21.339090589297417 50.4157
21.361923832041875 49.8891
21.384580921090404 49.3058
21.407238856007325 48.7256
21.429897637773326 48.7627
21.45273429906592 48.8568
21.475394784108598 48.6088
21.498056118951983 48.6846
21.520718304578022 48.9423
21.543558400304388 49.2379
21.566222297108816 49.3521
21.58888704765135 49.5838
21.61155265291521 49.8383
21.63439619898156 50.244
21.657063523335786 50.5605
21.67973170537063 51.0523
21.7024007460706 51.4536
21.72524775840385 52.2589
21.747918526116475 53.5216
21.770590155457388 54.7032
21.79326264741238 56.2535
21.816113141960237 58.0377
21.838787368860547 59.4722
21.861462461341976 61.5787
21.884315579735777 63.372
21.90699241312273 64.512
21.92967011506078 65.1716
21.95234868653799 64.7267
21.9752053151131 63.5044
21.997885635446785 61.5127
22.020566828293532 59.7889
22.04324889464272 57.8575
22.066109049404666 56.7429
22.088792872571794 56.3166
22.111477572219204 56.2487
22.1341631493376 56.2729
22.157026846313123 56.2804
22.179714188221507 55.3758
22.202402410582668 54.3647
22.22509151438863 52.8219
22.24795876962584 51.5639
22.270649646204486 50.739
22.293341407213727 50.08
22.316034053646906 49.6908
22.338904883215342 49.4762
22.36159931041458 49.2274
22.38429462602756 49.2885
22.40699083104897 49.0572
22.429865251039757 48.9806
22.452563244831367 49.0014
22.47526213102522 49.051
22.49813925616515 48.9473
22.520839937143307 48.9284
22.543541513520587 48.9859
22.56624398629403 48.9069
22.589124730075895 48.9465
22.611829005656723 49.1545
22.63453418063466 49.04
22.657240256008077 49.4161
22.680124634582935 49.4063
22.70283252079775 49.6912
22.725541310413075 49.9667
22.74825100442868 50.1661
22.771139033969575 50.6432
22.79385054687155 51.0863
22.81656296718292 51.7702
22.83927629590484 52.5569
22.862167992606945 53.6979
22.88488314827121 54.6518
22.907599215359284 55.5051
22.93031619487366 56.6686
22.953211574954405 57.3337
22.975930389478226 58.2019
22.998650119445763 58.373000000000005
23.02137076586092 57.333
23.044269845560063 56.321999999999996
23.06699233506288 54.7371
23.089715744034912 52.9169
23.112617610931565 51.295
23.135342869061212 50.201
23.158069049684816 49.388000000000005
23.1807961538087 49.0651
23.20370174880544 49.1426
23.226430710184808 49.2661
23.249160598093425 49.2747
23.271891413539002 49.2492
23.294800752937697 49.3077
23.31753343374794 49.6503
23.340267045128353 49.6123
23.36300158808808 49.9782
23.38591468821339 50.3768
23.408651104658304 50.8094
23.431388455719986 51.3238
23.454126742409 52.2791
23.4770436196085 53.3121
23.499783787914662 54.5442
23.522524894889884 55.44
23.54526694154616 56.2442
23.56818761219047 57.2488
23.59093154860734 57.6538
23.613676427751283 57.9948
23.636422250635754 57.1764
23.659346731118656 55.7133
23.68209445191868 53.7075
23.704843119509587 51.544
23.72759273490623 49.785
23.750521041644767 48.4179
23.77327256312355 47.3726
23.796025035462787 46.6973
23.818956224555475 46.3089
23.841710609113413 46.2681
23.86446594758979 46.1036
23.887222241002014 45.7586
23.910157285144578 45.4162
23.932915498962537 45.4421
23.955674670778713 45.3429
23.978434801611975 44.9708
24.001373717286125 44.9319
24.024135776723917 44.8063
24.046898798245582 44.7042
24.06966278287146 44.64
24.092605586582614 44.5161
24.115371508023642 44.3981
24.1381383956401 44.3952
24.16090625045381 44.2875
24.183852958731244 44.3039
24.206622758582608 44.0454
24.229393528706886 43.8659
24.252165270127392 43.9239
24.27511589952438 43.9069
24.297889594216997 43.6937
24.32066426328598 43.4911
24.34343990775613 43.6373
24.36639447485003 43.5559
24.38917208083877 43.418
24.41195066531332 43.1855
24.43490819850244 43.3315
24.457688750692377 43.1589
24.48047028445616 43.1417
24.503252800821233 43.2332
24.526214300784112 43.3744
24.548998793132213 43.2083
24.57178427117417 43.1702
24.59457073593893 43.3098
24.617536219319863 43.262
24.64032466834748 43.0651
24.663114107195035 43.1735
24.685904536893013 42.7387
24.708874020360852 42.7408
24.731666442613744 42.8349
24.754459858818787 42.5312
24.777254270007962 42.6404
24.80022777025625 42.5994
24.82302418230472 42.5902
24.845821592443674 42.5561
24.86862000170663 42.4835
24.891597535453727 42.5111
24.914397953892728 42.6932
24.93719937456671 42.4619
24.96000179851076 42.7297
24.98298338249997 42.8336
25.00578782394922 43.0936
25.028593271784167 43.294
25.05157790644186 43.5597
25.07438537804115 43.7158
25.097193859145293 43.8679
25.120003350792075 44.0523
25.142992065061257 44.4014
25.165803588823465 44.6453
25.18861612625217 44.948
25.211429678386736 44.9399
25.234422489079968 44.9873
25.257238081693636 45.1997
25.280054692141732 45.2487
25.3028723214652 45.1038
25.325869245420463 45.1224
25.348688923599397 45.2462
25.371509623787006 45.0432
25.394331347025812 44.8071
25.41733240110666 44.489
25.440156181590016 43.6996
25.46298098826268 43.2365
25.48580682216873 42.662
25.50881202326435 42.0694
25.53163992281684 41.68899999999999
25.55446885274561 41.5624
25.577298814096377 41.1955
25.600308179121807 40.9174
25.623140214533745 41.113
25.64597328451537 41.0864
25.66898578564376 40.9431
25.691820936010206 40.8221
25.714657124097695 40.7387
25.737494350954734 40.8646
25.760511045684957 40.7153
25.783350361364224 40.7855
25.806190718969255 40.7355
25.82903211955018 40.9296
25.852053024868923 40.8218
25.874896522722523 40.9364
25.897741066713106 41.0314
25.920586657892454 41.0721
25.943611790812668 41.1254
25.966459487728237 41.3094
25.989308234998564 41.255
26.01215803367705 41.5753
26.03518741123814 41.7152
26.05803932412957 41.9886
26.080892291600094 41.9664
26.10374631470478 41.8703
26.12677995397268 42.028999999999996
26.14963609978026 41.9213
26.172493304397875 41.5503
26.19535156888223 41.3982
26.218389486949604 41.1282
26.241249882640123 40.7595
26.26411134137826 40.5091
26.28715248187403 40.4262
26.31001607820869 40.3263
26.3328807407756 40.1703
26.35574647063438 40.286
26.37879191991473 40.2592
26.401659795896734 40.3576
26.424528742360263 40.538000000000004
26.447398760366614 40.7135
26.470448535598294 40.8056
26.49332070826805 41.0892
26.516193955675355 41.3565
26.53906827888316 41.623000000000005
26.562122397260108 41.8786
26.584998883685063 42.0149
26.607876449110325 42.2646
26.63075509460056 42.3726
26.65381357334404 42.5392
26.67669439061878 42.3366
26.699576291163382 42.3297
26.722459276044212 42.1392
26.745522132402975 41.8956
26.768407297649354 41.5457
26.791293550442003 41.2947
26.814180891848974 41.0263
26.837248143099337 40.7952
26.860137673466657 40.6643
26.88302829566349 40.3997
26.90592001075963 40.2539
26.92899167420566 40.1399
26.951885586870763 39.7445
26.974780595655517 39.5588
26.99785558178161 39.4304
27.020752794605112 39.3528
27.043651106772522 39.1781
27.06655051935668 39.1982
27.089629948036183 38.9752
27.112531573292053 38.9304
27.135434302194138 39.1064
27.158338135817015 38.9208
27.181422024430987 38.9386
27.204328079372566 38.8003
27.22723524226965 38.7854
27.250143514198573 38.8795
27.273231880156334 38.8342
27.296142382065014 38.726
27.319053996245536 38.5603
27.341966723775965 38.8603
27.365059584515222 38.8047
27.38797455070062 38.7602
27.410890633481237 38.5859
27.433807833936918 38.7019
27.456905206923906 38.7655
27.47982465472398 38.8024
27.502745223449743 38.8714
27.525666914182825 38.9647
27.548768816912457 38.8402
27.571692763693633 38.703
27.59461783573812 38.5909
27.617723149491244 38.5331
27.640650484125285 38.5072
27.66357894728264 38.4197
27.686508540048052 38.3295
27.709618414237887 38.2238
27.732550278321757 38.0135
27.755483275279115 38.0287
27.778417406196485 37.9863
27.801531858397514 38.1324
27.824468269376716 38.118
27.847405817586786 38.068000000000005
27.870344504116094 38.255
27.893463551932008 38.4523
27.916404527281053 38.6831
27.93934664422563 38.6434
27.962289903855886 38.705999999999996
27.98541356491974 39.0009
28.00835912214229 38.9088
28.03130582533231 39.2405
28.054253675581805 39.4992
28.077381967556104 39.2287
28.100332124185126 39.247
28.123283431160893 39.2169
28.146235889577238 39.0441
28.169368830154156 38.7249
28.192323603752033 38.6809
28.215279532083304 38.4407
28.238415973016764 38.1042
28.261374223145094 38.0551
28.284333631303806 37.8695
28.307294198589954 37.7547
28.330435319167677 37.3806
28.353398217078915 37.1239
28.376362277420153 36.7933
28.39932750129032 36.715
28.422473319286713 36.6124
28.44544088262495 36.5532
28.468409612800283 36.508
28.491379510913497 36.2906
28.51453004413313 36.1161
28.53750229057244 36.2123
28.56047570826344 36.069
28.583450298308804 35.9732
28.606605564586562 35.8758
28.629582511831156 36.0338
28.65256063474956 35.8481
28.675539934446338 35.8436
28.698699951647605 35.8983
28.72168161743193 35.749
28.74466446331978 35.7864
28.767648490417624 35.5368
28.790813276438353 35.6352
28.813799678527303 35.7487
28.836787265157085 35.7999
28.859955641890075 35.7055
28.882945610203045 35.689
28.905936766392035 35.4701
28.928929111566863 35.5901
28.952102288520145 35.4985
28.975097024308607 35.3264
28.998092952423807 35.2252
29.021090073977508 35.2342
29.04426806913204 35.1887
29.067267590245258 34.8676
29.090268308143695 34.7741
29.11327022394099 34.7397
29.13645305530891 34.7056
29.159457379627167 34.7203
29.18246290519685 34.5637
29.20546963313352 34.5658
29.22865731875826 34.4811
29.25166646419296 34.5639
29.27467681535305 34.403
29.29768837335608 34.4594
29.320880931312562 34.556999999999995
29.34389491580634 34.5666
29.366910110507334 34.4124
29.38992651653503 34.4475
29.41312396492981 34.3781
29.436142806456754 34.2896
29.45916286268059 34.2087
29.48236399319994 34.1457
29.50538649169417 33.9304
29.528410208259935 33.9915
29.55143514402014 33.7084
29.574641196749695 33.6165
29.597668583816574 33.5464
29.6206971934585 33.3442
29.64372702680042 33.3549
29.666938019934474 33.3276
29.689970313635285 33.1295
29.713003834422636 33.129
29.73603858342347 33.1666
29.759254535188578 33.1171
29.78229175361658 33.0266
29.80533020365064 32.9486
29.82836988641968 33.0204
29.85159081507472 33.0715
29.874632976355343 32.9511
29.89767637376955 32.9161
29.920721008448314 32.8492
29.9439469322847 32.8469
29.96699405457564 32.7224
29.9900424175358 32.7047
30.013092022298157 32.6928
30.03632295963995 32.7182
30.059375061131373 32.7506
30.08242840783577 32.7707
30.105483000888153 32.8025
30.128718970092244 32.6037
30.151776069006917 32.5832
30.17483441768648 32.5729
30.198074175317235 32.5514
30.221135036724256 32.6314
30.24419715131772 32.6248
30.267260520236203 32.465
30.290505341942243 32.664
30.313571232750228 32.5692
30.336638381310948 32.5616
30.35970678876503 32.5024
30.38295669299435 32.4043
30.40602763151657 32.393
30.429099832366074 32.3605
30.452173296685572 32.2837
30.47542830191959 32.3417
30.498504306502497 32.3029
30.521581577995562 32.37
30.544660117543582 32.3489
30.56792024229725 32.4629
30.59100133132069 32.2924
30.614083691845494 32.289
30.637167325018545 32.3181
30.660432587840603 32.4484
30.683518779717886 32.5194
30.70660624769615 32.5175
30.729694992924372 32.408
30.75296541239743 32.3866
30.77605672557558 32.3347
30.799149319462742 32.2998
30.8224236211637 32.1607
30.845518789950724 32.086
30.868615242910597 32.0523
30.891712981195973 31.9527
30.91499247215866 31.8164
30.938092794619365 31.7738
30.96119440587579 31.6584
30.984297307082752 31.6078
31.00758200598383 31.5882
31.030687500658694 31.4914
31.053794288760695 31.3115
31.076902371446767 31.239
31.100192296997445 31.3055
31.12330298246119 31.2741
31.14641496599209 31.1343
31.169528248749216 31.2023
31.19282341969534 31.0748
31.215939314557186 31.1904
31.239056512134788 31.0963
31.262175013589378 30.9768
31.28547544871168 31.1538
31.30859657161541 31.0779
31.331719001892175 31.1417
31.35484274070538 31.164
31.378148458819545 31.2217
31.401274828443725 31.1546
31.424402510106933 31.0778
31.447712205419993 31.2067
31.470842524931633 31.1313
31.493974159989783 31.0483
31.51710711176168 31.0017
31.54042212308802 30.9789
31.563557722100917 30.9512
31.586694641341655 30.7146
31.609832881979628 30.671
31.63315322823208 30.6322
31.656294125521327 30.568
31.679436347728515 30.5196
31.70257989602529 30.4022
31.725905596152327 30.3716
31.74905181052835 30.2838
31.772199354521323 30.465
31.79534822930507 30.3158
31.818679302290967 30.336
31.84183085259981 30.2682
31.864983737233473 30.2654
31.88813795736804 30.3472
31.911474422233013 30.1594
31.934631327356435 30.2599
31.9577895715215 30.2912
31.980949155906522 30.3007
32.004291031706956 30.2595
32.027453310562606 30.1673
32.05061693318573 30.061
32.07396288236386 30.1667
32.09712920658542 29.9513
32.12029687812702 29.8136
32.14346589817093 29.7216
32.166817291729984 29.6473
32.18998902288583 29.612
32.21316210610336 29.5323
32.23633654256711 29.427
32.259693399663725 29.5086
32.282870556771144 29.4138
32.30604907069099 29.4171
32.329228942610065 29.3539
32.35259128243769 29.0726
32.375773884550505 29.0763
32.398957848235646 29.0892
32.422143174682176 29.048000000000002
32.445511016471215 28.9923
32.468699082679954 28.9565
32.49188851523011 28.8839
32.51507931531304 28.8276
32.538452678331 28.8391
32.56164622776311 28.7116
32.58484114831493 28.585
32.60803744118015 28.7388
32.631416344731896 28.6868
32.654615396551876 28.6852
32.67781582427913 28.6099
32.701198898634416 28.487
32.72440209253756 28.4825
32.747606665947124 28.45
32.77081262006088 28.2971
32.79420126883317 28.3323
32.81740999876112 28.3323
32.840620112999424 28.2279
32.86383161274818 28.2159
32.88722585534586 28.2031
32.91044014056596 28.2527
32.933655814909734 28.1884
32.95687287957963 28.1988
32.98027273544904 28.14
33.00349259526636 28.13
33.026713849030116 28.0717
33.04993649794511 28.1081
33.073341986570746 28.0212
33.09656744032826 27.9137
33.11979429286444 27.9416
33.14302254538647 27.9459
33.166433686291185 27.7908
33.18966475336992 27.8507
33.212897224069096 27.7627
33.23613109959831 27.7336
33.259547912343415 27.7449
33.2827846121627 27.7251
33.306022720453775 27.6127
33.32926223842861 27.6161
33.352684742614166 27.6163
33.37592709463173 27.5793
33.399170859982064 27.5116
33.422597648419426 27.471
33.44584425514446 27.3498
33.46909227885668 27.2557
33.4923417207723 27.134
33.51577423505344 27.1717
33.539026528130385 27.0598
33.56228024307245 26.9928
33.585535381098246 26.9117
33.60897364093058 26.9126
33.63223163992385 26.9003
33.6554910656699 26.8861
33.678751919389796 26.8899
33.702195944520106 26.8139
33.72545966903325 26.7132
33.74872482519663 26.6431
33.771991414233746 26.7392
33.79544122444841 26.6852
33.81871069412428 26.569000000000003
33.84198160035767 26.5209
33.86525394437455 26.5866
33.88870955949969 26.5502
33.911984794020626 26.4875
33.93526147001624 26.4083
33.958539588715006 26.3887
33.98200102861669 26.293000000000003
34.0052820477047 26.191999999999997
34.02856451319451 26.2822
34.05203033759056 26.1474
34.07531571090147 26.1049
34.09860253431845 26.1316
34.121890809074316 26.0372
34.145362493118924 26.0193
34.16865368561615 26.0206
34.191946333164054 25.9849
34.21524043699793 25.9767
34.23871800066799 25.9788
34.26201503218366 25.828000000000003
34.28531352370466 25.7796
34.30861347646881 25.718000000000004
34.33209693978188 25.7332
34.3553998301885 25.7088
34.378704185565205 25.6117
34.402010007152356 25.5376
34.42549939016683 25.5726
34.44880815937748 25.4703
34.472118398533134 25.3995
34.49543010887669 25.4167
34.51892543169198 25.3209
34.54224009966052 25.3419
34.56555624255917 25.2501
34.58887386163339 25.1926
34.61237514439016 25.0834
34.6356957311114 25.1388
34.65901779775809 25.123
34.68252356662995 25.0834
34.705848608458616 25.0573
34.72917513396849 24.9936
34.75250314440949 24.9111
34.77601490857862 24.89
34.799345904259795 24.7975
34.82267838863559 24.8441
34.846012362958525 24.826
34.869530142679984 24.7619
34.89286711232212 24.7384
34.91620557568269 24.7848
34.93954553401677 24.7348
34.9630693495876 24.6768
34.986412313340814 24.6975
35.00975677584668 24.6248
35.033102738362956 24.5708
35.05663261012228 24.4972
35.0799815881786 24.5085
35.10333207003229 24.4656
35.12668405694369 24.4877
35.150220005273056 24.4028
35.17357501786656 24.383000000000003
35.19693153931268 24.3333
35.220289570874385 24.2436
35.24383161619786 24.2665
35.267192683604904 24.2889
35.290555264930376 24.2799
35.314101899412165 24.2094
35.33746752422433 24.274
35.36083466676374 24.1836
35.38420332829803 24.039
35.407756095629054 24.1494
35.43112781085063 24.0651
35.45450104888391 24.1033
35.477875810999194 24.1
35.50143473172161 23.9929
35.52481255774625 24.0492
35.54819191167777 23.9692
35.57157279478914 23.9305
35.595137889488406 23.9239
35.61852184675279 23.8698
35.641907337029984 23.7695
35.665294361595684 23.8065
35.68886565090076 23.6982
35.7122557598848 23.7005
35.73564740699838 23.6422
35.759040593519934 23.519000000000002
35.78261809810353 23.5536
35.80601437933051 23.4413
35.829412203814705 23.3323
35.85281157283719 23.3391
35.876395313415884 23.4086
35.8997977874528 23.3579
35.92320180988546 23.331999999999997
35.946790244133936 23.275
35.97019737933222 23.2788
35.993606066789866 23.2429
36.01701630779276 23.1982
36.04061101440684 23.1296
36.06402437852291 23.2004
36.08743930005611 23.1398
36.1108557802951 23.0702
36.13445678011326 23.0554
36.15787639383515 23.0101
36.18129757014299 22.915
36.20472031032821 22.9265
36.22832762423364 22.7896
36.25175350829375 22.7892
36.275180960119776 22.8229
36.298609981005924 22.8279
36.32222362992669 22.8393
36.34565580510207 22.7673
36.36908955323448 22.6488
36.39252487562093 22.5477
36.416144880530226 22.5683
36.43958336764275 22.6091
36.463023432914625 22.6449
36.486465077645676 22.5755
36.51009145956204 22.6055
36.53353627947859 22.5146
36.55698268276811 22.476
36.58043067073321 22.4001
36.60406345072071 22.3056
36.62751462435344 22.3668
36.65096738658405 22.3163
36.67460498210655 22.3191
36.69806093788647 22.2129
36.72151848619297 22.115
36.744977628333636 22.2037
36.76862165890998 22.0874
36.79208400512205 22.1874
36.81554794910557 22.1095
36.83901349217101 21.9791
36.862663978991606 21.94
36.88613273667352 21.9774
36.90960309738324 21.9187
36.933075062434064 21.930999999999997
36.95673202673572 21.8657
36.98020721697122 21.8178
37.003684015502365 21.7629
37.027162423645365 21.6852
37.050825886711465 21.713
37.07430753063053 21.6372
37.09779078812467 21.5462
37.121275660513014 21.5814
37.144945643673694 21.5042
37.16843376245278 21.6212
37.19192350009803 21.6016
37.215414857931435 21.4605
37.239091382563885 21.3858
37.262585997426164 21.4179
37.28608223645736 21.3619
37.309763684451696 21.3346
37.33326318851098 21.3498
37.356764320726555 21.3108
37.380267082425526 21.27
37.40395510942588 21.2581
37.42746114683234 21.2073
37.45096881771841 21.1528
37.474478123414166 21.1202
37.49817275092816 21.0711
37.52168534303452 21.0224
37.54519957395567 20.9987
37.568715445024665 20.9199
37.592416694607714 20.9255
37.61593586281424 21.0542
37.63945667518264 20.9627
37.66297913304891 20.8746
37.68668702630454 20.9272
37.710212792059274 20.7242
37.733740207334854 20.7264
37.757269273470364 20.6462
37.780983832050374 20.6784
37.80451621684926 20.6199
37.82805025654007 20.554000000000002
37.851585952464795 20.5453
37.8753071980695 20.5202
37.89884622345676 20.4714
37.92238690911902 20.4393
37.94611318753442 20.3679
37.969657210779765 20.3924
37.99320289834801 20.3812
38.016750251586465 20.3129
38.04048325513017 20.2851
38.06403395679343 20.2996
38.087586328183946 20.2515
38.11114037065203 20.2406
38.13488012115898 20.2184
38.1584375229181 20.1102
38.181996599821 20.0969
38.205557353221124 20.0556
38.229303872575656 20.0345
38.2528679961576 19.9779
38.27643380031219 19.9913
38.30000128639589 19.887
38.32375459653193 19.9365
38.34732546371299 19.9559
38.37089801690786 19.8539
38.39447225747609 19.8149
38.418232380377425 19.7567
38.441810012983396 19.7726
38.46538933705673 19.7726
38.488970353960084 19.6514
38.51273731166058 19.5707
38.536321731567014 19.593
38.55990784840681 19.5824
38.58367995004091 19.5618
38.60726947812959 19.4722
38.63086070726198 19.4739
38.654453638806274 19.5366
38.678232613930824 19.4388
38.70182896773327 19.421
38.72542702806741 19.3834
38.7490267963045 19.3603
38.77281266709232 19.2905
38.79641586862214 19.2833
38.8200207821842 19.2263
38.843627409152944 19.268
38.86742019782782 19.1703
38.891030269149255 19.1562
38.914642058016156 19.1123
38.938255565806124 19.0602
38.96205529464307 19.0538
38.98567225787121 19.0909
39.00929094417078 19.0862
39.03291135492255 19.067
39.05671804624804 18.9834
39.080341923549106 18.9348
39.103967529460334 18.8595
39.127594865365744 18.8006
39.15140854155791 18.798
39.17503935514948 18.8118
39.19867190290282 18.7645
39.22249083587951 18.6548
39.24612686969409 18.7596
39.269764641845306 18.7586
39.293404153722804 18.6692
39.317230110864074 18.6404
39.34087311998506 18.5979
39.36451787301696 18.6178
39.388164371352595 18.5508
39.41199737518003 18.5137
39.43564738196752 18.4951
39.45929913825317 18.4593
39.48295264543308 18.4255
39.506792718520884 18.3644
39.530449745387216 18.3535
39.55410852735203 18.314
39.57776906581474 18.3398
39.60161623079 18.3197
39.625280300200025 18.29
39.64894613032202 18.1927
39.67261372255866 18.1385
39.6964680021016 18.1427
39.72013913657293 18.1737
39.74381203738292 18.0953
39.76748670593756 18.0834
39.79134812278169 18.0862
39.81502634488497 18.0336
39.83870633896685 17.9515
39.862388106436654 17.9938
39.88625668336918 17.9627
39.90994201572829 17.9782
39.933629125719285 17.9055
39.957503091207826 17.8735
39.9811937746168 17.9214
40.00488623990914 17.8174
40.02858048850006 17.7862
40.05246165409549 17.7124
40.076159487492085 17.6407
40.099859108448875 17.7046
40.123560518384345 17.6706
40.1474489070226 17.6572
40.171153913178564 17.5419
40.194860712584955 17.574
40.2185693066637 17.5788
40.242464941335314 17.4614
40.26617714307655 17.4667
40.289891143772046 17.4989
40.3136069448471 17.4597
40.33750984859743 17.401
40.3612292688043 17.3647
40.3849504936829 17.3244
40.40867352466194 17.3311
40.43258372059144 17.3014
40.45631038219906 17.2504
40.48003885420956 17.2132
40.503769138055105 17.1686
40.52768664931955 17.1653
40.55142057531802 17.1452
40.57515631746428 17.145
40.599079334038514 17.0927
40.62281872700477 17.0574
40.64655994043941 17.0199
40.67030297578061 17.0073
40.69423334835778 17.0077
40.71798004609188 16.9265
40.74172857006355 16.8865
40.76547892171441 16.9066
40.7894166736039 16.9153
40.813170699248566 16.8469
40.83692655691388 16.7957
40.86068424804498 16.8254
40.884629402612525 16.8267
40.908390779366385 16.7854
40.932153993938 16.6897
40.95591904777605 16.6809
40.979871628443995 16.7407
41.003640379561936 16.6609
41.02741097430883 16.6332
41.05118341413683 16.5796
41.075143444384416 16.6098
41.098919593177826 16.6143
41.1226975914255 16.5284
41.14647744058318 16.4534
41.170444943946755 16.453
41.19422851378379 16.521
41.218013938914645 16.4079
41.24198706625173 16.3493
41.26577622087193 16.3418
41.289567235177785 16.3439
41.31336011063129 16.2859
41.337340752422875 16.2579
41.361137369129835 16.2679
41.38493585138705 16.1907
41.40873620066004 16.1954
41.43272438060107 16.185
41.45652848292052 16.1324
41.48033445666918 16.0945
41.50414230331616 16.0538
41.528138045159764 16.0391
41.551949656675205 16.0374
41.575763145513235 15.9827
41.59957851314666 15.9569
41.62358184070442 15.9563
41.64740098505737 15.9119
41.6712220126409 15.8453
41.69504492493139 15.8475
41.71905586207357 15.8222
41.74288256296395 15.855
41.766711153007456 15.7779
41.79054163368412 15.7032
41.814560204340054 15.7214
41.838394485526365 15.7219
41.86223066180303 15.6917
41.88625497706819 15.6294
41.910094962812 15.6109
41.93393684811168 15.594000000000001
41.95778063445365 15.5243
41.981812625263366 15.5057
42.00566023303407 15.499
42.029509746323676 15.4936
42.05336116662236 15.5158
42.077400857069705 15.5013
42.10125611078846 15.3909
42.12511327600405 15.3796
42.14897235421036 15.3311
42.173019768448455 15.3266
42.19688269209613 15.3208
42.22074753323349 15.3137
42.24461429335818 15.2596
42.268669455600495 15.1969
42.292540073217886 15.2006
42.31641261433284 15.161
42.34028708044675 15.1545
42.36435001496739 15.1159
42.38822835065557 15.1284
42.41210861586426 15.0654
42.4359908120986 15.0153
42.46006154323262 15.0153
42.48394762115317 14.9767
42.507835634632315 14.9883
42.531912233047436 14.9618
42.55580413732265 14.9236
42.579697981698 14.9159
42.60359376768525 14.8699
42.62767820545945 14.860999999999999
42.65157789440821 14.874
42.67547952952185 14.8654
42.699383112316 14.7815
42.72347541395347 14.738
42.74738291190531 14.74
42.771292362102166 14.7641
42.795203766063516 14.6588
42.819303956130405 14.6471
42.843219287476536 14.6057
42.86713657716324 14.6252
42.89105582671383 14.5887
42.91516392983864 14.5643
42.939087119032166 14.5543
42.963012272677304 14.5087
42.98693939230129 14.4956
43.01105543317513 14.4473
43.034986504731386 14.4265
43.05891954686589 14.376
43.08285456110972 14.4144
43.10697856448665 14.3238
43.130917542983475 14.3192
43.15485849820081 14.3058
43.17880143167367 14.2519
43.20293342237094 14.2835
43.226880332449 14.2231
43.25082922540554 14.2314
43.27496722682525 14.2224
43.29892010567796 14.1708
43.32287497204102 14.1657
43.34683182745632 14.0689
43.370977859791836 14.0324
43.39493871351105 14.0421
43.41890156092628 14.052999999999999
43.44286640358341 14.007
43.46702049182749 13.9254
43.49098934522816 13.9261
43.51496019852649 13.9399
43.5389330532723 13.9112
43.56309522248204 13.8664
43.58707210044314 13.8825
43.61105098451946 13.8141
43.63503187626491 13.7625
43.659202151562134 13.7883
43.68318707902681 13.7676
43.70717401884041 13.7108
43.731162972560874 13.7015
43.75534137913236 13.6259
43.779334381108384 13.6275
43.803329401683186 13.617
43.82732644241872 13.6083
43.8515130055166 13.5778
43.87551410707659 13.5412
43.89951723350145 13.6064
43.923709934595614 13.5425
43.94771713129917 13.4924
43.97172635758096 13.482000000000001
43.99573761501002 13.4089
44.0199385169922 13.42
44.04395385732619 13.4433
44.067971233533086 13.3943
44.09199064718605 13.3312
44.11619977548961 13.3289
44.14022328470671 13.2608
44.16424883610785 13.3285
44.18827643127035 13.3009
44.21249381139513 13.2732
44.236525514814076 13.195
44.26055926674478 13.1995
44.28459506876863 13.2375
44.3088207262813 13.1871
44.33286064928722 13.1537
44.35690262714919 13.1626
44.38094666145278 13.0977
44.4051806219871 13.0239
44.42922879003185 13.0359
44.45327901929361 13.0336
44.477331311362136 12.9907
44.501573600619416 12.9545
44.525630039221795 12.9754
44.54968854541895 12.9259
44.573937102200176 12.9169
44.5979997645541 12.9084
44.622064499300315 12.8639
44.64613130803592 12.829
44.67038823869318 12.8255
44.69445921643748 12.7414
44.718532272981385 12.7302
44.742607409926194 12.7116
44.76687274034801 12.7419
44.79095205918753 12.6696
44.81503346325094 12.677
44.839116954143876 12.7164
44.86339071028742 12.6642
44.88747839599524 12.6342
44.91156817336837 12.5944
44.93566004401666 12.5915
44.959942251908146 12.5807
44.984038330325966 12.519
45.00813650686762 12.4681
45.03223678314731 12.4722
45.05652746888232 12.4437
45.08063196592069 12.4055
45.104738567558705 12.4428
45.128847275414856 12.4503
45.15314646515866 12.3679
45.17725940679741 12.3312
45.20137445952892 12.3432
45.22568004865265 12.2606
45.24979934496396 12.3023
45.27392075725247 12.2466
45.29804428714431 12.2694
45.322358426247604 12.2506
45.346486212804315 12.2022
45.370616121861914 12.194
45.39474815505086 12.1551
45.41907087049246 12.1238
45.4432071734666 12.0955
45.46734560548283 12.1053
45.49148616817604 12.1184
45.51581748638564 12.0765
45.5399623320197 12.0712
45.56410931325473 11.9888
45.58825843173002 12.0206
45.61259837920865 12.0377
45.636751793816 11.9942
45.66090735060093 11.925
45.68506505120716 11.8844
45.7094136545275 11.8926
45.73357566449271 11.8598
45.75773982322992 11.8455
45.78190613238733 11.815999999999999
45.806263418194064 11.7877
45.83043404997326 11.7937
45.85460683713677 11.7736
45.87897065658495 11.7751
45.90314777634752 11.7426
45.92732705646868 11.7165
45.9515084986045 11.6727
45.97588104735473 11.6791
46.00006683541565 11.6337
46.02425479047904 11.6293
46.04844491420549 11.6287
46.0728262191024 11.5793
46.09702070211635 11.5607
46.12121735879483 11.5003
46.14541619080294 11.4754
46.169806278764455 11.503
46.194009483459034 11.499
46.21821486849841 11.468
46.24242243555223 11.417
46.266821333570014 11.3962
46.29103328674601 11.4082
46.31524742696538 11.3721
46.33946375590237 11.3134
46.36387149104216 11.333
46.38809221957392 11.2451
46.41231514186606 11.2979
46.436540259597464 11.293
46.460956858999374 11.251
46.48518638983522 11.2063
46.509418121166966 11.1883
46.533652054678114 11.1709
46.55807754555709 11.1528
46.58231590571962 11.1445
46.60655647313217 11.1235
46.630988654873654 11.0786
46.655233659129024 11.0511
46.67948087571551 11.0716
46.70373030632484 10.9937
46.72817142736393 11.0166
46.752425308428684 10.9982
46.77668140861147 10.9967
46.80093972960865 10.9798
46.82538981736788 10.9121
46.849652602470904 10.9085
46.87391761349769 10.9049
46.8981848521493 10.856
46.9226439341274 10.8422
46.946915650573224 10.8345
46.97118959976749 10.800999999999998
46.99546578341598 10.7684
47.019933887188216 10.7674
47.04421456235744 10.7406
47.06849747711879 10.7249
47.09278263318286 10.6928
47.11725978640143 10.6814
47.14154944775105 10.6749
47.165841355555656 10.7084
47.1901355115306 10.6176
47.214621741924994 10.5666
47.23892041698887 10.6373
47.26322134538975 10.567
47.28771440635075 10.5715
47.31201986422527 10.5726
47.33632758061436 10.5231
47.360637557241866 10.4699
47.38513974410611 10.507
47.40945426407847 10.453
47.43377104948137 10.4744
47.45809010204344 10.4293
47.48260144275502 10.4047
47.506925052572285 10.3687
47.53125093475548 10.3539
47.55557909103813 10.3349
47.58009961361992 10.2997
47.60443234110732 10.2989
47.62876734791564 10.265
47.65310463578333 10.2387
47.6776343683373 10.2399
47.7019762413987 10.2135
47.72632040075572 10.2035
47.75066684815169 10.1645
47.77520581885936 10.1879
47.799556865477655 10.1486
47.823910205386 10.1235
47.84826584033272 10.1174
47.87281407745551 10.0853
47.89717432569297 10.0934
47.92153687423484 10.0611
47.94609208429692 10.0497
47.97045925671401 10.0125
47.99482873471275 9.97483
48.01920052005013 9.976410000000001
48.04376504619224 9.92571
48.068141469543484 9.93878
48.09252020552573 9.95116
48.11690125590099 9.91901
48.1414751266064 9.886569999999999
48.16586082917454 9.89495
48.19024885144316 9.84619
48.2146391951793 9.875639999999999
48.239222439012764 9.85017
48.26361744916137 9.83595
48.28801478610016 9.81275
48.31241445160131 9.81027
48.337007097209366 9.775160000000001
48.36141144338331 9.74897
48.38581812345755 9.709480000000001
48.41022713920929 9.68993
48.434829215320704 9.67297
48.45924292604658 9.67958
48.48365897780325 9.681569999999999
48.50807737237308 9.642619999999999
48.532688907799276 9.63292
48.55711201168574 9.64246
48.581537463754074 9.56712
48.60615611725119 9.596589999999999
48.63058628942721 9.53851
48.65501881516546 9.52725
48.6794536962573 9.53539
48.70408185970339 9.5056
48.72852147531801 9.47916
48.75296345168211 9.42858
48.77740779059232 9.41924
48.80204549302823 9.44977
48.82649458091802 9.412360000000001
48.85094603676547 9.38894
48.87539986237231 9.35913
48.90004713292306 9.36558
48.92450572200832 9.3495
48.94896668628025 9.300989999999999
48.97343002754588 9.31633
48.99808689542115 9.27847
49.02255501470614 9.30064
49.04702551642794 9.27747
49.0714984023988 9.20003
49.096164896893235 9.180060000000001
49.120642575466796 9.16105
49.145122643748394 9.16095
49.16960510355558 9.16634
49.19428125404938 9.16208
49.2187685210852 9.138539999999999
49.243258185121555 9.1017
49.26794160167084 9.081660000000001
49.2924360839405 9.06742
49.31693296869764 9.06434
49.34143225776915 9.04457
49.36612538195438 9.00437
49.39062950396021 8.98882
49.41513603578346 8.9685
49.4396449792564 8.94806
49.46434784069503 8.97154
49.488861631846454 8.95618
49.513377840166804 8.92244
49.537896467493745 8.91538
49.56260909589029 8.88074
49.587132585683285 8.877510000000001
49.611658500018365 8.87314
49.636186840738596 8.79986
49.66090926588511 8.78197
49.685442483902584 8.8164
49.70997813385706 8.762839999999999
49.734516217597076 8.72222
49.75924846937352 8.712439999999999
49.7837914452858 8.705689999999999
49.80833686055187 8.707989999999999
49.83288471702571 8.69743
49.85762682540054 8.68285
49.882179588965734 8.64669
49.9067347993235 8.60938
49.93129245833333 8.624939999999999
49.95604445336378 8.57992
49.98060703442832 8.58987
50.005172069746266 8.56258
50.02993150438364 8.55102
50.05450147301533 8.55926
50.07907390151433 8.55967
50.10364879174981 8.50029
50.12841816587289 8.48402
50.1529980044635 8.45862
50.17758031042124 8.45515
50.20216508562089 8.4684
50.22694442953363 8.44518
50.25153416817468 8.40916
50.27612638170508 8.406239999999999
50.300721072005196 8.375580000000001
50.325510416102105 8.36532
50.350110084975064 8.31441
50.37471223628208 8.31836
50.39931687190919 8.31152
50.424116246675766 8.31197
50.44872587605249 8.26295
50.47333799543065 8.28527
50.49795260670191 8.241430000000001
50.52276204271512 8.24211
50.54738166295838 8.23243
50.57200378079314 8.209439999999999
50.596628398116835 8.18468
50.62144792604559 8.18672
50.646077567609396 8.17424
50.670709714377715 8.12058
50.69553683636198 8.14613
50.72017401885922 8.092039999999999
50.7448137122895 8.07346
50.76945591856022 8.08031
50.79429318636823 8.05941
50.818940443716784 8.04338
50.84359021965163 8.03509
50.868242516085964 8.02265
50.893089960641895 8.00906
50.917747323549435 8.02683
50.94240721271973 7.99136
50.96706963007175 7.9752600000000005
50.99192728239342 7.916930000000001
51.01659478166073 7.929310000000001
51.04126481489051 7.92943
51.06593738400761 7.91513
51.090805275207074 7.887580000000001
51.11548294172845 7.891030000000001
51.14016314993547 7.84957
51.164845901758845 7.81597
51.18972406304274 7.81692
51.21441192780656 7.7828
51.23910234200271 7.81157
51.2637953075678 7.78685
51.288683770237945 7.741219999999999
51.31338186432707 7.71392
51.33808251561888 7.701160000000001
51.362978729967345 7.697439999999999
51.387684521509755 7.68774
51.41239287610203 7.666910000000001
51.437103795691165 7.6546
51.46201036644977 7.62613
51.486726441956634 7.6261600000000005
51.51144508832545 7.607889999999999
51.536166307509156 7.61255
51.56108326624387 7.583289999999999
51.58580965706056 7.567360000000001
51.61053862657523 7.518210000000001
51.635270176746864 7.52901
51.66019755512065 7.495539999999999
51.68493429268881 7.50869
51.70967361681515 7.498239999999999
51.73441552946465 7.47496
51.759353359237934 7.48601
51.7841004750961 7.44831
51.80885018539685 7.46192
51.833602492111254 7.39423
51.8585508051424 7.401689999999999
51.883308330926425 7.3545
51.90806845906181 7.34055
51.932831191525715 7.34134
51.95779001977161 7.32282
51.98255798721516 7.31429
52.00732856494335 7.30439
52.03229530577543 7.27157
52.057071130455945 7.25012
52.081849571391054 7.242389999999999
52.106630630568695 7.24223
52.13160794279417 7.21318
52.15639426492067 7.21627
52.18118321127822 7.200589999999999
52.205974783860896 7.17435
52.23096269971011 7.15592
52.255759551287994 7.16587
52.280559035098186 7.17392
52.30536115314103 7.142710000000001
52.33035970494467 7.105460000000001
52.35516711807904 7.10618
52.37997717147198 7.12546
52.40478986713005 7.05853
52.42979908731974 7.03216
52.454617094216 7.011019999999999
52.47943774942214 6.99745
52.50426105495102 6.97226
52.529280976059844 6.99861
52.554109609024096 6.99055
52.57894089837482 6.9360100000000005
52.60377484613117 6.93744
52.62880550079408 6.983619999999999
52.65364479223379 6.9439
52.67848674816189 6.904
52.70352547971946 6.851210000000001
52.72837279155837 6.840160000000001
52.753222773982785 6.827719999999999
52.778075429022984 6.833539999999999
52.80312495150885 6.83125
52.827982978797436 6.78958
52.85284368481815 6.7826699999999995
52.87770707160767 6.7756300000000005
52.90276741793998 6.78308
52.92763619336701 6.73252
52.952507655698504 6.73376
52.977381806977576 6.7263399999999995
53.00245301017842 6.7214100000000006
53.02733256653592 6.74567
53.052214817996074 6.74252
53.077099766608484 6.6757800000000005
53.102181859804446 6.6961
53.127072229988265 6.69198
53.15196530349892 6.64157
53.17686108239249 6.6276
53.20195409881522 6.621339999999999
53.22685531582556 6.56779
53.25175924441303 6.5323199999999995
53.27666588664027 6.55129
53.30176985962693 6.528980000000001
53.3266819565689 6.50805
53.35159677336455 6.50405
53.376514312083096 6.4656199999999995
53.40162927507703 6.50178
53.42655228516116 6.4842
53.45147802340193 6.4762
53.47660125628886 6.4669300000000005
53.50153247842639 6.43259
53.52646643496923 6.41562
53.55140312799818 6.3772
53.576537409691696 6.38561
53.60147960336152 6.36857
53.626424539786164 6.3694
53.65137222105307 6.3291699999999995
53.67651758529126 6.3642199999999995
53.70147078399681 6.31948
53.72642673383343 6.28824
53.75138543689533 6.300619999999999
53.776541917524526 6.27399
53.801506154876755 6.26958
53.826473151763246 6.23351
53.851442910284916 6.2119800000000005
53.87661054126026 6.2213400000000005
53.9015858509782 6.223730000000001
53.92656392866066 6.19985
53.95154477641532 6.21823
53.976723591801296 6.16145
54.00171000771266 6.12815
54.02669920004598 6.1315800000000005
54.051691170915745 6.13877
54.076881204886796 6.1534
54.101878760928514 6.081
54.12687910187696 6.06877
54.152077577768296 6.07696
54.1770835166946 6.0533
54.20209224691339 6.06075
54.22710377055121 6.06254
54.25231352511594 6.01206
54.27733066384342 5.99124
54.30235060239643 5.99193
54.32737334290836 5.97386
54.35259441062629 5.9092199999999995
54.377622783395324 5.91032
54.40265396455061 5.91453
54.42768795623251 5.9236699999999995
54.45292037169559 5.90431
54.477960012857906 5.87549
54.50300247099511 5.863169999999999
54.52804774825457 5.84186
54.55329154616743 5.81307
54.57834249018678 5.76462
54.6033962597977 5.77718
54.6284528571545 5.74014
54.653708072335164 5.73947
54.67877035378786 5.7442
54.70383546947698 5.68689
54.72890342156389 5.706519999999999
54.7541700889442 5.63603
54.77924374251975 5.65415
54.8043202390049 5.6058699999999995
54.82959552413022 5.606330000000001
54.8546777351945 5.57864
54.87976279569621 5.531630000000001
54.90485070780914 5.57705
54.930137506558005 5.55461
54.95523115074295 5.53596
54.98032765308844 5.5073
55.005427015775496 5.432259999999999
55.03072536339621 5.45472
55.05583047570572 5.40077
55.080938454927676 5.45664
55.10604930325027 5.39727
55.131359235107396 5.41195
55.15647585066083 5.3284400000000005
55.181595341907496 5.29065
55.20671771104285 5.24569
55.232039262617704 5.29216
55.25716741665048 5.256530000000001
55.28229845518636 5.24287
55.30743238042802 5.18841
55.33276558731939 5.21702
55.357905315183636 5.17479
55.383047936390035 5.12723
55.40819345314859 5.11646
55.433538351073295 5.10695
55.458689688238415 5.0969999999999995
55.483843927614096 4.9842
55.509197623043605 5.0362599999999995
55.53435769621134 4.94304
55.55952067826466 4.93366
55.5846865714265 4.95983
55.61005202069737 4.91111
55.63522376553902 4.95365
55.66039842818645 4.91131
55.68557601087004 4.8600900000000005
55.7109532500271 4.78534
55.73613670233794 4.85382
