TT I
1.2716486653135266 7.59306
1.2939594142134223 6.969519999999999
1.3162702121660406 6.645169999999999
1.3385810600174564 6.7538
1.3608919586137629 6.9469199999999995
1.383202908801069 6.72036
1.405513911425503 7.113760000000001
1.4278249673332093 6.201969999999999
1.4501343378461518 6.2510900000000005
1.4724455028545926 5.60243
1.4947567236847858 6.54619
1.517068001182951 6.27076
1.5393793361953272 5.67299
1.5616907295681737 5.77839
1.5840021821477681 5.39469
1.60631369478041 5.04431
1.6286252683124185 5.09028
1.6509369035901333 5.43107
1.6732468618895553 5.89736
1.695558623192809 4.67675
1.7178704487808514 5.40749
1.7401823395001077 4.25084
1.7625012545597203 4.45177
1.7848028405262486 4.64608
1.8071218901122095 4.6696800000000005
1.8294236121921872 4.60001
1.8517427996910911 4.54995
1.8740620574440425 4.39168
1.8963639900671978 4.57756
1.9186833908139995 4.7990699999999995
1.9409854680117449 4.79707
1.9633050151394713 4.522390000000001
1.9856246367570705 5.35685
2.0079269371922672 4.85944
2.03024671027244 4.20771
2.0525491637446027 4.3847
2.074869091674931 4.35234
2.097171701569106 4.91562
2.1194917877373847 4.9663
2.141811954326636 5.1788
2.164114805233074 5.03924
2.186435135143035 5.35237
2.208738150935709 10.7717
2.231058647554722 20.809
2.2533792288321184 16.6407
2.275682498336085 8.69379
2.298003251406138 5.950480000000001
2.3203066942619714 5.206580000000001
2.3426276225136022 5.17285
2.3649486396617507 5.38474
2.387252348930071 5.81896
2.4095735463442893 6.01317
2.4318774374315884 5.4603
2.4541988185014043 6.2522400000000005
2.476502894794693 6.78706
2.498824462909887 6.53276
2.521146125856138 6.6437800000000005
2.5434504863470337 7.23078
2.5657723414244717 7.67144
2.588076895590662 8.19997
2.610398946189713 8.04213
2.6327210958598384 7.82764
2.6550259469304716 7.996580000000001
2.6773482972090137 7.827489999999999
2.6996533504259 8.48264
2.7219759047039602 8.24745
2.744298562293959 8.0034
2.7666039251246595 7.75897
2.7889267918020164 7.72469
2.8112323652516555 8.00265
2.833555444408179 8.21923
2.8558786311183852 8.37381
2.8781845268938557 9.26323
2.9005079311721484 8.81986
2.9228140460410397 8.86861
2.9451376712799635 9.34843
2.967444008632326 9.40523
2.9897678582247247 9.59349
3.0120918213106695 10.086
3.0343984987899373 10.7001
3.0567226913198637 10.5333
3.079029599759726 11.7743
3.101354025127254 12.6822
3.123678568232338 12.5208
3.145985829517914 13.1741
3.16831061055229 13.2258
3.1906181112775593 14.0412
3.212943133635653 14.5181
3.2352682779763207 14.5788
3.2575761442691227 15.8468
3.2799015350264273 16.0039
3.302209649240067 15.998
3.3245352898092655 16.7301
3.3468436553365257 17.340999999999998
3.369169549113219 18.1407
3.3914955708171384 18.5292
3.413804319727358 19.2667
3.4361305997334863 19.3196
3.4584396084414553 19.5395
3.4807661501462652 19.9792
3.503092824025881 20.956999999999997
3.5254022288463154 21.1791
3.5477291695206588 22.0004
3.5700388426251948 22.4219
3.5923660534916446 24.0402
3.6146934007816114 35.0274
3.637003482731501 69.6573
3.6593311053109985 75.965
3.681641464033634 46.4195
3.7039693653009733 28.9618
3.726297407241705 25.879
3.7486081875460804 25.793000000000003
3.7709365132734978 26.5277
3.793247578841633 26.5287
3.8155761917550093 26.5737
3.8378875459837216 27.3451
3.8602164494827234 27.7814
3.882545499606844 28.6523
3.9048572932539183 29.4032
3.9271866390645718 29.4511
3.9494987298666713 30.0491
3.971828374764527 30.4669
3.9941581705403255 31.039
4.016470713506008 31.8798
4.038800813471445 32.5933
4.061113662089144 32.6994
4.0834440696459176 33.8286
4.105774632334751 34.52
4.128087945865126 34.707
4.150418821249301 35.9717
4.172732448931298 37.1083
4.195063640413578 38.4397
4.2173775856475215 42.0916
4.239709096631102 65.7893
4.262040768704612 177.56900000000002
4.284355196706267 227.047
4.306687193387355 150.245
4.329001947444346 68.8513
4.35133427213731 46.8638
4.373666762177566 44.2846
4.395982011761091 44.456
4.418314834921175 45.6046
4.44063041906622 51.9312
4.4629635787515625 58.8183
4.4852969080429785 59.3498
4.5076130004776225 52.7329
4.529946671403969 51.8978
4.552263106909177 52.7006
4.574597122877047 52.7626
4.596931312711224 52.9114
4.619248269273446 53.7538
4.6415828092605835 54.8017
4.663900117405352 56.0936
4.686235010953232 57.586999999999996
4.708552674085913 58.4164
4.730887924602802 59.9656
4.753223354952695 61.6512
4.775541557023902 63.6515
4.797877349456786 65.5512
4.820195915032126 66.89699999999999
4.842532072957498 68.1243
4.864868414979744 70.4866
4.88718753227192 72.9428
4.909524244902505 75.0386
4.931843734218147 76.3727
4.954180820867835 78.7945
4.976518095879839 81.6043
4.998838149695359 84.6109
5.021175803844231 88.12100000000001
5.043496238205739 91.5893
5.065834274903528 96.366
5.088172504230693 101.065
5.1104935158799565 108.07
5.132832132875765 128.197
5.155153533596801 163.149
5.1774925416746225 204.607
5.199814334878411 403.24800000000005
5.2221537374521505 1141.41
5.244493338631803 3107.46
5.266815727034316 7570.24
5.289155727832427 12213.4
5.311478517248165 8447.01
5.333818921080011 2936.63
5.356159527788849 618.27
5.3784829252032536 199.517
5.400823940070432 150.275
5.423147747031976 131.688
5.445489173474152 121.67200000000001
5.467830807066149 116.116
5.490155234831516 112.943
5.512497285125229 108.524
5.534822130975162 106.053
5.557164601388673 103.51100000000001
5.579489868738879 100.839
5.601832762690846 99.8296
5.6241758697774475 98.9342
5.646501775867269 97.6659
5.668845311622074 96.0899
5.691171647754637 95.2424
5.713515615597765 94.5777
5.735859800852677 93.8902
5.758186788542988 93.3493
5.780531411018185 93.9454
5.802858837297399 93.6038
5.825203900414495 93.2221
5.8475491852224 94.4537
5.869877275883075 95.1724
5.892223006467101 95.1712
5.914551544266608 96.3439
5.936897724049891 98.8755
5.959244129804903 105.351
5.981573344815301 128.94
6.0039202049061 235.78400000000002
6.026249875609095 509.082
6.04859719346037 1055.06
6.070927323278297 2306.31
6.093275102315365 4246.02
6.115623113320588 5413.3
6.137953938319995 3452.88
6.160302415650845 1069.71
6.182633708324452 255.854
6.2049826554078376 118.271
6.227331838745022 94.2016
6.249663839443684 86.7962
6.27201349767565 83.5103
6.294345974611799 86.7578
6.316696111167083 93.5121
6.339046488263839 88.8278
6.361379686074702 77.8764
6.383730546639482 72.1339
6.406064229255215 69.8415
6.428415576718203 69.3247
6.450749747566656 68.0071
6.47310158535871 66.6982
6.495453669698332 65.9592
6.517788579421056 65.3524
6.540141159237969 64.2076
6.562476565766648 63.6857
6.5848296444934045 63.6582
6.607182974060425 62.6023
6.6295191323281015 63.0196
6.651872965955752 65.469
6.6742096296068985 84.7351
6.6965639707294615 115.414
6.71891856698715 113.73899999999999
6.741255995248479 83.1478
6.763611104154477 65.0023
6.785949046381137 60.2112
6.808304671371482 59.0175
6.8306605557940046 59.2279
6.852999275508618 58.4141
6.875355681171544 57.4741
6.897694923437771 57.0524
6.92005185377892 57.4319
6.9423916220322655 56.836999999999996
6.964749080490181 56.06399999999999
6.987106804399774 56.0314
7.009447368180821 56.0376
7.031805625367033 56.016000000000005
7.054146723727803 55.6481
7.076505517631004 55.6242
7.098864581288365 55.5744
7.121206488070854 55.2443
7.143566093607822 54.9434
7.165908543567245 55.6487
7.188268694426048 55.2074
7.2106291193438095 55.7336
7.232972390625943 57.0867
7.255333366030969 66.068
7.277677189091925 103.66799999999999
7.300038718428332 134.739
7.322400526130865 114.49700000000001
7.344745183422596 78.0318
7.367107550224791 60.0291
7.389452767901992 56.2203
7.411815697249891 55.2992
7.434161478756298 54.4843
7.456524974096713 54.5766
7.478888753837185 54.632
7.501235387657368 54.9092
7.523599738562711 54.7503
7.545946944825532 55.1611
7.568311870344528 55.6239
7.5906770845765665 55.7633
7.613025156078678 56.7395
7.635390950099687 57.4583
7.657739602662809 56.9697
7.680105979923558 56.1541
7.702472650212829 56.6038
7.724822180948224 56.177
7.747189439655568 56.5501
7.769539560075357 56.2936
7.791907410653562 56.7515
7.81425812420825 56.925
7.836626570110925 57.3407
7.858995315087906 58.0376
7.881346924933401 58.1378
7.903716270417482 58.913000000000004
7.926068482028405 59.1783
7.948438431475253 59.5348
7.9708086843180235 60.4393
7.993161805171116 60.8392
8.015532667162402 61.4203
8.037886398416653 62.476000000000006
8.060257873014221 63.176
8.082629655331942 63.5811
8.104984308787587 64.3761
8.127356708900503 67.005
8.149711981398308 71.6945
8.172085002766314 73.5281
8.194458336181368 71.6379
8.216814543847752 69.8144
8.23918850371002 70.2562
8.26154533906492 70.8457
8.283919928836452 72.3975
8.306277395339652 73.5247
8.328652618483376 74.8197
8.351028159736202 77.0245
8.373386579575245 79.3513
8.395762759396959 80.9507
8.418121819038275 85.399
8.440498640894003 96.5184
8.462875785192262 107.87799999999999
8.485235811156207 126.509
8.507613602688501 177.812
8.529974277114228 272.033
8.552352719347912 417.564
8.574731488360351 702.8960000000001
8.59709314210385 1235.63
8.619472567021075 1859.86
8.64183487789147 2142.71
8.664214962183097 1793.74
8.686577933647762 1001.43
8.708958680784317 410.00199999999995
8.731339760774953 173.558
8.753703729764451 114.088
8.77608547780821 101.07
8.798450116065078 96.8275
8.820832535634787 93.6995
8.843215292401656 92.038
8.865580941199045 91.3529
8.887964374703538 90.5928
8.910330701447199 90.9712
8.932714815164482 92.1718
8.955099270424924 90.5799
8.977466620733543 88.0681
8.999851761421976 85.8534
9.022219798361645 84.709
9.04460562795561 84.8659
9.066991803441677 83.7774
9.089360876979615 84.08
9.111747746589993 83.8913
9.13411751544971 83.2364
9.156505082664324 82.5157
9.178875550323522 83.0399
9.20126381862328 83.1975
9.223652438908596 83.1888
9.246023961427412 83.2795
9.26841328802173 82.9789
9.290785518039224 82.7553
9.313175554425882 83.9688
9.335565947154315 83.8779
9.357939245086508 83.9825
9.380330352834827 84.3071
9.40270436697103 84.2817
9.425096193225055 84.3928
9.447488380180165 85.021
9.469863475295412 85.1495
9.492256385987508 85.735
9.514632206018318 86.3031
9.537025843935714 86.5213
9.559402392368193 87.1691
9.581796761000229 88.8409
9.604191496441521 89.6565
9.626569144158516 92.1525
9.648964615551032 95.6373
9.671343000390081 97.0576
9.693739211225699 95.4906
9.716135793237463 94.1529
9.738515290448102 94.177
9.760912617143402 95.1702
9.783292860202891 96.7837
9.805690935076182 97.9748
9.828089385495742 98.8973
9.850470754023561 101.43
9.872869957865444 107.48100000000001
9.89525208097539 118.34
9.917652041736662 127.89
9.940052382417589 131.122
9.962435644102392 147.312
9.984836746950979 192.47099999999998
10.007220771957746 258.901
10.029622640473708 367.648
10.052007432299963 559.847
10.074410069984072 859.3989999999999
10.096813093716005 1265.22
10.119199042482517 1666.81
10.141602840636468 1851.15
10.163989564971628 1555.84
10.186394141051062 917.577
10.208799107559706 418.36699999999996
10.231187001965623 195.918
10.253592751657669 129.731
10.275981430388155 114.928
10.298387966769793 112.98899999999999
10.320794897965431 113.92
10.343184759907361 112.331
10.36559248305461 108.226
10.387983138083852 105.456
10.410391656691655 110.881
10.432800574501677 122.62100000000001
10.455192425893369 140.161
10.47760214443012 167.592
10.499994797678786 214.389
10.522405320453982 293.934
10.54479877906917 403.272
10.567210109595656 500.87
10.5896218454736 545.562
10.612016518879773 482.525
10.634429067781074 339.952
10.656824555333241 205.74099999999999
10.679237920773568 126.73200000000001
10.701651695961992 97.556
10.724048411481384 89.9711
10.746463008485165 87.0285
10.768860546937125 85.4323
10.791275969274796 84.1304
10.81369180576079 82.9667
10.836090585366925 81.8069
10.858507252467449 80.7646
10.88090686379991 79.6822
10.903324365036394 78.8765
10.925724811614439 78.7583
10.948143150509463 79.561
10.970561909719066 78.5623
10.992963615930844 77.3183
11.015383218085756 75.3419
11.037785768347074 74.0308
11.06020621697282 73.3114
11.082627090322113 72.7241
11.105030913430326 72.3936
11.12745263854165 72.6365
11.149857314510728 74.8749
11.172279894912576 79.1068
11.194702904450653 78.5707
11.217108866490921 75.7783
11.239532736615194 72.8781
11.26193956033512 71.0639
11.284364294577085 69.9005
11.306789462371718 68.2335
11.329197585398376 67.6429
11.351623622610898 67.4673
11.37403261614354 66.9023
11.396459526308487 67.0271
11.418869393879497 66.1115
11.441297180532617 65.6354
11.463725406927658 65.3686
11.486136592353875 65.3589
11.508565700543707 65.4439
11.530977768845315 67.0414
11.553407762368774 67.5247
11.575838200059769 66.7831
11.598251599479612 65.4462
11.620682927815501 64.2263
11.64309721895548 63.9196
11.665529441478206 63.5862
11.687962112597958 63.5208
11.710377748130886 63.3946
11.732811318753434 63.6289
11.755227854859067 63.2456
11.777662328529495 63.1793
11.800079768750786 63.0039
11.822515149015453 62.7573
11.844950984084935 63.1813
11.867369787303163 62.693000000000005
11.889806534289491 63.1692
11.912226250487029 63.4083
11.934663912939751 63.4876
11.9571020346363 63.2213
11.979523127133968 63.528999999999996
12.001962169624331 64.4534
12.024384183972964 65.747
12.046824150809913 69.2725
12.069264581333726 74.601
12.091687985297767 80.9143
12.11412934550045 90.8044
12.136553680195208 106.492
12.158995973632788 129.694
12.181438735204349 155.966
12.20386447284199 181.322
12.226308172985636 198.328
12.24873485024193 193.801
12.271179492516982 164.985
12.293607112949127 131.084
12.316052700916226 96.7114
12.338498763250042 77.9881
12.360927805303868 69.6624
12.383374818673879 66.4027
12.405804812803074 65.205
12.428252780773262 64.8667
12.45070122756722 64.7989
12.473132656675375 64.4729
12.49558206341869 64.8548
12.518014453510101 64.9734
12.540464823770117 64.9762
12.562915677315177 65.1944
12.58534951575545 65.7614
12.607801338171472 67.4095
12.630236146511358 71.3131
12.652688941369085 74.4084
12.675124723177234 74.5266
12.697578494048786 72.2345
12.720032754458185 69.2894
12.742470003354093 68.0862
12.764925245138771 68.2627
12.787363476431278 68.5665
12.809819703166806 68.7445
12.83227642391173 69.3676
12.854716135692716 70.2618
12.877173846755147 71.6624
12.899614549869717 71.8686
12.9220732548287 72.6682
12.94453245827299 72.8529
12.966974655289818 73.9292
12.989434858002571 74.71
13.011878055298721 75.2956
13.034339260862497 76.5767
13.056800969391883 78.2568
13.079245674017244 80.4105
13.101708390774869 83.2132
13.12415410463411 91.3848
13.146617833206086 103.234
13.169064559883248 115.256
13.191529303857127 130.57299999999998
13.213994557076367 155.505
13.236442809902437 194.653
13.258909083908291 250.52900000000002
13.28135835851934 308.621
13.30382565690295 366.81199999999995
13.326293469022952 409.819
13.348744283242008 414.184
13.371213125129904 360.72900000000004
13.39366497011003 268.441
13.416134845360597 180.445
13.438605238843131 128.81799999999998
13.46105863690397 109.302
13.483530069144786 109.12100000000001
13.505984506951902 114.291
13.528456981549432 124.572
13.550929978879088 140.696
13.573385983253365 165.862
13.595860028340867 204.80599999999998
13.618317081455832 251.702
13.64079217790333 302.091
13.663250283359057 338.577
13.685726434770173 358.371
13.708203115221277 330.892
13.730662806148091 260.485
13.75314054697177 192.459
13.775601299246777 136.11700000000002
13.798080104050406 100.934
13.820559442405358 86.6921
13.843021793671388 82.6419
13.865502201420897 80.8413
13.887965623051947 80.1115
13.910447103807167 79.0869
13.932929122629764 77.7663
13.955394156785959 77.477
13.977877254034569 76.5528
14.000343367582113 75.7882
14.022827546871707 75.0926
14.045294743423524 74.2147
14.06778000837062 73.5514
14.090265817715476 73.2693
14.112734645763819 72.9396
14.13522154619454 72.7589
14.157691466286913 72.9328
14.180179461423874 72.404
14.202668005486178 72.2055
14.22513957064374 71.4208
14.247629214846473 71.0213
14.270101881097517 70.7116
14.29259262906496 70.9405
14.315083930490205 71.7548
14.337558255389705 71.4382
14.360050666019726 71.1616
14.382526101071944 70.5741
14.405019624534942 69.9312
14.427513705993134 69.3311
14.449990813291825 69.3642
14.47248601302899 69.3799
14.49496423954951 69.3437
14.517460561197822 69.5931
14.539939910570322 69.2787
14.562437357763558 69.5235
14.58493536931253 70.3991
14.607416409993311 71.021
14.62991555254159 71.7191
14.652397725157423 71.8332
14.674898002342799 71.4086
14.697398848433282 71.0726
14.719882725991326 71.8407
14.74238471217934 73.2524
14.764869730765593 77.0937
14.787372860692983 80.6078
14.809876564079925 85.2587
14.83236330125751 91.2815
14.854868153850365 100.671
14.877356041159485 115.287
14.899862046604186 133.972
14.922351087688757 158.482
14.944858249632887 183.40599999999998
14.967365991421232 205.158
14.989856770231246 214.732
15.012365673994204 212.41400000000002
15.03485761569738 185.731
15.05736768508665 151.516
15.07987833888692 117.68299999999999
15.102372032001655 93.5147
15.124883856909658 78.6092
15.14737872204565 73.4018
15.169891721717274 71.3359
15.192405310371893 71.029
15.214901940621196 71.0434
15.237416709527137 71.1167
15.259914520936249 71.0348
15.282430473753607 70.0819
15.304947020131227 69.1365
15.327446610371178 68.4162
15.349964346154254 67.5458
15.372465126703139 67.2829
15.394984055556009 67.0013
15.417486030076159 66.80199999999999
15.44000615566487 66.5614
15.462526881230803 66.6754
15.485030653812652 66.7508
15.507552581617434 66.7978
15.530057557334603 66.7333
15.55258069104857 66.6049
15.575104429329837 66.6057
15.597611216864632 66.3426
15.620136166564563 66.9312
15.6426441664095 68.1876
15.665170331202765 70.6977
15.687697105158826 73.7019
15.710206930593545 77.5081
15.732734925158933 81.6534
15.755245972089478 88.4254
15.77777519094324 98.3298
15.800287463046663 111.743
15.822817909869592 130.292
15.84534897229804 149.857
15.867863089299354 169.275
15.890395385222186 183.449
15.912910736597423 187.208
15.935444269699861 179.17
15.957978423016485 153.94799999999998
15.980495633101265 124.199
16.003031029129367 97.9345
16.02554948280019 78.436
16.048086125229432 68.6326
16.070623392487107 65.7054
16.09314371869582 64.4125
16.11568223789321 63.2778
16.13820381691126 62.4673
16.160743591742527 61.5319
16.183283996022084 60.9441
16.205807461423195 59.9514
16.228349126881973 59.4054
16.25087385432698 59.1743
16.27341678466365 58.6872
16.29594277784926 58.6216
16.31848697676433 58.7465
16.341031811604868 58.6481
16.36355971058487 59.0526
16.3861058195587 58.7257
16.40863499352978 57.6667
16.431182380342005 57.0406
16.453730407713202 56.4931
16.476261501364792 56.2761
16.498810812136167 55.9059
16.52134319004079 56.2549
16.54389378792203 56.0163
16.566445031001553 55.663999999999994
16.588979342490088 55.667
16.61153187824822 55.3577
16.634067483263312 55.2152
16.656621315414416 55.2006
16.679175797408888 54.7681
16.701713349928728 54.7494
16.72426913389191 55.3323
16.74680798922351 55.3459
16.76936507887444 55.411
16.791905240734874 55.43
16.814463639794468 55.3539
16.837022695210294 55.2127
16.859564824093756 55.6885
16.882125194503903 56.2202
16.904668639217885 56.6766
16.927230328348003 56.6583
16.949792678493612 56.738
16.972338104193863 56.373000000000005
16.994901778652235 56.1284
17.017448529496576 55.9611
17.040013531998152 56.3391
17.06257920018044 56.9832
17.0851279459922 57.7796
17.107694947817667 58.4577
17.130245028099072 59.0696
17.15281336730298 60.6245
17.17536478578733 62.5389
17.19793446610687 64.9098
17.220504818648422 67.7951
17.243058251703697 71.1481
17.265629950971032 75.0757
17.288184731571736 78.2894
17.310757781306908 81.4156
17.33333150794385 83.6737
17.355888317140174 81.8093
17.37846339986244 78.1942
17.401021565958885 72.5229
17.42359800851343 66.9924
17.44617513265564 63.2548
17.468735341390783 60.6593
17.491261035594565 59.6662
17.51396340099364 59.3809
17.536490463869136 59.525
17.559018209820174 59.5347
17.58154663977963 59.5729
17.604251766089718 59.8348
17.626781572227713 60.2465
17.64931206518155 60.3293
17.671843245885103 60.9437
17.69455114821572 60.9962
17.717083712612634 61.3878
17.739616967569667 61.5411
17.762150914021706 61.9418
17.78486160749854 61.9166
17.807396945166804 62.5752
17.829932977143503 63.808
17.85246970436452 65.4616
17.875183204129467 67.4065
17.897721330097664 69.4448
17.920260154126645 71.8816
17.942799677153296 75.2355
17.9655159983646 78.9964
17.988056927677544 85.0221
18.010598558807683 92.7669
18.033140892692916 102.54899999999999
18.05586005052525 112.065
18.07840379824407 121.906
18.10094825154059 130.64
18.12366954819864 137.287
18.146215420998306 138.151
18.16876200220057 131.619
18.191309292745153 119.20200000000001
18.214033452627167 106.085
18.236582170236648 94.9272
18.259131600016456 89.1967
18.281681742907335 88.8776
18.304408781233683 92.2279
18.32696035875955 96.0702
18.349512652227624 100.0
18.372065662579683 103.39
18.394795594587553 104.508
18.41735004715306 102.82
18.43990521943684 96.3948
18.46246111238171 88.0383
18.485193953325208 79.2017
18.507751296070428 71.3448
18.530309362314178 66.8317
18.552868153000343 64.263
18.57560391815056 62.6386
18.59816416623245 62.2719
18.620725141597372 61.7558
18.643286845190268 61.2527
18.666025549835414 60.8123
18.688588718427933 60.4271
18.711152618092243 60.1485
18.73389353884365 60.1264
18.75645890921984 59.4546
18.77902501351406 59.1779
18.801591852673102 59.1427
18.824335739722738 58.605
18.846904057212626 58.5172
18.8694731124168 58.3229
18.89204290628315 58.2151
18.914789774966803 57.93
18.937361054791623 57.4562
18.959933076131318 57.61600000000001
18.982505839934877 57.6027
19.00525570560582 57.705
19.027829963004184 57.4796
19.05040496572238 57.5252
19.072980714710468 57.6398
19.095733592739563 57.7803
19.11831084296757 58.1218
19.140888842324735 58.4255
19.16346759176222 58.5992
19.18622349753803 59.1839
19.208803755869358 60.2024
19.231384767143577 61.2748
19.253966532312948 62.8872
19.276725481241822 65.0222
19.29930876296784 67.3328
19.3218928014549 70.0924
19.34465404436217 72.6142
19.36723960516257 74.5944
19.389825925592426 75.4539
19.412413006605938 74.9893
19.43517731967805 72.3011
19.457765930683355 68.3912
19.48035530514408 64.1529
19.50294544401556 60.2658
19.525712842708348 57.7084
19.54830451925909 55.9144
19.570896963095727 54.7529
19.593490175174704 54.2847
19.616260674962184 54.3217
19.638855432416964 53.9336
19.661450960992624 53.9951
19.68404726164677 53.8919
19.706820878021247 53.9029
19.729418731756834 54.0733
19.752017360452857 53.5837
19.77461676506804 53.8201
19.797393513540218 54.0676
19.819994478951667 54.4264
19.84259622316767 54.9455
19.8651987471481 55.2987
19.887978643247177 55.49100000000001
19.91058273574792 56.1118
19.933187610901943 56.9767
19.955969879466828 58.1586
19.97857632894404 59.6629
20.00118356396599 61.1227
20.023791585494575 63.1191
20.046577028914875 65.6
20.069186632506966 67.2263
20.091797025500632 68.6821
20.114408208858933 69.5471
20.137196842715273 69.4087
20.159809615886765 68.3104
20.18242318232135 66.1198
20.20503754298326 64.3589
20.227829382875154 63.4936
20.250445341109344 63.128
20.27306209647285 63.3138
20.29567964993108 64.02600000000001
20.31847471147704 64.9185
20.34109387027612 65.2091
20.363713830075454 65.2011
20.386334591841646 64.1421
20.409132890679302 61.8622
20.431755265564437 59.0539
20.454378445325528 56.3338
20.477002430930366 54.4266
20.499803982716553 52.9936
20.522429589228004 52.1367
20.54505600449589 51.3175
20.567683229489194 51.1764
20.590488049900088 50.773999999999994
20.61311690359731 50.5822
20.63574656993626 50.3282
20.658553853717297 49.9906
20.681185154618298 50.0747
20.703817271080066 50.0134
20.72645020407368 49.6532
20.749260783967177 49.4392
20.771895359337133 49.4531
20.794530754161617 49.3991
20.817166969412938 49.3936
20.83998086114876 49.1665
20.86261872660049 49.1482
20.885257415405402 49.0423
20.90789692853701 48.9735
20.930714147864748 48.897
20.953355319030678 48.9681
20.97599731745334 49.0289
20.99864014410749 49.1099
21.021460706796564 49.2213
21.044105199328826 49.2978
21.06675052302631 49.3938
21.089396678865015 49.65
21.112220600704806 49.9287
21.134868430275347 50.205
21.15751709492456 50.556999999999995
21.180166595629693 50.7154
21.202993892429635 51.1842
21.22564507473034 51.5104
21.24829709602816 51.8241
21.27112693608965 51.6964
21.293780644891275 51.7067
21.316435195634053 51.0658
21.339090589297417 50.4249
21.361923832041875 50.0412
21.384580921090404 49.3504
21.407238856007325 48.8489
21.429897637773326 48.7782
21.45273429906592 48.8226
21.475394784108598 48.8021
21.498056118951983 48.8041
21.520718304578022 48.9991
21.543558400304388 49.0676
21.566222297108816 49.339
21.58888704765135 49.3876
21.61155265291521 49.6291
21.63439619898156 50.1222
21.657063523335786 50.1941
21.67973170537063 51.03
21.7024007460706 51.2853
21.72524775840385 52.1826
21.747918526116475 53.5098
21.770590155457388 54.6225
21.79326264741238 56.0818
21.816113141960237 57.9906
21.838787368860547 59.6292
21.861462461341976 61.2658
21.884315579735777 62.7037
21.90699241312273 63.61600000000001
21.92967011506078 64.4378
21.95234868653799 64.4617
21.9752053151131 63.4156
21.997885635446785 61.9613
22.020566828293532 60.1868
22.04324889464272 58.5367
22.066109049404666 57.1279
22.088792872571794 56.3139
22.111477572219204 56.3156
22.1341631493376 56.2574
22.157026846313123 56.2374
22.179714188221507 55.588
22.202402410582668 54.5835
22.22509151438863 53.3484
22.24795876962584 51.9578
22.270649646204486 51.0504
22.293341407213727 50.2587
22.316034053646906 49.9059
22.338904883215342 49.4225
22.36159931041458 49.379
22.38429462602756 49.3519
22.40699083104897 49.1241
22.429865251039757 49.2232
22.452563244831367 49.108000000000004
22.47526213102522 49.2407
22.49813925616515 49.06
22.520839937143307 49.0351
22.543541513520587 49.0896
22.56624398629403 48.8274
22.589124730075895 48.8971
22.611829005656723 49.1753
22.63453418063466 49.2034
22.657240256008077 49.3117
22.680124634582935 49.5248
22.70283252079775 49.7344
22.725541310413075 49.995
22.74825100442868 50.2464
22.771139033969575 50.6404
22.79385054687155 50.8079
22.81656296718292 51.6335
22.83927629590484 52.6124
22.862167992606945 53.5359
22.88488314827121 54.7113
22.907599215359284 55.364
22.93031619487366 56.2802
22.953211574954405 56.9414
22.975930389478226 57.7153
22.998650119445763 58.0245
23.02137076586092 57.5501
23.044269845560063 56.4001
23.06699233506288 55.09
23.089715744034912 53.3792
23.112617610931565 51.7511
23.135342869061212 50.5407
23.158069049684816 49.7867
23.1807961538087 49.2949
23.20370174880544 49.2269
23.226430710184808 49.167
23.249160598093425 49.2134
23.271891413539002 49.3357
23.294800752937697 49.3324
23.31753343374794 49.3878
23.340267045128353 49.4336
23.36300158808808 49.9715
23.38591468821339 50.4312
23.408651104658304 50.9193
23.431388455719986 51.477
23.454126742409 52.2877
23.4770436196085 53.5321
23.499783787914662 54.4551
23.522524894889884 55.2121
23.54526694154616 55.9493
23.56818761219047 56.9536
23.59093154860734 57.2542
23.613676427751283 57.908
23.636422250635754 57.1579
23.659346731118656 56.0065
23.68209445191868 54.3048
23.704843119509587 52.2336
23.72759273490623 50.266000000000005
23.750521041644767 48.806000000000004
23.77327256312355 47.7982
23.796025035462787 47.0276
23.818956224555475 46.3942
23.841710609113413 46.5744
23.86446594758979 46.0943
23.887222241002014 45.8372
23.910157285144578 45.5998
23.932915498962537 45.6122
23.955674670778713 45.2612
23.978434801611975 45.1792
24.001373717286125 44.9988
24.024135776723917 45.0836
24.046898798245582 44.8541
24.06966278287146 44.7738
24.092605586582614 44.6252
24.115371508023642 44.5518
24.1381383956401 44.358000000000004
24.16090625045381 44.3474
24.183852958731244 44.2937
24.206622758582608 44.2382
24.229393528706886 44.0415
24.252165270127392 44.068999999999996
24.27511589952438 43.9633
24.297889594216997 43.7926
24.32066426328598 43.6108
24.34343990775613 43.6618
24.36639447485003 43.4919
24.38917208083877 43.3664
24.41195066531332 43.3307
24.43490819850244 43.3838
24.457688750692377 43.3233
24.48047028445616 43.3125
24.503252800821233 43.4994
24.526214300784112 43.4374
24.548998793132213 43.2525
24.57178427117417 43.5221
24.59457073593893 43.2729
24.617536219319863 43.2348
24.64032466834748 43.2143
24.663114107195035 43.04600000000001
24.685904536893013 42.8822
24.708874020360852 42.8836
24.731666442613744 42.7987
24.754459858818787 42.7985
24.777254270007962 42.6864
24.80022777025625 42.5771
24.82302418230472 42.4751
24.845821592443674 42.6308
24.86862000170663 42.5262
24.891597535453727 42.3972
24.914397953892728 42.5231
24.93719937456671 42.3873
24.96000179851076 42.6796
24.98298338249997 42.9787
25.00578782394922 43.106
25.028593271784167 43.1522
25.05157790644186 43.5266
25.07438537804115 43.7251
25.097193859145293 43.8411
25.120003350792075 44.0211
25.142992065061257 44.3987
25.165803588823465 44.6683
25.18861612625217 44.9698
25.211429678386736 44.9537
25.234422489079968 45.1428
25.257238081693636 45.1068
25.280054692141732 45.2885
25.3028723214652 45.2056
25.325869245420463 45.2389
25.348688923599397 45.2502
25.371509623787006 45.1082
25.394331347025812 45.0024
25.41733240110666 44.5762
25.440156181590016 43.9362
25.46298098826268 43.3605
25.48580682216873 42.9126
25.50881202326435 42.2159
25.53163992281684 41.8941
25.55446885274561 41.6304
25.577298814096377 41.1862
25.600308179121807 41.2317
25.623140214533745 41.2689
25.64597328451537 41.0409
25.66898578564376 41.0104
25.691820936010206 40.9658
25.714657124097695 40.8891
25.737494350954734 40.9074
25.760511045684957 40.7575
25.783350361364224 40.867
25.806190718969255 40.8347
25.82903211955018 40.972
25.852053024868923 41.0336
25.874896522722523 40.9929
25.897741066713106 41.0388
25.920586657892454 41.0145
25.943611790812668 41.0463
25.966459487728237 41.2767
25.989308234998564 41.3173
26.01215803367705 41.6999
26.03518741123814 41.7493
26.05803932412957 41.8426
26.080892291600094 41.7179
26.10374631470478 41.8218
26.12677995397268 41.981
26.14963609978026 41.946999999999996
26.172493304397875 41.6335
26.19535156888223 41.2609
26.218389486949604 41.1154
26.241249882640123 41.0577
26.26411134137826 40.8675
26.28715248187403 40.7358
26.31001607820869 40.4515
26.3328807407756 40.1944
26.35574647063438 40.437
26.37879191991473 40.4851
26.401659795896734 40.3402
26.424528742360263 40.5487
26.447398760366614 40.8862
26.470448535598294 40.8277
26.49332070826805 41.1274
26.516193955675355 41.4269
26.53906827888316 41.5934
26.562122397260108 41.7242
26.584998883685063 41.9771
26.607876449110325 42.1878
26.63075509460056 42.4744
26.65381357334404 42.4521
26.67669439061878 42.4895
26.699576291163382 42.37
26.722459276044212 42.3148
26.745522132402975 42.0129
26.768407297649354 41.8872
26.791293550442003 41.4572
26.814180891848974 41.1099
26.837248143099337 40.8769
26.860137673466657 40.6122
26.88302829566349 40.422
26.90592001075963 40.3951
26.92899167420566 40.1548
26.951885586870763 39.7845
26.974780595655517 39.6104
26.99785558178161 39.548
27.020752794605112 39.2807
27.043651106772522 39.1705
27.06655051935668 39.1761
27.089629948036183 39.027
27.112531573292053 38.9484
27.135434302194138 39.0968
27.158338135817015 38.8733
27.181422024430987 38.9824
27.204328079372566 38.7091
27.22723524226965 38.8764
27.250143514198573 38.8563
27.273231880156334 38.8593
27.296142382065014 38.6407
27.319053996245536 38.6893
27.341966723775965 38.6555
27.365059584515222 38.8522
27.38797455070062 38.849000000000004
27.410890633481237 38.6849
27.433807833936918 38.6992
27.456905206923906 38.7908
27.47982465472398 38.7544
27.502745223449743 38.8451
27.525666914182825 38.9453
27.548768816912457 38.8145
27.571692763693633 38.8006
27.59461783573812 38.605
27.617723149491244 38.5238
27.640650484125285 38.4675
27.66357894728264 38.4459
27.686508540048052 38.3764
27.709618414237887 38.3512
27.732550278321757 38.1981
27.755483275279115 38.0067
27.778417406196485 38.1697
27.801531858397514 38.1997
27.824468269376716 38.1066
27.847405817586786 38.1181
27.870344504116094 38.2858
27.893463551932008 38.4972
27.916404527281053 38.5824
27.93934664422563 38.6547
27.962289903855886 38.7932
27.98541356491974 39.0042
28.00835912214229 39.0432
28.03130582533231 39.2599
28.054253675581805 39.364000000000004
28.077381967556104 39.1945
28.100332124185126 39.2394
28.123283431160893 39.1042
28.146235889577238 39.0707
28.169368830154156 38.8917
28.192323603752033 38.8291
28.215279532083304 38.5056
28.238415973016764 38.1698
28.261374223145094 38.0465
28.284333631303806 37.7354
28.307294198589954 37.7693
28.330435319167677 37.5167
28.353398217078915 37.2128
28.376362277420153 36.9112
28.39932750129032 36.8693
28.422473319286713 36.7079
28.44544088262495 36.5807
28.468409612800283 36.5184
28.491379510913497 36.2688
28.51453004413313 36.1739
28.53750229057244 36.2082
28.56047570826344 36.1164
28.583450298308804 36.2003
28.606605564586562 36.003
28.629582511831156 36.0592
28.65256063474956 35.8664
28.675539934446338 35.9936
28.698699951647605 35.9762
28.72168161743193 35.7423
28.74466446331978 35.8055
28.767648490417624 35.7418
28.790813276438353 35.7058
28.813799678527303 35.739000000000004
28.836787265157085 35.6634
28.859955641890075 35.6655
28.882945610203045 35.71
28.905936766392035 35.5949
28.928929111566863 35.5578
28.952102288520145 35.5068
28.975097024308607 35.2825
28.998092952423807 35.2899
29.021090073977508 35.1414
29.04426806913204 35.208
29.067267590245258 35.0441
29.090268308143695 34.8549
29.11327022394099 34.7936
29.13645305530891 34.7635
29.159457379627167 34.7687
29.18246290519685 34.6497
29.20546963313352 34.5861
29.22865731875826 34.6303
29.25166646419296 34.5791
29.27467681535305 34.5039
29.29768837335608 34.4933
29.320880931312562 34.6254
29.34389491580634 34.4585
29.366910110507334 34.4433
29.38992651653503 34.4912
29.41312396492981 34.5142
29.436142806456754 34.3764
29.45916286268059 34.2709
29.48236399319994 34.2333
29.50538649169417 34.086
29.528410208259935 33.9727
29.55143514402014 33.8931
29.574641196749695 33.7249
29.597668583816574 33.5083
29.6206971934585 33.4139
29.64372702680042 33.3634
29.666938019934474 33.288000000000004
29.689970313635285 33.2739
29.713003834422636 33.2335
29.73603858342347 33.1804
29.759254535188578 32.9722
29.78229175361658 33.1163
29.80533020365064 33.1341
29.82836988641968 33.2035
29.85159081507472 33.1214
29.874632976355343 32.8842
29.89767637376955 33.0226
29.920721008448314 32.9182
29.9439469322847 32.8496
29.96699405457564 32.8221
29.9900424175358 32.7695
30.013092022298157 32.7317
30.03632295963995 32.6729
30.059375061131373 32.7257
30.08242840783577 32.8004
30.105483000888153 32.7159
30.128718970092244 32.5078
30.151776069006917 32.6382
30.17483441768648 32.7693
30.198074175317235 32.5848
30.221135036724256 32.704
30.24419715131772 32.5522
30.267260520236203 32.4213
30.290505341942243 32.5847
30.313571232750228 32.5696
30.336638381310948 32.4974
30.35970678876503 32.5589
30.38295669299435 32.499
30.40602763151657 32.3155
30.429099832366074 32.4584
30.452173296685572 32.3565
30.47542830191959 32.3007
30.498504306502497 32.2843
30.521581577995562 32.4112
30.544660117543582 32.3189
30.56792024229725 32.3183
30.59100133132069 32.4577
30.614083691845494 32.4272
30.637167325018545 32.458
30.660432587840603 32.5096
30.683518779717886 32.4276
30.70660624769615 32.3472
30.729694992924372 32.4608
30.75296541239743 32.4208
30.77605672557558 32.3591
30.799149319462742 32.2339
30.8224236211637 32.1715
30.845518789950724 32.2031
30.868615242910597 31.9721
30.891712981195973 31.88
30.91499247215866 31.8902
30.938092794619365 31.8107
30.96119440587579 31.6877
30.984297307082752 31.6358
31.00758200598383 31.51
31.030687500658694 31.4392
31.053794288760695 31.3983
31.076902371446767 31.2974
31.100192296997445 31.2756
31.12330298246119 31.3087
31.14641496599209 31.2358
31.169528248749216 31.2838
31.19282341969534 31.1587
31.215939314557186 31.1189
31.239056512134788 31.1536
31.262175013589378 31.0176
31.28547544871168 31.0486
31.30859657161541 30.978
31.331719001892175 30.9661
31.35484274070538 31.1148
31.378148458819545 31.2791
31.401274828443725 31.1053
31.424402510106933 31.1306
31.447712205419993 31.1683
31.470842524931633 30.9954
31.493974159989783 31.0992
31.51710711176168 31.0866
31.54042212308802 31.0945
31.563557722100917 31.0914
31.586694641341655 30.801
31.609832881979628 30.7388
31.63315322823208 30.7229
31.656294125521327 30.6389
31.679436347728515 30.6007
31.70257989602529 30.5061
31.725905596152327 30.5336
31.74905181052835 30.3504
31.772199354521323 30.3707
31.79534822930507 30.3664
31.818679302290967 30.4584
31.84183085259981 30.35
31.864983737233473 30.3519
31.88813795736804 30.3136
31.911474422233013 30.1353
31.934631327356435 30.2052
31.9577895715215 30.2358
31.980949155906522 30.3609
32.004291031706956 30.1776
32.027453310562606 30.1566
32.05061693318573 29.9454
32.07396288236386 30.0841
32.09712920658542 29.9306
32.12029687812702 29.8408
32.14346589817093 29.8409
32.166817291729984 29.7143
32.18998902288583 29.615
32.21316210610336 29.6737
32.23633654256711 29.5382
32.259693399663725 29.4637
32.282870556771144 29.4544
32.30604907069099 29.3313
32.329228942610065 29.3559
32.35259128243769 29.1885
32.375773884550505 29.1401
32.398957848235646 29.0983
32.422143174682176 29.1221
32.445511016471215 29.0178
32.468699082679954 29.0165
32.49188851523011 28.9222
32.51507931531304 28.8131
32.538452678331 28.8038
32.56164622776311 28.6844
32.58484114831493 28.7137
32.60803744118015 28.6437
32.631416344731896 28.7282
32.654615396551876 28.7088
32.67781582427913 28.6285
32.701198898634416 28.5991
32.72440209253756 28.434
32.747606665947124 28.4714
32.77081262006088 28.3644
32.79420126883317 28.4102
32.81740999876112 28.3911
32.840620112999424 28.2699
32.86383161274818 28.2334
32.88722585534586 28.2277
32.91044014056596 28.3805
32.933655814909734 28.2145
32.95687287957963 28.1713
32.98027273544904 28.0808
33.00349259526636 28.0958
33.026713849030116 28.1726
33.04993649794511 28.1145
33.073341986570746 28.1106
33.09656744032826 27.9915
33.11979429286444 27.9788
33.14302254538647 28.0154
33.166433686291185 27.8537
33.18966475336992 27.831
33.212897224069096 27.8301
33.23613109959831 27.8032
33.259547912343415 27.758000000000003
33.2827846121627 27.763
33.306022720453775 27.6827
33.32926223842861 27.6831
33.352684742614166 27.6471
33.37592709463173 27.4839
33.399170859982064 27.5032
33.422597648419426 27.4138
33.44584425514446 27.3736
33.46909227885668 27.3573
33.4923417207723 27.2736
33.51577423505344 27.3122
33.539026528130385 27.1348
33.56228024307245 27.0962
33.585535381098246 27.0062
33.60897364093058 26.9619
33.63223163992385 27.0112
33.6554910656699 26.8657
33.678751919389796 26.8371
33.702195944520106 26.7651
33.72545966903325 26.8368
33.74872482519663 26.7093
33.771991414233746 26.7578
33.79544122444841 26.6839
33.81871069412428 26.6738
33.84198160035767 26.6814
33.86525394437455 26.6731
33.88870955949969 26.6059
33.911984794020626 26.4539
33.93526147001624 26.4212
33.958539588715006 26.3557
33.98200102861669 26.2988
34.0052820477047 26.3044
34.02856451319451 26.2796
34.05203033759056 26.1517
34.07531571090147 26.1758
34.09860253431845 26.2958
34.121890809074316 26.1379
34.145362493118924 26.0691
34.16865368561615 26.0131
34.191946333164054 26.0137
34.21524043699793 25.9715
34.23871800066799 25.9436
34.26201503218366 25.9191
34.28531352370466 25.843000000000004
34.30861347646881 25.8166
34.33209693978188 25.6906
34.3553998301885 25.6962
34.378704185565205 25.6545
34.402010007152356 25.5868
34.42549939016683 25.6236
34.44880815937748 25.5823
34.472118398533134 25.3967
34.49543010887669 25.3649
34.51892543169198 25.3365
34.54224009966052 25.3321
34.56555624255917 25.3608
34.58887386163339 25.2595
34.61237514439016 25.1536
34.6356957311114 25.1096
34.65901779775809 25.1479
34.68252356662995 25.1404
34.705848608458616 25.1227
34.72917513396849 25.0368
34.75250314440949 25.0447
34.77601490857862 25.0128
34.799345904259795 24.9066
34.82267838863559 24.88
34.846012362958525 24.839000000000002
34.869530142679984 24.8841
34.89286711232212 24.8103
34.91620557568269 24.8012
34.93954553401677 24.6441
34.9630693495876 24.7086
34.986412313340814 24.6653
35.00975677584668 24.7143
35.033102738362956 24.6536
35.05663261012228 24.5198
35.0799815881786 24.5455
35.10333207003229 24.5116
35.12668405694369 24.5103
35.150220005273056 24.4457
35.17357501786656 24.4861
35.19693153931268 24.4015
35.220289570874385 24.3278
35.24383161619786 24.3554
35.267192683604904 24.2863
35.290555264930376 24.2599
35.314101899412165 24.2937
35.33746752422433 24.254
35.36083466676374 24.2253
35.38420332829803 24.1591
35.407756095629054 24.2093
35.43112781085063 24.1596
35.45450104888391 24.1791
35.477875810999194 24.116
35.50143473172161 24.0363
35.52481255774625 24.1003
35.54819191167777 24.0452
35.57157279478914 23.939
35.595137889488406 23.8789
35.61852184675279 23.8797
35.641907337029984 23.7776
35.665294361595684 23.7652
35.68886565090076 23.7425
35.7122557598848 23.7711
35.73564740699838 23.7217
35.759040593519934 23.5854
35.78261809810353 23.6499
35.80601437933051 23.5145
35.829412203814705 23.4482
35.85281157283719 23.4731
35.876395313415884 23.3984
35.8997977874528 23.2914
35.92320180988546 23.3479
35.946790244133936 23.2005
35.97019737933222 23.2537
35.993606066789866 23.2391
36.01701630779276 23.1966
36.04061101440684 23.1915
36.06402437852291 23.1684
36.08743930005611 23.1999
36.1108557802951 23.0578
36.13445678011326 23.0993
36.15787639383515 23.0572
36.18129757014299 22.9535
36.20472031032821 22.9547
36.22832762423364 22.8794
36.25175350829375 22.9117
36.275180960119776 22.7828
36.298609981005924 22.7918
36.32222362992669 22.8341
36.34565580510207 22.8332
36.36908955323448 22.7142
36.39252487562093 22.5928
36.416144880530226 22.558000000000003
36.43958336764275 22.6205
36.463023432914625 22.588
36.486465077645676 22.4939
36.51009145956204 22.613000000000003
36.53353627947859 22.5536
36.55698268276811 22.4882
36.58043067073321 22.426
36.60406345072071 22.3312
36.62751462435344 22.2869
36.65096738658405 22.3414
36.67460498210655 22.3304
36.69806093788647 22.3027
36.72151848619297 22.2416
36.744977628333636 22.1836
36.76862165890998 22.0839
36.79208400512205 22.1937
36.81554794910557 22.247
36.83901349217101 22.0372
36.862663978991606 21.9743
36.88613273667352 22.0217
36.90960309738324 21.9873
36.933075062434064 21.8775
36.95673202673572 21.8765
36.98020721697122 21.8489
37.003684015502365 21.7251
37.027162423645365 21.6914
37.050825886711465 21.7593
37.07430753063053 21.6523
37.09779078812467 21.6586
37.121275660513014 21.6574
37.144945643673694 21.5601
37.16843376245278 21.5038
37.19192350009803 21.5877
37.215414857931435 21.5288
37.239091382563885 21.4295
37.262585997426164 21.4411
37.28608223645736 21.4856
37.309763684451696 21.3737
37.33326318851098 21.3331
37.356764320726555 21.3219
37.380267082425526 21.3099
37.40395510942588 21.2198
37.42746114683234 21.1998
37.45096881771841 21.1854
37.474478123414166 21.1363
37.49817275092816 21.0692
37.52168534303452 21.055
37.54519957395567 20.9898
37.568715445024665 20.9506
37.592416694607714 20.932
37.61593586281424 20.9479
37.63945667518264 20.9759
37.66297913304891 20.9068
37.68668702630454 20.8616
37.710212792059274 20.7735
37.733740207334854 20.8064
37.757269273470364 20.7225
37.780983832050374 20.6364
37.80451621684926 20.6779
37.82805025654007 20.601999999999997
37.851585952464795 20.6278
37.8753071980695 20.5984
37.89884622345676 20.5441
37.92238690911902 20.4596
37.94611318753442 20.4219
37.969657210779765 20.4151
37.99320289834801 20.4461
38.016750251586465 20.3805
38.04048325513017 20.2889
38.06403395679343 20.339000000000002
38.087586328183946 20.2524
38.11114037065203 20.2352
38.13488012115898 20.2518
38.1584375229181 20.1648
38.181996599821 20.1249
38.205557353221124 20.0859
38.229303872575656 20.0
38.2528679961576 20.0368
38.27643380031219 20.0062
38.30000128639589 20.0261
38.32375459653193 20.0328
38.34732546371299 19.919
38.37089801690786 19.8787
38.39447225747609 19.8548
38.418232380377425 19.8316
38.441810012983396 19.8071
38.46538933705673 19.750999999999998
38.488970353960084 19.6902
38.51273731166058 19.6677
38.536321731567014 19.6573
38.55990784840681 19.5863
38.58367995004091 19.6129
38.60726947812959 19.5412
38.63086070726198 19.4923
38.654453638806274 19.5829
38.678232613930824 19.5143
38.70182896773327 19.4546
38.72542702806741 19.4299
38.7490267963045 19.39
38.77281266709232 19.3272
38.79641586862214 19.324
38.8200207821842 19.2704
38.843627409152944 19.2639
38.86742019782782 19.305999999999997
38.891030269149255 19.2341
38.914642058016156 19.1886
38.938255565806124 19.1685
38.96205529464307 19.0754
38.98567225787121 19.104
39.00929094417078 19.0726
39.03291135492255 19.0395
39.05671804624804 19.0512
39.080341923549106 18.9286
39.103967529460334 18.9125
39.127594865365744 18.8869
39.15140854155791 18.89
39.17503935514948 18.8167
39.19867190290282 18.8776
39.22249083587951 18.8258
39.24612686969409 18.737000000000002
39.269764641845306 18.7609
39.293404153722804 18.6645
39.317230110864074 18.6597
39.34087311998506 18.6043
39.36451787301696 18.5873
39.388164371352595 18.5191
39.41199737518003 18.5246
39.43564738196752 18.5267
39.45929913825317 18.4058
39.48295264543308 18.4245
39.506792718520884 18.4047
39.530449745387216 18.4115
39.55410852735203 18.385
39.57776906581474 18.4037
39.60161623079 18.372
39.625280300200025 18.2546
39.64894613032202 18.2666
39.67261372255866 18.234
39.6964680021016 18.2533
39.72013913657293 18.1598
39.74381203738292 18.1811
39.76748670593756 18.1362
39.79134812278169 18.0643
39.81502634488497 18.0736
39.83870633896685 18.0418
39.862388106436654 17.9304
39.88625668336918 17.9583
39.90994201572829 18.0176
39.933629125719285 17.9125
39.957503091207826 17.8439
39.9811937746168 17.9222
40.00488623990914 17.8058
40.02858048850006 17.7745
40.05246165409549 17.7887
40.076159487492085 17.7353
40.099859108448875 17.7094
40.123560518384345 17.6666
40.1474489070226 17.6681
40.171153913178564 17.6123
40.194860712584955 17.5969
40.2185693066637 17.644000000000002
40.242464941335314 17.5251
40.26617714307655 17.5429
40.289891143772046 17.4817
40.3136069448471 17.4737
40.33750984859743 17.5039
40.3612292688043 17.437
40.3849504936829 17.3451
40.40867352466194 17.3759
40.43258372059144 17.3231
40.45631038219906 17.2873
40.48003885420956 17.2183
40.503769138055105 17.192
40.52768664931955 17.256
40.55142057531802 17.239
40.57515631746428 17.186
40.599079334038514 17.1151
40.62281872700477 17.0322
40.64655994043941 17.0575
40.67030297578061 17.0732
40.69423334835778 17.0311
40.71798004609188 17.018
40.74172857006355 16.9373
40.76547892171441 16.935
40.7894166736039 16.886
40.813170699248566 16.8611
40.83692655691388 16.899
40.86068424804498 16.8781
40.884629402612525 16.8254
40.908390779366385 16.7979
40.932153993938 16.7807
40.95591904777605 16.718
40.979871628443995 16.7237
41.003640379561936 16.727999999999998
41.02741097430883 16.6825
41.05118341413683 16.5783
41.075143444384416 16.5604
41.098919593177826 16.5663
41.1226975914255 16.557000000000002
41.14647744058318 16.5297
41.170444943946755 16.4388
41.19422851378379 16.4989
41.218013938914645 16.4271
41.24198706625173 16.3694
41.26577622087193 16.3623
41.289567235177785 16.2737
41.31336011063129 16.2589
41.337340752422875 16.2883
41.361137369129835 16.2471
41.38493585138705 16.2754
41.40873620066004 16.1881
41.43272438060107 16.1936
41.45652848292052 16.1195
41.48033445666918 16.1159
41.50414230331616 16.0869
41.528138045159764 16.0913
41.551949656675205 16.0552
41.575763145513235 16.0309
41.59957851314666 15.9502
41.62358184070442 15.9515
41.64740098505737 15.8764
41.6712220126409 15.9001
41.69504492493139 15.9363
41.71905586207357 15.847999999999999
41.74288256296395 15.7687
41.766711153007456 15.7727
41.79054163368412 15.7829
41.814560204340054 15.7562
41.838394485526365 15.7789
41.86223066180303 15.6448
41.88625497706819 15.6318
41.910094962812 15.6451
41.93393684811168 15.6824
41.95778063445365 15.5672
41.981812625263366 15.5647
42.00566023303407 15.5462
42.029509746323676 15.5003
42.05336116662236 15.4575
42.077400857069705 15.4807
42.10125611078846 15.4259
42.12511327600405 15.3811
42.14897235421036 15.4381
42.173019768448455 15.3665
42.19688269209613 15.3018
42.22074753323349 15.3027
42.24461429335818 15.2997
42.268669455600495 15.2262
42.292540073217886 15.235999999999999
42.31641261433284 15.1754
42.34028708044675 15.1654
42.36435001496739 15.1512
42.38822835065557 15.1406
42.41210861586426 15.1324
42.4359908120986 15.0648
42.46006154323262 15.0727
42.48394762115317 15.0034
42.507835634632315 15.008
42.531912233047436 15.0659
42.55580413732265 14.9455
42.579697981698 14.9152
42.60359376768525 14.93
42.62767820545945 14.9083
42.65157789440821 14.8597
42.67547952952185 14.8216
42.699383112316 14.7918
42.72347541395347 14.7237
42.74738291190531 14.7083
42.771292362102166 14.7351
42.795203766063516 14.7223
42.819303956130405 14.685
42.843219287476536 14.66
42.86713657716324 14.6493
42.89105582671383 14.6032
42.91516392983864 14.5809
42.939087119032166 14.5339
42.963012272677304 14.5236
42.98693939230129 14.4522
43.01105543317513 14.4462
43.034986504731386 14.4614
43.05891954686589 14.4214
43.08285456110972 14.4739
43.10697856448665 14.3444
43.130917542983475 14.3033
43.15485849820081 14.3347
43.17880143167367 14.3357
43.20293342237094 14.2392
43.226880332449 14.2103
43.25082922540554 14.2062
43.27496722682525 14.1771
43.29892010567796 14.182
43.32287497204102 14.1438
43.34683182745632 14.0856
43.370977859791836 14.1152
43.39493871351105 14.11
43.41890156092628 14.0846
43.44286640358341 14.0447
43.46702049182749 14.0136
43.49098934522816 13.9925
43.51496019852649 13.905
43.5389330532723 13.9207
43.56309522248204 13.9347
43.58707210044314 13.8587
43.61105098451946 13.863
43.63503187626491 13.8608
43.659202151562134 13.8171
43.68318707902681 13.7839
43.70717401884041 13.7755
43.731162972560874 13.7222
43.75534137913236 13.7126
43.779334381108384 13.6727
43.803329401683186 13.6876
43.82732644241872 13.6621
43.8515130055166 13.6346
43.87551410707659 13.5627
43.89951723350145 13.6505
43.923709934595614 13.585999999999999
43.94771713129917 13.5657
43.97172635758096 13.5752
43.99573761501002 13.4903
44.0199385169922 13.4338
44.04395385732619 13.4574
44.067971233533086 13.4212
44.09199064718605 13.4031
44.11619977548961 13.344000000000001
44.14022328470671 13.3064
44.16424883610785 13.3104
44.18827643127035 13.3259
44.21249381139513 13.3125
44.236525514814076 13.222000000000001
44.26055926674478 13.23
44.28459506876863 13.2205
44.3088207262813 13.1763
44.33286064928722 13.1817
44.35690262714919 13.1565
44.38094666145278 13.0862
44.4051806219871 13.0977
44.42922879003185 13.0622
44.45327901929361 13.0332
44.477331311362136 13.0273
44.501573600619416 12.9847
44.525630039221795 12.9044
44.54968854541895 12.9108
44.573937102200176 12.8882
44.5979997645541 12.9319
44.622064499300315 12.9015
44.64613130803592 12.8895
44.67038823869318 12.9285
44.69445921643748 12.8191
44.718532272981385 12.8403
44.742607409926194 12.7872
44.76687274034801 12.7231
44.79095205918753 12.698
44.81503346325094 12.6861
44.839116954143876 12.675
44.86339071028742 12.6659
44.88747839599524 12.6158
44.91156817336837 12.5941
44.93566004401666 12.5979
44.959942251908146 12.6095
44.984038330325966 12.5649
45.00813650686762 12.5012
45.03223678314731 12.4786
45.05652746888232 12.4811
45.08063196592069 12.4575
45.104738567558705 12.4456
45.128847275414856 12.4009
45.15314646515866 12.3524
45.17725940679741 12.3612
45.20137445952892 12.338
45.22568004865265 12.3262
45.24979934496396 12.3104
45.27392075725247 12.2996
45.29804428714431 12.2876
45.322358426247604 12.2415
45.346486212804315 12.1928
45.370616121861914 12.2094
45.39474815505086 12.2021
45.41907087049246 12.175
45.4432071734666 12.1053
45.46734560548283 12.1518
45.49148616817604 12.1635
45.51581748638564 12.0601
45.5399623320197 12.061
45.56410931325473 11.9996
45.58825843173002 12.0125
45.61259837920865 12.0381
45.636751793816 11.9902
45.66090735060093 11.9392
45.68506505120716 11.9066
45.7094136545275 11.8887
45.73357566449271 11.8804
45.75773982322992 11.7979
45.78190613238733 11.8336
45.806263418194064 11.8008
45.83043404997326 11.8274
45.85460683713677 11.785
45.87897065658495 11.724
45.90314777634752 11.7143
45.92732705646868 11.6759
45.9515084986045 11.6652
45.97588104735473 11.6466
46.00006683541565 11.6558
46.02425479047904 11.6284
46.04844491420549 11.6118
46.0728262191024 11.5638
46.09702070211635 11.5707
46.12121735879483 11.5845
46.14541619080294 11.5355
46.169806278764455 11.5292
46.194009483459034 11.5263
46.21821486849841 11.4532
46.24242243555223 11.4315
46.266821333570014 11.4123
46.29103328674601 11.3917
46.31524742696538 11.3859
46.33946375590237 11.3615
46.36387149104216 11.3218
46.38809221957392 11.2667
46.41231514186606 11.27
46.436540259597464 11.2596
46.460956858999374 11.2277
46.48518638983522 11.2294
46.509418121166966 11.2044
46.533652054678114 11.1877
46.55807754555709 11.1986
46.58231590571962 11.1649
46.60655647313217 11.1927
46.630988654873654 11.1068
46.655233659129024 11.0661
46.67948087571551 11.107999999999999
46.70373030632484 11.0224
46.72817142736393 11.024000000000001
46.752425308428684 11.0279
46.77668140861147 10.984000000000002
46.80093972960865 10.9301
46.82538981736788 10.9088
46.849652602470904 10.9321
46.87391761349769 10.9063
46.8981848521493 10.8754
46.9226439341274 10.8247
46.946915650573224 10.8077
46.97118959976749 10.8231
46.99546578341598 10.7765
47.019933887188216 10.7124
47.04421456235744 10.7844
47.06849747711879 10.7643
47.09278263318286 10.7365
47.11725978640143 10.6766
47.14154944775105 10.6625
47.165841355555656 10.6409
47.1901355115306 10.6472
47.214621741924994 10.6288
47.23892041698887 10.5804
47.26322134538975 10.5589
47.28771440635075 10.5469
47.31201986422527 10.5508
47.33632758061436 10.529000000000002
47.360637557241866 10.4979
47.38513974410611 10.4537
47.40945426407847 10.4631
47.43377104948137 10.4418
47.45809010204344 10.4097
47.48260144275502 10.4267
47.506925052572285 10.3683
47.53125093475548 10.3471
47.55557909103813 10.3562
47.58009961361992 10.3077
47.60443234110732 10.2773
47.62876734791564 10.2958
47.65310463578333 10.311
47.6776343683373 10.225
47.7019762413987 10.2234
47.72632040075572 10.1925
47.75066684815169 10.169
47.77520581885936 10.1967
47.799556865477655 10.158
47.823910205386 10.1532
47.84826584033272 10.1314
47.87281407745551 10.077
47.89717432569297 10.1081
47.92153687423484 10.0794
47.94609208429692 10.0812
47.97045925671401 10.0714
47.99482873471275 9.99328
48.01920052005013 9.9484
48.04376504619224 9.954239999999999
48.068141469543484 9.967080000000001
48.09252020552573 9.98418
48.11690125590099 9.92745
48.1414751266064 9.94052
48.16586082917454 9.90812
48.19024885144316 9.91318
48.2146391951793 9.848889999999999
48.239222439012764 9.845419999999999
48.26361744916137 9.80245
48.28801478610016 9.80297
48.31241445160131 9.78018
48.337007097209366 9.77875
48.36141144338331 9.75632
48.38581812345755 9.70293
48.41022713920929 9.70989
48.434829215320704 9.7118
48.45924292604658 9.68725
48.48365897780325 9.68515
48.50807737237308 9.62612
48.532688907799276 9.61598
48.55711201168574 9.61656
48.581537463754074 9.601280000000001
48.60615611725119 9.57279
48.63058628942721 9.555710000000001
48.65501881516546 9.49325
48.6794536962573 9.52938
48.70408185970339 9.49164
48.72852147531801 9.46032
48.75296345168211 9.45514
48.77740779059232 9.459480000000001
48.80204549302823 9.43005
48.82649458091802 9.4427
48.85094603676547 9.402610000000001
48.87539986237231 9.39761
48.90004713292306 9.37235
48.92450572200832 9.37519
48.94896668628025 9.322289999999999
48.97343002754588 9.31172
48.99808689542115 9.31203
49.02255501470614 9.30707
49.04702551642794 9.272960000000001
49.0714984023988 9.25815
49.096164896893235 9.22597
49.120642575466796 9.1938
49.145122643748394 9.20159
49.16960510355558 9.16491
49.19428125404938 9.14912
49.2187685210852 9.1524
49.243258185121555 9.11969
49.26794160167084 9.03742
49.2924360839405 9.072280000000001
49.31693296869764 9.040610000000001
49.34143225776915 9.03204
49.36612538195438 9.03157
49.39062950396021 9.00453
49.41513603578346 8.98651
49.4396449792564 8.924760000000001
49.46434784069503 8.906039999999999
49.488861631846454 8.91677
49.513377840166804 8.91841
49.537896467493745 8.89938
49.56260909589029 8.87143
49.587132585683285 8.862960000000001
49.611658500018365 8.84201
49.636186840738596 8.821660000000001
49.66090926588511 8.82895
49.685442483902584 8.856530000000001
49.70997813385706 8.74255
49.734516217597076 8.775269999999999
49.75924846937352 8.74655
49.7837914452858 8.73285
49.80833686055187 8.69748
49.83288471702571 8.680539999999999
49.85762682540054 8.67206
49.882179588965734 8.68341
49.9067347993235 8.67765
49.93129245833333 8.65142
49.95604445336378 8.63326
49.98060703442832 8.59642
50.005172069746266 8.59582
50.02993150438364 8.58837
50.05450147301533 8.52454
50.07907390151433 8.506789999999999
50.10364879174981 8.50708
50.12841816587289 8.50198
50.1529980044635 8.48915
50.17758031042124 8.47401
50.20216508562089 8.48591
50.22694442953363 8.47499
50.25153416817468 8.4231
50.27612638170508 8.38742
50.300721072005196 8.37996
50.325510416102105 8.392389999999999
50.350110084975064 8.35133
50.37471223628208 8.3618
50.39931687190919 8.34296
50.424116246675766 8.318660000000001
50.44872587605249 8.28987
50.47333799543065 8.29063
50.49795260670191 8.262139999999999
50.52276204271512 8.226280000000001
50.54738166295838 8.24046
50.57200378079314 8.23513
50.596628398116835 8.19978
50.62144792604559 8.210519999999999
50.646077567609396 8.169210000000001
50.670709714377715 8.177010000000001
50.69553683636198 8.14633
50.72017401885922 8.13084
50.7448137122895 8.11973
50.76945591856022 8.085189999999999
50.79429318636823 8.10143
50.818940443716784 8.052769999999999
50.84359021965163 8.01455
50.868242516085964 8.01636
50.893089960641895 7.989210000000001
50.917747323549435 7.98061
50.94240721271973 7.97098
50.96706963007175 7.95109
50.99192728239342 7.942130000000001
51.01659478166073 7.95138
51.04126481489051 7.9299800000000005
51.06593738400761 7.908869999999999
51.090805275207074 7.874439999999999
51.11548294172845 7.85959
51.14016314993547 7.84169
51.164845901758845 7.84996
51.18972406304274 7.801010000000001
51.21441192780656 7.818339999999999
51.23910234200271 7.8102800000000006
51.2637953075678 7.79825
51.288683770237945 7.75131
51.31338186432707 7.68133
51.33808251561888 7.69048
51.362978729967345 7.72587
51.387684521509755 7.70593
51.41239287610203 7.747310000000001
51.437103795691165 7.65512
51.46201036644977 7.66131
51.486726441956634 7.63178
51.51144508832545 7.59135
51.536166307509156 7.587739999999999
51.56108326624387 7.5651399999999995
51.58580965706056 7.587339999999999
51.61053862657523 7.57642
51.635270176746864 7.52141
51.66019755512065 7.50398
51.68493429268881 7.487369999999999
51.70967361681515 7.50289
51.73441552946465 7.465669999999999
51.759353359237934 7.481160000000001
51.7841004750961 7.45622
51.80885018539685 7.4291
51.833602492111254 7.40318
51.8585508051424 7.37672
51.883308330926425 7.37295
51.90806845906181 7.362589999999999
51.932831191525715 7.29485
51.95779001977161 7.31148
51.98255798721516 7.29431
52.00732856494335 7.267110000000001
52.03229530577543 7.2564
52.057071130455945 7.25285
52.081849571391054 7.2295300000000005
52.106630630568695 7.19596
52.13160794279417 7.21818
52.15639426492067 7.207000000000001
52.18118321127822 7.2122
52.205974783860896 7.158410000000001
52.23096269971011 7.178780000000001
52.255759551287994 7.14001
52.280559035098186 7.11987
52.30536115314103 7.10769
52.33035970494467 7.13077
52.35516711807904 7.120830000000001
52.37997717147198 7.0619
52.40478986713005 7.0880399999999995
52.42979908731974 7.065010000000001
52.454617094216 7.05554
52.47943774942214 7.014989999999999
52.50426105495102 7.039060000000001
52.529280976059844 6.98038
52.554109609024096 6.9939
52.57894089837482 6.94292
52.60377484613117 6.94031
52.62880550079408 6.92445
52.65364479223379 6.921289999999999
52.67848674816189 6.882160000000001
52.70352547971946 6.87708
52.72837279155837 6.872739999999999
52.753222773982785 6.84789
52.778075429022984 6.85993
52.80312495150885 6.813389999999999
52.827982978797436 6.8097199999999996
52.85284368481815 6.7800199999999995
52.87770707160767 6.77778
52.90276741793998 6.73486
52.92763619336701 6.76951
52.952507655698504 6.72545
52.977381806977576 6.71472
53.00245301017842 6.718139999999999
53.02733256653592 6.69193
53.052214817996074 6.694210000000001
53.077099766608484 6.67944
53.102181859804446 6.68027
53.127072229988265 6.649780000000001
53.15196530349892 6.63635
53.17686108239249 6.63702
53.20195409881522 6.60116
53.22685531582556 6.6363
53.25175924441303 6.5271300000000005
53.27666588664027 6.533869999999999
53.30176985962693 6.5296400000000006
53.3266819565689 6.546119999999999
53.35159677336455 6.5330900000000005
53.376514312083096 6.519480000000001
53.40162927507703 6.5336
53.42655228516116 6.46453
53.45147802340193 6.45226
53.47660125628886 6.45756
53.50153247842639 6.45056
53.52646643496923 6.41566
53.55140312799818 6.3882699999999994
53.576537409691696 6.39109
53.60147960336152 6.41589
53.626424539786164 6.36725
53.65137222105307 6.36525
53.67651758529126 6.4154599999999995
53.70147078399681 6.35422
53.72642673383343 6.36355
53.75138543689533 6.31303
53.776541917524526 6.29442
53.801506154876755 6.2916300000000005
53.826473151763246 6.26823
53.851442910284916 6.27886
53.87661054126026 6.20052
53.9015858509782 6.18122
53.92656392866066 6.17234
53.95154477641532 6.17547
53.976723591801296 6.174869999999999
54.00171000771266 6.12489
54.02669920004598 6.12863
54.051691170915745 6.11351
54.076881204886796 6.13612
54.101878760928514 6.13512
54.12687910187696 6.08951
54.152077577768296 6.04884
54.1770835166946 6.03648
54.20209224691339 6.04422
54.22710377055121 6.03937
54.25231352511594 6.00005
54.27733066384342 5.94321
54.30235060239643 5.9887
54.32737334290836 5.9944
54.35259441062629 5.97372
54.377622783395324 5.92854
54.40265396455061 5.91634
54.42768795623251 5.91834
54.45292037169559 5.888780000000001
54.477960012857906 5.88565
54.50300247099511 5.86041
54.52804774825457 5.818980000000001
54.55329154616743 5.8074900000000005
54.57834249018678 5.81291
54.6033962597977 5.75825
54.6284528571545 5.7565800000000005
54.653708072335164 5.77449
54.67877035378786 5.72904
54.70383546947698 5.70316
54.72890342156389 5.68116
54.7541700889442 5.643619999999999
54.77924374251975 5.63476
54.8043202390049 5.66354
54.82959552413022 5.60724
54.8546777351945 5.63355
54.87976279569621 5.54282
54.90485070780914 5.57154
54.930137506558005 5.53247
54.95523115074295 5.5292900000000005
54.98032765308844 5.47764
55.005427015775496 5.44241
55.03072536339621 5.47048
55.05583047570572 5.43289
55.080938454927676 5.35513
55.10604930325027 5.35808
55.131359235107396 5.38858
55.15647585066083 5.376869999999999
55.181595341907496 5.34837
55.20671771104285 5.28253
55.232039262617704 5.30344
55.25716741665048 5.235530000000001
55.28229845518636 5.20068
55.30743238042802 5.14354
55.33276558731939 5.13229
55.357905315183636 5.14199
55.383047936390035 5.15088
55.40819345314859 5.08654
55.433538351073295 5.14899
55.458689688238415 5.0897
55.483843927614096 5.0445400000000005
55.509197623043605 5.03216
55.53435769621134 4.99367
55.55952067826466 4.978330000000001
55.5846865714265 4.95956
55.61005202069737 4.9355
55.63522376553902 4.94888
55.66039842818645 4.86684
55.68557601087004 4.8706
55.7109532500271 4.8373099999999996
55.73613670233794 4.81958
