TT I
1.2716486653135266 7.54709
1.2939594142134223 7.4145
1.3162702121660406 6.40569
1.3385810600174564 6.42812
1.3608919586137629 6.54913
1.383202908801069 6.22432
1.405513911425503 6.940289999999999
1.4278249673332093 6.26687
1.4501343378461518 5.89872
1.4724455028545926 6.15265
1.4947567236847858 6.02241
1.517068001182951 6.29807
1.5393793361953272 6.400530000000001
1.5616907295681737 5.32926
1.5840021821477681 5.38675
1.60631369478041 5.24674
1.6286252683124185 5.68116
1.6509369035901333 5.60098
1.6732468618895553 5.45146
1.695558623192809 5.23795
1.7178704487808514 5.35116
1.7401823395001077 5.02145
1.7625012545597203 4.88695
1.7848028405262486 5.51055
1.8071218901122095 4.56116
1.8294236121921872 4.5608900000000006
1.8517427996910911 5.08597
1.8740620574440425 4.61448
1.8963639900671978 4.83475
1.9186833908139995 5.01232
1.9409854680117449 4.70271
1.9633050151394713 4.95635
1.9856246367570705 4.488119999999999
2.0079269371922672 4.83138
2.03024671027244 4.671930000000001
2.0525491637446027 4.48262
2.074869091674931 4.456580000000001
2.097171701569106 4.27452
2.1194917877373847 4.7476199999999995
2.141811954326636 4.961130000000001
2.164114805233074 5.25115
2.186435135143035 6.62144
2.208738150935709 14.7816
2.231058647554722 30.4026
2.2533792288321184 23.1331
2.275682498336085 10.2728
2.298003251406138 6.01582
2.3203066942619714 5.37731
2.3426276225136022 4.80238
2.3649486396617507 5.08425
2.387252348930071 5.48644
2.4095735463442893 5.17866
2.4318774374315884 5.1054699999999995
2.4541988185014043 6.03704
2.476502894794693 6.24061
2.498824462909887 5.625430000000001
2.521146125856138 6.33818
2.5434504863470337 6.35348
2.5657723414244717 6.790939999999999
2.588076895590662 7.146319999999999
2.610398946189713 7.606510000000001
2.6327210958598384 6.69742
2.6550259469304716 6.97685
2.6773482972090137 7.71622
2.6996533504259 7.28596
2.7219759047039602 7.59428
2.744298562293959 7.8761600000000005
2.7666039251246595 7.72222
2.7889267918020164 7.976089999999999
2.8112323652516555 8.124139999999999
2.833555444408179 8.35501
2.8558786311183852 8.13148
2.8781845268938557 8.85547
2.9005079311721484 8.955169999999999
2.9228140460410397 9.09602
2.9451376712799635 9.39002
2.967444008632326 9.524289999999999
2.9897678582247247 9.28782
3.0120918213106695 10.2032
3.0343984987899373 10.1896
3.0567226913198637 10.8374
3.079029599759726 11.585
3.101354025127254 12.0378
3.123678568232338 12.7386
3.145985829517914 13.4277
3.16831061055229 13.4431
3.1906181112775593 13.7934
3.212943133635653 14.6983
3.2352682779763207 15.0066
3.2575761442691227 15.710999999999999
3.2799015350264273 16.0368
3.302209649240067 16.7206
3.3245352898092655 16.7175
3.3468436553365257 17.371
3.369169549113219 17.4891
3.3914955708171384 18.7301
3.413804319727358 19.1595
3.4361305997334863 19.4609
3.4584396084414553 20.1434
3.4807661501462652 20.4405
3.503092824025881 21.7158
3.5254022288463154 21.4341
3.5477291695206588 22.1259
3.5700388426251948 22.7114
3.5923660534916446 24.4307
3.6146934007816114 40.4171
3.637003482731501 95.3169
3.6593311053109985 105.179
3.681641464033634 60.4927
3.7039693653009733 31.6347
3.726297407241705 26.8119
3.7486081875460804 26.3347
3.7709365132734978 26.7658
3.793247578841633 27.0437
3.8155761917550093 27.6472
3.8378875459837216 27.7883
3.8602164494827234 27.8935
3.882545499606844 28.6371
3.9048572932539183 29.395
3.9271866390645718 29.4062
3.9494987298666713 30.249000000000002
3.971828374764527 31.239
3.9941581705403255 31.1701
4.016470713506008 31.75
4.038800813471445 32.7364
4.061113662089144 33.6034
4.0834440696459176 34.4358
4.105774632334751 34.8575
4.128087945865126 35.6269
4.150418821249301 36.257
4.172732448931298 37.8367
4.195063640413578 39.827
4.2173775856475215 44.5564
4.239709096631102 79.0417
4.262040768704612 258.38
4.284355196706267 346.714
4.306687193387355 222.34400000000002
4.329001947444346 85.6181
4.35133427213731 49.3832
4.373666762177566 45.827
4.395982011761091 45.6414
4.418314834921175 46.6931
4.44063041906622 55.0418
4.4629635787515625 67.8365
4.4852969080429785 66.9576
4.5076130004776225 55.9272
4.529946671403969 52.6345
4.552263106909177 52.1734
4.574597122877047 52.6716
4.596931312711224 53.3919
4.619248269273446 54.1591
4.6415828092605835 55.8011
4.663900117405352 56.4232
4.686235010953232 57.7583
4.708552674085913 59.0222
4.730887924602802 60.254
4.753223354952695 62.0828
4.775541557023902 63.7617
4.797877349456786 65.5123
4.820195915032126 67.3186
4.842532072957498 68.7011
4.864868414979744 71.2781
4.88718753227192 73.8217
4.909524244902505 75.5309
4.931843734218147 76.8094
4.954180820867835 79.7331
4.976518095879839 83.1577
4.998838149695359 86.4521
5.021175803844231 89.8487
5.043496238205739 93.6318
5.065834274903528 98.1951
5.088172504230693 104.086
5.1104935158799565 111.301
5.132832132875765 138.891
5.155153533596801 188.63099999999997
5.1774925416746225 234.57299999999998
5.199814334878411 456.708
5.2221537374521505 1265.33
5.244493338631803 3154.17
5.266815727034316 7095.48
5.289155727832427 11411.5
5.311478517248165 8990.53
5.333818921080011 3515.38
5.356159527788849 761.455
5.3784829252032536 224.90099999999998
5.400823940070432 161.414
5.423147747031976 138.792
5.445489173474152 126.535
5.467830807066149 119.815
5.490155234831516 114.898
5.512497285125229 110.495
5.534822130975162 108.573
5.557164601388673 106.039
5.579489868738879 102.353
5.601832762690846 101.792
5.6241758697774475 101.079
5.646501775867269 99.5249
5.668845311622074 98.4724
5.691171647754637 97.2328
5.713515615597765 96.1771
5.735859800852677 95.4887
5.758186788542988 95.1574
5.780531411018185 95.1014
5.802858837297399 94.4652
5.825203900414495 95.0222
5.8475491852224 95.5776
5.869877275883075 95.9642
5.892223006467101 97.2544
5.914551544266608 98.4166
5.936897724049891 102.27
5.959244129804903 108.899
5.981573344815301 132.859
6.0039202049061 246.53900000000002
6.026249875609095 537.974
6.04859719346037 1095.92
6.070927323278297 2166.27
6.093275102315365 3984.52
6.115623113320588 4979.4
6.137953938319995 3478.71
6.160302415650845 1215.16
6.182633708324452 301.207
6.2049826554078376 130.438
6.227331838745022 100.4
6.249663839443684 90.8314
6.27201349767565 87.26
6.294345974611799 93.5814
6.316696111167083 105.691
6.339046488263839 99.4391
6.361379686074702 82.7789
6.383730546639482 74.324
6.406064229255215 71.5906
6.428415576718203 70.8973
6.450749747566656 69.306
6.47310158535871 67.9495
6.495453669698332 67.1147
6.517788579421056 66.3582
6.540141159237969 65.5716
6.562476565766648 65.4135
6.5848296444934045 64.90899999999999
6.607182974060425 64.331
6.6295191323281015 64.6623
6.651872965955752 67.9519
6.6742096296068985 96.7155
6.6965639707294615 148.406
6.71891856698715 147.852
6.741255995248479 99.3569
6.763611104154477 70.313
6.785949046381137 62.2504
6.808304671371482 60.22
6.8306605557940046 60.2384
6.852999275508618 59.0433
6.875355681171544 58.8445
6.897694923437771 58.458999999999996
6.92005185377892 58.1112
6.9423916220322655 58.0231
6.964749080490181 57.3544
6.987106804399774 57.5965
7.009447368180821 57.5309
7.031805625367033 57.1211
7.054146723727803 56.7739
7.076505517631004 56.4541
7.098864581288365 56.5673
7.121206488070854 56.6647
7.143566093607822 56.4012
7.165908543567245 56.5238
7.188268694426048 56.4705
7.2106291193438095 56.7868
7.232972390625943 58.4205
7.255333366030969 72.5688
7.277677189091925 132.667
7.300038718428332 185.415
7.322400526130865 156.243
7.344745183422596 93.7608
7.367107550224791 64.0514
7.389452767901992 57.9371
7.411815697249891 56.746
7.434161478756298 56.1179
7.456524974096713 55.7918
7.478888753837185 55.5715
7.501235387657368 55.9286
7.523599738562711 55.9914
7.545946944825532 56.2473
7.568311870344528 56.5126
7.5906770845765665 57.3974
7.613025156078678 58.5802
7.635390950099687 59.9785
7.657739602662809 59.1658
7.680105979923558 57.68
7.702472650212829 57.313
7.724822180948224 57.318999999999996
7.747189439655568 57.4808
7.769539560075357 57.6013
7.791907410653562 57.8997
7.81425812420825 58.1153
7.836626570110925 58.4681
7.858995315087906 59.2021
7.881346924933401 59.1427
7.903716270417482 59.791000000000004
7.926068482028405 60.1312
7.948438431475253 60.7197
7.9708086843180235 61.34
7.993161805171116 61.6626
8.015532667162402 62.2569
8.037886398416653 63.4276
8.060257873014221 63.4197
8.082629655331942 64.5216
8.104984308787587 65.5591
8.127356708900503 69.3937
8.149711981398308 75.6418
8.172085002766314 78.1381
8.194458336181368 74.4232
8.216814543847752 71.369
8.23918850371002 71.22800000000001
8.26154533906492 72.1063
8.283919928836452 73.8104
8.306277395339652 74.7814
8.328652618483376 76.0669
8.351028159736202 78.1441
8.373386579575245 80.5857
8.395762759396959 82.6055
8.418121819038275 88.1766
8.440498640894003 102.91799999999999
8.462875785192262 119.19
8.485235811156207 134.328
8.507613602688501 183.417
8.529974277114228 288.722
8.552352719347912 434.23800000000006
8.574731488360351 686.615
8.59709314210385 1139.26
8.619472567021075 1687.68
8.64183487789147 2134.8
8.664214962183097 1864.86
8.686577933647762 1157.88
8.708958680784317 476.44
8.731339760774953 197.39700000000002
8.753703729764451 122.38799999999999
8.77608547780821 105.15299999999999
8.798450116065078 99.7998
8.820832535634787 95.7729
8.843215292401656 94.383
8.865580941199045 92.5317
8.887964374703538 91.3489
8.910330701447199 92.7392
8.932714815164482 95.1787
8.955099270424924 94.2077
8.977466620733543 90.8543
8.999851761421976 87.8364
9.022219798361645 86.3085
9.04460562795561 85.751
9.066991803441677 85.1438
9.089360876979615 85.3637
9.111747746589993 84.3496
9.13411751544971 83.9141
9.156505082664324 83.6626
9.178875550323522 84.0516
9.20126381862328 84.4164
9.223652438908596 84.632
9.246023961427412 84.4093
9.26841328802173 83.9642
9.290785518039224 84.0836
9.313175554425882 85.1952
9.335565947154315 84.9335
9.357939245086508 85.035
9.380330352834827 85.4179
9.40270436697103 85.6406
9.425096193225055 85.1281
9.447488380180165 86.2497
9.469863475295412 86.4956
9.492256385987508 86.7736
9.514632206018318 87.339
9.537025843935714 87.4564
9.559402392368193 88.4991
9.581796761000229 89.9429
9.604191496441521 90.9027
9.626569144158516 94.6285
9.648964615551032 100.041
9.671343000390081 101.586
9.693739211225699 98.8827
9.716135793237463 95.6292
9.738515290448102 95.2857
9.760912617143402 96.5954
9.783292860202891 97.7273
9.805690935076182 99.3216
9.828089385495742 100.292
9.850470754023561 102.664
9.872869957865444 111.024
9.89525208097539 128.247
9.917652041736662 141.784
9.940052382417589 142.279
9.962435644102392 151.092
9.984836746950979 193.57
10.007220771957746 269.543
10.029622640473708 382.76099999999997
10.052007432299963 553.44
10.074410069984072 806.5830000000001
10.096813093716005 1175.69
10.119199042482517 1593.71
10.141602840636468 1862.23
10.163989564971628 1712.93
10.186394141051062 1088.26
10.208799107559706 503.077
10.231187001965623 235.577
10.253592751657669 141.20600000000002
10.275981430388155 119.75200000000001
10.298387966769793 118.34200000000001
10.320794897965431 120.088
10.343184759907361 118.63
10.36559248305461 112.815
10.387983138083852 108.44200000000001
10.410391656691655 111.977
10.432800574501677 125.26700000000001
10.455192425893369 144.616
10.47760214443012 171.958
10.499994797678786 211.028
10.522405320453982 279.73400000000004
10.54479877906917 378.194
10.567210109595656 480.083
10.5896218454736 543.297
10.612016518879773 526.1080000000001
10.634429067781074 385.825
10.656824555333241 229.03799999999998
10.679237920773568 138.69
10.701651695961992 102.596
10.724048411481384 92.897
10.746463008485165 89.3572
10.768860546937125 87.5201
10.791275969274796 85.4502
10.81369180576079 84.4375
10.836090585366925 83.2181
10.858507252467449 82.3901
10.88090686379991 81.2033
10.903324365036394 80.2521
10.925724811614439 80.3148
10.948143150509463 82.0192
10.970561909719066 81.6235
10.992963615930844 79.3402
11.015383218085756 76.9044
11.037785768347074 74.9456
11.06020621697282 74.7227
11.082627090322113 74.4435
11.105030913430326 73.4914
11.12745263854165 74.3111
11.149857314510728 78.1888
11.172279894912576 84.9999
11.194702904450653 85.8519
11.217108866490921 81.0932
11.239532736615194 76.4981
11.26193956033512 74.0508
11.284364294577085 72.4964
11.306789462371718 70.53
11.329197585398376 69.2166
11.351623622610898 68.6386
11.37403261614354 67.5965
11.396459526308487 67.7084
11.418869393879497 67.5345
11.441297180532617 67.0596
11.463725406927658 66.5699
11.486136592353875 66.5104
11.508565700543707 67.2564
11.530977768845315 69.0808
11.553407762368774 70.1185
11.575838200059769 69.5412
11.598251599479612 67.1694
11.620682927815501 65.6844
11.64309721895548 65.2392
11.665529441478206 64.8617
11.687962112597958 64.5107
11.710377748130886 64.7727
11.732811318753434 64.6588
11.755227854859067 64.686
11.777662328529495 64.2081
11.800079768750786 64.3214
11.822515149015453 63.8953
11.844950984084935 64.1321
11.867369787303163 63.9644
11.889806534289491 63.9425
11.912226250487029 64.5997
11.934663912939751 64.5633
11.9571020346363 64.7403
11.979523127133968 64.49
12.001962169624331 65.1725
12.024384183972964 66.4722
12.046824150809913 70.2972
12.069264581333726 76.2432
12.091687985297767 83.5023
12.11412934550045 92.7145
12.136553680195208 105.23899999999999
12.158995973632788 124.12899999999999
12.181438735204349 148.605
12.20386447284199 174.878
12.226308172985636 197.143
12.24873485024193 205.02
12.271179492516982 178.75599999999997
12.293607112949127 140.19299999999998
12.316052700916226 107.45100000000001
12.338498763250042 84.4243
12.360927805303868 73.1386
12.383374818673879 68.7637
12.405804812803074 66.4483
12.428252780773262 66.1419
12.45070122756722 65.7631
12.473132656675375 65.8219
12.49558206341869 66.0754
12.518014453510101 66.1034
12.540464823770117 66.4212
12.562915677315177 66.5362
12.58534951575545 67.0061
12.607801338171472 69.6424
12.630236146511358 75.5604
12.652688941369085 80.6007
12.675124723177234 80.9569
12.697578494048786 76.5466
12.720032754458185 71.8513
12.742470003354093 69.7893
12.764925245138771 69.6047
12.787363476431278 69.9041
12.809819703166806 70.13
12.83227642391173 70.7213
12.854716135692716 71.5971
12.877173846755147 72.7426
12.899614549869717 73.0053
12.9220732548287 73.5677
12.94453245827299 74.0323
12.966974655289818 75.0879
12.989434858002571 75.7418
13.011878055298721 76.712
13.034339260862497 77.8193
13.056800969391883 79.1215
13.079245674017244 81.2285
13.101708390774869 83.6827
13.12415410463411 91.7777
13.146617833206086 104.978
13.169064559883248 118.834
13.191529303857127 134.52200000000002
13.213994557076367 156.209
13.236442809902437 188.65099999999998
13.258909083908291 234.56099999999998
13.28135835851934 288.203
13.30382565690295 348.505
13.326293469022952 403.93699999999995
13.348744283242008 424.724
13.371213125129904 383.806
13.39366497011003 295.606
13.416134845360597 202.636
13.438605238843131 139.458
13.46105863690397 113.73200000000001
13.483530069144786 111.53
13.505984506951902 117.26899999999999
13.528456981549432 127.98899999999999
13.550929978879088 142.201
13.573385983253365 163.101
13.595860028340867 195.483
13.618317081455832 238.332
13.64079217790333 286.504
13.663250283359057 330.292
13.685726434770173 358.509
13.708203115221277 347.235
13.730662806148091 285.671
13.75314054697177 210.75599999999997
13.775601299246777 146.344
13.798080104050406 106.536
13.820559442405358 89.5756
13.843021793671388 84.4879
13.865502201420897 82.7147
13.887965623051947 81.7398
13.910447103807167 80.405
13.932929122629764 79.317
13.955394156785959 78.959
13.977877254034569 77.8951
14.000343367582113 76.9407
14.022827546871707 76.2236
14.045294743423524 75.6052
14.06778000837062 74.8746
14.090265817715476 74.7323
14.112734645763819 74.5827
14.13522154619454 74.1244
14.157691466286913 74.6877
14.180179461423874 74.1253
14.202668005486178 73.2515
14.22513957064374 72.5635
14.247629214846473 72.3063
14.270101881097517 71.882
14.29259262906496 72.1945
14.315083930490205 73.1725
14.337558255389705 73.4344
14.360050666019726 73.0722
14.382526101071944 72.2519
14.405019624534942 71.1943
14.427513705993134 70.4378
14.449990813291825 70.5699
14.47248601302899 70.4624
14.49496423954951 70.5321
14.517460561197822 70.6327
14.539939910570322 70.2069
14.562437357763558 70.8669
14.58493536931253 71.9353
14.607416409993311 73.196
14.62991555254159 74.0696
14.652397725157423 73.5896
14.674898002342799 72.9413
14.697398848433282 72.1536
14.719882725991326 72.9949
14.74238471217934 74.1188
14.764869730765593 78.0278
14.787372860692983 82.0172
14.809876564079925 87.4434
14.83236330125751 93.4255
14.854868153850365 102.105
14.877356041159485 113.585
14.899862046604186 129.327
14.922351087688757 150.015
14.944858249632887 173.99599999999998
14.967365991421232 197.268
14.989856770231246 215.893
15.012365673994204 220.03400000000002
15.03485761569738 199.609
15.05736768508665 163.67600000000002
15.07987833888692 128.565
15.102372032001655 99.1285
15.124883856909658 81.9731
15.14737872204565 75.1037
15.169891721717274 72.7907
15.192405310371893 72.5011
15.214901940621196 72.7949
15.237416709527137 73.154
15.259914520936249 73.3164
15.282430473753607 72.2745
15.304947020131227 71.2251
15.327446610371178 70.1385
15.349964346154254 69.0559
15.372465126703139 68.6667
15.394984055556009 68.181
15.417486030076159 67.8996
15.44000615566487 67.7445
15.462526881230803 67.7344
15.485030653812652 68.1316
15.507552581617434 68.2712
15.530057557334603 68.1521
15.55258069104857 67.9105
15.575104429329837 68.0382
15.597611216864632 67.5745
15.620136166564563 67.8253
15.6426441664095 68.7774
15.665170331202765 71.5486
15.687697105158826 75.1088
15.710206930593545 79.1953
15.732734925158933 83.7779
15.755245972089478 90.0318
15.77777519094324 97.8386
15.800287463046663 108.90799999999999
15.822817909869592 124.618
15.84534897229804 142.382
15.867863089299354 163.35399999999998
15.890395385222186 180.18200000000002
15.912910736597423 191.22099999999998
15.935444269699861 187.426
15.957978423016485 168.426
15.980495633101265 136.90200000000002
16.003031029129367 106.245
16.02554948280019 83.3851
16.048086125229432 71.8358
16.070623392487107 68.0476
16.09314371869582 66.6145
16.11568223789321 65.5603
16.13820381691126 64.6586
16.160743591742527 63.4319
16.183283996022084 62.4094
16.205807461423195 61.403999999999996
16.228349126881973 60.6697
16.25087385432698 60.7062
16.27341678466365 60.0828
16.29594277784926 59.9717
16.31848697676433 60.3831
16.341031811604868 60.6807
16.36355971058487 61.0241
16.3861058195587 60.751000000000005
16.40863499352978 59.2481
16.431182380342005 58.457
16.453730407713202 57.8077
16.476261501364792 57.3822
16.498810812136167 57.2261
16.52134319004079 57.303999999999995
16.54389378792203 56.9633
16.566445031001553 56.7184
16.588979342490088 56.5305
16.61153187824822 56.5413
16.634067483263312 56.4966
16.656621315414416 56.2454
16.679175797408888 56.1058
16.701713349928728 56.0944
16.72426913389191 56.0836
16.74680798922351 56.3552
16.76936507887444 56.354
16.791905240734874 56.4065
16.814463639794468 56.2381
16.837022695210294 56.159
16.859564824093756 56.7755
16.882125194503903 57.2659
16.904668639217885 58.2879
16.927230328348003 58.4961
16.949792678493612 58.5175
16.972338104193863 57.8841
16.994901778652235 57.4164
17.017448529496576 57.0846
17.040013531998152 57.451
17.06257920018044 57.8093
17.0851279459922 58.888000000000005
17.107694947817667 59.6809
17.130245028099072 60.4452
17.15281336730298 62.0404
17.17536478578733 63.6704
17.19793446610687 65.6081
17.220504818648422 67.9991
17.243058251703697 70.7107
17.265629950971032 74.7932
17.288184731571736 78.6169
17.310757781306908 82.6352
17.33333150794385 84.811
17.355888317140174 84.6964
17.37846339986244 80.5257
17.401021565958885 74.7434
17.42359800851343 69.0005
17.44617513265564 64.7433
17.468735341390783 62.2347
17.491261035594565 60.8951
17.51396340099364 60.6959
17.536490463869136 60.5601
17.559018209820174 60.6974
17.58154663977963 60.9797
17.604251766089718 60.9653
17.626781572227713 61.1059
17.64931206518155 61.3799
17.671843245885103 62.1822
17.69455114821572 62.2176
17.717083712612634 62.6256
17.739616967569667 62.7196
17.762150914021706 62.8805
17.78486160749854 62.6943
17.807396945166804 63.2411
17.829932977143503 64.4092
17.85246970436452 66.2407
17.875183204129467 68.3501
17.897721330097664 70.8501
17.920260154126645 73.4753
17.942799677153296 76.6849
17.9655159983646 79.7611
17.988056927677544 84.4565
18.010598558807683 91.1624
18.033140892692916 99.6302
18.05586005052525 108.537
18.07840379824407 118.325
18.10094825154059 128.16899999999998
18.12366954819864 137.085
18.146215420998306 140.487
18.16876200220057 136.61
18.191309292745153 125.145
18.214033452627167 111.72200000000001
18.236582170236648 98.6097
18.259131600016456 90.7349
18.281681742907335 88.6508
18.304408781233683 90.9392
18.32696035875955 94.4508
18.349512652227624 98.833
18.372065662579683 103.21799999999999
18.394795594587553 105.963
18.41735004715306 105.046
18.43990521943684 100.33
18.46246111238171 92.2717
18.485193953325208 82.1606
18.507751296070428 73.8754
18.530309362314178 68.7059
18.552868153000343 65.7819
18.57560391815056 64.0909
18.59816416623245 63.6075
18.620725141597372 63.0106
18.643286845190268 62.453
18.666025549835414 61.9362
18.688588718427933 61.3352
18.711152618092243 61.4382
18.73389353884365 61.115
18.75645890921984 60.5918
18.77902501351406 60.1594
18.801591852673102 60.0994
18.824335739722738 59.6087
18.846904057212626 59.4735
18.8694731124168 59.2848
18.89204290628315 59.3402
18.914789774966803 59.0895
18.937361054791623 58.8299
18.959933076131318 58.6687
18.982505839934877 58.4613
19.00525570560582 58.5679
19.027829963004184 58.3165
19.05040496572238 58.5956
19.072980714710468 58.6505
19.095733592739563 58.8065
19.11831084296757 59.3367
19.140888842324735 59.7112
19.16346759176222 59.8478
19.18622349753803 60.5651
19.208803755869358 61.2389
19.231384767143577 62.0803
19.253966532312948 63.4269
19.276725481241822 65.3277
19.29930876296784 67.1595
19.3218928014549 69.641
19.34465404436217 72.6541
19.36723960516257 75.3829
19.389825925592426 76.949
19.412413006605938 77.0992
19.43517731967805 74.7731
19.457765930683355 71.0676
19.48035530514408 66.4756
19.50294544401556 62.5891
19.525712842708348 59.2312
19.54830451925909 57.3997
19.570896963095727 56.1283
19.593490175174704 55.3961
19.616260674962184 55.2979
19.638855432416964 55.0938
19.661450960992624 55.1735
19.68404726164677 54.9774
19.706820878021247 54.6057
19.729418731756834 55.0477
19.752017360452857 54.6036
19.77461676506804 54.8018
19.797393513540218 54.9578
19.819994478951667 55.3998
19.84259622316767 55.8898
19.8651987471481 56.5052
19.887978643247177 56.8362
19.91058273574792 57.18899999999999
19.933187610901943 57.8424
19.955969879466828 58.801
19.97857632894404 60.136
20.00118356396599 61.5222
20.023791585494575 63.2049
20.046577028914875 65.5148
20.069186632506966 67.2261
20.091797025500632 69.3939
20.114408208858933 70.524
20.137196842715273 71.234
20.159809615886765 70.3622
20.18242318232135 68.3095
20.20503754298326 66.2535
20.227829382875154 64.2669
20.250445341109344 63.7188
20.27306209647285 63.6193
20.29567964993108 64.604
20.31847471147704 65.1187
20.34109387027612 66.1926
20.363713830075454 66.4702
20.386334591841646 65.9938
20.409132890679302 63.8717
20.431755265564437 60.9811
20.454378445325528 58.202
20.477002430930366 55.8348
20.499803982716553 54.1463
20.522429589228004 53.2871
20.54505600449589 52.7794
20.567683229489194 52.5694
20.590488049900088 51.9356
20.61311690359731 51.5571
20.63574656993626 51.5597
20.658553853717297 51.0611
20.681185154618298 51.0862
20.703817271080066 50.9794
20.72645020407368 50.5973
20.749260783967177 50.5057
20.771895359337133 50.5031
20.794530754161617 50.3099
20.817166969412938 50.1539
20.83998086114876 50.043
20.86261872660049 49.9391
20.885257415405402 50.0097
20.90789692853701 49.86
20.930714147864748 49.8574
20.953355319030678 49.9121
20.97599731745334 49.9012
20.99864014410749 49.7724
21.021460706796564 49.9503
21.044105199328826 50.2341
21.06675052302631 50.5204
21.089396678865015 50.5846
21.112220600704806 50.7727
21.134868430275347 51.0691
21.15751709492456 51.3424
21.180166595629693 51.5946
21.202993892429635 52.0037
21.22564507473034 52.1881
21.24829709602816 52.2986
21.27112693608965 52.6533
21.293780644891275 52.6337
21.316435195634053 52.2366
21.339090589297417 51.6754
21.361923832041875 51.2022
21.384580921090404 50.5426
21.407238856007325 49.798
21.429897637773326 49.746
21.45273429906592 49.6674
21.475394784108598 49.626999999999995
21.498056118951983 49.5042
21.520718304578022 49.7592
21.543558400304388 49.9545
21.566222297108816 50.1294
21.58888704765135 50.2118
21.61155265291521 50.5757
21.63439619898156 51.1538
21.657063523335786 51.2315
21.67973170537063 51.919
21.7024007460706 52.435
21.72524775840385 52.9576
21.747918526116475 53.9837
21.770590155457388 55.0069
21.79326264741238 56.4508
21.816113141960237 57.9288
21.838787368860547 59.6369
21.861462461341976 61.2873
21.884315579735777 63.1471
21.90699241312273 64.3851
21.92967011506078 65.484
21.95234868653799 66.0001
21.9752053151131 65.4409
21.997885635446785 63.8132
22.020566828293532 61.9064
22.04324889464272 59.9018
22.066109049404666 58.4021
22.088792872571794 57.3288
22.111477572219204 57.2499
22.1341631493376 57.2064
22.157026846313123 57.328
22.179714188221507 56.7951
22.202402410582668 55.9545
22.22509151438863 54.4806
22.24795876962584 53.391999999999996
22.270649646204486 52.4317
22.293341407213727 51.5917
22.316034053646906 50.8496
22.338904883215342 50.4818
22.36159931041458 50.2147
22.38429462602756 50.2832
22.40699083104897 50.2411
22.429865251039757 50.2573
22.452563244831367 50.2811
22.47526213102522 50.2864
22.49813925616515 49.8972
22.520839937143307 49.8604
22.543541513520587 50.0285
22.56624398629403 49.8546
22.589124730075895 49.762
22.611829005656723 49.9262
22.63453418063466 49.8078
22.657240256008077 50.18600000000001
22.680124634582935 50.281000000000006
22.70283252079775 50.6443
22.725541310413075 50.7414
22.74825100442868 51.0935
22.771139033969575 51.7145
22.79385054687155 51.7136
22.81656296718292 52.3813
22.83927629590484 53.0439
22.862167992606945 53.9935
22.88488314827121 54.9319
22.907599215359284 55.633
22.93031619487366 56.8021
22.953211574954405 57.563
22.975930389478226 58.6128
22.998650119445763 59.028
23.02137076586092 58.6328
23.044269845560063 57.8418
23.06699233506288 56.4167
23.089715744034912 54.8515
23.112617610931565 53.0458
23.135342869061212 51.6541
23.158069049684816 50.7529
23.1807961538087 50.2481
23.20370174880544 50.1156
23.226430710184808 50.2026
23.249160598093425 50.2696
23.271891413539002 50.2298
23.294800752937697 50.2097
23.31753343374794 50.4604
23.340267045128353 50.3348
23.36300158808808 50.7447
23.38591468821339 51.0785
23.408651104658304 51.5332
23.431388455719986 51.9541
23.454126742409 52.6905
23.4770436196085 53.7626
23.499783787914662 54.7018
23.522524894889884 55.2763
23.54526694154616 56.4342
23.56818761219047 57.3092
23.59093154860734 58.1387
23.613676427751283 58.961999999999996
23.636422250635754 58.4565
23.659346731118656 57.5284
23.68209445191868 55.8317
23.704843119509587 53.8688
23.72759273490623 51.8417
23.750521041644767 50.3067
23.77327256312355 49.0802
23.796025035462787 48.2237
23.818956224555475 47.5376
23.841710609113413 47.3639
23.86446594758979 47.1464
23.887222241002014 46.7348
23.910157285144578 46.3618
23.932915498962537 46.4534
23.955674670778713 46.3813
23.978434801611975 46.1665
24.001373717286125 45.9071
24.024135776723917 45.8664
24.046898798245582 45.7889
24.06966278287146 45.6614
24.092605586582614 45.5067
24.115371508023642 45.3928
24.1381383956401 45.2539
24.16090625045381 45.3262
24.183852958731244 45.1909
24.206622758582608 45.0549
24.229393528706886 44.8374
24.252165270127392 44.9359
24.27511589952438 44.833999999999996
24.297889594216997 44.7895
24.32066426328598 44.4695
24.34343990775613 44.6243
24.36639447485003 44.3675
24.38917208083877 44.2789
24.41195066531332 44.1738
24.43490819850244 44.38
24.457688750692377 44.0939
24.48047028445616 44.1166
24.503252800821233 44.201
24.526214300784112 44.3264
24.548998793132213 44.122
24.57178427117417 43.9931
24.59457073593893 44.0513
24.617536219319863 44.1625
24.64032466834748 44.1539
24.663114107195035 43.9822
24.685904536893013 43.6651
24.708874020360852 43.6489
24.731666442613744 43.7662
24.754459858818787 43.5412
24.777254270007962 43.449
24.80022777025625 43.433
24.82302418230472 43.4034
24.845821592443674 43.4167
24.86862000170663 43.3872
24.891597535453727 43.0271
24.914397953892728 43.4457
24.93719937456671 43.2588
24.96000179851076 43.4176
24.98298338249997 43.6831
25.00578782394922 43.8802
25.028593271784167 43.8796
25.05157790644186 44.3311
25.07438537804115 44.3911
25.097193859145293 44.5828
25.120003350792075 44.6478
25.142992065061257 45.1276
25.165803588823465 45.2342
25.18861612625217 45.7008
25.211429678386736 45.7624
25.234422489079968 45.8324
25.257238081693636 45.9636
25.280054692141732 46.0454
25.3028723214652 45.9572
25.325869245420463 45.7905
25.348688923599397 45.8378
25.371509623787006 45.9006
25.394331347025812 45.7076
25.41733240110666 45.3068
25.440156181590016 44.7324
25.46298098826268 44.4406
25.48580682216873 43.8894
25.50881202326435 43.1415
25.53163992281684 42.7998
25.55446885274561 42.3687
25.577298814096377 42.025
25.600308179121807 42.0336
25.623140214533745 41.9904
25.64597328451537 41.8148
25.66898578564376 41.5412
25.691820936010206 41.602
25.714657124097695 41.595
25.737494350954734 41.6417
25.760511045684957 41.4927
25.783350361364224 41.5053
25.806190718969255 41.5563
25.82903211955018 41.762
25.852053024868923 41.7415
25.874896522722523 41.68
25.897741066713106 41.7008
25.920586657892454 41.7615
25.943611790812668 41.9366
25.966459487728237 42.0109
25.989308234998564 41.8065
26.01215803367705 42.3192
26.03518741123814 42.498999999999995
26.05803932412957 42.4495
26.080892291600094 42.5115
26.10374631470478 42.4937
26.12677995397268 42.7014
26.14963609978026 42.6815
26.172493304397875 42.4761
26.19535156888223 42.3814
26.218389486949604 41.9574
26.241249882640123 41.7214
26.26411134137826 41.4013
26.28715248187403 41.3753
26.31001607820869 41.2241
26.3328807407756 41.0431
26.35574647063438 41.1915
26.37879191991473 41.1349
26.401659795896734 41.2003
26.424528742360263 41.4306
26.447398760366614 41.56399999999999
26.470448535598294 41.7024
26.49332070826805 41.75
26.516193955675355 42.1096
26.53906827888316 42.1754
26.562122397260108 42.3097
26.584998883685063 42.6911
26.607876449110325 42.8068
26.63075509460056 42.8987
26.65381357334404 43.0233
26.67669439061878 43.1422
26.699576291163382 43.2203
26.722459276044212 43.153999999999996
26.745522132402975 42.7656
26.768407297649354 42.6274
26.791293550442003 42.3243
26.814180891848974 41.952
26.837248143099337 41.674
26.860137673466657 41.5794
26.88302829566349 41.2866
26.90592001075963 41.0632
26.92899167420566 40.9451
26.951885586870763 40.566
26.974780595655517 40.3468
26.99785558178161 40.2925
27.020752794605112 40.1151
27.043651106772522 39.9794
27.06655051935668 39.8581
27.089629948036183 39.7087
27.112531573292053 39.6689
27.135434302194138 39.8559
27.158338135817015 39.7421
27.181422024430987 39.544000000000004
27.204328079372566 39.4494
27.22723524226965 39.4993
27.250143514198573 39.4702
27.273231880156334 39.4611
27.296142382065014 39.3655
27.319053996245536 39.3044
27.341966723775965 39.3422
27.365059584515222 39.5386
27.38797455070062 39.5257
27.410890633481237 39.3274
27.433807833936918 39.3001
27.456905206923906 39.4142
27.47982465472398 39.4554
27.502745223449743 39.5349
27.525666914182825 39.5164
27.548768816912457 39.4804
27.571692763693633 39.4681
27.59461783573812 39.3021
27.617723149491244 39.2181
27.640650484125285 39.2495
27.66357894728264 39.2086
27.686508540048052 39.0992
27.709618414237887 39.0959
27.732550278321757 38.9244
27.755483275279115 38.8007
27.778417406196485 38.8596
27.801531858397514 38.744
27.824468269376716 38.7924
27.847405817586786 38.8083
27.870344504116094 38.9604
27.893463551932008 39.1013
27.916404527281053 39.3072
27.93934664422563 39.3872
27.962289903855886 39.2795
27.98541356491974 39.4981
28.00835912214229 39.582
28.03130582533231 39.8058
28.054253675581805 39.9733
28.077381967556104 39.8596
28.100332124185126 39.8523
28.123283431160893 40.0041
28.146235889577238 39.7901
28.169368830154156 39.5755
28.192323603752033 39.4703
28.215279532083304 39.1467
28.238415973016764 38.8554
28.261374223145094 38.8557
28.284333631303806 38.6133
28.307294198589954 38.4177
28.330435319167677 38.2406
28.353398217078915 38.0174
28.376362277420153 37.7153
28.39932750129032 37.5126
28.422473319286713 37.4422
28.44544088262495 37.4345
28.468409612800283 37.3226
28.491379510913497 37.0336
28.51453004413313 36.8383
28.53750229057244 36.879
28.56047570826344 36.7832
28.583450298308804 36.8039
28.606605564586562 36.586
28.629582511831156 36.6774
28.65256063474956 36.5431
28.675539934446338 36.5122
28.698699951647605 36.4727
28.72168161743193 36.4355
28.74466446331978 36.3762
28.767648490417624 36.2613
28.790813276438353 36.2772
28.813799678527303 36.2438
28.836787265157085 36.2848
28.859955641890075 36.3557
28.882945610203045 36.3643
28.905936766392035 36.2198
28.928929111566863 36.2842
28.952102288520145 36.1852
28.975097024308607 36.094
28.998092952423807 35.9074
29.021090073977508 35.918
29.04426806913204 35.7772
29.067267590245258 35.5105
29.090268308143695 35.4512
29.11327022394099 35.5088
29.13645305530891 35.3864
29.159457379627167 35.4777
29.18246290519685 35.306999999999995
29.20546963313352 35.2834
29.22865731875826 35.2949
29.25166646419296 35.213
29.27467681535305 35.0688
29.29768837335608 35.1495
29.320880931312562 35.1665
29.34389491580634 35.1023
29.366910110507334 35.069
29.38992651653503 35.0952
29.41312396492981 35.0991
29.436142806456754 35.0543
29.45916286268059 34.9327
29.48236399319994 34.9209
29.50538649169417 34.7058
29.528410208259935 34.7005
29.55143514402014 34.4838
29.574641196749695 34.3966
29.597668583816574 34.2309
29.6206971934585 34.0037
29.64372702680042 34.080999999999996
29.666938019934474 34.016
29.689970313635285 33.9278
29.713003834422636 33.88
29.73603858342347 33.751999999999995
29.759254535188578 33.7164
29.78229175361658 33.586999999999996
29.80533020365064 33.773
29.82836988641968 33.6826
29.85159081507472 33.6643
29.874632976355343 33.6153
29.89767637376955 33.6827
29.920721008448314 33.3919
29.9439469322847 33.5007
29.96699405457564 33.3299
29.9900424175358 33.4187
30.013092022298157 33.3594
30.03632295963995 33.3752
30.059375061131373 33.3037
30.08242840783577 33.3223
30.105483000888153 33.4062
30.128718970092244 33.2173
30.151776069006917 33.2423
30.17483441768648 33.2972
30.198074175317235 33.2594
30.221135036724256 33.3644
30.24419715131772 33.1462
30.267260520236203 33.1925
30.290505341942243 33.2477
30.313571232750228 33.2669
30.336638381310948 33.2616
30.35970678876503 33.0973
30.38295669299435 32.9792
30.40602763151657 32.9875
30.429099832366074 33.0061
30.452173296685572 32.8761
30.47542830191959 32.904
30.498504306502497 32.9234
30.521581577995562 32.9404
30.544660117543582 32.8512
30.56792024229725 32.9115
30.59100133132069 32.8962
30.614083691845494 32.9475
30.637167325018545 33.0025
30.660432587840603 33.0091
30.683518779717886 33.0581
30.70660624769615 33.0723
30.729694992924372 33.0182
30.75296541239743 32.9412
30.77605672557558 33.0296
30.799149319462742 32.9451
30.8224236211637 32.7801
30.845518789950724 32.7079
30.868615242910597 32.7917
30.891712981195973 32.5111
30.91499247215866 32.4662
30.938092794619365 32.4643
30.96119440587579 32.3234
30.984297307082752 32.2338
31.00758200598383 32.0585
31.030687500658694 32.0984
31.053794288760695 32.0025
31.076902371446767 31.8223
31.100192296997445 31.8332
31.12330298246119 31.8739
31.14641496599209 31.7312
31.169528248749216 31.833000000000002
31.19282341969534 31.8302
31.215939314557186 31.793000000000003
31.239056512134788 31.794
31.262175013589378 31.6891
31.28547544871168 31.6164
31.30859657161541 31.695999999999998
31.331719001892175 31.7053
31.35484274070538 31.8543
31.378148458819545 31.6732
31.401274828443725 31.6721
31.424402510106933 31.69
31.447712205419993 31.7124
31.470842524931633 31.5648
31.493974159989783 31.598000000000003
31.51710711176168 31.6178
31.54042212308802 31.6395
31.563557722100917 31.5212
31.586694641341655 31.5053
31.609832881979628 31.357
31.63315322823208 31.3073
31.656294125521327 31.1589
31.679436347728515 31.0168
31.70257989602529 31.0249
31.725905596152327 30.9606
31.74905181052835 30.8772
31.772199354521323 30.9679
31.79534822930507 30.9932
31.818679302290967 31.0205
31.84183085259981 30.8958
31.864983737233473 30.9154
31.88813795736804 30.9257
31.911474422233013 30.7799
31.934631327356435 30.8189
31.9577895715215 30.7247
31.980949155906522 30.8395
32.004291031706956 30.7928
32.027453310562606 30.67
32.05061693318573 30.4745
32.07396288236386 30.5541
32.09712920658542 30.4881
32.12029687812702 30.3597
32.14346589817093 30.3821
32.166817291729984 30.4375
32.18998902288583 30.2428
32.21316210610336 30.0981
32.23633654256711 30.0657
32.259693399663725 29.9685
32.282870556771144 29.9459
32.30604907069099 29.9878
32.329228942610065 29.9122
32.35259128243769 29.7365
32.375773884550505 29.6727
32.398957848235646 29.6558
32.422143174682176 29.6601
32.445511016471215 29.4845
32.468699082679954 29.5274
32.49188851523011 29.4386
32.51507931531304 29.4052
32.538452678331 29.4273
32.56164622776311 29.2035
32.58484114831493 29.2156
32.60803744118015 29.1794
32.631416344731896 29.1772
32.654615396551876 29.2561
32.67781582427913 29.1196
32.701198898634416 28.9582
32.72440209253756 28.9429
32.747606665947124 29.0759
32.77081262006088 28.9298
32.79420126883317 28.9121
32.81740999876112 28.8538
32.840620112999424 28.7409
32.86383161274818 28.766
32.88722585534586 28.7886
32.91044014056596 28.826
32.933655814909734 28.8024
32.95687287957963 28.7147
32.98027273544904 28.6672
33.00349259526636 28.6307
33.026713849030116 28.6255
33.04993649794511 28.5382
33.073341986570746 28.4892
33.09656744032826 28.5139
33.11979429286444 28.4624
33.14302254538647 28.4875
33.166433686291185 28.4014
33.18966475336992 28.3453
33.212897224069096 28.2808
33.23613109959831 28.3103
33.259547912343415 28.3313
33.2827846121627 28.2527
33.306022720453775 28.1761
33.32926223842861 28.0494
33.352684742614166 28.1401
33.37592709463173 28.1473
33.399170859982064 28.0459
33.422597648419426 27.9406
33.44584425514446 27.7952
33.46909227885668 27.7794
33.4923417207723 27.6654
33.51577423505344 27.774
33.539026528130385 27.6713
33.56228024307245 27.6453
33.585535381098246 27.4985
33.60897364093058 27.4798
33.63223163992385 27.5191
33.6554910656699 27.3448
33.678751919389796 27.4172
33.702195944520106 27.3323
33.72545966903325 27.3885
33.74872482519663 27.148000000000003
33.771991414233746 27.1897
33.79544122444841 27.2086
33.81871069412428 27.1443
33.84198160035767 27.0364
33.86525394437455 27.0244
33.88870955949969 26.9808
33.911984794020626 26.9946
33.93526147001624 26.9534
33.958539588715006 26.9383
33.98200102861669 26.8084
34.0052820477047 26.7994
34.02856451319451 26.7494
34.05203033759056 26.676
34.07531571090147 26.6484
34.09860253431845 26.6382
34.121890809074316 26.5679
34.145362493118924 26.5116
34.16865368561615 26.4683
34.191946333164054 26.3738
34.21524043699793 26.3948
34.23871800066799 26.3466
34.26201503218366 26.2297
34.28531352370466 26.2689
34.30861347646881 26.252
34.33209693978188 26.2076
34.3553998301885 26.1564
34.378704185565205 26.0592
34.402010007152356 26.0447
34.42549939016683 25.995
34.44880815937748 25.9682
34.472118398533134 25.8905
34.49543010887669 25.875999999999998
34.51892543169198 25.8473
34.54224009966052 25.791999999999998
34.56555624255917 25.7882
34.58887386163339 25.7503
34.61237514439016 25.677
34.6356957311114 25.7327
34.65901779775809 25.5562
34.68252356662995 25.4921
34.705848608458616 25.5103
34.72917513396849 25.4402
34.75250314440949 25.4406
34.77601490857862 25.3592
34.799345904259795 25.273000000000003
34.82267838863559 25.3779
34.846012362958525 25.3085
34.869530142679984 25.2272
34.89286711232212 25.226999999999997
34.91620557568269 25.3033
34.93954553401677 25.1475
34.9630693495876 25.0779
34.986412313340814 25.1061
35.00975677584668 25.136
35.033102738362956 25.1364
35.05663261012228 24.9754
35.0799815881786 25.0028
35.10333207003229 24.9063
35.12668405694369 24.8861
35.150220005273056 24.8604
35.17357501786656 24.8595
35.19693153931268 24.7933
35.220289570874385 24.7733
35.24383161619786 24.7564
35.267192683604904 24.7975
35.290555264930376 24.7143
35.314101899412165 24.701999999999998
35.33746752422433 24.6179
35.36083466676374 24.6619
35.38420332829803 24.6348
35.407756095629054 24.6276
35.43112781085063 24.5948
35.45450104888391 24.4209
35.477875810999194 24.5916
35.50143473172161 24.4975
35.52481255774625 24.523000000000003
35.54819191167777 24.4572
35.57157279478914 24.3661
35.595137889488406 24.3978
35.61852184675279 24.3116
35.641907337029984 24.1531
35.665294361595684 24.2224
35.68886565090076 24.1264
35.7122557598848 24.1021
35.73564740699838 24.0612
35.759040593519934 24.1097
35.78261809810353 24.0551
35.80601437933051 23.9832
35.829412203814705 23.9508
35.85281157283719 23.8451
35.876395313415884 23.859
35.8997977874528 23.8266
35.92320180988546 23.7765
35.946790244133936 23.6466
35.97019737933222 23.7876
35.993606066789866 23.6009
36.01701630779276 23.6539
36.04061101440684 23.5746
36.06402437852291 23.5852
36.08743930005611 23.6587
36.1108557802951 23.453000000000003
36.13445678011326 23.4257
36.15787639383515 23.4173
36.18129757014299 23.4636
36.20472031032821 23.3305
36.22832762423364 23.2837
36.25175350829375 23.2735
36.275180960119776 23.1686
36.298609981005924 23.2648
36.32222362992669 23.2598
36.34565580510207 23.1539
36.36908955323448 23.0574
36.39252487562093 23.0178
36.416144880530226 23.0225
36.43958336764275 23.0031
36.463023432914625 23.0658
36.486465077645676 22.945999999999998
36.51009145956204 22.9986
36.53353627947859 22.9549
36.55698268276811 22.8626
36.58043067073321 22.8897
36.60406345072071 22.7759
36.62751462435344 22.764
36.65096738658405 22.7335
36.67460498210655 22.6997
36.69806093788647 22.6821
36.72151848619297 22.6171
36.744977628333636 22.633000000000003
36.76862165890998 22.4922
36.79208400512205 22.5921
36.81554794910557 22.48
36.83901349217101 22.3574
36.862663978991606 22.4219
36.88613273667352 22.4175
36.90960309738324 22.3374
36.933075062434064 22.1882
36.95673202673572 22.2523
36.98020721697122 22.221999999999998
37.003684015502365 22.226
37.027162423645365 22.1503
37.050825886711465 22.0681
37.07430753063053 22.0231
37.09779078812467 22.1166
37.121275660513014 21.9555
37.144945643673694 22.0335
37.16843376245278 21.9401
37.19192350009803 21.999000000000002
37.215414857931435 21.895
37.239091382563885 21.7969
37.262585997426164 21.8497
37.28608223645736 21.8587
37.309763684451696 21.7735
37.33326318851098 21.7001
37.356764320726555 21.7189
37.380267082425526 21.6285
37.40395510942588 21.6917
37.42746114683234 21.5852
37.45096881771841 21.5133
37.474478123414166 21.5996
37.49817275092816 21.5169
37.52168534303452 21.54
37.54519957395567 21.3956
37.568715445024665 21.4112
37.592416694607714 21.2796
37.61593586281424 21.3459
37.63945667518264 21.383000000000003
37.66297913304891 21.2943
37.68668702630454 21.2065
37.710212792059274 21.1512
37.733740207334854 21.1397
37.757269273470364 21.0799
37.780983832050374 21.0569
37.80451621684926 21.0109
37.82805025654007 21.0099
37.851585952464795 20.9553
37.8753071980695 20.8927
37.89884622345676 20.8719
37.92238690911902 20.8345
37.94611318753442 20.7914
37.969657210779765 20.7835
37.99320289834801 20.8506
38.016750251586465 20.6807
38.04048325513017 20.7155
38.06403395679343 20.6592
38.087586328183946 20.6117
38.11114037065203 20.5915
38.13488012115898 20.6289
38.1584375229181 20.529
38.181996599821 20.459
38.205557353221124 20.473
38.229303872575656 20.4559
38.2528679961576 20.4267
38.27643380031219 20.403
38.30000128639589 20.3351
38.32375459653193 20.4144
38.34732546371299 20.2955
38.37089801690786 20.1864
38.39447225747609 20.1921
38.418232380377425 20.1779
38.441810012983396 20.1446
38.46538933705673 20.1066
38.488970353960084 20.1229
38.51273731166058 20.0525
38.536321731567014 19.9673
38.55990784840681 19.9529
38.58367995004091 19.9369
38.60726947812959 19.8735
38.63086070726198 19.889
38.654453638806274 19.8941
38.678232613930824 19.8291
38.70182896773327 19.7818
38.72542702806741 19.6797
38.7490267963045 19.7801
38.77281266709232 19.697
38.79641586862214 19.624000000000002
38.8200207821842 19.6111
38.843627409152944 19.6307
38.86742019782782 19.5985
38.891030269149255 19.5116
38.914642058016156 19.5264
38.938255565806124 19.5229
38.96205529464307 19.4379
38.98567225787121 19.4309
39.00929094417078 19.3247
39.03291135492255 19.3968
39.05671804624804 19.3492
39.080341923549106 19.2014
39.103967529460334 19.2356
39.127594865365744 19.2432
39.15140854155791 19.222
39.17503935514948 19.203
39.19867190290282 19.1767
39.22249083587951 19.1213
39.24612686969409 19.074
39.269764641845306 19.1205
39.293404153722804 19.0768
39.317230110864074 18.9407
39.34087311998506 18.9184
39.36451787301696 18.9603
39.388164371352595 18.8566
39.41199737518003 18.8497
39.43564738196752 18.8309
39.45929913825317 18.8879
39.48295264543308 18.7934
39.506792718520884 18.714000000000002
39.530449745387216 18.6861
39.55410852735203 18.7097
39.57776906581474 18.7625
39.60161623079 18.5935
39.625280300200025 18.5668
39.64894613032202 18.5507
39.67261372255866 18.5521
39.6964680021016 18.527
39.72013913657293 18.5158
39.74381203738292 18.4878
39.76748670593756 18.4842
39.79134812278169 18.462
39.81502634488497 18.3945
39.83870633896685 18.3494
39.862388106436654 18.2985
39.88625668336918 18.3062
39.90994201572829 18.2416
39.933629125719285 18.2488
39.957503091207826 18.1404
39.9811937746168 18.2281
40.00488623990914 18.1498
40.02858048850006 18.1379
40.05246165409549 18.0487
40.076159487492085 17.9988
40.099859108448875 17.9997
40.123560518384345 17.9863
40.1474489070226 18.0333
40.171153913178564 17.9319
40.194860712584955 17.9278
40.2185693066637 17.884
40.242464941335314 17.8529
40.26617714307655 17.8383
40.289891143772046 17.8189
40.3136069448471 17.7905
40.33750984859743 17.7255
40.3612292688043 17.7268
40.3849504936829 17.6742
40.40867352466194 17.6386
40.43258372059144 17.658
40.45631038219906 17.6151
40.48003885420956 17.5714
40.503769138055105 17.5291
40.52768664931955 17.5253
40.55142057531802 17.4819
40.57515631746428 17.445
40.599079334038514 17.4558
40.62281872700477 17.357
40.64655994043941 17.4022
40.67030297578061 17.3948
40.69423334835778 17.32
40.71798004609188 17.3073
40.74172857006355 17.2634
40.76547892171441 17.2395
40.7894166736039 17.2548
40.813170699248566 17.1622
40.83692655691388 17.0996
40.86068424804498 17.1468
40.884629402612525 17.0572
40.908390779366385 17.0274
40.932153993938 17.0287
40.95591904777605 17.0623
40.979871628443995 17.0256
41.003640379561936 17.0741
41.02741097430883 16.942999999999998
41.05118341413683 16.9019
41.075143444384416 16.9302
41.098919593177826 16.8762
41.1226975914255 16.8581
41.14647744058318 16.8143
41.170444943946755 16.8171
41.19422851378379 16.783
41.218013938914645 16.6908
41.24198706625173 16.6735
41.26577622087193 16.6878
41.289567235177785 16.641
41.31336011063129 16.6818
41.337340752422875 16.566
41.361137369129835 16.6048
41.38493585138705 16.4818
41.40873620066004 16.5189
41.43272438060107 16.4873
41.45652848292052 16.4148
41.48033445666918 16.3921
41.50414230331616 16.3752
41.528138045159764 16.4034
41.551949656675205 16.2658
41.575763145513235 16.297
41.59957851314666 16.297
41.62358184070442 16.246
41.64740098505737 16.2256
41.6712220126409 16.2012
41.69504492493139 16.0946
41.71905586207357 16.1016
41.74288256296395 16.1098
41.766711153007456 16.105999999999998
41.79054163368412 16.0111
41.814560204340054 16.0497
41.838394485526365 16.0437
41.86223066180303 15.9464
41.88625497706819 15.914000000000001
41.910094962812 15.8987
41.93393684811168 15.9399
41.95778063445365 15.8214
41.981812625263366 15.8438
42.00566023303407 15.8911
42.029509746323676 15.8276
42.05336116662236 15.8182
42.077400857069705 15.7874
42.10125611078846 15.7409
42.12511327600405 15.6805
42.14897235421036 15.642000000000001
42.173019768448455 15.6166
42.19688269209613 15.62
42.22074753323349 15.5913
42.24461429335818 15.5557
42.268669455600495 15.5008
42.292540073217886 15.4849
42.31641261433284 15.4722
42.34028708044675 15.4162
42.36435001496739 15.4524
42.38822835065557 15.3887
42.41210861586426 15.3699
42.4359908120986 15.3953
42.46006154323262 15.339
42.48394762115317 15.2893
42.507835634632315 15.2805
42.531912233047436 15.248
42.55580413732265 15.2621
42.579697981698 15.1844
42.60359376768525 15.1831
42.62767820545945 15.1316
42.65157789440821 15.1085
42.67547952952185 15.1353
42.699383112316 15.068
42.72347541395347 14.9802
42.74738291190531 15.0047
42.771292362102166 15.0136
42.795203766063516 14.9927
42.819303956130405 14.9367
42.843219287476536 14.8856
42.86713657716324 14.8709
42.89105582671383 14.837
42.91516392983864 14.8345
42.939087119032166 14.7596
42.963012272677304 14.797
42.98693939230129 14.7539
43.01105543317513 14.7364
43.034986504731386 14.7144
43.05891954686589 14.698
43.08285456110972 14.6776
43.10697856448665 14.6416
43.130917542983475 14.5827
43.15485849820081 14.6247
43.17880143167367 14.5342
43.20293342237094 14.5145
43.226880332449 14.5018
43.25082922540554 14.5119
43.27496722682525 14.4761
43.29892010567796 14.4294
43.32287497204102 14.3855
43.34683182745632 14.3929
43.370977859791836 14.349
43.39493871351105 14.3355
43.41890156092628 14.3456
43.44286640358341 14.2914
43.46702049182749 14.2689
43.49098934522816 14.2794
43.51496019852649 14.2472
43.5389330532723 14.1759
43.56309522248204 14.1611
43.58707210044314 14.0898
43.61105098451946 14.052999999999999
43.63503187626491 14.055
43.659202151562134 13.9982
43.68318707902681 14.0115
43.70717401884041 13.9356
43.731162972560874 13.9383
43.75534137913236 13.9395
43.779334381108384 13.8963
43.803329401683186 13.9194
43.82732644241872 13.8861
43.8515130055166 13.8683
43.87551410707659 13.8041
43.89951723350145 13.792
43.923709934595614 13.7816
43.94771713129917 13.8281
43.97172635758096 13.7774
43.99573761501002 13.7256
44.0199385169922 13.7083
44.04395385732619 13.6802
44.067971233533086 13.6308
44.09199064718605 13.6138
44.11619977548961 13.5725
44.14022328470671 13.5961
44.16424883610785 13.5842
44.18827643127035 13.5152
44.21249381139513 13.5382
44.236525514814076 13.4651
44.26055926674478 13.4951
44.28459506876863 13.458
44.3088207262813 13.3851
44.33286064928722 13.3722
44.35690262714919 13.3387
44.38094666145278 13.3637
44.4051806219871 13.3282
44.42922879003185 13.2145
44.45327901929361 13.2252
44.477331311362136 13.2629
44.501573600619416 13.1948
44.525630039221795 13.1664
44.54968854541895 13.1888
44.573937102200176 13.1327
44.5979997645541 13.1595
44.622064499300315 13.1121
44.64613130803592 13.0728
44.67038823869318 13.0975
44.69445921643748 13.035
44.718532272981385 12.9983
44.742607409926194 12.9697
44.76687274034801 12.9573
44.79095205918753 12.9326
44.81503346325094 12.8772
44.839116954143876 12.8914
44.86339071028742 12.9064
44.88747839599524 12.86
44.91156817336837 12.8518
44.93566004401666 12.822000000000001
44.959942251908146 12.8599
44.984038330325966 12.7909
45.00813650686762 12.7135
45.03223678314731 12.7501
45.05652746888232 12.71
45.08063196592069 12.6579
45.104738567558705 12.622
45.128847275414856 12.6856
45.15314646515866 12.5771
45.17725940679741 12.588
45.20137445952892 12.5751
45.22568004865265 12.5633
45.24979934496396 12.5472
45.27392075725247 12.5294
45.29804428714431 12.4883
45.322358426247604 12.4397
45.346486212804315 12.4081
45.370616121861914 12.3994
45.39474815505086 12.3466
45.41907087049246 12.3017
45.4432071734666 12.3204
45.46734560548283 12.3599
45.49148616817604 12.3359
45.51581748638564 12.2618
45.5399623320197 12.2778
45.56410931325473 12.2266
45.58825843173002 12.2626
45.61259837920865 12.2112
45.636751793816 12.224
45.66090735060093 12.139000000000001
45.68506505120716 12.1381
45.7094136545275 12.0978
45.73357566449271 12.0773
45.75773982322992 12.0697
45.78190613238733 12.0415
45.806263418194064 12.0221
45.83043404997326 12.0016
45.85460683713677 11.9823
45.87897065658495 11.9488
45.90314777634752 11.9481
45.92732705646868 11.9113
45.9515084986045 11.8923
45.97588104735473 11.9484
46.00006683541565 11.8674
46.02425479047904 11.81
46.04844491420549 11.8191
46.0728262191024 11.8242
46.09702070211635 11.8237
46.12121735879483 11.7786
46.14541619080294 11.7574
46.169806278764455 11.7357
46.194009483459034 11.6913
46.21821486849841 11.6687
46.24242243555223 11.6673
46.266821333570014 11.6263
46.29103328674601 11.618
46.31524742696538 11.5963
46.33946375590237 11.5742
46.36387149104216 11.5317
46.38809221957392 11.502
46.41231514186606 11.5039
46.436540259597464 11.4648
46.460956858999374 11.455
46.48518638983522 11.3936
46.509418121166966 11.3996
46.533652054678114 11.4096
46.55807754555709 11.3702
46.58231590571962 11.3765
46.60655647313217 11.3123
46.630988654873654 11.2798
46.655233659129024 11.2566
46.67948087571551 11.2989
46.70373030632484 11.2967
46.72817142736393 11.2343
46.752425308428684 11.1995
46.77668140861147 11.1715
46.80093972960865 11.1802
46.82538981736788 11.1455
46.849652602470904 11.1132
46.87391761349769 11.0722
46.8981848521493 11.0733
46.9226439341274 11.0527
46.946915650573224 11.0337
46.97118959976749 11.0223
46.99546578341598 10.9747
47.019933887188216 10.9864
47.04421456235744 10.9773
47.06849747711879 10.9357
47.09278263318286 10.929
47.11725978640143 10.8932
47.14154944775105 10.8552
47.165841355555656 10.8675
47.1901355115306 10.8447
47.214621741924994 10.8162
47.23892041698887 10.7676
47.26322134538975 10.7486
47.28771440635075 10.7463
47.31201986422527 10.76
47.33632758061436 10.7108
47.360637557241866 10.6724
47.38513974410611 10.6597
47.40945426407847 10.6573
47.43377104948137 10.6297
47.45809010204344 10.6284
47.48260144275502 10.6367
47.506925052572285 10.5729
47.53125093475548 10.5595
47.55557909103813 10.5406
47.58009961361992 10.5088
47.60443234110732 10.5327
47.62876734791564 10.4601
47.65310463578333 10.4693
47.6776343683373 10.4702
47.7019762413987 10.3911
47.72632040075572 10.3797
47.75066684815169 10.3778
47.77520581885936 10.3396
47.799556865477655 10.3161
47.823910205386 10.3002
47.84826584033272 10.3247
47.87281407745551 10.2639
47.89717432569297 10.2538
47.92153687423484 10.2838
47.94609208429692 10.2483
47.97045925671401 10.2204
47.99482873471275 10.1636
48.01920052005013 10.1736
48.04376504619224 10.1571
48.068141469543484 10.1671
48.09252020552573 10.1232
48.11690125590099 10.0743
48.1414751266064 10.0645
48.16586082917454 10.0703
48.19024885144316 10.0018
48.2146391951793 10.0408
48.239222439012764 10.0382
48.26361744916137 10.0013
48.28801478610016 10.0121
48.31241445160131 9.97984
48.337007097209366 9.9502
48.36141144338331 9.932210000000001
48.38581812345755 9.8998
48.41022713920929 9.903030000000001
48.434829215320704 9.901589999999999
48.45924292604658 9.87454
48.48365897780325 9.82952
48.50807737237308 9.810780000000001
48.532688907799276 9.83337
48.55711201168574 9.810319999999999
48.581537463754074 9.76423
48.60615611725119 9.774610000000001
48.63058628942721 9.717
48.65501881516546 9.698189999999999
48.6794536962573 9.72108
48.70408185970339 9.69401
48.72852147531801 9.67803
48.75296345168211 9.64311
48.77740779059232 9.61278
48.80204549302823 9.631910000000001
48.82649458091802 9.59123
48.85094603676547 9.599860000000001
48.87539986237231 9.52086
48.90004713292306 9.5378
48.92450572200832 9.51924
48.94896668628025 9.4864
48.97343002754588 9.48166
48.99808689542115 9.46454
49.02255501470614 9.466660000000001
49.04702551642794 9.442860000000001
49.0714984023988 9.41028
49.096164896893235 9.407910000000001
49.120642575466796 9.38866
49.145122643748394 9.34652
49.16960510355558 9.33042
49.19428125404938 9.33527
49.2187685210852 9.29905
49.243258185121555 9.31133
49.26794160167084 9.24825
49.2924360839405 9.21514
49.31693296869764 9.279119999999999
49.34143225776915 9.25568
49.36612538195438 9.182730000000001
49.39062950396021 9.199869999999999
49.41513603578346 9.15237
49.4396449792564 9.12668
49.46434784069503 9.12459
49.488861631846454 9.0731
49.513377840166804 9.068060000000001
49.537896467493745 9.04391
49.56260909589029 9.03633
49.587132585683285 9.07381
49.611658500018365 9.083210000000001
49.636186840738596 9.03035
49.66090926588511 8.978819999999999
49.685442483902584 8.94363
49.70997813385706 8.913839999999999
49.734516217597076 8.92191
49.75924846937352 8.90468
49.7837914452858 8.9142
49.80833686055187 8.89016
49.83288471702571 8.849789999999999
49.85762682540054 8.86738
49.882179588965734 8.83821
49.9067347993235 8.79385
49.93129245833333 8.80824
49.95604445336378 8.80647
49.98060703442832 8.74508
50.005172069746266 8.75212
50.02993150438364 8.75197
50.05450147301533 8.72893
50.07907390151433 8.710469999999999
50.10364879174981 8.67178
50.12841816587289 8.66288
50.1529980044635 8.653189999999999
50.17758031042124 8.62923
50.20216508562089 8.64509
50.22694442953363 8.62102
50.25153416817468 8.5983
50.27612638170508 8.57727
50.300721072005196 8.5486
50.325510416102105 8.53802
50.350110084975064 8.51764
50.37471223628208 8.527510000000001
50.39931687190919 8.46142
50.424116246675766 8.44903
50.44872587605249 8.455039999999999
50.47333799543065 8.417060000000001
50.49795260670191 8.443
50.52276204271512 8.40813
50.54738166295838 8.38761
50.57200378079314 8.36561
50.596628398116835 8.34939
50.62144792604559 8.32934
50.646077567609396 8.291210000000001
50.670709714377715 8.29922
50.69553683636198 8.28631
50.72017401885922 8.287189999999999
50.7448137122895 8.251430000000001
50.76945591856022 8.27937
50.79429318636823 8.24815
50.818940443716784 8.207939999999999
50.84359021965163 8.186919999999999
50.868242516085964 8.219
50.893089960641895 8.1769
50.917747323549435 8.10712
50.94240721271973 8.12606
50.96706963007175 8.138119999999999
50.99192728239342 8.11927
51.01659478166073 8.10542
51.04126481489051 8.07579
51.06593738400761 8.054960000000001
51.090805275207074 7.9956
51.11548294172845 7.9885399999999995
51.14016314993547 8.022680000000001
51.164845901758845 8.00924
51.18972406304274 7.987589999999999
51.21441192780656 7.93192
51.23910234200271 7.962680000000001
51.2637953075678 7.9179699999999995
51.288683770237945 7.92742
51.31338186432707 7.88088
51.33808251561888 7.854480000000001
51.362978729967345 7.84398
51.387684521509755 7.8182
51.41239287610203 7.81119
51.437103795691165 7.803160000000001
51.46201036644977 7.79628
51.486726441956634 7.75813
51.51144508832545 7.770630000000001
51.536166307509156 7.77108
51.56108326624387 7.72387
51.58580965706056 7.706860000000001
51.61053862657523 7.6817
51.635270176746864 7.6675
51.66019755512065 7.69805
51.68493429268881 7.6957699999999996
51.70967361681515 7.68318
51.73441552946465 7.61442
51.759353359237934 7.59881
51.7841004750961 7.59845
51.80885018539685 7.563219999999999
51.833602492111254 7.55767
51.8585508051424 7.53344
51.883308330926425 7.535810000000001
51.90806845906181 7.506
51.932831191525715 7.48043
51.95779001977161 7.44724
51.98255798721516 7.42365
52.00732856494335 7.40706
52.03229530577543 7.40625
52.057071130455945 7.42944
52.081849571391054 7.39128
52.106630630568695 7.41293
52.13160794279417 7.34202
52.15639426492067 7.33245
52.18118321127822 7.3398
52.205974783860896 7.31504
52.23096269971011 7.282430000000001
52.255759551287994 7.24202
52.280559035098186 7.23953
52.30536115314103 7.25655
52.33035970494467 7.252089999999999
52.35516711807904 7.2165
52.37997717147198 7.19712
52.40478986713005 7.241339999999999
52.42979908731974 7.19292
52.454617094216 7.17208
52.47943774942214 7.13594
52.50426105495102 7.1261399999999995
52.529280976059844 7.118539999999999
52.554109609024096 7.08454
52.57894089837482 7.0653
52.60377484613117 7.07515
52.62880550079408 7.066510000000001
52.65364479223379 7.0239199999999995
52.67848674816189 7.009810000000001
52.70352547971946 7.00935
52.72837279155837 6.99728
52.753222773982785 6.96065
52.778075429022984 6.9553
52.80312495150885 6.95321
52.827982978797436 6.9368
52.85284368481815 6.9125
52.87770707160767 6.893110000000001
52.90276741793998 6.894489999999999
52.92763619336701 6.868339999999999
52.952507655698504 6.86567
52.977381806977576 6.8787
53.00245301017842 6.867210000000001
53.02733256653592 6.80753
53.052214817996074 6.83363
53.077099766608484 6.810339999999999
53.102181859804446 6.799919999999999
53.127072229988265 6.814430000000001
53.15196530349892 6.78885
53.17686108239249 6.7443800000000005
53.20195409881522 6.754630000000001
53.22685531582556 6.70755
53.25175924441303 6.670789999999999
53.27666588664027 6.6627600000000005
53.30176985962693 6.671639999999999
53.3266819565689 6.6853
53.35159677336455 6.614719999999999
53.376514312083096 6.66408
53.40162927507703 6.6529
53.42655228516116 6.62447
53.45147802340193 6.616460000000001
53.47660125628886 6.54956
53.50153247842639 6.54519
53.52646643496923 6.51347
53.55140312799818 6.4755
53.576537409691696 6.51729
53.60147960336152 6.51035
53.626424539786164 6.443969999999999
53.65137222105307 6.45052
53.67651758529126 6.45177
53.70147078399681 6.418069999999999
53.72642673383343 6.42382
53.75138543689533 6.44468
53.776541917524526 6.38208
53.801506154876755 6.40521
53.826473151763246 6.37549
53.851442910284916 6.309769999999999
53.87661054126026 6.31824
53.9015858509782 6.34866
53.92656392866066 6.33413
53.95154477641532 6.34271
53.976723591801296 6.26839
54.00171000771266 6.25024
54.02669920004598 6.2615099999999995
54.051691170915745 6.2538
54.076881204886796 6.23602
54.101878760928514 6.23377
54.12687910187696 6.19813
54.152077577768296 6.13445
54.1770835166946 6.16438
54.20209224691339 6.13361
54.22710377055121 6.1561
54.25231352511594 6.16277
54.27733066384342 6.09336
54.30235060239643 6.086040000000001
54.32737334290836 6.09331
54.35259441062629 6.01382
54.377622783395324 6.0336
54.40265396455061 6.011019999999999
54.42768795623251 6.019819999999999
54.45292037169559 5.92807
54.477960012857906 5.9432
54.50300247099511 5.94801
54.52804774825457 5.9553199999999995
54.55329154616743 5.905930000000001
54.57834249018678 5.91035
54.6033962597977 5.88035
54.6284528571545 5.82408
54.653708072335164 5.83515
54.67877035378786 5.75497
54.70383546947698 5.79914
54.72890342156389 5.73965
54.7541700889442 5.7225
54.77924374251975 5.740530000000001
54.8043202390049 5.7602
54.82959552413022 5.7044
54.8546777351945 5.6460300000000005
54.87976279569621 5.63501
54.90485070780914 5.66812
54.930137506558005 5.65385
54.95523115074295 5.64059
54.98032765308844 5.616969999999999
55.005427015775496 5.60605
55.03072536339621 5.59591
55.05583047570572 5.4829300000000005
55.080938454927676 5.48473
55.10604930325027 5.49892
55.131359235107396 5.4681
55.15647585066083 5.44718
55.181595341907496 5.42063
55.20671771104285 5.40431
55.232039262617704 5.3886
55.25716741665048 5.342980000000001
55.28229845518636 5.3705
55.30743238042802 5.33522
55.33276558731939 5.27105
55.357905315183636 5.24204
55.383047936390035 5.1923
55.40819345314859 5.18967
55.433538351073295 5.15869
55.458689688238415 5.18126
55.483843927614096 5.12061
55.509197623043605 5.12453
55.53435769621134 5.11718
55.55952067826466 5.00258
55.5846865714265 5.02347
55.61005202069737 5.0476
55.63522376553902 5.0437199999999995
55.66039842818645 4.96903
55.68557601087004 4.9486300000000005
55.7109532500271 4.92019
55.73613670233794 4.97537
