TT I
1.2716486653135266 7.23365
1.2939594142134223 6.8261899999999995
1.3162702121660406 6.25171
1.3385810600174564 6.42715
1.3608919586137629 6.99563
1.383202908801069 6.36017
1.405513911425503 5.60038
1.4278249673332093 5.79999
1.4501343378461518 5.94715
1.4724455028545926 5.57584
1.4947567236847858 6.0340300000000004
1.517068001182951 5.70516
1.5393793361953272 5.76178
1.5616907295681737 5.8253
1.5840021821477681 5.4459599999999995
1.60631369478041 5.37451
1.6286252683124185 5.64032
1.6509369035901333 5.0204699999999995
1.6732468618895553 5.04675
1.695558623192809 4.8041599999999995
1.7178704487808514 5.74105
1.7401823395001077 4.99908
1.7625012545597203 5.035769999999999
1.7848028405262486 5.09791
1.8071218901122095 4.91182
1.8294236121921872 4.58462
1.8517427996910911 4.88745
1.8740620574440425 4.78607
1.8963639900671978 4.56042
1.9186833908139995 4.87686
1.9409854680117449 4.8465
1.9633050151394713 4.61848
1.9856246367570705 5.45841
2.0079269371922672 5.18797
2.03024671027244 4.60431
2.0525491637446027 4.63733
2.074869091674931 4.48304
2.097171701569106 4.90644
2.1194917877373847 4.87003
2.141811954326636 5.10912
2.164114805233074 5.19226
2.186435135143035 6.20771
2.208738150935709 15.5161
2.231058647554722 35.5696
2.2533792288321184 27.7503
2.275682498336085 12.1243
2.298003251406138 6.76337
2.3203066942619714 5.48313
2.3426276225136022 5.0949
2.3649486396617507 5.1470400000000005
2.387252348930071 6.06913
2.4095735463442893 5.4375800000000005
2.4318774374315884 6.085369999999999
2.4541988185014043 6.0201
2.476502894794693 6.03453
2.498824462909887 6.6753800000000005
2.521146125856138 6.5541
2.5434504863470337 6.62315
2.5657723414244717 7.31049
2.588076895590662 8.60843
2.610398946189713 8.10453
2.6327210958598384 7.605989999999999
2.6550259469304716 7.89405
2.6773482972090137 7.942
2.6996533504259 8.13239
2.7219759047039602 7.708989999999999
2.744298562293959 8.16685
2.7666039251246595 8.20227
2.7889267918020164 7.42617
2.8112323652516555 7.635039999999999
2.833555444408179 8.33168
2.8558786311183852 7.89704
2.8781845268938557 8.4025
2.9005079311721484 8.125860000000001
2.9228140460410397 8.72311
2.9451376712799635 9.38075
2.967444008632326 9.3853
2.9897678582247247 9.98358
3.0120918213106695 10.0955
3.0343984987899373 10.6223
3.0567226913198637 11.3236
3.079029599759726 12.0435
3.101354025127254 12.6462
3.123678568232338 13.1564
3.145985829517914 13.0472
3.16831061055229 13.814
3.1906181112775593 14.264000000000001
3.212943133635653 14.8754
3.2352682779763207 15.5509
3.2575761442691227 15.3395
3.2799015350264273 16.0669
3.302209649240067 16.4135
3.3245352898092655 17.0106
3.3468436553365257 17.1898
3.369169549113219 18.4584
3.3914955708171384 18.5978
3.413804319727358 19.1671
3.4361305997334863 19.3422
3.4584396084414553 19.7095
3.4807661501462652 20.242
3.503092824025881 20.9901
3.5254022288463154 21.2187
3.5477291695206588 22.0939
3.5700388426251948 22.2769
3.5923660534916446 24.2426
3.6146934007816114 43.2067
3.637003482731501 110.171
3.6593311053109985 123.833
3.681641464033634 68.7118
3.7039693653009733 33.4445
3.726297407241705 26.9955
3.7486081875460804 26.1265
3.7709365132734978 26.4527
3.793247578841633 26.8783
3.8155761917550093 27.0688
3.8378875459837216 27.682
3.8602164494827234 27.8761
3.882545499606844 28.7858
3.9048572932539183 28.9839
3.9271866390645718 29.9608
3.9494987298666713 30.3939
3.971828374764527 30.7223
3.9941581705403255 31.2378
4.016470713506008 32.0159
4.038800813471445 32.7061
4.061113662089144 33.3368
4.0834440696459176 34.4657
4.105774632334751 34.7861
4.128087945865126 35.2583
4.150418821249301 36.3885
4.172732448931298 37.4146
4.195063640413578 39.891999999999996
4.2173775856475215 44.8275
4.239709096631102 84.8252
4.262040768704612 299.372
4.284355196706267 418.25800000000004
4.306687193387355 267.303
4.329001947444346 96.02799999999999
4.35133427213731 50.8393
4.373666762177566 46.3811
4.395982011761091 45.3319
4.418314834921175 46.3121
4.44063041906622 56.2614
4.4629635787515625 71.5724
4.4852969080429785 71.4035
4.5076130004776225 56.9593
4.529946671403969 51.1759
4.552263106909177 51.1282
4.574597122877047 52.0112
4.596931312711224 53.3839
4.619248269273446 54.1291
4.6415828092605835 55.0168
4.663900117405352 56.0432
4.686235010953232 57.5659
4.708552674085913 58.4252
4.730887924602802 59.786
4.753223354952695 61.5627
4.775541557023902 63.068000000000005
4.797877349456786 63.9703
4.820195915032126 66.4477
4.842532072957498 67.9654
4.864868414979744 69.8903
4.88718753227192 71.7353
4.909524244902505 73.8898
4.931843734218147 75.2003
4.954180820867835 78.1193
4.976518095879839 81.1468
4.998838149695359 84.0498
5.021175803844231 87.3234
5.043496238205739 90.6088
5.065834274903528 95.2542
5.088172504230693 100.564
5.1104935158799565 107.059
5.132832132875765 133.332
5.155153533596801 189.687
5.1774925416746225 227.53900000000002
5.199814334878411 375.20300000000003
5.2221537374521505 1032.71
5.244493338631803 2756.32
5.266815727034316 7192.3
5.289155727832427 12019.7
5.311478517248165 9331.2
5.333818921080011 3350.41
5.356159527788849 677.41
5.3784829252032536 205.832
5.400823940070432 153.106
5.423147747031976 134.181
5.445489173474152 122.905
5.467830807066149 116.189
5.490155234831516 111.45700000000001
5.512497285125229 107.7
5.534822130975162 105.429
5.557164601388673 103.439
5.579489868738879 100.42399999999999
5.601832762690846 100.11399999999999
5.6241758697774475 98.9244
5.646501775867269 98.0979
5.668845311622074 96.2745
5.691171647754637 95.3954
5.713515615597765 94.1587
5.735859800852677 93.3021
5.758186788542988 92.5758
5.780531411018185 92.5307
5.802858837297399 91.7426
5.825203900414495 91.1013
5.8475491852224 91.8883
5.869877275883075 92.852
5.892223006467101 93.9698
5.914551544266608 95.177
5.936897724049891 98.1096
5.959244129804903 103.57700000000001
5.981573344815301 120.741
6.0039202049061 207.856
6.026249875609095 451.281
6.04859719346037 954.283
6.070927323278297 2055.73
6.093275102315365 4116.21
6.115623113320588 5234.34
6.137953938319995 3498.46
6.160302415650845 1231.06
6.182633708324452 299.131
6.2049826554078376 124.75
6.227331838745022 97.3906
6.249663839443684 88.508
6.27201349767565 85.7162
6.294345974611799 94.2016
6.316696111167083 110.66799999999999
6.339046488263839 103.87799999999999
6.361379686074702 84.4708
6.383730546639482 73.9095
6.406064229255215 70.182
6.428415576718203 69.8387
6.450749747566656 68.352
6.47310158535871 67.3459
6.495453669698332 66.0859
6.517788579421056 65.8285
6.540141159237969 64.5005
6.562476565766648 64.2493
6.5848296444934045 64.4241
6.607182974060425 63.8245
6.6295191323281015 63.7389
6.651872965955752 68.0925
6.6742096296068985 101.70299999999999
6.6965639707294615 166.105
6.71891856698715 168.06
6.741255995248479 108.205
6.763611104154477 72.2746
6.785949046381137 62.2256
6.808304671371482 59.5823
6.8306605557940046 59.1402
6.852999275508618 58.2877
6.875355681171544 58.1165
6.897694923437771 57.7138
6.92005185377892 57.5611
6.9423916220322655 57.3129
6.964749080490181 56.5798
6.987106804399774 56.699
7.009447368180821 56.9163
7.031805625367033 56.333999999999996
7.054146723727803 56.4227
7.076505517631004 56.1858
7.098864581288365 55.9988
7.121206488070854 56.0331
7.143566093607822 55.7084
7.165908543567245 56.2901
7.188268694426048 56.6246
7.2106291193438095 56.4934
7.232972390625943 58.508
7.255333366030969 74.4909
7.277677189091925 145.708
7.300038718428332 213.02900000000002
7.322400526130865 177.99099999999999
7.344745183422596 103.05
7.367107550224791 65.3082
7.389452767901992 57.9035
7.411815697249891 56.8529
7.434161478756298 55.8803
7.456524974096713 55.3986
7.478888753837185 55.0489
7.501235387657368 55.715
7.523599738562711 56.073
7.545946944825532 56.3126
7.568311870344528 56.0028
7.5906770845765665 56.4063
7.613025156078678 58.4527
7.635390950099687 60.034
7.657739602662809 59.3669
7.680105979923558 57.3144
7.702472650212829 56.9063
7.724822180948224 56.6648
7.747189439655568 57.059
7.769539560075357 57.038999999999994
7.791907410653562 57.2904
7.81425812420825 57.2355
7.836626570110925 57.5761
7.858995315087906 58.2848
7.881346924933401 58.4694
7.903716270417482 59.235
7.926068482028405 59.1393
7.948438431475253 59.8878
7.9708086843180235 60.5165
7.993161805171116 61.4373
8.015532667162402 61.3017
8.037886398416653 62.5255
8.060257873014221 62.7032
8.082629655331942 63.4791
8.104984308787587 64.3272
8.127356708900503 68.1735
8.149711981398308 76.0934
8.172085002766314 79.1371
8.194458336181368 74.3405
8.216814543847752 70.242
8.23918850371002 69.9276
8.26154533906492 70.7998
8.283919928836452 72.4047
8.306277395339652 73.1264
8.328652618483376 74.5796
8.351028159736202 76.8794
8.373386579575245 78.7507
8.395762759396959 81.1265
8.418121819038275 86.3322
8.440498640894003 102.88
8.462875785192262 120.929
8.485235811156207 130.97299999999998
8.507613602688501 165.423
8.529974277114228 249.833
8.552352719347912 381.975
8.574731488360351 633.918
8.59709314210385 1100.75
8.619472567021075 1764.82
8.64183487789147 2133.75
8.664214962183097 1951.07
8.686577933647762 1076.1
8.708958680784317 431.009
8.731339760774953 194.825
8.753703729764451 119.351
8.77608547780821 102.319
8.798450116065078 97.7769
8.820832535634787 94.3531
8.843215292401656 92.4202
8.865580941199045 90.5687
8.887964374703538 89.9962
8.910330701447199 91.4244
8.932714815164482 95.1601
8.955099270424924 94.4541
8.977466620733543 90.0696
8.999851761421976 86.6391
9.022219798361645 84.6685
9.04460562795561 84.2377
9.066991803441677 83.65299999999999
9.089360876979615 83.2926
9.111747746589993 83.1321
9.13411751544971 82.9128
9.156505082664324 82.4496
9.178875550323522 83.2299
9.20126381862328 83.4961
9.223652438908596 83.9048
9.246023961427412 83.5413
9.26841328802173 82.9121
9.290785518039224 82.4282
9.313175554425882 83.3947
9.335565947154315 82.9822
9.357939245086508 83.1533
9.380330352834827 83.5609
9.40270436697103 83.5869
9.425096193225055 83.5492
9.447488380180165 84.5615
9.469863475295412 84.5834
9.492256385987508 85.2
9.514632206018318 85.5969
9.537025843935714 85.6398
9.559402392368193 86.9283
9.581796761000229 87.7603
9.604191496441521 89.0718
9.626569144158516 93.3359
9.648964615551032 99.6307
9.671343000390081 101.993
9.693739211225699 98.4894
9.716135793237463 94.7754
9.738515290448102 94.124
9.760912617143402 94.7686
9.783292860202891 95.6184
9.805690935076182 96.9453
9.828089385495742 97.8943
9.850470754023561 100.75299999999999
9.872869957865444 109.902
9.89525208097539 129.602
9.917652041736662 146.418
9.940052382417589 143.984
9.962435644102392 144.451
9.984836746950979 174.90099999999998
10.007220771957746 236.952
10.029622640473708 337.105
10.052007432299963 499.494
10.074410069984072 763.2239999999999
10.096813093716005 1161.79
10.119199042482517 1622.5
10.141602840636468 1922.14
10.163989564971628 1672.92
10.186394141051062 1011.61
10.208799107559706 461.754
10.231187001965623 215.86900000000003
10.253592751657669 135.111
10.275981430388155 117.021
10.298387966769793 116.539
10.320794897965431 120.402
10.343184759907361 119.094
10.36559248305461 112.226
10.387983138083852 106.565
10.410391656691655 107.88799999999999
10.432800574501677 118.213
10.455192425893369 133.687
10.47760214443012 158.787
10.499994797678786 199.63099999999997
10.522405320453982 270.026
10.54479877906917 374.881
10.567210109595656 494.615
10.5896218454736 563.448
10.612016518879773 541.646
10.634429067781074 388.80199999999996
10.656824555333241 226.517
10.679237920773568 136.692
10.701651695961992 100.281
10.724048411481384 91.0421
10.746463008485165 87.6955
10.768860546937125 85.9921
10.791275969274796 84.3768
10.81369180576079 83.1991
10.836090585366925 82.5219
10.858507252467449 81.146
10.88090686379991 79.8085
10.903324365036394 79.725
10.925724811614439 79.7161
10.948143150509463 81.3266
10.970561909719066 80.6914
10.992963615930844 78.6569
11.015383218085756 75.97399999999999
11.037785768347074 73.8968
11.06020621697282 73.5268
11.082627090322113 73.249
11.105030913430326 72.4699
11.12745263854165 73.3315
11.149857314510728 78.46
11.172279894912576 86.9648
11.194702904450653 87.9942
11.217108866490921 82.6723
11.239532736615194 77.0424
11.26193956033512 74.2836
11.284364294577085 72.2323
11.306789462371718 69.4997
11.329197585398376 67.9182
11.351623622610898 67.6532
11.37403261614354 66.9466
11.396459526308487 66.9004
11.418869393879497 66.3587
11.441297180532617 65.8189
11.463725406927658 65.7467
11.486136592353875 65.3871
11.508565700543707 66.3557
11.530977768845315 68.8934
11.553407762368774 70.3419
11.575838200059769 69.3345
11.598251599479612 66.7984
11.620682927815501 65.1083
11.64309721895548 64.4425
11.665529441478206 63.812
11.687962112597958 63.703
11.710377748130886 64.0525
11.732811318753434 63.7128
11.755227854859067 63.942
11.777662328529495 63.656000000000006
11.800079768750786 63.3997
11.822515149015453 63.2387
11.844950984084935 63.2961
11.867369787303163 63.0632
11.889806534289491 63.2326
11.912226250487029 63.5048
11.934663912939751 63.5884
11.9571020346363 63.4721
11.979523127133968 63.6287
12.001962169624331 64.2553
12.024384183972964 65.1021
12.046824150809913 68.109
12.069264581333726 73.1658
12.091687985297767 79.4604
12.11412934550045 88.4923
12.136553680195208 102.551
12.158995973632788 120.77799999999999
12.181438735204349 147.154
12.20386447284199 175.73
12.226308172985636 203.298
12.24873485024193 208.157
12.271179492516982 178.17700000000002
12.293607112949127 138.122
12.316052700916226 103.917
12.338498763250042 83.9716
12.360927805303868 73.3194
12.383374818673879 68.258
12.405804812803074 65.8981
12.428252780773262 65.479
12.45070122756722 65.1663
12.473132656675375 65.2
12.49558206341869 65.0814
12.518014453510101 65.3341
12.540464823770117 65.4483
12.562915677315177 65.6752
12.58534951575545 66.5542
12.607801338171472 69.2648
12.630236146511358 75.8944
12.652688941369085 82.666
12.675124723177234 82.9901
12.697578494048786 77.8055
12.720032754458185 71.5448
12.742470003354093 68.9545
12.764925245138771 68.6988
12.787363476431278 68.7485
12.809819703166806 69.1347
12.83227642391173 69.8519
12.854716135692716 70.2902
12.877173846755147 71.5165
12.899614549869717 71.4931
12.9220732548287 72.3037
12.94453245827299 72.6223
12.966974655289818 74.0061
12.989434858002571 74.493
13.011878055298721 75.4635
13.034339260862497 76.1657
13.056800969391883 77.23100000000001
13.079245674017244 79.1956
13.101708390774869 81.5274
13.12415410463411 88.0072
13.146617833206086 99.9259
13.169064559883248 112.035
13.191529303857127 126.194
13.213994557076367 146.425
13.236442809902437 179.61599999999999
13.258909083908291 226.57
13.28135835851934 285.35200000000003
13.30382565690295 350.37
13.326293469022952 413.327
13.348744283242008 436.784
13.371213125129904 384.218
13.39366497011003 287.735
13.416134845360597 192.862
13.438605238843131 132.078
13.46105863690397 109.165
13.483530069144786 106.43299999999999
13.505984506951902 110.90700000000001
13.528456981549432 120.249
13.550929978879088 134.336
13.573385983253365 155.77200000000002
13.595860028340867 190.085
13.618317081455832 235.408
13.64079217790333 287.372
13.663250283359057 336.074
13.685726434770173 365.80199999999996
13.708203115221277 348.833
13.730662806148091 281.999
13.75314054697177 202.187
13.775601299246777 140.42
13.798080104050406 103.464
13.820559442405358 87.7149
13.843021793671388 82.8645
13.865502201420897 80.8869
13.887965623051947 80.2534
13.910447103807167 79.294
13.932929122629764 78.086
13.955394156785959 77.6596
13.977877254034569 76.6132
14.000343367582113 76.0266
14.022827546871707 75.1173
14.045294743423524 74.4148
14.06778000837062 73.9033
14.090265817715476 73.7697
14.112734645763819 73.4522
14.13522154619454 73.2956
14.157691466286913 73.285
14.180179461423874 73.1051
14.202668005486178 72.59899999999999
14.22513957064374 71.612
14.247629214846473 71.1963
14.270101881097517 70.9824
14.29259262906496 71.4418
14.315083930490205 72.7123
14.337558255389705 72.9321
14.360050666019726 72.604
14.382526101071944 71.2793
14.405019624534942 70.0007
14.427513705993134 69.5878
14.449990813291825 69.3366
14.47248601302899 69.3398
14.49496423954951 69.3894
14.517460561197822 69.5829
14.539939910570322 69.3078
14.562437357763558 69.6332
14.58493536931253 71.0588
14.607416409993311 72.3578
14.62991555254159 73.3473
14.652397725157423 72.93
14.674898002342799 72.178
14.697398848433282 71.2599
14.719882725991326 71.7636
14.74238471217934 72.3138
14.764869730765593 75.2374
14.787372860692983 78.7084
14.809876564079925 83.12700000000001
14.83236330125751 88.9092
14.854868153850365 97.1646
14.877356041159485 108.835
14.899862046604186 125.086
14.922351087688757 147.282
14.944858249632887 172.713
14.967365991421232 198.05200000000002
14.989856770231246 219.419
15.012365673994204 218.925
15.03485761569738 198.044
15.05736768508665 158.634
15.07987833888692 121.397
15.102372032001655 95.6218
15.124883856909658 79.7759
15.14737872204565 73.8205
15.169891721717274 71.4912
15.192405310371893 71.6086
15.214901940621196 72.2677
15.237416709527137 72.3943
15.259914520936249 72.6498
15.282430473753607 71.7037
15.304947020131227 70.3489
15.327446610371178 69.1206
15.349964346154254 68.0173
15.372465126703139 67.4427
15.394984055556009 67.2135
15.417486030076159 67.0598
15.44000615566487 66.8691
15.462526881230803 66.7977
15.485030653812652 67.0147
15.507552581617434 67.0938
15.530057557334603 67.1485
15.55258069104857 66.9408
15.575104429329837 66.8456
15.597611216864632 66.4303
15.620136166564563 66.4945
15.6426441664095 67.3324
15.665170331202765 69.3104
15.687697105158826 72.4241
15.710206930593545 75.5851
15.732734925158933 79.764
15.755245972089478 85.8525
15.77777519094324 93.8175
15.800287463046663 105.26899999999999
15.822817909869592 121.917
15.84534897229804 140.458
15.867863089299354 164.34400000000002
15.890395385222186 181.02200000000002
15.912910736597423 194.38
15.935444269699861 188.38299999999998
15.957978423016485 164.385
15.980495633101265 132.936
16.003031029129367 103.49600000000001
16.02554948280019 81.2813
16.048086125229432 70.5467
16.070623392487107 67.0403
16.09314371869582 66.0255
16.11568223789321 65.1056
16.13820381691126 63.8611
16.160743591742527 62.8168
16.183283996022084 61.4217
16.205807461423195 60.3078
16.228349126881973 59.8656
16.25087385432698 59.6943
16.27341678466365 59.0987
16.29594277784926 59.2686
16.31848697676433 59.7749
16.341031811604868 60.2443
16.36355971058487 60.7183
16.3861058195587 60.4862
16.40863499352978 58.7301
16.431182380342005 57.549
16.453730407713202 56.8695
16.476261501364792 56.4451
16.498810812136167 56.2456
16.52134319004079 56.2669
16.54389378792203 56.058
16.566445031001553 56.1357
16.588979342490088 55.788000000000004
16.61153187824822 55.7167
16.634067483263312 55.4159
16.656621315414416 55.5326
16.679175797408888 55.0036
16.701713349928728 55.1974
16.72426913389191 55.4511
16.74680798922351 55.63
16.76936507887444 55.8027
16.791905240734874 55.8005
16.814463639794468 55.4514
16.837022695210294 55.4308
16.859564824093756 55.9991
16.882125194503903 56.8795
16.904668639217885 57.9851
16.927230328348003 58.0895
16.949792678493612 58.1118
16.972338104193863 57.3
16.994901778652235 56.5558
17.017448529496576 56.3536
17.040013531998152 56.489
17.06257920018044 56.6209
17.0851279459922 57.4371
17.107694947817667 58.3099
17.130245028099072 59.3161
17.15281336730298 60.603
17.17536478578733 62.2335
17.19793446610687 64.0844
17.220504818648422 66.4821
17.243058251703697 69.4175
17.265629950971032 74.0662
17.288184731571736 78.1049
17.310757781306908 83.022
17.33333150794385 83.501
17.355888317140174 83.1329
17.37846339986244 79.5521
17.401021565958885 73.1265
17.42359800851343 67.7977
17.44617513265564 63.7383
17.468735341390783 61.1829
17.491261035594565 59.835
17.51396340099364 59.5505
17.536490463869136 59.7435
17.559018209820174 59.68899999999999
17.58154663977963 59.7905
17.604251766089718 59.7451
17.626781572227713 60.0309
17.64931206518155 60.3537
17.671843245885103 60.9943
17.69455114821572 61.3198
17.717083712612634 61.6393
17.739616967569667 61.8048
17.762150914021706 61.9776
17.78486160749854 61.7545
17.807396945166804 62.4704
17.829932977143503 63.1854
17.85246970436452 64.4785
17.875183204129467 66.3873
17.897721330097664 68.7069
17.920260154126645 71.0336
17.942799677153296 73.8669
17.9655159983646 77.4981
17.988056927677544 81.9053
18.010598558807683 88.7695
18.033140892692916 97.15299999999999
18.05586005052525 106.914
18.07840379824407 117.06299999999999
18.10094825154059 127.92299999999999
18.12366954819864 137.046
18.146215420998306 141.516
18.16876200220057 135.424
18.191309292745153 122.60799999999999
18.214033452627167 108.47399999999999
18.236582170236648 95.2602
18.259131600016456 88.4442
18.281681742907335 86.8252
18.304408781233683 89.6601
18.32696035875955 93.9612
18.349512652227624 98.8729
18.372065662579683 103.98100000000001
18.394795594587553 106.809
18.41735004715306 105.758
18.43990521943684 100.022
18.46246111238171 91.0959
18.485193953325208 80.7372
18.507751296070428 72.9199
18.530309362314178 67.5159
18.552868153000343 64.5105
18.57560391815056 63.0974
18.59816416623245 62.5408
18.620725141597372 62.0701
18.643286845190268 61.5878
18.666025549835414 61.123999999999995
18.688588718427933 60.4702
18.711152618092243 60.299
18.73389353884365 60.1064
18.75645890921984 59.5301
18.77902501351406 59.1822
18.801591852673102 59.3101
18.824335739722738 58.8195
18.846904057212626 58.7066
18.8694731124168 58.4515
18.89204290628315 58.4586
18.914789774966803 58.1409
18.937361054791623 57.6473
18.959933076131318 57.638000000000005
18.982505839934877 57.8529
19.00525570560582 57.7954
19.027829963004184 57.5868
19.05040496572238 57.6501
19.072980714710468 57.645
19.095733592739563 57.793
19.11831084296757 58.0932
19.140888842324735 58.5656
19.16346759176222 58.9491
19.18622349753803 59.4428
19.208803755869358 60.3198
19.231384767143577 61.0528
19.253966532312948 62.2202
19.276725481241822 63.9122
19.29930876296784 66.4221
19.3218928014549 69.1432
19.34465404436217 72.5773
19.36723960516257 75.3928
19.389825925592426 76.779
19.412413006605938 76.8774
19.43517731967805 73.9894
19.457765930683355 69.7707
19.48035530514408 64.7767
19.50294544401556 60.8356
19.525712842708348 58.0035
19.54830451925909 56.1321
19.570896963095727 54.8817
19.593490175174704 54.2933
19.616260674962184 54.611000000000004
19.638855432416964 53.9985
19.661450960992624 54.2875
19.68404726164677 54.1638
19.706820878021247 53.7907
19.729418731756834 54.0723
19.752017360452857 53.8251
19.77461676506804 53.8885
19.797393513540218 54.0611
19.819994478951667 54.2962
19.84259622316767 54.7868
19.8651987471481 55.3233
19.887978643247177 55.6425
19.91058273574792 56.1532
19.933187610901943 56.7184
19.955969879466828 57.8801
19.97857632894404 59.1402
20.00118356396599 60.0385
20.023791585494575 61.9326
20.046577028914875 64.4342
20.069186632506966 66.8518
20.091797025500632 69.013
20.114408208858933 70.1804
20.137196842715273 70.3491
20.159809615886765 69.6375
20.18242318232135 66.8831
20.20503754298326 64.5711
20.227829382875154 63.246
20.250445341109344 62.4825
20.27306209647285 62.5447
20.29567964993108 63.5482
20.31847471147704 64.5976
20.34109387027612 65.9273
20.363713830075454 65.9983
20.386334591841646 65.3762
20.409132890679302 63.0389
20.431755265564437 59.8404
20.454378445325528 56.8486
20.477002430930366 54.7916
20.499803982716553 53.4409
20.522429589228004 52.5781
20.54505600449589 52.0939
20.567683229489194 51.7596
20.590488049900088 51.3281
20.61311690359731 50.8817
20.63574656993626 50.7744
20.658553853717297 50.4266
20.681185154618298 50.1679
20.703817271080066 50.1415
20.72645020407368 49.9207
20.749260783967177 49.7428
20.771895359337133 49.8147
20.794530754161617 49.4713
20.817166969412938 49.4573
20.83998086114876 49.3376
20.86261872660049 49.1295
20.885257415405402 49.1753
20.90789692853701 49.0732
20.930714147864748 49.0507
20.953355319030678 49.0318
20.97599731745334 49.1713
20.99864014410749 49.0253
21.021460706796564 49.1318
21.044105199328826 49.4876
21.06675052302631 49.6435
21.089396678865015 49.7345
21.112220600704806 49.9372
21.134868430275347 50.4504
21.15751709492456 50.6662
21.180166595629693 50.7169
21.202993892429635 51.1438
21.22564507473034 51.4133
21.24829709602816 51.6854
21.27112693608965 52.0506
21.293780644891275 52.1356
21.316435195634053 51.3875
21.339090589297417 50.8902
21.361923832041875 50.3976
21.384580921090404 49.8001
21.407238856007325 49.126999999999995
21.429897637773326 49.0832
21.45273429906592 49.0741
21.475394784108598 48.9098
21.498056118951983 48.8403
21.520718304578022 49.1055
21.543558400304388 49.031000000000006
21.566222297108816 49.0856
21.58888704765135 49.2798
21.61155265291521 49.663999999999994
21.63439619898156 50.1698
21.657063523335786 50.3509
21.67973170537063 50.7115
21.7024007460706 51.2849
21.72524775840385 51.9757
21.747918526116475 52.8055
21.770590155457388 53.9997
21.79326264741238 55.4229
21.816113141960237 57.0857
21.838787368860547 58.6124
21.861462461341976 60.4149
21.884315579735777 62.4159
21.90699241312273 63.9959
21.92967011506078 64.9995
21.95234868653799 65.4344
21.9752053151131 64.6965
21.997885635446785 63.0183
22.020566828293532 60.8711
22.04324889464272 58.8167
22.066109049404666 57.3814
22.088792872571794 56.5746
22.111477572219204 56.5632
22.1341631493376 56.578
22.157026846313123 56.617
22.179714188221507 56.254
22.202402410582668 55.2435
22.22509151438863 53.8288
22.24795876962584 52.3877
22.270649646204486 51.3916
22.293341407213727 50.75
22.316034053646906 50.181000000000004
22.338904883215342 49.7158
22.36159931041458 49.6799
22.38429462602756 49.773
22.40699083104897 49.7346
22.429865251039757 49.5908
22.452563244831367 49.7269
22.47526213102522 49.6035
22.49813925616515 49.3997
22.520839937143307 49.2329
22.543541513520587 49.168
22.56624398629403 48.9232
22.589124730075895 48.8866
22.611829005656723 49.231
22.63453418063466 49.1701
22.657240256008077 49.3403
22.680124634582935 49.7158
22.70283252079775 49.8659
22.725541310413075 50.0032
22.74825100442868 50.1081
22.771139033969575 50.5994
22.79385054687155 50.8407
22.81656296718292 51.4811
22.83927629590484 52.236000000000004
22.862167992606945 52.9871
22.88488314827121 54.0489
22.907599215359284 55.0683
22.93031619487366 56.2524
22.953211574954405 56.9182
22.975930389478226 58.0604
22.998650119445763 58.7948
23.02137076586092 58.3617
23.044269845560063 57.1756
23.06699233506288 55.6431
23.089715744034912 53.8986
23.112617610931565 52.2612
23.135342869061212 50.8843
23.158069049684816 49.9429
23.1807961538087 49.4843
23.20370174880544 49.37
23.226430710184808 49.3663
23.249160598093425 49.2307
23.271891413539002 49.2936
23.294800752937697 49.3643
23.31753343374794 49.5021
23.340267045128353 49.5896
23.36300158808808 50.0904
23.38591468821339 50.3621
23.408651104658304 50.5773
23.431388455719986 51.1103
23.454126742409 51.9142
23.4770436196085 52.8262
23.499783787914662 53.8044
23.522524894889884 54.7268
23.54526694154616 55.7655
23.56818761219047 56.9322
23.59093154860734 57.6893
23.613676427751283 58.5909
23.636422250635754 58.1123
23.659346731118656 56.7351
23.68209445191868 54.9675
23.704843119509587 52.7401
23.72759273490623 50.8179
23.750521041644767 49.2913
23.77327256312355 48.0545
23.796025035462787 47.36600000000001
23.818956224555475 46.7271
23.841710609113413 46.6266
23.86446594758979 46.2716
23.887222241002014 46.2143
23.910157285144578 45.7909
23.932915498962537 45.8184
23.955674670778713 45.6725
23.978434801611975 45.4331
24.001373717286125 45.2949
24.024135776723917 45.1575
24.046898798245582 45.0721
24.06966278287146 44.956
24.092605586582614 44.913999999999994
24.115371508023642 44.6455
24.1381383956401 44.4717
24.16090625045381 44.5781
24.183852958731244 44.6424
24.206622758582608 44.3028
24.229393528706886 44.1735
24.252165270127392 44.3476
24.27511589952438 44.2239
24.297889594216997 44.0396
24.32066426328598 43.692
24.34343990775613 43.8492
24.36639447485003 43.7701
24.38917208083877 43.6896
24.41195066531332 43.5449
24.43490819850244 43.7129
24.457688750692377 43.4138
24.48047028445616 43.3301
24.503252800821233 43.5045
24.526214300784112 43.4479
24.548998793132213 43.6081
24.57178427117417 43.4731
24.59457073593893 43.5553
24.617536219319863 43.4365
24.64032466834748 43.4854
24.663114107195035 43.3804
24.685904536893013 43.1233
24.708874020360852 43.0115
24.731666442613744 42.945
24.754459858818787 42.8348
24.777254270007962 42.8849
24.80022777025625 42.7933
24.82302418230472 42.7286
24.845821592443674 42.6039
24.86862000170663 42.5899
24.891597535453727 42.4013
24.914397953892728 42.7716
24.93719937456671 42.6771
24.96000179851076 42.617
24.98298338249997 42.9338
25.00578782394922 43.187
25.028593271784167 43.3305
25.05157790644186 43.592
25.07438537804115 43.6887
25.097193859145293 43.8775
25.120003350792075 43.9789
25.142992065061257 44.4203
25.165803588823465 44.7126
25.18861612625217 45.0247
25.211429678386736 45.0303
25.234422489079968 45.1745
25.257238081693636 45.1325
25.280054692141732 45.2355
25.3028723214652 45.2589
25.325869245420463 45.3651
25.348688923599397 45.3778
25.371509623787006 45.2915
25.394331347025812 45.2021
25.41733240110666 44.8236
25.440156181590016 44.0917
25.46298098826268 43.7094
25.48580682216873 43.202
25.50881202326435 42.5934
25.53163992281684 42.0473
25.55446885274561 41.6676
25.577298814096377 41.4157
25.600308179121807 41.4273
25.623140214533745 41.3217
25.64597328451537 41.244
25.66898578564376 41.1526
25.691820936010206 41.2173
25.714657124097695 40.8974
25.737494350954734 40.9933
25.760511045684957 40.9579
25.783350361364224 41.063
25.806190718969255 40.9876
25.82903211955018 41.0939
25.852053024868923 41.0546
25.874896522722523 41.1635
25.897741066713106 41.0563
25.920586657892454 41.1111
25.943611790812668 41.2127
25.966459487728237 41.3484
25.989308234998564 41.2355
26.01215803367705 41.591
26.03518741123814 41.7611
26.05803932412957 41.8758
26.080892291600094 41.8699
26.10374631470478 42.1066
26.12677995397268 42.1511
26.14963609978026 42.18
26.172493304397875 41.8947
26.19535156888223 41.8664
26.218389486949604 41.2247
26.241249882640123 40.9967
26.26411134137826 40.6931
26.28715248187403 40.779
26.31001607820869 40.5271
26.3328807407756 40.4541
26.35574647063438 40.6579
26.37879191991473 40.4907
26.401659795896734 40.4867
26.424528742360263 40.6895
26.447398760366614 40.8469
26.470448535598294 41.056000000000004
26.49332070826805 41.2203
26.516193955675355 41.5388
26.53906827888316 41.647
26.562122397260108 41.7314
26.584998883685063 41.806999999999995
26.607876449110325 42.2343
26.63075509460056 42.3383
26.65381357334404 42.4767
26.67669439061878 42.4986
26.699576291163382 42.5027
26.722459276044212 42.4913
26.745522132402975 42.3307
26.768407297649354 41.9976
26.791293550442003 41.5972
26.814180891848974 41.3923
26.837248143099337 40.9305
26.860137673466657 41.0273
26.88302829566349 40.6688
26.90592001075963 40.5747
26.92899167420566 40.3877
26.951885586870763 40.007
26.974780595655517 39.8042
26.99785558178161 39.7603
27.020752794605112 39.4192
27.043651106772522 39.3701
27.06655051935668 39.2811
27.089629948036183 39.2649
27.112531573292053 39.2833
27.135434302194138 39.3002
27.158338135817015 39.0755
27.181422024430987 38.9918
27.204328079372566 38.889
27.22723524226965 39.1109
27.250143514198573 39.0579
27.273231880156334 39.0209
27.296142382065014 38.9166
27.319053996245536 38.8517
27.341966723775965 38.8926
27.365059584515222 38.9465
27.38797455070062 39.0124
27.410890633481237 38.8176
27.433807833936918 38.8249
27.456905206923906 38.9141
27.47982465472398 38.9458
27.502745223449743 38.8787
27.525666914182825 38.9908
27.548768816912457 39.0317
27.571692763693633 38.9415
27.59461783573812 38.9027
27.617723149491244 38.6648
27.640650484125285 38.4454
27.66357894728264 38.5914
27.686508540048052 38.5314
27.709618414237887 38.346
27.732550278321757 38.2728
27.755483275279115 38.2775
27.778417406196485 38.2628
27.801531858397514 38.1861
27.824468269376716 38.2802
27.847405817586786 38.2079
27.870344504116094 38.3402
27.893463551932008 38.3637
27.916404527281053 38.698
27.93934664422563 38.6595
27.962289903855886 38.5967
27.98541356491974 38.973
28.00835912214229 39.0554
28.03130582533231 39.3135
28.054253675581805 39.4705
28.077381967556104 39.4441
28.100332124185126 39.4182
28.123283431160893 39.3526
28.146235889577238 39.3462
28.169368830154156 39.0449
28.192323603752033 38.8442
28.215279532083304 38.6196
28.238415973016764 38.527
28.261374223145094 38.4485
28.284333631303806 38.1103
28.307294198589954 37.9476
28.330435319167677 37.5417
28.353398217078915 37.4059
28.376362277420153 37.1946
28.39932750129032 36.9943
28.422473319286713 36.7932
28.44544088262495 36.8397
28.468409612800283 36.6967
28.491379510913497 36.4754
28.51453004413313 36.4091
28.53750229057244 36.3506
28.56047570826344 36.3446
28.583450298308804 36.2492
28.606605564586562 36.1513
28.629582511831156 36.1636
28.65256063474956 36.1526
28.675539934446338 35.9825
28.698699951647605 36.1198
28.72168161743193 35.9742
28.74466446331978 35.879
28.767648490417624 35.8843
28.790813276438353 35.8414
28.813799678527303 35.7787
28.836787265157085 35.8382
28.859955641890075 35.8644
28.882945610203045 35.7792
28.905936766392035 35.589
28.928929111566863 35.7729
28.952102288520145 35.7318
28.975097024308607 35.6021
28.998092952423807 35.4584
29.021090073977508 35.3437
29.04426806913204 35.2872
29.067267590245258 35.0753
29.090268308143695 35.1048
29.11327022394099 34.9853
29.13645305530891 34.9029
29.159457379627167 34.8435
29.18246290519685 34.8568
29.20546963313352 34.8661
29.22865731875826 34.7106
29.25166646419296 34.7152
29.27467681535305 34.4643
29.29768837335608 34.6205
29.320880931312562 34.6791
29.34389491580634 34.7147
29.366910110507334 34.6024
29.38992651653503 34.7271
29.41312396492981 34.6089
29.436142806456754 34.554
29.45916286268059 34.4423
29.48236399319994 34.3147
29.50538649169417 34.306999999999995
29.528410208259935 34.2413
29.55143514402014 34.0365
29.574641196749695 33.7574
29.597668583816574 33.7806
29.6206971934585 33.4552
29.64372702680042 33.6292
29.666938019934474 33.5567
29.689970313635285 33.5319
29.713003834422636 33.5738
29.73603858342347 33.3828
29.759254535188578 33.3117
29.78229175361658 33.2687
29.80533020365064 33.3554
29.82836988641968 33.2519
29.85159081507472 33.18
29.874632976355343 33.0559
29.89767637376955 33.203
29.920721008448314 32.942
29.9439469322847 33.0149
29.96699405457564 32.8667
29.9900424175358 32.9745
30.013092022298157 32.8242
30.03632295963995 32.8245
30.059375061131373 32.8891
30.08242840783577 32.9033
30.105483000888153 32.9259
30.128718970092244 32.832
30.151776069006917 32.7104
30.17483441768648 32.9369
30.198074175317235 32.7967
30.221135036724256 32.8911
30.24419715131772 32.7336
30.267260520236203 32.6828
30.290505341942243 32.677
30.313571232750228 32.7287
30.336638381310948 32.7084
30.35970678876503 32.7238
30.38295669299435 32.5364
30.40602763151657 32.5831
30.429099832366074 32.5688
30.452173296685572 32.4735
30.47542830191959 32.504
30.498504306502497 32.3885
30.521581577995562 32.3895
30.544660117543582 32.5678
30.56792024229725 32.5771
30.59100133132069 32.4265
30.614083691845494 32.5038
30.637167325018545 32.4701
30.660432587840603 32.5008
30.683518779717886 32.5948
30.70660624769615 32.5955
30.729694992924372 32.5628
30.75296541239743 32.5428
30.77605672557558 32.528
30.799149319462742 32.5412
30.8224236211637 32.2345
30.845518789950724 32.1481
30.868615242910597 32.231
30.891712981195973 32.1342
30.91499247215866 32.0485
30.938092794619365 31.8694
30.96119440587579 31.9854
30.984297307082752 31.8389
31.00758200598383 31.7113
31.030687500658694 31.5889
31.053794288760695 31.5403
31.076902371446767 31.461
31.100192296997445 31.4909
31.12330298246119 31.4184
31.14641496599209 31.3492
31.169528248749216 31.3928
31.19282341969534 31.2607
31.215939314557186 31.2593
31.239056512134788 31.3023
31.262175013589378 31.2521
31.28547544871168 31.241
31.30859657161541 31.1956
31.331719001892175 31.2046
31.35484274070538 31.3769
31.378148458819545 31.2861
31.401274828443725 31.252
31.424402510106933 31.2544
31.447712205419993 31.3248
31.470842524931633 31.1171
31.493974159989783 31.1683
31.51710711176168 31.1007
31.54042212308802 31.0976
31.563557722100917 31.2142
31.586694641341655 31.0221
31.609832881979628 30.9135
31.63315322823208 30.8187
31.656294125521327 30.7431
31.679436347728515 30.6724
31.70257989602529 30.6038
31.725905596152327 30.5826
31.74905181052835 30.473000000000003
31.772199354521323 30.574
31.79534822930507 30.5137
31.818679302290967 30.5195
31.84183085259981 30.4815
31.864983737233473 30.5152
31.88813795736804 30.5592
31.911474422233013 30.4261
31.934631327356435 30.4744
31.9577895715215 30.3727
31.980949155906522 30.3996
32.004291031706956 30.3947
32.027453310562606 30.2325
32.05061693318573 30.1908
32.07396288236386 30.1985
32.09712920658542 30.1307
32.12029687812702 29.9871
32.14346589817093 29.9097
32.166817291729984 29.8578
32.18998902288583 29.744
32.21316210610336 29.8131
32.23633654256711 29.5946
32.259693399663725 29.6136
32.282870556771144 29.555
32.30604907069099 29.4955
32.329228942610065 29.4668
32.35259128243769 29.3455
32.375773884550505 29.249000000000002
32.398957848235646 29.2481
32.422143174682176 29.1007
32.445511016471215 29.049
32.468699082679954 29.1338
32.49188851523011 29.0024
32.51507931531304 28.9619
32.538452678331 28.9658
32.56164622776311 28.9178
32.58484114831493 28.9123
32.60803744118015 28.8071
32.631416344731896 28.9075
32.654615396551876 28.8273
32.67781582427913 28.7522
32.701198898634416 28.6532
32.72440209253756 28.590999999999998
32.747606665947124 28.6903
32.77081262006088 28.4881
32.79420126883317 28.4552
32.81740999876112 28.499000000000002
32.840620112999424 28.3608
32.86383161274818 28.3327
32.88722585534586 28.3207
32.91044014056596 28.3713
32.933655814909734 28.3578
32.95687287957963 28.4389
32.98027273544904 28.2611
33.00349259526636 28.249000000000002
33.026713849030116 28.2196
33.04993649794511 28.1426
33.073341986570746 28.0717
33.09656744032826 28.0732
33.11979429286444 28.0673
33.14302254538647 28.0842
33.166433686291185 28.0455
33.18966475336992 27.9729
33.212897224069096 27.9159
33.23613109959831 27.9611
33.259547912343415 27.9093
33.2827846121627 27.9261
33.306022720453775 27.7903
33.32926223842861 27.7457
33.352684742614166 27.7356
33.37592709463173 27.633000000000003
33.399170859982064 27.6372
33.422597648419426 27.5194
33.44584425514446 27.4848
33.46909227885668 27.5288
33.4923417207723 27.395
33.51577423505344 27.3348
33.539026528130385 27.1599
33.56228024307245 27.2371
33.585535381098246 27.0965
33.60897364093058 27.0823
33.63223163992385 27.096999999999998
33.6554910656699 26.9507
33.678751919389796 26.9404
33.702195944520106 26.8456
33.72545966903325 26.9855
33.74872482519663 26.8084
33.771991414233746 26.8809
33.79544122444841 26.8232
33.81871069412428 26.7305
33.84198160035767 26.6381
33.86525394437455 26.7512
33.88870955949969 26.6022
33.911984794020626 26.5974
33.93526147001624 26.4847
33.958539588715006 26.5389
33.98200102861669 26.4503
34.0052820477047 26.3744
34.02856451319451 26.3467
34.05203033759056 26.226
34.07531571090147 26.359
34.09860253431845 26.2983
34.121890809074316 26.1628
34.145362493118924 26.2057
34.16865368561615 26.1016
34.191946333164054 26.0782
34.21524043699793 26.0828
34.23871800066799 25.9994
34.26201503218366 25.9189
34.28531352370466 25.9613
34.30861347646881 25.8205
34.33209693978188 25.8072
34.3553998301885 25.7552
34.378704185565205 25.7032
34.402010007152356 25.7179
34.42549939016683 25.7584
34.44880815937748 25.5339
34.472118398533134 25.5461
34.49543010887669 25.55
34.51892543169198 25.4795
34.54224009966052 25.5136
34.56555624255917 25.4931
34.58887386163339 25.3564
34.61237514439016 25.2542
34.6356957311114 25.2307
34.65901779775809 25.2394
34.68252356662995 25.1446
34.705848608458616 25.253
34.72917513396849 25.0973
34.75250314440949 25.0475
34.77601490857862 25.0068
34.799345904259795 24.9535
34.82267838863559 25.0114
34.846012362958525 24.8899
34.869530142679984 24.8459
34.89286711232212 24.9
34.91620557568269 24.9075
34.93954553401677 24.8522
34.9630693495876 24.8067
34.986412313340814 24.813000000000002
35.00975677584668 24.7998
35.033102738362956 24.6545
35.05663261012228 24.674
35.0799815881786 24.6485
35.10333207003229 24.5954
35.12668405694369 24.6663
35.150220005273056 24.6648
35.17357501786656 24.6014
35.19693153931268 24.4706
35.220289570874385 24.4723
35.24383161619786 24.4282
35.267192683604904 24.4342
35.290555264930376 24.3189
35.314101899412165 24.2723
35.33746752422433 24.2943
35.36083466676374 24.3145
35.38420332829803 24.3107
35.407756095629054 24.3699
35.43112781085063 24.1971
35.45450104888391 24.2342
35.477875810999194 24.1594
35.50143473172161 24.2105
35.52481255774625 24.2671
35.54819191167777 24.1107
35.57157279478914 24.0804
35.595137889488406 24.0174
35.61852184675279 23.8869
35.641907337029984 23.9568
35.665294361595684 23.986
35.68886565090076 23.8101
35.7122557598848 23.8569
35.73564740699838 23.8173
35.759040593519934 23.78
35.78261809810353 23.7343
35.80601437933051 23.6406
35.829412203814705 23.5587
35.85281157283719 23.5193
35.876395313415884 23.6137
35.8997977874528 23.4224
35.92320180988546 23.3699
35.946790244133936 23.4014
35.97019737933222 23.4661
35.993606066789866 23.3909
36.01701630779276 23.2821
36.04061101440684 23.2621
36.06402437852291 23.3806
36.08743930005611 23.2764
36.1108557802951 23.2137
36.13445678011326 23.1303
36.15787639383515 23.1006
36.18129757014299 23.1197
36.20472031032821 22.9586
36.22832762423364 22.962
36.25175350829375 22.9544
36.275180960119776 22.8393
36.298609981005924 22.9708
36.32222362992669 22.9858
36.34565580510207 22.859
36.36908955323448 22.7382
36.39252487562093 22.666999999999998
36.416144880530226 22.725
36.43958336764275 22.658
36.463023432914625 22.6361
36.486465077645676 22.5599
36.51009145956204 22.6714
36.53353627947859 22.6846
36.55698268276811 22.6227
36.58043067073321 22.6183
36.60406345072071 22.4494
36.62751462435344 22.465
36.65096738658405 22.4865
36.67460498210655 22.4606
36.69806093788647 22.3751
36.72151848619297 22.2476
36.744977628333636 22.3487
36.76862165890998 22.2041
36.79208400512205 22.2265
36.81554794910557 22.2649
36.83901349217101 22.1919
36.862663978991606 22.1007
36.88613273667352 22.0682
36.90960309738324 22.0595
36.933075062434064 22.0167
36.95673202673572 21.974
36.98020721697122 21.9338
37.003684015502365 21.932
37.027162423645365 21.8767
37.050825886711465 21.8163
37.07430753063053 21.7308
37.09779078812467 21.7112
37.121275660513014 21.6763
37.144945643673694 21.6839
37.16843376245278 21.5862
37.19192350009803 21.6061
37.215414857931435 21.6221
37.239091382563885 21.5333
37.262585997426164 21.5104
37.28608223645736 21.5093
37.309763684451696 21.3751
37.33326318851098 21.3815
37.356764320726555 21.3798
37.380267082425526 21.4243
37.40395510942588 21.3786
37.42746114683234 21.3175
37.45096881771841 21.2359
37.474478123414166 21.3254
37.49817275092816 21.206999999999997
37.52168534303452 21.1229
37.54519957395567 20.9882
37.568715445024665 21.0415
37.592416694607714 21.0385
37.61593586281424 21.1296
37.63945667518264 21.0585
37.66297913304891 20.9396
37.68668702630454 20.9245
37.710212792059274 20.8772
37.733740207334854 20.7783
37.757269273470364 20.7876
37.780983832050374 20.7957
37.80451621684926 20.8148
37.82805025654007 20.7379
37.851585952464795 20.7164
37.8753071980695 20.6455
37.89884622345676 20.6296
37.92238690911902 20.5639
37.94611318753442 20.5175
37.969657210779765 20.5388
37.99320289834801 20.5314
38.016750251586465 20.4374
38.04048325513017 20.4648
38.06403395679343 20.3787
38.087586328183946 20.3174
38.11114037065203 20.3103
38.13488012115898 20.3419
38.1584375229181 20.2735
38.181996599821 20.2103
38.205557353221124 20.1986
38.229303872575656 20.1166
38.2528679961576 20.1712
38.27643380031219 20.1342
38.30000128639589 20.0902
38.32375459653193 20.1399
38.34732546371299 20.0192
38.37089801690786 19.9788
38.39447225747609 19.8905
38.418232380377425 19.9169
38.441810012983396 19.9365
38.46538933705673 19.8864
38.488970353960084 19.8055
38.51273731166058 19.8328
38.536321731567014 19.7578
38.55990784840681 19.684
38.58367995004091 19.7009
38.60726947812959 19.6035
38.63086070726198 19.5469
38.654453638806274 19.6397
38.678232613930824 19.585
38.70182896773327 19.4752
38.72542702806741 19.4444
38.7490267963045 19.4766
38.77281266709232 19.4593
38.79641586862214 19.4142
38.8200207821842 19.403
38.843627409152944 19.3419
38.86742019782782 19.32
38.891030269149255 19.3212
38.914642058016156 19.2868
38.938255565806124 19.2155
38.96205529464307 19.2465
38.98567225787121 19.1679
39.00929094417078 19.0904
39.03291135492255 19.1432
39.05671804624804 19.1218
39.080341923549106 19.0607
39.103967529460334 18.9963
39.127594865365744 18.9264
39.15140854155791 18.9488
39.17503935514948 18.8659
39.19867190290282 18.8926
39.22249083587951 18.8831
39.24612686969409 18.9291
39.269764641845306 18.8832
39.293404153722804 18.7695
39.317230110864074 18.735
39.34087311998506 18.6767
39.36451787301696 18.6352
39.388164371352595 18.6424
39.41199737518003 18.6361
39.43564738196752 18.5772
39.45929913825317 18.5641
39.48295264543308 18.5142
39.506792718520884 18.4878
39.530449745387216 18.4096
39.55410852735203 18.4379
39.57776906581474 18.4635
39.60161623079 18.3971
39.625280300200025 18.4052
39.64894613032202 18.3006
39.67261372255866 18.2991
39.6964680021016 18.2666
39.72013913657293 18.2934
39.74381203738292 18.2681
39.76748670593756 18.2064
39.79134812278169 18.141
39.81502634488497 18.1439
39.83870633896685 18.1502
39.862388106436654 18.0606
39.88625668336918 18.0338
39.90994201572829 18.0187
39.933629125719285 17.9319
39.957503091207826 17.9872
39.9811937746168 18.055999999999997
40.00488623990914 17.9548
40.02858048850006 17.9041
40.05246165409549 17.8265
40.076159487492085 17.7216
40.099859108448875 17.7293
40.123560518384345 17.7917
40.1474489070226 17.78
40.171153913178564 17.7472
40.194860712584955 17.7222
40.2185693066637 17.6754
40.242464941335314 17.6184
40.26617714307655 17.6324
40.289891143772046 17.5981
40.3136069448471 17.5028
40.33750984859743 17.5122
40.3612292688043 17.4607
40.3849504936829 17.5154
40.40867352466194 17.468
40.43258372059144 17.4012
40.45631038219906 17.3955
40.48003885420956 17.3487
40.503769138055105 17.3185
40.52768664931955 17.3686
40.55142057531802 17.2984
40.57515631746428 17.1964
40.599079334038514 17.2072
40.62281872700477 17.1892
40.64655994043941 17.1946
40.67030297578061 17.1412
40.69423334835778 17.1314
40.71798004609188 17.006
40.74172857006355 17.0093
40.76547892171441 17.0655
40.7894166736039 16.963
40.813170699248566 16.8855
40.83692655691388 16.8983
40.86068424804498 16.9619
40.884629402612525 16.9062
40.908390779366385 16.8331
40.932153993938 16.8017
40.95591904777605 16.8275
40.979871628443995 16.8153
41.003640379561936 16.7832
41.02741097430883 16.7325
41.05118341413683 16.7344
41.075143444384416 16.686
41.098919593177826 16.6949
41.1226975914255 16.6178
41.14647744058318 16.6065
41.170444943946755 16.5295
41.19422851378379 16.5664
41.218013938914645 16.4414
41.24198706625173 16.375
41.26577622087193 16.5163
41.289567235177785 16.4479
41.31336011063129 16.3787
41.337340752422875 16.2923
41.361137369129835 16.3858
41.38493585138705 16.3005
41.40873620066004 16.2772
41.43272438060107 16.3074
41.45652848292052 16.1648
41.48033445666918 16.1623
41.50414230331616 16.1229
41.528138045159764 16.1771
41.551949656675205 16.1235
41.575763145513235 16.0461
41.59957851314666 16.0709
41.62358184070442 16.0133
41.64740098505737 16.0251
41.6712220126409 16.0172
41.69504492493139 15.9528
41.71905586207357 15.9175
41.74288256296395 15.8569
41.766711153007456 15.9057
41.79054163368412 15.8276
41.814560204340054 15.8667
41.838394485526365 15.7853
41.86223066180303 15.8064
41.88625497706819 15.7513
41.910094962812 15.75
41.93393684811168 15.6955
41.95778063445365 15.6653
41.981812625263366 15.6617
42.00566023303407 15.6406
42.029509746323676 15.6113
42.05336116662236 15.5954
42.077400857069705 15.5137
42.10125611078846 15.494000000000002
42.12511327600405 15.5407
42.14897235421036 15.4767
42.173019768448455 15.4586
42.19688269209613 15.4234
42.22074753323349 15.4084
42.24461429335818 15.3987
42.268669455600495 15.3742
42.292540073217886 15.3258
42.31641261433284 15.3435
42.34028708044675 15.2528
42.36435001496739 15.2412
42.38822835065557 15.2405
42.41210861586426 15.2086
42.4359908120986 15.1375
42.46006154323262 15.1442
42.48394762115317 15.1157
42.507835634632315 15.0999
42.531912233047436 15.0571
42.55580413732265 15.0056
42.579697981698 14.9864
42.60359376768525 14.9712
42.62767820545945 14.948
42.65157789440821 14.9582
42.67547952952185 14.8857
42.699383112316 14.856
42.72347541395347 14.8367
42.74738291190531 14.819
42.771292362102166 14.7891
42.795203766063516 14.7623
42.819303956130405 14.7473
42.843219287476536 14.7376
42.86713657716324 14.7368
42.89105582671383 14.6554
42.91516392983864 14.6777
42.939087119032166 14.5761
42.963012272677304 14.5991
42.98693939230129 14.5361
43.01105543317513 14.6005
43.034986504731386 14.6036
43.05891954686589 14.5057
43.08285456110972 14.4382
43.10697856448665 14.4592
43.130917542983475 14.394
43.15485849820081 14.3852
43.17880143167367 14.3166
43.20293342237094 14.2823
43.226880332449 14.3164
43.25082922540554 14.363
43.27496722682525 14.3282
43.29892010567796 14.2892
43.32287497204102 14.2543
43.34683182745632 14.2411
43.370977859791836 14.1545
43.39493871351105 14.0985
43.41890156092628 14.158
43.44286640358341 14.1271
43.46702049182749 14.0437
43.49098934522816 14.050999999999998
43.51496019852649 14.0534
43.5389330532723 13.9919
43.56309522248204 13.934000000000001
43.58707210044314 13.9601
43.61105098451946 13.9602
43.63503187626491 13.9153
43.659202151562134 13.8499
43.68318707902681 13.8748
43.70717401884041 13.8595
43.731162972560874 13.784
43.75534137913236 13.788
43.779334381108384 13.7855
43.803329401683186 13.7588
43.82732644241872 13.7275
43.8515130055166 13.7212
43.87551410707659 13.6515
43.89951723350145 13.6437
43.923709934595614 13.632
43.94771713129917 13.5905
43.97172635758096 13.6148
43.99573761501002 13.5914
44.0199385169922 13.5209
44.04395385732619 13.5123
44.067971233533086 13.4498
44.09199064718605 13.4107
44.11619977548961 13.4326
44.14022328470671 13.4021
44.16424883610785 13.4164
44.18827643127035 13.4096
44.21249381139513 13.3512
44.236525514814076 13.2573
44.26055926674478 13.2937
44.28459506876863 13.331
44.3088207262813 13.2629
44.33286064928722 13.2505
44.35690262714919 13.1555
44.38094666145278 13.1931
44.4051806219871 13.1657
44.42922879003185 13.1425
44.45327901929361 13.1365
44.477331311362136 13.1112
44.501573600619416 13.0647
44.525630039221795 13.0243
44.54968854541895 13.0154
44.573937102200176 12.9872
44.5979997645541 13.0094
44.622064499300315 12.9431
44.64613130803592 12.9289
44.67038823869318 12.9544
44.69445921643748 12.8855
44.718532272981385 12.8365
44.742607409926194 12.8468
44.76687274034801 12.828
44.79095205918753 12.7647
44.81503346325094 12.7737
44.839116954143876 12.8026
44.86339071028742 12.7309
44.88747839599524 12.7325
44.91156817336837 12.6514
44.93566004401666 12.6689
44.959942251908146 12.6305
44.984038330325966 12.6258
45.00813650686762 12.6031
45.03223678314731 12.5947
45.05652746888232 12.5742
45.08063196592069 12.5335
45.104738567558705 12.4813
45.128847275414856 12.5049
45.15314646515866 12.4849
45.17725940679741 12.4555
45.20137445952892 12.4767
45.22568004865265 12.4036
45.24979934496396 12.3408
45.27392075725247 12.3574
45.29804428714431 12.3443
45.322358426247604 12.3096
45.346486212804315 12.2745
45.370616121861914 12.2802
45.39474815505086 12.2586
45.41907087049246 12.2341
45.4432071734666 12.222999999999999
45.46734560548283 12.1606
45.49148616817604 12.1505
45.51581748638564 12.1358
45.5399623320197 12.0966
45.56410931325473 12.0503
45.58825843173002 12.0897
45.61259837920865 12.0639
45.636751793816 12.0462
45.66090735060093 11.9665
45.68506505120716 11.9523
45.7094136545275 11.9692
45.73357566449271 11.9045
45.75773982322992 11.9287
45.78190613238733 11.9065
45.806263418194064 11.8447
45.83043404997326 11.850999999999999
45.85460683713677 11.8443
45.87897065658495 11.8094
45.90314777634752 11.7978
45.92732705646868 11.7736
45.9515084986045 11.6936
45.97588104735473 11.6935
46.00006683541565 11.716
46.02425479047904 11.694
46.04844491420549 11.6928
46.0728262191024 11.6501
46.09702070211635 11.6593
46.12121735879483 11.6122
46.14541619080294 11.6323
46.169806278764455 11.6148
46.194009483459034 11.5551
46.21821486849841 11.5237
46.24242243555223 11.5091
46.266821333570014 11.5063
46.29103328674601 11.4192
46.31524742696538 11.4443
46.33946375590237 11.417
46.36387149104216 11.3931
46.38809221957392 11.3762
46.41231514186606 11.357000000000001
46.436540259597464 11.3811
46.460956858999374 11.3042
46.48518638983522 11.3003
46.509418121166966 11.2517
46.533652054678114 11.2205
46.55807754555709 11.2354
46.58231590571962 11.2429
46.60655647313217 11.2082
46.630988654873654 11.1592
46.655233659129024 11.1608
46.67948087571551 11.1394
46.70373030632484 11.125
46.72817142736393 11.0858
46.752425308428684 11.0326
46.77668140861147 11.0137
46.80093972960865 11.0173
46.82538981736788 11.0042
46.849652602470904 10.9568
46.87391761349769 10.9484
46.8981848521493 10.948
46.9226439341274 10.9417
46.946915650573224 10.9038
46.97118959976749 10.8672
46.99546578341598 10.8703
47.019933887188216 10.8335
47.04421456235744 10.8355
47.06849747711879 10.7955
47.09278263318286 10.7697
47.11725978640143 10.7593
47.14154944775105 10.7212
47.165841355555656 10.7124
47.1901355115306 10.712
47.214621741924994 10.6904
47.23892041698887 10.6488
47.26322134538975 10.6278
47.28771440635075 10.5929
47.31201986422527 10.6063
47.33632758061436 10.5842
47.360637557241866 10.6033
47.38513974410611 10.5468
47.40945426407847 10.4752
47.43377104948137 10.5137
47.45809010204344 10.4989
47.48260144275502 10.4675
47.506925052572285 10.4343
47.53125093475548 10.3831
47.55557909103813 10.4144
47.58009961361992 10.3842
47.60443234110732 10.3763
47.62876734791564 10.3351
47.65310463578333 10.3163
47.6776343683373 10.3321
47.7019762413987 10.296
47.72632040075572 10.2954
47.75066684815169 10.2646
47.77520581885936 10.2472
47.799556865477655 10.211
47.823910205386 10.2397
47.84826584033272 10.1854
47.87281407745551 10.1667
47.89717432569297 10.1396
47.92153687423484 10.1444
47.94609208429692 10.1493
47.97045925671401 10.1371
47.99482873471275 10.0812
48.01920052005013 10.0783
48.04376504619224 10.0257
48.068141469543484 10.0334
48.09252020552573 10.0133
48.11690125590099 9.980360000000001
48.1414751266064 9.951360000000001
48.16586082917454 9.92731
48.19024885144316 9.92473
48.2146391951793 9.906939999999999
48.239222439012764 9.90819
48.26361744916137 9.85121
48.28801478610016 9.84897
48.31241445160131 9.86587
48.337007097209366 9.82143
48.36141144338331 9.795069999999999
48.38581812345755 9.75155
48.41022713920929 9.79076
48.434829215320704 9.75421
48.45924292604658 9.7482
48.48365897780325 9.73824
48.50807737237308 9.73851
48.532688907799276 9.71841
48.55711201168574 9.64916
48.581537463754074 9.625630000000001
48.60615611725119 9.65017
48.63058628942721 9.634260000000001
48.65501881516546 9.583269999999999
48.6794536962573 9.57381
48.70408185970339 9.56879
48.72852147531801 9.567160000000001
48.75296345168211 9.53479
48.77740779059232 9.53404
48.80204549302823 9.48306
48.82649458091802 9.48296
48.85094603676547 9.43655
48.87539986237231 9.427719999999999
48.90004713292306 9.40002
48.92450572200832 9.41775
48.94896668628025 9.36947
48.97343002754588 9.32317
48.99808689542115 9.3977
49.02255501470614 9.38568
49.04702551642794 9.35264
49.0714984023988 9.29493
49.096164896893235 9.28759
49.120642575466796 9.29004
49.145122643748394 9.23723
49.16960510355558 9.20968
49.19428125404938 9.20154
49.2187685210852 9.19704
49.243258185121555 9.16341
49.26794160167084 9.160730000000001
49.2924360839405 9.11365
49.31693296869764 9.09116
49.34143225776915 9.13742
49.36612538195438 9.106010000000001
49.39062950396021 9.03706
49.41513603578346 9.05005
49.4396449792564 9.05312
49.46434784069503 9.02131
49.488861631846454 9.00095
49.513377840166804 8.98045
49.537896467493745 8.93568
49.56260909589029 8.92415
49.587132585683285 8.93244
49.611658500018365 8.92232
49.636186840738596 8.92983
49.66090926588511 8.90184
49.685442483902584 8.83635
49.70997813385706 8.78755
49.734516217597076 8.83355
49.75924846937352 8.79389
49.7837914452858 8.78271
49.80833686055187 8.786430000000001
49.83288471702571 8.77065
49.85762682540054 8.76953
49.882179588965734 8.70664
49.9067347993235 8.65317
49.93129245833333 8.675130000000001
49.95604445336378 8.66036
49.98060703442832 8.65823
50.005172069746266 8.6285
50.02993150438364 8.62975
50.05450147301533 8.63065
50.07907390151433 8.58358
50.10364879174981 8.56917
50.12841816587289 8.57596
50.1529980044635 8.5561
50.17758031042124 8.510539999999999
50.20216508562089 8.537
50.22694442953363 8.49807
50.25153416817468 8.49549
50.27612638170508 8.46759
50.300721072005196 8.45396
50.325510416102105 8.43448
50.350110084975064 8.40517
50.37471223628208 8.39695
50.39931687190919 8.37075
50.424116246675766 8.32157
50.44872587605249 8.32283
50.47333799543065 8.32685
50.49795260670191 8.34495
50.52276204271512 8.31136
50.54738166295838 8.32612
50.57200378079314 8.3063
50.596628398116835 8.27108
50.62144792604559 8.25075
50.646077567609396 8.22079
50.670709714377715 8.20875
50.69553683636198 8.18763
50.72017401885922 8.17886
50.7448137122895 8.16801
50.76945591856022 8.1504
50.79429318636823 8.13449
50.818940443716784 8.11008
50.84359021965163 8.092030000000001
50.868242516085964 8.09295
50.893089960641895 8.01656
50.917747323549435 8.02266
50.94240721271973 8.01774
50.96706963007175 7.976719999999999
50.99192728239342 8.004669999999999
51.01659478166073 8.000160000000001
51.04126481489051 7.96235
51.06593738400761 7.970160000000001
51.090805275207074 7.9591899999999995
51.11548294172845 7.92868
51.14016314993547 7.93457
51.164845901758845 7.91297
51.18972406304274 7.8701
51.21441192780656 7.857760000000001
51.23910234200271 7.86619
51.2637953075678 7.79091
51.288683770237945 7.80502
51.31338186432707 7.79846
51.33808251561888 7.765630000000001
51.362978729967345 7.7507399999999995
51.387684521509755 7.7179199999999994
51.41239287610203 7.73527
51.437103795691165 7.70245
51.46201036644977 7.714910000000001
51.486726441956634 7.68018
51.51144508832545 7.6712
51.536166307509156 7.649210000000001
51.56108326624387 7.6493199999999995
51.58580965706056 7.613989999999999
51.61053862657523 7.57752
51.635270176746864 7.547739999999999
51.66019755512065 7.531210000000001
51.68493429268881 7.5574
51.70967361681515 7.5876399999999995
51.73441552946465 7.544389999999999
51.759353359237934 7.50236
51.7841004750961 7.504160000000001
51.80885018539685 7.50407
51.833602492111254 7.481660000000001
51.8585508051424 7.444030000000001
51.883308330926425 7.43125
51.90806845906181 7.3966899999999995
51.932831191525715 7.39093
51.95779001977161 7.39375
51.98255798721516 7.368519999999999
52.00732856494335 7.355519999999999
52.03229530577543 7.33978
52.057071130455945 7.2974
52.081849571391054 7.324910000000001
52.106630630568695 7.2811699999999995
52.13160794279417 7.26673
52.15639426492067 7.28055
52.18118321127822 7.26047
52.205974783860896 7.20431
52.23096269971011 7.21323
52.255759551287994 7.25643
52.280559035098186 7.19407
52.30536115314103 7.206060000000001
52.33035970494467 7.171469999999999
52.35516711807904 7.15194
52.37997717147198 7.11095
52.40478986713005 7.10958
52.42979908731974 7.09616
52.454617094216 7.05674
52.47943774942214 7.051839999999999
52.50426105495102 7.073360000000001
52.529280976059844 7.060630000000001
52.554109609024096 7.028389999999999
52.57894089837482 7.0073300000000005
52.60377484613117 6.97087
52.62880550079408 6.94497
52.65364479223379 6.95245
52.67848674816189 6.92238
52.70352547971946 6.9099
52.72837279155837 6.948519999999999
52.753222773982785 6.8944399999999995
52.778075429022984 6.88897
52.80312495150885 6.8570899999999995
52.827982978797436 6.883380000000001
52.85284368481815 6.85734
52.87770707160767 6.8017
52.90276741793998 6.801089999999999
52.92763619336701 6.8353600000000005
52.952507655698504 6.812589999999999
52.977381806977576 6.78543
53.00245301017842 6.75794
53.02733256653592 6.75639
53.052214817996074 6.748489999999999
53.077099766608484 6.77491
53.102181859804446 6.7354199999999995
53.127072229988265 6.70218
53.15196530349892 6.72058
53.17686108239249 6.69562
53.20195409881522 6.66348
53.22685531582556 6.65448
53.25175924441303 6.58438
53.27666588664027 6.569039999999999
53.30176985962693 6.61762
53.3266819565689 6.62133
53.35159677336455 6.56497
53.376514312083096 6.55485
53.40162927507703 6.564589999999999
53.42655228516116 6.5326
53.45147802340193 6.49466
53.47660125628886 6.51699
53.50153247842639 6.486280000000001
53.52646643496923 6.45119
53.55140312799818 6.45487
53.576537409691696 6.4553
53.60147960336152 6.43139
53.626424539786164 6.416440000000001
53.65137222105307 6.3811599999999995
53.67651758529126 6.37667
53.70147078399681 6.363580000000001
53.72642673383343 6.34123
53.75138543689533 6.34324
53.776541917524526 6.35131
53.801506154876755 6.32926
53.826473151763246 6.31324
53.851442910284916 6.27199
53.87661054126026 6.26417
53.9015858509782 6.25145
53.92656392866066 6.22703
53.95154477641532 6.20022
53.976723591801296 6.2188099999999995
54.00171000771266 6.2321800000000005
54.02669920004598 6.24075
54.051691170915745 6.2205900000000005
54.076881204886796 6.17052
54.101878760928514 6.17895
54.12687910187696 6.11689
54.152077577768296 6.10503
54.1770835166946 6.11871
54.20209224691339 6.13846
54.22710377055121 6.09782
54.25231352511594 6.062819999999999
54.27733066384342 6.01536
54.30235060239643 6.03012
54.32737334290836 6.05248
54.35259441062629 6.035159999999999
54.377622783395324 6.0016
54.40265396455061 5.93434
54.42768795623251 5.955
54.45292037169559 5.96858
54.477960012857906 5.91554
54.50300247099511 5.87996
54.52804774825457 5.92664
54.55329154616743 5.88995
54.57834249018678 5.8004
54.6033962597977 5.826969999999999
54.6284528571545 5.80525
54.653708072335164 5.74967
54.67877035378786 5.72525
54.70383546947698 5.70855
54.72890342156389 5.69806
54.7541700889442 5.73674
54.77924374251975 5.71673
54.8043202390049 5.66437
54.82959552413022 5.63151
54.8546777351945 5.65327
54.87976279569621 5.60376
54.90485070780914 5.62806
54.930137506558005 5.55159
54.95523115074295 5.57236
54.98032765308844 5.54801
55.005427015775496 5.53757
55.03072536339621 5.53368
55.05583047570572 5.4707300000000005
55.080938454927676 5.48592
55.10604930325027 5.401330000000001
55.131359235107396 5.40808
55.15647585066083 5.39867
55.181595341907496 5.3836900000000005
55.20671771104285 5.34278
55.232039262617704 5.35289
55.25716741665048 5.3070900000000005
55.28229845518636 5.2741
55.30743238042802 5.24005
55.33276558731939 5.24265
55.357905315183636 5.20437
55.383047936390035 5.1807300000000005
55.40819345314859 5.1523699999999995
55.433538351073295 5.15911
55.458689688238415 5.09834
55.483843927614096 5.04211
55.509197623043605 5.02957
55.53435769621134 5.0437
55.55952067826466 5.0128900000000005
55.5846865714265 4.98522
55.61005202069737 4.92995
55.63522376553902 4.92844
55.66039842818645 4.8888300000000005
55.68557601087004 4.929209999999999
55.7109532500271 4.88092
55.73613670233794 4.90335
