TT I
1.2716486653135266 8.27413
1.2939594142134223 7.654439999999999
1.3162702121660406 6.89545
1.3385810600174564 6.992439999999999
1.3608919586137629 7.231210000000001
1.383202908801069 7.14507
1.405513911425503 6.975210000000001
1.4278249673332093 6.62511
1.4501343378461518 6.46163
1.4724455028545926 6.47579
1.4947567236847858 6.8400300000000005
1.517068001182951 6.44249
1.5393793361953272 6.8349899999999995
1.5616907295681737 6.18661
1.5840021821477681 6.38428
1.60631369478041 5.70906
1.6286252683124185 5.49547
1.6509369035901333 5.152830000000001
1.6732468618895553 5.42707
1.695558623192809 5.10774
1.7178704487808514 4.89189
1.7401823395001077 5.14864
1.7625012545597203 5.10324
1.7848028405262486 5.4341
1.8071218901122095 5.34072
1.8294236121921872 5.16938
1.8517427996910911 5.28536
1.8740620574440425 5.016430000000001
1.8963639900671978 5.072
1.9186833908139995 4.9431400000000005
1.9409854680117449 5.14198
1.9633050151394713 5.41233
1.9856246367570705 4.9047
2.0079269371922672 4.73864
2.03024671027244 4.23524
2.0525491637446027 4.87269
2.074869091674931 4.99348
2.097171701569106 4.62582
2.1194917877373847 4.69992
2.141811954326636 5.139390000000001
2.164114805233074 4.8716
2.186435135143035 4.72335
2.208738150935709 4.82954
2.231058647554722 4.22396
2.2533792288321184 4.5963400000000005
2.275682498336085 4.6679699999999995
2.298003251406138 4.36531
2.3203066942619714 4.27347
2.3426276225136022 4.10521
2.3649486396617507 4.42134
2.387252348930071 3.9732199999999995
2.4095735463442893 4.09567
2.4318774374315884 3.80948
2.4541988185014043 4.8169699999999995
2.476502894794693 5.40439
2.498824462909887 4.29496
2.521146125856138 4.42698
2.5434504863470337 4.7320400000000005
2.5657723414244717 5.2525699999999995
2.588076895590662 5.62931
2.610398946189713 5.35867
2.6327210958598384 5.28855
2.6550259469304716 4.99566
2.6773482972090137 5.14471
2.6996533504259 5.27609
2.7219759047039602 6.07564
2.744298562293959 6.09203
2.7666039251246595 6.03518
2.7889267918020164 6.46945
2.8112323652516555 6.98235
2.833555444408179 7.30881
2.8558786311183852 7.0216199999999995
2.8781845268938557 7.55894
2.9005079311721484 8.04905
2.9228140460410397 8.93093
2.9451376712799635 8.91249
2.967444008632326 9.356689999999999
2.9897678582247247 9.52323
3.0120918213106695 10.4973
3.0343984987899373 10.6689
3.0567226913198637 11.5176
3.079029599759726 11.7289
3.101354025127254 12.4938
3.123678568232338 12.8082
3.145985829517914 13.237
3.16831061055229 13.59
3.1906181112775593 14.4616
3.212943133635653 15.02
3.2352682779763207 15.2041
3.2575761442691227 15.814
3.2799015350264273 16.1311
3.302209649240067 16.6552
3.3245352898092655 16.9601
3.3468436553365257 17.6261
3.369169549113219 18.1181
3.3914955708171384 18.9334
3.413804319727358 18.8004
3.4361305997334863 19.2944
3.4584396084414553 19.9824
3.4807661501462652 20.3771
3.503092824025881 21.1203
3.5254022288463154 21.3254
3.5477291695206588 21.5053
3.5700388426251948 22.0584
3.5923660534916446 22.2444
3.6146934007816114 22.8276
3.637003482731501 23.1871
3.6593311053109985 23.5736
3.681641464033634 23.905
3.7039693653009733 24.0956
3.726297407241705 25.0235
3.7486081875460804 24.9633
3.7709365132734978 25.4145
3.793247578841633 26.7709
3.8155761917550093 26.9186
3.8378875459837216 26.9264
3.8602164494827234 27.3491
3.882545499606844 28.1355
3.9048572932539183 28.8667
3.9271866390645718 29.4573
3.9494987298666713 29.7141
3.971828374764527 30.1615
3.9941581705403255 30.3131
4.016470713506008 31.4029
4.038800813471445 32.3218
4.061113662089144 33.0911
4.0834440696459176 33.702
4.105774632334751 33.9793
4.128087945865126 34.6424
4.150418821249301 35.0425
4.172732448931298 35.778
4.195063640413578 36.567
4.2173775856475215 36.8996
4.239709096631102 38.0871
4.262040768704612 38.7946
4.284355196706267 39.2662
4.306687193387355 39.7243
4.329001947444346 41.0441
4.35133427213731 41.8697
4.373666762177566 42.9798
4.395982011761091 43.4812
4.418314834921175 44.2465
4.44063041906622 45.0844
4.4629635787515625 46.265
4.4852969080429785 47.2239
4.5076130004776225 48.5237
4.529946671403969 49.8582
4.552263106909177 50.5669
4.574597122877047 52.0115
4.596931312711224 52.9569
4.619248269273446 54.7533
4.6415828092605835 55.8628
4.663900117405352 56.8847
4.686235010953232 58.6366
4.708552674085913 60.3621
4.730887924602802 62.1443
4.753223354952695 62.7333
4.775541557023902 64.508
4.797877349456786 66.6349
4.820195915032126 68.8796
4.842532072957498 70.4379
4.864868414979744 72.946
4.88718753227192 74.689
4.909524244902505 77.0047
4.931843734218147 79.4382
4.954180820867835 83.0281
4.976518095879839 87.3508
4.998838149695359 90.9905
5.021175803844231 95.3925
5.043496238205739 100.03399999999999
5.065834274903528 106.068
5.088172504230693 113.50299999999999
5.1104935158799565 122.85600000000001
5.132832132875765 137.493
5.155153533596801 161.484
5.1774925416746225 222.64
5.199814334878411 631.164
5.2221537374521505 2085.51
5.244493338631803 4000.64
5.266815727034316 6149.07
5.289155727832427 9360.84
5.311478517248165 9443.83
5.333818921080011 5200.32
5.356159527788849 1383.35
5.3784829252032536 340.57599999999996
5.400823940070432 197.053
5.423147747031976 160.139
5.445489173474152 140.721
5.467830807066149 130.343
5.490155234831516 123.49600000000001
5.512497285125229 118.353
5.534822130975162 115.19
5.557164601388673 111.98
5.579489868738879 108.47200000000001
5.601832762690846 106.43700000000001
5.6241758697774475 104.92200000000001
5.646501775867269 103.94
5.668845311622074 103.056
5.691171647754637 102.59299999999999
5.713515615597765 101.48700000000001
5.735859800852677 100.176
5.758186788542988 99.4948
5.780531411018185 99.3816
5.802858837297399 99.7406
5.825203900414495 99.84299999999999
5.8475491852224 101.14
5.869877275883075 102.71700000000001
5.892223006467101 105.85600000000001
5.914551544266608 109.917
5.936897724049891 116.34299999999999
5.959244129804903 128.755
5.981573344815301 164.19099999999997
6.0039202049061 328.07
6.026249875609095 821.683
6.04859719346037 1464.37
6.070927323278297 2130.06
6.093275102315365 3172.83
6.115623113320588 4228.25
6.137953938319995 3833.58
6.160302415650845 1808.72
6.182633708324452 509.08
6.2049826554078376 175.17
6.227331838745022 116.285
6.249663839443684 98.9751
6.27201349767565 90.26799999999999
6.294345974611799 85.0916
6.316696111167083 80.9742
6.339046488263839 78.8422
6.361379686074702 75.9705
6.383730546639482 74.0227
6.406064229255215 71.6148
6.428415576718203 70.9253
6.450749747566656 69.6311
6.47310158535871 68.3495
6.495453669698332 67.4877
6.517788579421056 66.7286
6.540141159237969 65.8305
6.562476565766648 65.1457
6.5848296444934045 64.3049
6.607182974060425 63.6982
6.6295191323281015 62.8636
6.651872965955752 62.4581
6.6742096296068985 61.5049
6.6965639707294615 61.1213
6.71891856698715 60.5852
6.741255995248479 60.2734
6.763611104154477 59.8072
6.785949046381137 59.2124
6.808304671371482 58.5233
6.8306605557940046 58.7528
6.852999275508618 57.806999999999995
6.875355681171544 57.7067
6.897694923437771 57.1103
6.92005185377892 57.0593
6.9423916220322655 57.0129
6.964749080490181 56.2888
6.987106804399774 56.3778
7.009447368180821 56.2826
7.031805625367033 56.1756
7.054146723727803 56.493
7.076505517631004 55.6991
7.098864581288365 55.7225
7.121206488070854 55.4606
7.143566093607822 55.4533
7.165908543567245 55.3991
7.188268694426048 54.9907
7.2106291193438095 54.9723
7.232972390625943 54.8057
7.255333366030969 54.7668
7.277677189091925 54.4574
7.300038718428332 54.7975
7.322400526130865 54.5993
7.344745183422596 55.0062
7.367107550224791 55.2563
7.389452767901992 55.3794
7.411815697249891 55.2422
7.434161478756298 54.6356
7.456524974096713 54.5023
7.478888753837185 54.7614
7.501235387657368 55.5105
7.523599738562711 58.1867
7.545946944825532 61.9302
7.568311870344528 62.3653
7.5906770845765665 59.1136
7.613025156078678 57.2384
7.635390950099687 57.1547
7.657739602662809 56.2437
7.680105979923558 56.2345
7.702472650212829 57.01
7.724822180948224 57.0222
7.747189439655568 57.3107
7.769539560075357 57.4374
7.791907410653562 57.9177
7.81425812420825 58.0464
7.836626570110925 58.0895
7.858995315087906 59.013999999999996
7.881346924933401 59.2907
7.903716270417482 59.93
7.926068482028405 60.4488
7.948438431475253 61.1229
7.9708086843180235 61.4092
7.993161805171116 62.256
8.015532667162402 62.6714
8.037886398416653 63.9983
8.060257873014221 64.0506
8.082629655331942 64.5458
8.104984308787587 65.404
8.127356708900503 66.5317
8.149711981398308 67.6205
8.172085002766314 68.0031
8.194458336181368 69.1741
8.216814543847752 70.3512
8.23918850371002 71.7341
8.26154533906492 73.0302
8.283919928836452 74.9499
8.306277395339652 76.3213
8.328652618483376 77.3944
8.351028159736202 79.7536
8.373386579575245 82.7062
8.395762759396959 84.9905
8.418121819038275 88.64399999999999
8.440498640894003 92.9887
8.462875785192262 101.31299999999999
8.485235811156207 121.177
8.507613602688501 206.15200000000002
8.529974277114228 413.52099999999996
8.552352719347912 626.516
8.574731488360351 797.7560000000001
8.59709314210385 983.062
8.619472567021075 1302.06
8.64183487789147 1702.75
8.664214962183097 1872.37
8.686577933647762 1415.89
8.708958680784317 713.582
8.731339760774953 294.562
8.753703729764451 148.80700000000002
8.77608547780821 114.3
8.798450116065078 105.48100000000001
8.820832535634787 100.404
8.843215292401656 97.0182
8.865580941199045 94.7951
8.887964374703538 93.1341
8.910330701447199 92.1592
8.932714815164482 90.8382
8.955099270424924 89.4084
8.977466620733543 88.7971
8.999851761421976 87.9597
9.022219798361645 87.3971
9.04460562795561 87.3223
9.066991803441677 86.7253
9.089360876979615 86.7598
9.111747746589993 86.4133
9.13411751544971 85.6109
9.156505082664324 85.3187
9.178875550323522 85.5914
9.20126381862328 86.4337
9.223652438908596 90.7194
9.246023961427412 96.3261
9.26841328802173 95.5456
9.290785518039224 91.7835
9.313175554425882 88.6272
9.335565947154315 87.0126
9.357939245086508 86.6261
9.380330352834827 86.5827
9.40270436697103 86.7406
9.425096193225055 86.7329
9.447488380180165 87.6771
9.469863475295412 87.7893
9.492256385987508 88.1791
9.514632206018318 89.1001
9.537025843935714 89.2015
9.559402392368193 89.8561
9.581796761000229 91.0195
9.604191496441521 91.0659
9.626569144158516 91.9558
9.648964615551032 92.6787
9.671343000390081 93.803
9.693739211225699 94.7753
9.716135793237463 95.6454
9.738515290448102 96.3797
9.760912617143402 98.07700000000001
9.783292860202891 99.5019
9.805690935076182 100.764
9.828089385495742 102.31299999999999
9.850470754023561 104.447
9.872869957865444 106.984
9.89525208097539 109.89200000000001
9.917652041736662 114.05
9.940052382417589 121.35700000000001
9.962435644102392 144.36700000000002
9.984836746950979 220.562
10.007220771957746 384.28
10.029622640473708 563.389
10.052007432299963 686.148
10.074410069984072 779.939
10.096813093716005 941.6669999999999
10.119199042482517 1231.5
10.141602840636468 1562.98
10.163989564971628 1695.92
10.186394141051062 1366.62
10.208799107559706 743.1360000000001
10.231187001965623 342.06800000000004
10.253592751657669 174.7
10.275981430388155 129.072
10.298387966769793 118.51700000000001
10.320794897965431 115.13
10.343184759907361 112.137
10.36559248305461 109.988
10.387983138083852 109.74799999999999
10.410391656691655 113.73
10.432800574501677 135.355
10.455192425893369 179.29
10.47760214443012 223.106
10.499994797678786 252.338
10.522405320453982 276.469
10.54479877906917 317.749
10.567210109595656 385.355
10.5896218454736 468.285
10.612016518879773 522.553
10.634429067781074 467.325
10.656824555333241 314.651
10.679237920773568 190.537
10.701651695961992 121.749
10.724048411481384 99.4158
10.746463008485165 92.7694
10.768860546937125 89.9585
10.791275969274796 87.6843
10.81369180576079 85.7776
10.836090585366925 84.7656
10.858507252467449 83.1711
10.88090686379991 81.8832
10.903324365036394 80.9954
10.925724811614439 79.4765
10.948143150509463 79.3259
10.970561909719066 78.2999
10.992963615930844 77.3444
11.015383218085756 76.3238
11.037785768347074 75.6132
11.06020621697282 74.6246
11.082627090322113 74.3337
11.105030913430326 73.8397
11.12745263854165 73.0795
11.149857314510728 72.236
11.172279894912576 72.3547
11.194702904450653 71.236
11.217108866490921 70.3229
11.239532736615194 70.0044
11.26193956033512 70.0696
11.284364294577085 69.7301
11.306789462371718 68.9766
11.329197585398376 68.6047
11.351623622610898 68.8872
11.37403261614354 67.938
11.396459526308487 67.6055
11.418869393879497 67.8133
11.441297180532617 67.1196
11.463725406927658 66.7315
11.486136592353875 66.5691
11.508565700543707 65.7983
11.530977768845315 66.1059
11.553407762368774 65.5911
11.575838200059769 65.5709
11.598251599479612 65.3656
11.620682927815501 65.1774
11.64309721895548 65.2853
11.665529441478206 64.9804
11.687962112597958 64.7187
11.710377748130886 64.7379
11.732811318753434 64.7648
11.755227854859067 64.5105
11.777662328529495 64.4988
11.800079768750786 64.2273
11.822515149015453 64.2541
11.844950984084935 64.7445
11.867369787303163 64.4102
11.889806534289491 64.4575
11.912226250487029 65.5142
11.934663912939751 67.0363
11.9571020346363 67.8452
11.979523127133968 67.634
12.001962169624331 67.6857
12.024384183972964 67.9371
12.046824150809913 72.2391
12.069264581333726 83.3219
12.091687985297767 95.3622
12.11412934550045 104.677
12.136553680195208 111.446
12.158995973632788 118.589
12.181438735204349 129.4
12.20386447284199 147.433
12.226308172985636 169.791
12.24873485024193 190.583
12.271179492516982 192.15099999999998
12.293607112949127 160.077
12.316052700916226 119.7
12.338498763250042 87.15
12.360927805303868 72.2085
12.383374818673879 67.9619
12.405804812803074 66.7429
12.428252780773262 66.2345
12.45070122756722 66.2449
12.473132656675375 66.0069
12.49558206341869 66.1935
12.518014453510101 66.3903
12.540464823770117 66.2613
12.562915677315177 66.3817
12.58534951575545 66.9136
12.607801338171472 66.8154
12.630236146511358 66.8126
12.652688941369085 67.1814
12.675124723177234 67.8166
12.697578494048786 68.5316
12.720032754458185 68.6868
12.742470003354093 69.0804
12.764925245138771 69.581
12.787363476431278 69.9861
12.809819703166806 70.5013
12.83227642391173 71.1042
12.854716135692716 71.8738
12.877173846755147 73.1383
12.899614549869717 73.5557
12.9220732548287 74.4392
12.94453245827299 74.6516
12.966974655289818 76.0982
12.989434858002571 76.7202
13.011878055298721 77.9209
13.034339260862497 79.244
13.056800969391883 80.7001
13.079245674017244 83.0477
13.101708390774869 85.3435
13.12415410463411 93.2117
13.146617833206086 114.859
13.169064559883248 143.781
13.191529303857127 169.203
13.213994557076367 187.609
13.236442809902437 201.16
13.258909083908291 218.25900000000001
13.28135835851934 242.775
13.30382565690295 280.033
13.326293469022952 334.17800000000005
13.348744283242008 383.64300000000003
13.371213125129904 395.63599999999997
13.39366497011003 342.275
13.416134845360597 250.43099999999998
13.438605238843131 171.14700000000002
13.46105863690397 127.637
13.483530069144786 121.88
13.505984506951902 138.374
13.528456981549432 159.58700000000002
13.550929978879088 173.708
13.573385983253365 182.773
13.595860028340867 193.149
13.618317081455832 209.257
13.64079217790333 235.00400000000002
13.663250283359057 269.66200000000003
13.685726434770173 313.368
13.708203115221277 342.001
13.730662806148091 323.95
13.75314054697177 262.871
13.775601299246777 187.106
13.798080104050406 128.858
13.820559442405358 98.3418
13.843021793671388 88.35799999999999
13.865502201420897 84.6837
13.887965623051947 83.3317
13.910447103807167 82.225
13.932929122629764 80.3936
13.955394156785959 80.0392
13.977877254034569 79.0641
14.000343367582113 78.0438
14.022827546871707 77.6894
14.045294743423524 76.6577
14.06778000837062 76.12
14.090265817715476 76.1355
14.112734645763819 76.3867
14.13522154619454 76.2164
14.157691466286913 76.3317
14.180179461423874 75.9899
14.202668005486178 74.9818
14.22513957064374 74.0557
14.247629214846473 73.3628
14.270101881097517 72.8406
14.29259262906496 72.5528
14.315083930490205 72.5097
14.337558255389705 72.187
14.360050666019726 72.167
14.382526101071944 71.6907
14.405019624534942 71.6321
14.427513705993134 71.5413
14.449990813291825 71.5362
14.47248601302899 71.133
14.49496423954951 71.4931
14.517460561197822 71.6251
14.539939910570322 71.2908
14.562437357763558 71.6031
14.58493536931253 71.8141
14.607416409993311 71.7463
14.62991555254159 72.0727
14.652397725157423 72.3615
14.674898002342799 72.9854
14.697398848433282 73.2054
14.719882725991326 74.0051
14.74238471217934 74.9739
14.764869730765593 79.4053
14.787372860692983 87.7912
14.809876564079925 99.9153
14.83236330125751 110.395
14.854868153850365 117.431
14.877356041159485 122.62
14.899862046604186 128.023
14.922351087688757 136.416
14.944858249632887 148.653
14.967365991421232 165.21
14.989856770231246 185.136
15.012365673994204 204.56099999999998
15.03485761569738 208.93
15.05736768508665 187.537
15.07987833888692 153.767
15.102372032001655 118.92200000000001
15.124883856909658 91.4843
15.14737872204565 79.4277
15.169891721717274 75.0189
15.192405310371893 73.3969
15.214901940621196 72.4162
15.237416709527137 71.5553
15.259914520936249 71.3172
15.282430473753607 70.5799
15.304947020131227 70.0622
15.327446610371178 69.7092
15.349964346154254 69.4004
15.372465126703139 69.32
15.394984055556009 69.3006
15.417486030076159 69.1114
15.44000615566487 68.7871
15.462526881230803 68.4227
15.485030653812652 68.3599
15.507552581617434 68.1003
15.530057557334603 68.2631
15.55258069104857 68.4293
15.575104429329837 68.5726
15.597611216864632 68.5148
15.620136166564563 69.098
15.6426441664095 69.6897
15.665170331202765 72.5237
15.687697105158826 79.6793
15.710206930593545 89.4213
15.732734925158933 97.9056
15.755245972089478 103.844
15.77777519094324 107.919
15.800287463046663 111.381
15.822817909869592 116.904
15.84534897229804 124.96700000000001
15.867863089299354 137.88299999999998
15.890395385222186 152.225
15.912910736597423 169.704
15.935444269699861 182.304
15.957978423016485 179.03400000000002
15.980495633101265 159.467
16.003031029129367 129.341
16.02554948280019 98.6305
16.048086125229432 79.2034
16.070623392487107 70.2812
16.09314371869582 66.4282
16.11568223789321 64.6206
16.13820381691126 63.4946
16.160743591742527 62.9983
16.183283996022084 62.3614
16.205807461423195 61.592
16.228349126881973 61.0835
16.25087385432698 60.9893
16.27341678466365 60.5138
16.29594277784926 59.9995
16.31848697676433 59.4401
16.341031811604868 58.9292
16.36355971058487 58.9947
16.3861058195587 58.5905
16.40863499352978 58.0029
16.431182380342005 58.0736
16.453730407713202 57.9031
16.476261501364792 57.7972
16.498810812136167 57.4031
16.52134319004079 57.3258
16.54389378792203 57.2861
16.566445031001553 57.0154
16.588979342490088 56.9246
16.61153187824822 56.9755
16.634067483263312 56.6359
16.656621315414416 56.5778
16.679175797408888 56.4684
16.701713349928728 56.473
16.72426913389191 56.3226
16.74680798922351 56.4419
16.76936507887444 56.4833
16.791905240734874 56.4549
16.814463639794468 56.4896
16.837022695210294 56.4565
16.859564824093756 56.4357
16.882125194503903 56.4591
16.904668639217885 56.6631
16.927230328348003 56.6091
16.949792678493612 56.9781
16.972338104193863 57.0531
16.994901778652235 56.9299
17.017448529496576 57.3768
17.040013531998152 57.62
17.06257920018044 58.2112
17.0851279459922 59.8185
17.107694947817667 61.7048
17.130245028099072 63.5858
17.15281336730298 65.3876
17.17536478578733 66.1384
17.19793446610687 66.8444
17.220504818648422 67.6262
17.243058251703697 68.7681
17.265629950971032 70.8068
17.288184731571736 73.4234
17.310757781306908 77.2188
17.33333150794385 80.2651
17.355888317140174 83.0318
17.37846339986244 82.6517
17.401021565958885 79.2849
17.42359800851343 74.1793
17.44617513265564 68.8628
17.468735341390783 65.2852
17.491261035594565 62.4185
17.51396340099364 61.3343
17.536490463869136 61.1689
17.559018209820174 61.055
17.58154663977963 61.3747
17.604251766089718 61.2916
17.626781572227713 61.781000000000006
17.64931206518155 61.9338
17.671843245885103 62.2396
17.69455114821572 62.309
17.717083712612634 62.7036
17.739616967569667 63.1174
17.762150914021706 63.8192
17.78486160749854 63.8261
17.807396945166804 64.4958
17.829932977143503 65.4337
17.85246970436452 67.0887
17.875183204129467 70.8369
17.897721330097664 76.3365
17.920260154126645 81.1794
17.942799677153296 85.1921
17.9655159983646 87.7633
17.988056927677544 89.2924
18.010598558807683 91.8555
18.033140892692916 95.4414
18.05586005052525 99.4508
18.07840379824407 105.507
18.10094825154059 113.70700000000001
18.12366954819864 124.93700000000001
18.146215420998306 136.26
18.16876200220057 142.644
18.191309292745153 140.19299999999998
18.214033452627167 130.26
18.236582170236648 115.31
18.259131600016456 100.73299999999999
18.281681742907335 91.5373
18.304408781233683 88.7241
18.32696035875955 89.1499
18.349512652227624 91.4394
18.372065662579683 96.1653
18.394795594587553 100.788
18.41735004715306 103.505
18.43990521943684 103.243
18.46246111238171 97.8786
18.485193953325208 88.9826
18.507751296070428 79.8336
18.530309362314178 72.9079
18.552868153000343 68.2717
18.57560391815056 65.6515
18.59816416623245 64.6349
18.620725141597372 64.0359
18.643286845190268 63.2771
18.666025549835414 62.8459
18.688588718427933 62.1954
18.711152618092243 62.2028
18.73389353884365 61.9233
18.75645890921984 61.2718
18.77902501351406 61.0615
18.801591852673102 60.6641
18.824335739722738 60.1413
18.846904057212626 60.3069
18.8694731124168 59.8983
18.89204290628315 59.8425
18.914789774966803 59.8054
18.937361054791623 59.4045
18.959933076131318 59.0754
18.982505839934877 59.1341
19.00525570560582 59.053000000000004
19.027829963004184 58.7108
19.05040496572238 58.7984
19.072980714710468 59.0136
19.095733592739563 59.21
19.11831084296757 59.9114
19.140888842324735 60.9283
19.16346759176222 61.5045
19.18622349753803 62.7075
19.208803755869358 63.2912
19.231384767143577 63.8537
19.253966532312948 64.176
19.276725481241822 64.934
19.29930876296784 65.6586
19.3218928014549 66.7319
19.34465404436217 68.2538
19.36723960516257 70.5218
19.389825925592426 72.7541
19.412413006605938 74.3945
19.43517731967805 74.8041
19.457765930683355 73.4431
19.48035530514408 70.2299
19.50294544401556 66.1975
19.525712842708348 62.0093
19.54830451925909 59.0702
19.570896963095727 57.0354
19.593490175174704 56.1147
19.616260674962184 55.9787
19.638855432416964 55.655
19.661450960992624 55.6966
19.68404726164677 55.3006
19.706820878021247 55.2846
19.729418731756834 55.5387
19.752017360452857 55.0821
19.77461676506804 55.3003
19.797393513540218 55.4882
19.819994478951667 55.8785
19.84259622316767 57.0961
19.8651987471481 58.0559
19.887978643247177 58.707
19.91058273574792 59.0849
19.933187610901943 59.7414
19.955969879466828 60.1915
19.97857632894404 60.4534
20.00118356396599 60.8238
20.023791585494575 61.6462
20.046577028914875 63.3525
20.069186632506966 65.255
20.091797025500632 67.8706
20.114408208858933 69.8282
20.137196842715273 71.941
20.159809615886765 73.0849
20.18242318232135 71.3691
20.20503754298326 69.6431
20.227829382875154 67.0196
20.250445341109344 64.8605
20.27306209647285 63.2449
20.29567964993108 62.8863
20.31847471147704 63.177
20.34109387027612 64.3692
20.363713830075454 65.4166
20.386334591841646 66.2042
20.409132890679302 65.8107
20.431755265564437 63.6196
20.454378445325528 60.8191
20.477002430930366 58.1438
20.499803982716553 55.8094
20.522429589228004 53.8246
20.54505600449589 52.7394
20.567683229489194 52.3599
20.590488049900088 52.0289
20.61311690359731 51.9483
20.63574656993626 51.9048
20.658553853717297 51.6097
20.681185154618298 51.398999999999994
20.703817271080066 51.3377
20.72645020407368 50.9142
20.749260783967177 50.7805
20.771895359337133 50.9761
20.794530754161617 50.825
20.817166969412938 50.7372
20.83998086114876 50.6724
20.86261872660049 50.5842
20.885257415405402 50.6849
20.90789692853701 50.4179
20.930714147864748 50.3876
20.953355319030678 50.443000000000005
20.97599731745334 50.7172
20.99864014410749 50.6254
21.021460706796564 50.6923
21.044105199328826 50.8085
21.06675052302631 50.9402
21.089396678865015 51.0144
21.112220600704806 51.20399999999999
21.134868430275347 51.3844
21.15751709492456 51.43
21.180166595629693 51.2342
21.202993892429635 51.5865
21.22564507473034 51.8504
21.24829709602816 52.4408
21.27112693608965 52.6853
21.293780644891275 53.1536
21.316435195634053 53.1925
21.339090589297417 52.5118
21.361923832041875 52.1814
21.384580921090404 51.4565
21.407238856007325 50.7201
21.429897637773326 50.5906
21.45273429906592 50.357
21.475394784108598 50.2495
21.498056118951983 50.1851
21.520718304578022 50.3575
21.543558400304388 50.4613
21.566222297108816 50.6044
21.58888704765135 50.8777
21.61155265291521 51.3639
21.63439619898156 52.4231
21.657063523335786 53.1576
21.67973170537063 53.9117
21.7024007460706 54.2668
21.72524775840385 54.793
21.747918526116475 55.1663
21.770590155457388 55.7046
21.79326264741238 56.0158
21.816113141960237 56.8394
21.838787368860547 58.2834
21.861462461341976 59.5318
21.884315579735777 61.1093
21.90699241312273 62.6851
21.92967011506078 64.2915
21.95234868653799 65.6797
21.9752053151131 66.4052
21.997885635446785 65.847
22.020566828293532 64.3037
22.04324889464272 61.9199
22.066109049404666 59.5361
22.088792872571794 57.5935
22.111477572219204 56.8092
22.1341631493376 56.604
22.157026846313123 56.9121
22.179714188221507 57.2711
22.202402410582668 57.2991
22.22509151438863 56.3483
22.24795876962584 55.0458
22.270649646204486 53.6772
22.293341407213727 52.532
22.316034053646906 51.7582
22.338904883215342 51.0585
22.36159931041458 50.8404
22.38429462602756 50.6293
22.40699083104897 50.2711
22.429865251039757 50.2461
22.452563244831367 50.3462
22.47526213102522 50.4657
22.49813925616515 50.4738
22.520839937143307 50.2401
22.543541513520587 50.3824
22.56624398629403 50.2434
22.589124730075895 50.1104
22.611829005656723 50.4485
22.63453418063466 50.4591
22.657240256008077 50.8517
22.680124634582935 51.1102
22.70283252079775 51.942
22.725541310413075 52.4014
22.74825100442868 52.577
22.771139033969575 53.2191
22.79385054687155 52.8945
22.81656296718292 53.1628
22.83927629590484 53.4627
22.862167992606945 54.0231
22.88488314827121 54.4436
22.907599215359284 54.7603
22.93031619487366 55.4471
22.953211574954405 56.1217
22.975930389478226 57.0799
22.998650119445763 57.9859
23.02137076586092 58.6912
23.044269845560063 58.8184
23.06699233506288 58.2317
23.089715744034912 56.7318
23.112617610931565 55.2989
23.135342869061212 53.4736
23.158069049684816 52.0896
23.1807961538087 51.145
23.20370174880544 50.7737
23.226430710184808 50.4799
23.249160598093425 50.4875
23.271891413539002 50.708999999999996
23.294800752937697 51.3257
23.31753343374794 51.8681
23.340267045128353 52.1546
23.36300158808808 52.7022
23.38591468821339 52.7386
23.408651104658304 52.7949
23.431388455719986 52.8608
23.454126742409 52.9097
23.4770436196085 53.309
23.499783787914662 53.9811
23.522524894889884 54.0919
23.54526694154616 54.6557
23.56818761219047 55.5066
23.59093154860734 56.5143
23.613676427751283 57.5243
23.636422250635754 58.3409
23.659346731118656 58.254
23.68209445191868 57.6168
23.704843119509587 56.1542
23.72759273490623 54.2051
23.750521041644767 52.2006
23.77327256312355 50.4508
23.796025035462787 49.2364
23.818956224555475 48.2537
23.841710609113413 47.9682
23.86446594758979 47.6367
23.887222241002014 47.3403
23.910157285144578 46.8786
23.932915498962537 46.907
23.955674670778713 46.8444
23.978434801611975 46.6696
24.001373717286125 46.468
24.024135776723917 46.2872
24.046898798245582 46.0658
24.06966278287146 45.9623
24.092605586582614 45.8497
24.115371508023642 45.7747
24.1381383956401 45.6716
24.16090625045381 45.6
24.183852958731244 45.5098
24.206622758582608 45.4003
24.229393528706886 45.2166
24.252165270127392 45.2463
24.27511589952438 45.2629
24.297889594216997 44.9533
24.32066426328598 44.7609
24.34343990775613 44.768
24.36639447485003 44.6121
24.38917208083877 44.7272
24.41195066531332 44.6848
24.43490819850244 44.5625
24.457688750692377 44.475
24.48047028445616 44.4619
24.503252800821233 44.4201
24.526214300784112 44.5569
24.548998793132213 44.5131
24.57178427117417 44.3227
24.59457073593893 44.3496
24.617536219319863 44.3206
24.64032466834748 44.5915
24.663114107195035 44.427
24.685904536893013 44.214
24.708874020360852 44.1049
24.731666442613744 44.063
24.754459858818787 43.8939
24.777254270007962 43.7433
24.80022777025625 43.7017
24.82302418230472 43.8438
24.845821592443674 43.8469
24.86862000170663 43.7199
24.891597535453727 43.7479
24.914397953892728 44.1064
24.93719937456671 43.9523
24.96000179851076 43.9824
24.98298338249997 43.9971
25.00578782394922 44.1888
25.028593271784167 44.3956
25.05157790644186 44.7716
25.07438537804115 44.8505
25.097193859145293 45.0515
25.120003350792075 44.9247
25.142992065061257 45.3994
25.165803588823465 45.4674
25.18861612625217 45.7666
25.211429678386736 45.9655
25.234422489079968 46.0389
25.257238081693636 46.0722
25.280054692141732 45.9385
25.3028723214652 45.7666
25.325869245420463 45.7502
25.348688923599397 45.8353
25.371509623787006 45.8853
25.394331347025812 45.9438
25.41733240110666 45.8579
25.440156181590016 45.5411
25.46298098826268 45.381
25.48580682216873 44.9304
25.50881202326435 44.1038
25.53163992281684 43.5338
25.55446885274561 43.0731
25.577298814096377 42.7291
25.600308179121807 42.3964
25.623140214533745 42.413000000000004
25.64597328451537 42.2985
25.66898578564376 42.0265
25.691820936010206 41.8989
25.714657124097695 41.9658
25.737494350954734 42.0498
25.760511045684957 41.8883
25.783350361364224 42.1005
25.806190718969255 42.0452
25.82903211955018 42.1352
25.852053024868923 42.1551
25.874896522722523 42.1053
25.897741066713106 42.0078
25.920586657892454 42.0788
25.943611790812668 42.1383
25.966459487728237 42.3272
25.989308234998564 42.1469
26.01215803367705 42.4923
26.03518741123814 42.4032
26.05803932412957 42.513999999999996
26.080892291600094 42.4422
26.10374631470478 42.5137
26.12677995397268 42.7433
26.14963609978026 43.0416
26.172493304397875 42.9627
26.19535156888223 42.8898
26.218389486949604 42.6479
26.241249882640123 42.4112
26.26411134137826 42.1601
26.28715248187403 42.1305
26.31001607820869 41.7991
26.3328807407756 41.667
26.35574647063438 41.9154
26.37879191991473 41.7183
26.401659795896734 41.7264
26.424528742360263 41.8047
26.447398760366614 41.893
26.470448535598294 41.9076
26.49332070826805 42.0993
26.516193955675355 42.2745
26.53906827888316 42.2428
26.562122397260108 42.2348
26.584998883685063 42.5452
26.607876449110325 42.7188
26.63075509460056 42.906000000000006
26.65381357334404 43.0467
26.67669439061878 43.0072
26.699576291163382 43.2978
26.722459276044212 43.4472
26.745522132402975 43.3017
26.768407297649354 43.2817
26.791293550442003 42.8519
26.814180891848974 42.43899999999999
26.837248143099337 42.1008
26.860137673466657 41.9349
26.88302829566349 41.6841
26.90592001075963 41.5537
26.92899167420566 41.5463
26.951885586870763 41.2158
26.974780595655517 41.0083
26.99785558178161 40.8608
27.020752794605112 40.6057
27.043651106772522 40.4119
27.06655051935668 40.4492
27.089629948036183 40.1914
27.112531573292053 40.1234
27.135434302194138 40.226
27.158338135817015 39.9639
27.181422024430987 40.0812
27.204328079372566 39.9654
27.22723524226965 39.9336
27.250143514198573 39.9895
27.273231880156334 40.001999999999995
27.296142382065014 39.8679
27.319053996245536 39.7415
27.341966723775965 39.7582
27.365059584515222 39.8453
27.38797455070062 39.742
27.410890633481237 39.6289
27.433807833936918 39.6386
27.456905206923906 39.7602
27.47982465472398 39.5891
27.502745223449743 39.7776
27.525666914182825 39.8194
27.548768816912457 39.7992
27.571692763693633 39.7178
27.59461783573812 39.6533
27.617723149491244 39.6565
27.640650484125285 39.5956
27.66357894728264 39.6676
27.686508540048052 39.6448
27.709618414237887 39.549
27.732550278321757 39.4795
27.755483275279115 39.3614
27.778417406196485 39.2939
27.801531858397514 39.2727
27.824468269376716 39.3166
27.847405817586786 39.2175
27.870344504116094 39.2711
27.893463551932008 39.3157
27.916404527281053 39.5228
27.93934664422563 39.4943
27.962289903855886 39.4958
27.98541356491974 39.6081
28.00835912214229 39.6577
28.03130582533231 39.8261
28.054253675581805 39.9606
28.077381967556104 39.9601
28.100332124185126 39.913000000000004
28.123283431160893 40.1155
28.146235889577238 40.0663
28.169368830154156 40.0337
28.192323603752033 39.6293
28.215279532083304 39.551
28.238415973016764 39.4276
28.261374223145094 39.2035
28.284333631303806 39.0389
28.307294198589954 38.9708
28.330435319167677 38.6661
28.353398217078915 38.453
28.376362277420153 38.2348
28.39932750129032 38.0961
28.422473319286713 37.8314
28.44544088262495 37.8139
28.468409612800283 37.5761
28.491379510913497 37.3147
28.51453004413313 37.1441
28.53750229057244 37.1876
28.56047570826344 37.1007
28.583450298308804 37.2353
28.606605564586562 36.9629
28.629582511831156 36.9218
28.65256063474956 36.7559
28.675539934446338 36.8527
28.698699951647605 36.8752
28.72168161743193 36.6668
28.74466446331978 36.584
28.767648490417624 36.5045
28.790813276438353 36.6108
28.813799678527303 36.5664
28.836787265157085 36.5665
28.859955641890075 36.5243
28.882945610203045 36.5279
28.905936766392035 36.4462
28.928929111566863 36.5534
28.952102288520145 36.5093
28.975097024308607 36.488
28.998092952423807 36.2283
29.021090073977508 36.1652
29.04426806913204 36.1114
29.067267590245258 35.9335
29.090268308143695 35.8569
29.11327022394099 35.8722
29.13645305530891 35.8201
29.159457379627167 35.7403
29.18246290519685 35.598
29.20546963313352 35.4402
29.22865731875826 35.5112
29.25166646419296 35.4577
29.27467681535305 35.3548
29.29768837335608 35.3499
29.320880931312562 35.3396
29.34389491580634 35.3502
29.366910110507334 35.1937
29.38992651653503 35.2522
29.41312396492981 35.2343
29.436142806456754 35.1165
29.45916286268059 35.1422
29.48236399319994 35.1583
29.50538649169417 35.0211
29.528410208259935 34.9873
29.55143514402014 34.8081
29.574641196749695 34.6981
29.597668583816574 34.5597
29.6206971934585 34.3318
29.64372702680042 34.3001
29.666938019934474 34.2652
29.689970313635285 34.2202
29.713003834422636 34.1203
29.73603858342347 34.0261
29.759254535188578 33.8317
29.78229175361658 33.8294
29.80533020365064 33.9615
29.82836988641968 34.0264
29.85159081507472 33.9694
29.874632976355343 33.8177
29.89767637376955 33.8986
29.920721008448314 33.5966
29.9439469322847 33.6823
29.96699405457564 33.6515
29.9900424175358 33.6911
30.013092022298157 33.5695
30.03632295963995 33.4467
30.059375061131373 33.5545
30.08242840783577 33.5542
30.105483000888153 33.5794
30.128718970092244 33.4393
30.151776069006917 33.5254
30.17483441768648 33.4488
30.198074175317235 33.3729
30.221135036724256 33.3822
30.24419715131772 33.4031
30.267260520236203 33.3393
30.290505341942243 33.408
30.313571232750228 33.4575
30.336638381310948 33.4289
30.35970678876503 33.3693
30.38295669299435 33.2802
30.40602763151657 33.2635
30.429099832366074 33.3054
30.452173296685572 33.3084
30.47542830191959 33.1883
30.498504306502497 33.0832
30.521581577995562 33.1442
30.544660117543582 33.1765
30.56792024229725 33.2386
30.59100133132069 32.9971
30.614083691845494 32.9248
30.637167325018545 33.1727
30.660432587840603 33.1707
30.683518779717886 33.001
30.70660624769615 33.1251
30.729694992924372 33.2614
30.75296541239743 33.1887
30.77605672557558 33.1852
30.799149319462742 33.205999999999996
30.8224236211637 33.0934
30.845518789950724 32.9885
30.868615242910597 32.9806
30.891712981195973 32.7631
30.91499247215866 32.7824
30.938092794619365 32.6757
30.96119440587579 32.6386
30.984297307082752 32.5733
31.00758200598383 32.5411
31.030687500658694 32.3261
31.053794288760695 32.2507
31.076902371446767 32.141
31.100192296997445 32.2567
31.12330298246119 32.1873
31.14641496599209 31.9934
31.169528248749216 32.016999999999996
31.19282341969534 32.0632
31.215939314557186 32.0421
31.239056512134788 32.0767
31.262175013589378 31.9124
31.28547544871168 31.8371
31.30859657161541 31.7751
31.331719001892175 31.8834
31.35484274070538 32.0063
31.378148458819545 32.0313
31.401274828443725 31.8946
31.424402510106933 31.737
31.447712205419993 31.8448
31.470842524931633 31.798000000000002
31.493974159989783 31.776
31.51710711176168 31.7285
31.54042212308802 31.823
31.563557722100917 31.8547
31.586694641341655 31.694000000000003
31.609832881979628 31.6272
31.63315322823208 31.6544
31.656294125521327 31.56
31.679436347728515 31.4621
31.70257989602529 31.3669
31.725905596152327 31.1908
31.74905181052835 31.1574
31.772199354521323 31.3059
31.79534822930507 31.2056
31.818679302290967 31.0727
31.84183085259981 30.9398
31.864983737233473 31.0003
31.88813795736804 31.068
31.911474422233013 30.9332
31.934631327356435 31.024
31.9577895715215 30.915
31.980949155906522 30.9543
32.004291031706956 30.9686
32.027453310562606 30.8891
32.05061693318573 30.8001
32.07396288236386 30.8056
32.09712920658542 30.793000000000003
32.12029687812702 30.71
32.14346589817093 30.5995
32.166817291729984 30.4938
32.18998902288583 30.4155
32.21316210610336 30.4574
32.23633654256711 30.2964
32.259693399663725 30.3421
32.282870556771144 30.272
32.30604907069099 30.1808
32.329228942610065 30.1288
32.35259128243769 29.9985
32.375773884550505 29.9678
32.398957848235646 29.8898
32.422143174682176 29.7888
32.445511016471215 29.7752
32.468699082679954 29.695999999999998
32.49188851523011 29.771
32.51507931531304 29.6163
32.538452678331 29.6488
32.56164622776311 29.5732
32.58484114831493 29.4682
32.60803744118015 29.5349
32.631416344731896 29.4555
32.654615396551876 29.368000000000002
32.67781582427913 29.3877
32.701198898634416 29.2686
32.72440209253756 29.183000000000003
32.747606665947124 29.3211
32.77081262006088 29.075
32.79420126883317 29.1468
32.81740999876112 29.1401
32.840620112999424 29.0035
32.86383161274818 28.9695
32.88722585534586 28.9417
32.91044014056596 29.0738
32.933655814909734 28.9461
32.95687287957963 28.9163
32.98027273544904 28.7338
33.00349259526636 28.7739
33.026713849030116 28.8699
33.04993649794511 28.75
33.073341986570746 28.7143
33.09656744032826 28.7152
33.11979429286444 28.6546
33.14302254538647 28.6868
33.166433686291185 28.6728
33.18966475336992 28.5786
33.212897224069096 28.4645
33.23613109959831 28.5546
33.259547912343415 28.4538
33.2827846121627 28.4318
33.306022720453775 28.451
33.32926223842861 28.3702
33.352684742614166 28.3861
33.37592709463173 28.3654
33.399170859982064 28.1962
33.422597648419426 28.0815
33.44584425514446 28.0493
33.46909227885668 28.0476
33.4923417207723 28.0009
33.51577423505344 27.9907
33.539026528130385 27.8437
33.56228024307245 27.8344
33.585535381098246 27.6653
33.60897364093058 27.6483
33.63223163992385 27.6385
33.6554910656699 27.543000000000003
33.678751919389796 27.5896
33.702195944520106 27.454
33.72545966903325 27.3761
33.74872482519663 27.3625
33.771991414233746 27.375999999999998
33.79544122444841 27.4323
33.81871069412428 27.2089
33.84198160035767 27.2017
33.86525394437455 27.2455
33.88870955949969 27.221999999999998
33.911984794020626 27.206
33.93526147001624 27.1587
33.958539588715006 27.0926
33.98200102861669 26.9904
34.0052820477047 26.9481
34.02856451319451 26.9355
34.05203033759056 26.9709
34.07531571090147 26.989
34.09860253431845 26.9029
34.121890809074316 26.7851
34.145362493118924 26.7526
34.16865368561615 26.6437
34.191946333164054 26.6291
34.21524043699793 26.6114
34.23871800066799 26.6124
34.26201503218366 26.4622
34.28531352370466 26.4688
34.30861347646881 26.3829
34.33209693978188 26.4439
34.3553998301885 26.3752
34.378704185565205 26.2409
34.402010007152356 26.228
34.42549939016683 26.2651
34.44880815937748 26.114
34.472118398533134 26.08
34.49543010887669 26.0724
34.51892543169198 26.0383
34.54224009966052 25.9985
34.56555624255917 26.0178
34.58887386163339 25.8609
34.61237514439016 25.8883
34.6356957311114 25.7743
34.65901779775809 25.7446
34.68252356662995 25.7358
34.705848608458616 25.7386
34.72917513396849 25.7055
34.75250314440949 25.576999999999998
34.77601490857862 25.5028
34.799345904259795 25.5319
34.82267838863559 25.535
34.846012362958525 25.4536
34.869530142679984 25.3809
34.89286711232212 25.35
34.91620557568269 25.3977
34.93954553401677 25.4307
34.9630693495876 25.2996
34.986412313340814 25.3661
35.00975677584668 25.2373
35.033102738362956 25.1791
35.05663261012228 25.1243
35.0799815881786 25.1737
35.10333207003229 25.0976
35.12668405694369 25.1804
35.150220005273056 25.1243
35.17357501786656 25.0612
35.19693153931268 25.026999999999997
35.220289570874385 24.9057
35.24383161619786 24.9366
35.267192683604904 24.9756
35.290555264930376 24.8216
35.314101899412165 24.7689
35.33746752422433 24.7921
35.36083466676374 24.8101
35.38420332829803 24.7336
35.407756095629054 24.6827
35.43112781085063 24.7102
35.45450104888391 24.7349
35.477875810999194 24.6987
35.50143473172161 24.5797
35.52481255774625 24.5663
35.54819191167777 24.5321
35.57157279478914 24.4947
35.595137889488406 24.5714
35.61852184675279 24.4564
35.641907337029984 24.4148
35.665294361595684 24.3346
35.68886565090076 24.3024
35.7122557598848 24.3117
35.73564740699838 24.2899
35.759040593519934 24.1724
35.78261809810353 24.1901
35.80601437933051 24.0999
35.829412203814705 24.0093
35.85281157283719 23.9275
35.876395313415884 24.0895
35.8997977874528 23.9034
35.92320180988546 23.9364
35.946790244133936 23.8507
35.97019737933222 23.9198
35.993606066789866 23.8689
36.01701630779276 23.7342
36.04061101440684 23.7937
36.06402437852291 23.7527
36.08743930005611 23.7416
36.1108557802951 23.6378
36.13445678011326 23.6361
36.15787639383515 23.5983
36.18129757014299 23.5425
36.20472031032821 23.5461
36.22832762423364 23.4335
36.25175350829375 23.4637
36.275180960119776 23.3711
36.298609981005924 23.4117
36.32222362992669 23.3831
36.34565580510207 23.3424
36.36908955323448 23.3211
36.39252487562093 23.1416
36.416144880530226 23.1469
36.43958336764275 23.1377
36.463023432914625 23.1085
36.486465077645676 23.1003
36.51009145956204 23.1111
36.53353627947859 23.0305
36.55698268276811 23.0693
36.58043067073321 22.961
36.60406345072071 22.864
36.62751462435344 22.8707
36.65096738658405 22.8893
36.67460498210655 22.828000000000003
36.69806093788647 22.8211
36.72151848619297 22.7438
36.744977628333636 22.7563
36.76862165890998 22.6944
36.79208400512205 22.6614
36.81554794910557 22.6165
36.83901349217101 22.5524
36.862663978991606 22.5503
36.88613273667352 22.491999999999997
36.90960309738324 22.5046
36.933075062434064 22.4272
36.95673202673572 22.4287
36.98020721697122 22.3823
37.003684015502365 22.303
37.027162423645365 22.236
37.050825886711465 22.2367
37.07430753063053 22.1672
37.09779078812467 22.1485
37.121275660513014 22.1463
37.144945643673694 22.162
37.16843376245278 22.098000000000003
37.19192350009803 22.109
37.215414857931435 22.0046
37.239091382563885 21.9617
37.262585997426164 22.0174
37.28608223645736 21.9855
37.309763684451696 21.9476
37.33326318851098 21.8325
37.356764320726555 21.8073
37.380267082425526 21.7566
37.40395510942588 21.7793
37.42746114683234 21.7278
37.45096881771841 21.6033
37.474478123414166 21.6637
37.49817275092816 21.593000000000004
37.52168534303452 21.5603
37.54519957395567 21.5086
37.568715445024665 21.428
37.592416694607714 21.3753
37.61593586281424 21.4137
37.63945667518264 21.4672
37.66297913304891 21.3475
37.68668702630454 21.3664
37.710212792059274 21.2589
37.733740207334854 21.2976
37.757269273470364 21.2167
37.780983832050374 21.2257
37.80451621684926 21.2144
37.82805025654007 21.1271
37.851585952464795 21.1235
37.8753071980695 21.0343
37.89884622345676 21.0011
37.92238690911902 21.0074
37.94611318753442 20.9555
37.969657210779765 21.0138
37.99320289834801 20.9123
38.016750251586465 20.9206
38.04048325513017 20.8738
38.06403395679343 20.8614
38.087586328183946 20.8345
38.11114037065203 20.7764
38.13488012115898 20.7586
38.1584375229181 20.6303
38.181996599821 20.6164
38.205557353221124 20.6105
38.229303872575656 20.575
38.2528679961576 20.5295
38.27643380031219 20.4645
38.30000128639589 20.4877
38.32375459653193 20.4927
38.34732546371299 20.5146
38.37089801690786 20.3559
38.39447225747609 20.3557
38.418232380377425 20.3422
38.441810012983396 20.3109
38.46538933705673 20.2116
38.488970353960084 20.225
38.51273731166058 20.1653
38.536321731567014 20.0902
38.55990784840681 20.0451
38.58367995004091 20.0425
38.60726947812959 20.0306
38.63086070726198 20.0037
38.654453638806274 19.9896
38.678232613930824 19.977
38.70182896773327 19.8942
38.72542702806741 19.8064
38.7490267963045 19.8438
38.77281266709232 19.7807
38.79641586862214 19.7462
38.8200207821842 19.7516
38.843627409152944 19.7423
38.86742019782782 19.752
38.891030269149255 19.6508
38.914642058016156 19.6717
38.938255565806124 19.6824
38.96205529464307 19.5591
38.98567225787121 19.5847
39.00929094417078 19.5515
39.03291135492255 19.5434
39.05671804624804 19.4446
39.080341923549106 19.4395
39.103967529460334 19.4231
39.127594865365744 19.2823
39.15140854155791 19.3444
39.17503935514948 19.3152
39.19867190290282 19.3588
39.22249083587951 19.2426
39.24612686969409 19.192
39.269764641845306 19.1671
39.293404153722804 19.1463
39.317230110864074 19.1084
39.34087311998506 19.0314
39.36451787301696 19.0697
39.388164371352595 18.9823
39.41199737518003 18.9026
39.43564738196752 18.9511
39.45929913825317 18.9533
39.48295264543308 18.8733
39.506792718520884 18.8207
39.530449745387216 18.7594
39.55410852735203 18.7975
39.57776906581474 18.8283
39.60161623079 18.7733
39.625280300200025 18.7229
39.64894613032202 18.6541
39.67261372255866 18.6783
39.6964680021016 18.6453
39.72013913657293 18.6351
39.74381203738292 18.6214
39.76748670593756 18.584
39.79134812278169 18.5437
39.81502634488497 18.5025
39.83870633896685 18.4594
39.862388106436654 18.403
39.88625668336918 18.4104
39.90994201572829 18.3982
39.933629125719285 18.3351
39.957503091207826 18.269000000000002
39.9811937746168 18.3541
40.00488623990914 18.2711
40.02858048850006 18.2389
40.05246165409549 18.2038
40.076159487492085 18.1614
40.099859108448875 18.1804
40.123560518384345 18.0932
40.1474489070226 18.1182
40.171153913178564 18.0433
40.194860712584955 18.03
40.2185693066637 18.0049
40.242464941335314 17.8862
40.26617714307655 17.8872
40.289891143772046 17.9205
40.3136069448471 17.9019
40.33750984859743 17.8538
40.3612292688043 17.8188
40.3849504936829 17.8088
40.40867352466194 17.7836
40.43258372059144 17.7385
40.45631038219906 17.7265
40.48003885420956 17.6438
40.503769138055105 17.6934
40.52768664931955 17.5906
40.55142057531802 17.6637
40.57515631746428 17.5578
40.599079334038514 17.5332
40.62281872700477 17.4858
40.64655994043941 17.4753
40.67030297578061 17.4658
40.69423334835778 17.4205
40.71798004609188 17.4232
40.74172857006355 17.3914
40.76547892171441 17.3371
40.7894166736039 17.3247
40.813170699248566 17.2785
40.83692655691388 17.2429
40.86068424804498 17.2803
40.884629402612525 17.2553
40.908390779366385 17.2344
40.932153993938 17.2082
40.95591904777605 17.1625
40.979871628443995 17.1736
41.003640379561936 17.0465
41.02741097430883 17.0594
41.05118341413683 16.992
41.075143444384416 17.0446
41.098919593177826 17.0248
41.1226975914255 16.9722
41.14647744058318 16.9072
41.170444943946755 16.8654
41.19422851378379 16.8418
41.218013938914645 16.7949
41.24198706625173 16.7627
41.26577622087193 16.7548
41.289567235177785 16.7313
41.31336011063129 16.6908
41.337340752422875 16.6311
41.361137369129835 16.6548
41.38493585138705 16.647000000000002
41.40873620066004 16.5941
41.43272438060107 16.602999999999998
41.45652848292052 16.5293
41.48033445666918 16.4511
41.50414230331616 16.4196
41.528138045159764 16.449
41.551949656675205 16.4272
41.575763145513235 16.3813
41.59957851314666 16.3614
41.62358184070442 16.2822
41.64740098505737 16.3074
41.6712220126409 16.2751
41.69504492493139 16.201
41.71905586207357 16.2311
41.74288256296395 16.1572
41.766711153007456 16.1312
41.79054163368412 16.1091
41.814560204340054 16.137999999999998
41.838394485526365 16.1229
41.86223066180303 16.1022
41.88625497706819 16.0296
41.910094962812 16.0613
41.93393684811168 16.0479
41.95778063445365 15.9364
41.981812625263366 15.9928
42.00566023303407 15.9419
42.029509746323676 15.883
42.05336116662236 15.8685
42.077400857069705 15.8771
42.10125611078846 15.8097
42.12511327600405 15.777999999999999
42.14897235421036 15.7642
42.173019768448455 15.7067
42.19688269209613 15.7035
42.22074753323349 15.7164
42.24461429335818 15.652000000000001
42.268669455600495 15.6322
42.292540073217886 15.6067
42.31641261433284 15.5471
42.34028708044675 15.5403
42.36435001496739 15.4849
42.38822835065557 15.4595
42.41210861586426 15.4367
42.4359908120986 15.44
42.46006154323262 15.4141
42.48394762115317 15.3833
42.507835634632315 15.3877
42.531912233047436 15.3514
42.55580413732265 15.3216
42.579697981698 15.2952
42.60359376768525 15.2273
42.62767820545945 15.2442
42.65157789440821 15.1812
42.67547952952185 15.1785
42.699383112316 15.1463
42.72347541395347 15.0745
42.74738291190531 15.0871
42.771292362102166 15.1231
42.795203766063516 15.0305
42.819303956130405 15.0088
42.843219287476536 14.9625
42.86713657716324 14.949000000000002
42.89105582671383 14.9528
42.91516392983864 14.9498
42.939087119032166 14.8858
42.963012272677304 14.8852
42.98693939230129 14.8408
43.01105543317513 14.8102
43.034986504731386 14.7755
43.05891954686589 14.7469
43.08285456110972 14.7628
43.10697856448665 14.7052
43.130917542983475 14.658
43.15485849820081 14.6596
43.17880143167367 14.6062
43.20293342237094 14.5808
43.226880332449 14.5644
43.25082922540554 14.5856
43.27496722682525 14.564
43.29892010567796 14.5176
43.32287497204102 14.455
43.34683182745632 14.4165
43.370977859791836 14.4354
43.39493871351105 14.4261
43.41890156092628 14.3718
43.44286640358341 14.3421
43.46702049182749 14.3464
43.49098934522816 14.3187
43.51496019852649 14.3119
43.5389330532723 14.2323
43.56309522248204 14.2234
43.58707210044314 14.2466
43.61105098451946 14.2247
43.63503187626491 14.1743
43.659202151562134 14.1335
43.68318707902681 14.0709
43.70717401884041 14.1344
43.731162972560874 14.0238
43.75534137913236 14.0084
43.779334381108384 14.0112
43.803329401683186 14.0033
43.82732644241872 13.9901
43.8515130055166 13.939
43.87551410707659 13.8817
43.89951723350145 13.8813
43.923709934595614 13.8144
43.94771713129917 13.8525
43.97172635758096 13.8324
43.99573761501002 13.8072
44.0199385169922 13.7536
44.04395385732619 13.7811
44.067971233533086 13.7441
44.09199064718605 13.7129
44.11619977548961 13.6716
44.14022328470671 13.6676
44.16424883610785 13.6713
44.18827643127035 13.6395
44.21249381139513 13.6068
44.236525514814076 13.5572
44.26055926674478 13.5483
44.28459506876863 13.5699
44.3088207262813 13.499
44.33286064928722 13.4369
44.35690262714919 13.442
44.38094666145278 13.3802
44.4051806219871 13.3882
44.42922879003185 13.4076
44.45327901929361 13.3492
44.477331311362136 13.3427
44.501573600619416 13.3001
44.525630039221795 13.299000000000001
44.54968854541895 13.287
44.573937102200176 13.2534
44.5979997645541 13.2243
44.622064499300315 13.1634
44.64613130803592 13.1915
44.67038823869318 13.142000000000001
44.69445921643748 13.0901
44.718532272981385 13.0659
44.742607409926194 13.0355
44.76687274034801 13.0534
44.79095205918753 13.0223
44.81503346325094 12.9779
44.839116954143876 12.966
44.86339071028742 12.9261
44.88747839599524 12.9336
44.91156817336837 12.9089
44.93566004401666 12.9004
44.959942251908146 12.8573
44.984038330325966 12.8646
45.00813650686762 12.8485
45.03223678314731 12.8136
45.05652746888232 12.7169
45.08063196592069 12.7555
45.104738567558705 12.7262
45.128847275414856 12.7026
45.15314646515866 12.6337
45.17725940679741 12.6686
45.20137445952892 12.6589
45.22568004865265 12.6304
45.24979934496396 12.6104
45.27392075725247 12.5685
45.29804428714431 12.5467
45.322358426247604 12.5551
45.346486212804315 12.5218
45.370616121861914 12.5148
45.39474815505086 12.4822
45.41907087049246 12.4347
45.4432071734666 12.4221
45.46734560548283 12.415999999999999
45.49148616817604 12.4134
45.51581748638564 12.3894
45.5399623320197 12.3564
45.56410931325473 12.3205
45.58825843173002 12.3199
45.61259837920865 12.2859
45.636751793816 12.2605
45.66090735060093 12.2198
45.68506505120716 12.1773
45.7094136545275 12.1726
45.73357566449271 12.1742
45.75773982322992 12.129000000000001
45.78190613238733 12.0953
45.806263418194064 12.0926
45.83043404997326 12.1072
45.85460683713677 12.043
45.87897065658495 12.0037
45.90314777634752 11.9763
45.92732705646868 11.9844
45.9515084986045 11.9708
45.97588104735473 11.9344
46.00006683541565 11.886
46.02425479047904 11.905
46.04844491420549 11.8938
46.0728262191024 11.8557
46.09702070211635 11.8435
46.12121735879483 11.8185
46.14541619080294 11.8287
46.169806278764455 11.7817
46.194009483459034 11.7555
46.21821486849841 11.7058
46.24242243555223 11.6968
46.266821333570014 11.6702
46.29103328674601 11.6452
46.31524742696538 11.6143
46.33946375590237 11.5899
46.36387149104216 11.5827
46.38809221957392 11.5258
46.41231514186606 11.6021
46.436540259597464 11.5791
46.460956858999374 11.517000000000001
46.48518638983522 11.4723
46.509418121166966 11.4552
46.533652054678114 11.453
46.55807754555709 11.4177
46.58231590571962 11.407
46.60655647313217 11.3914
46.630988654873654 11.3548
46.655233659129024 11.3088
46.67948087571551 11.3262
46.70373030632484 11.2981
46.72817142736393 11.2779
46.752425308428684 11.2257
46.77668140861147 11.2346
46.80093972960865 11.1693
46.82538981736788 11.1813
46.849652602470904 11.1747
46.87391761349769 11.1485
46.8981848521493 11.1486
46.9226439341274 11.1027
46.946915650573224 11.0766
46.97118959976749 11.0457
46.99546578341598 11.0491
47.019933887188216 11.0335
47.04421456235744 10.9909
47.06849747711879 11.0071
47.09278263318286 10.9707
47.11725978640143 10.9347
47.14154944775105 10.9248
47.165841355555656 10.8658
47.1901355115306 10.8819
47.214621741924994 10.8646
47.23892041698887 10.8552
47.26322134538975 10.8144
47.28771440635075 10.7591
47.31201986422527 10.8293
47.33632758061436 10.7818
47.360637557241866 10.7541
47.38513974410611 10.7473
47.40945426407847 10.7342
47.43377104948137 10.7089
47.45809010204344 10.69
47.48260144275502 10.6126
47.506925052572285 10.6285
47.53125093475548 10.6059
47.55557909103813 10.5424
47.58009961361992 10.5701
47.60443234110732 10.5484
47.62876734791564 10.5133
47.65310463578333 10.5038
47.6776343683373 10.5102
47.7019762413987 10.456
47.72632040075572 10.4253
47.75066684815169 10.4148
47.77520581885936 10.3756
47.799556865477655 10.4146
47.823910205386 10.4076
47.84826584033272 10.3561
47.87281407745551 10.3246
47.89717432569297 10.3792
47.92153687423484 10.3151
47.94609208429692 10.2857
47.97045925671401 10.2717
47.99482873471275 10.2732
48.01920052005013 10.2272
48.04376504619224 10.209
48.068141469543484 10.2292
48.09252020552573 10.1848
48.11690125590099 10.2037
48.1414751266064 10.1304
48.16586082917454 10.1291
48.19024885144316 10.1028
48.2146391951793 10.1279
48.239222439012764 10.0533
48.26361744916137 10.062999999999999
48.28801478610016 10.0436
48.31241445160131 10.0405
48.337007097209366 9.99134
48.36141144338331 9.971110000000001
48.38581812345755 9.93332
48.41022713920929 9.95598
48.434829215320704 9.94637
48.45924292604658 9.90258
48.48365897780325 9.93484
48.50807737237308 9.904760000000001
48.532688907799276 9.86175
48.55711201168574 9.844710000000001
48.581537463754074 9.79946
48.60615611725119 9.81465
48.63058628942721 9.80246
48.65501881516546 9.78913
48.6794536962573 9.77779
48.70408185970339 9.76412
48.72852147531801 9.72015
48.75296345168211 9.69074
48.77740779059232 9.65397
48.80204549302823 9.65964
48.82649458091802 9.61996
48.85094603676547 9.5829
48.87539986237231 9.61427
48.90004713292306 9.61459
48.92450572200832 9.589260000000001
48.94896668628025 9.52926
48.97343002754588 9.56264
48.99808689542115 9.542710000000001
49.02255501470614 9.510810000000001
49.04702551642794 9.49428
49.0714984023988 9.482439999999999
49.096164896893235 9.4245
49.120642575466796 9.44616
49.145122643748394 9.41697
49.16960510355558 9.39338
49.19428125404938 9.3496
49.2187685210852 9.35748
49.243258185121555 9.32052
49.26794160167084 9.31882
49.2924360839405 9.27265
49.31693296869764 9.26197
49.34143225776915 9.2833
49.36612538195438 9.25842
49.39062950396021 9.237210000000001
49.41513603578346 9.18292
49.4396449792564 9.183110000000001
49.46434784069503 9.20156
49.488861631846454 9.1511
49.513377840166804 9.165289999999999
49.537896467493745 9.11468
49.56260909589029 9.06289
49.587132585683285 9.076139999999999
49.611658500018365 9.0695
49.636186840738596 9.05067
49.66090926588511 9.049489999999999
49.685442483902584 9.039769999999999
49.70997813385706 8.99231
49.734516217597076 8.97017
49.75924846937352 8.93046
49.7837914452858 8.94186
49.80833686055187 8.917110000000001
49.83288471702571 8.90516
49.85762682540054 8.88893
49.882179588965734 8.8952
49.9067347993235 8.85753
49.93129245833333 8.840860000000001
49.95604445336378 8.84036
49.98060703442832 8.78307
50.005172069746266 8.80523
50.02993150438364 8.802389999999999
50.05450147301533 8.80139
50.07907390151433 8.75968
50.10364879174981 8.72672
50.12841816587289 8.70374
50.1529980044635 8.70068
50.17758031042124 8.69931
50.20216508562089 8.66649
50.22694442953363 8.615110000000001
50.25153416817468 8.64456
50.27612638170508 8.65415
50.300721072005196 8.558580000000001
50.325510416102105 8.575389999999999
50.350110084975064 8.56025
50.37471223628208 8.56052
50.39931687190919 8.55146
50.424116246675766 8.51317
50.44872587605249 8.50158
50.47333799543065 8.48742
50.49795260670191 8.46743
50.52276204271512 8.426680000000001
50.54738166295838 8.431939999999999
50.57200378079314 8.43408
50.596628398116835 8.392999999999999
50.62144792604559 8.376539999999999
50.646077567609396 8.39682
50.670709714377715 8.36732
50.69553683636198 8.34511
50.72017401885922 8.32001
50.7448137122895 8.33425
50.76945591856022 8.3297
50.79429318636823 8.29536
50.818940443716784 8.29743
50.84359021965163 8.25468
50.868242516085964 8.21042
50.893089960641895 8.204
50.917747323549435 8.19311
50.94240721271973 8.16677
50.96706963007175 8.15165
50.99192728239342 8.153830000000001
51.01659478166073 8.13229
51.04126481489051 8.09648
51.06593738400761 8.08816
51.090805275207074 8.03754
51.11548294172845 8.03916
51.14016314993547 8.09506
51.164845901758845 8.02282
51.18972406304274 7.962269999999999
51.21441192780656 8.00394
51.23910234200271 7.998530000000001
51.2637953075678 7.966639999999999
51.288683770237945 7.92621
51.31338186432707 7.916860000000001
51.33808251561888 7.9272800000000005
51.362978729967345 7.89505
51.387684521509755 7.9242300000000006
51.41239287610203 7.88473
51.437103795691165 7.8640300000000005
51.46201036644977 7.81683
51.486726441956634 7.8326199999999995
51.51144508832545 7.82032
51.536166307509156 7.779610000000001
51.56108326624387 7.781219999999999
51.58580965706056 7.78498
51.61053862657523 7.72006
51.635270176746864 7.73688
51.66019755512065 7.70145
51.68493429268881 7.69106
51.70967361681515 7.65905
51.73441552946465 7.6685300000000005
51.759353359237934 7.62483
51.7841004750961 7.604710000000001
51.80885018539685 7.61752
51.833602492111254 7.601039999999999
51.8585508051424 7.577160000000001
51.883308330926425 7.59092
51.90806845906181 7.556039999999999
51.932831191525715 7.51156
51.95779001977161 7.51515
51.98255798721516 7.516260000000001
52.00732856494335 7.46715
52.03229530577543 7.4897100000000005
52.057071130455945 7.4759899999999995
52.081849571391054 7.428
52.106630630568695 7.414289999999999
52.13160794279417 7.369680000000001
52.15639426492067 7.3556
52.18118321127822 7.343960000000001
52.205974783860896 7.346210000000001
52.23096269971011 7.34615
52.255759551287994 7.3637
52.280559035098186 7.3289
52.30536115314103 7.3071600000000005
52.33035970494467 7.29438
52.35516711807904 7.28264
52.37997717147198 7.24552
52.40478986713005 7.23693
52.42979908731974 7.221710000000001
52.454617094216 7.2283100000000005
52.47943774942214 7.187310000000001
52.50426105495102 7.14525
52.529280976059844 7.15728
52.554109609024096 7.139819999999999
52.57894089837482 7.09318
52.60377484613117 7.105810000000001
52.62880550079408 7.09307
52.65364479223379 7.072660000000001
52.67848674816189 7.0545
52.70352547971946 7.04126
52.72837279155837 7.0685
52.753222773982785 6.99632
52.778075429022984 7.02733
52.80312495150885 7.02463
52.827982978797436 6.96725
52.85284368481815 6.97682
52.87770707160767 7.009289999999999
52.90276741793998 6.94583
52.92763619336701 6.931019999999999
52.952507655698504 6.91251
52.977381806977576 6.90998
53.00245301017842 6.9195899999999995
53.02733256653592 6.88278
53.052214817996074 6.87142
53.077099766608484 6.859389999999999
53.102181859804446 6.82423
53.127072229988265 6.838089999999999
53.15196530349892 6.8320300000000005
53.17686108239249 6.78788
53.20195409881522 6.793830000000001
53.22685531582556 6.74695
53.25175924441303 6.749560000000001
53.27666588664027 6.74063
53.30176985962693 6.710030000000001
53.3266819565689 6.67395
53.35159677336455 6.680560000000001
53.376514312083096 6.6698699999999995
53.40162927507703 6.667680000000001
53.42655228516116 6.64112
53.45147802340193 6.6017399999999995
53.47660125628886 6.64495
53.50153247842639 6.60682
53.52646643496923 6.58228
53.55140312799818 6.5692
53.576537409691696 6.569960000000001
53.60147960336152 6.56355
53.626424539786164 6.54481
53.65137222105307 6.51399
53.67651758529126 6.5136199999999995
53.70147078399681 6.46114
53.72642673383343 6.49434
53.75138543689533 6.51935
53.776541917524526 6.42978
53.801506154876755 6.39677
53.826473151763246 6.43556
53.851442910284916 6.38432
53.87661054126026 6.3546
53.9015858509782 6.3501900000000004
53.92656392866066 6.36423
53.95154477641532 6.34543
53.976723591801296 6.33381
54.00171000771266 6.34738
54.02669920004598 6.28317
54.051691170915745 6.29341
54.076881204886796 6.256530000000001
54.101878760928514 6.21601
54.12687910187696 6.23372
54.152077577768296 6.22348
54.1770835166946 6.1963
54.20209224691339 6.166180000000001
54.22710377055121 6.14259
54.25231352511594 6.16133
54.27733066384342 6.104080000000001
54.30235060239643 6.11846
54.32737334290836 6.09069
54.35259441062629 6.02948
54.377622783395324 6.03123
54.40265396455061 6.04288
54.42768795623251 6.0159
54.45292037169559 6.00444
54.477960012857906 5.97395
54.50300247099511 5.94374
54.52804774825457 5.95881
54.55329154616743 5.95134
54.57834249018678 5.91521
54.6033962597977 5.88307
54.6284528571545 5.82294
54.653708072335164 5.79429
54.67877035378786 5.8211900000000005
54.70383546947698 5.80286
54.72890342156389 5.77369
54.7541700889442 5.75485
54.77924374251975 5.75601
54.8043202390049 5.68616
54.82959552413022 5.66426
54.8546777351945 5.6620099999999995
54.87976279569621 5.61055
54.90485070780914 5.63934
54.930137506558005 5.59636
54.95523115074295 5.57116
54.98032765308844 5.57487
55.005427015775496 5.5528900000000005
55.03072536339621 5.57102
55.05583047570572 5.51705
55.080938454927676 5.45621
55.10604930325027 5.4692099999999995
55.131359235107396 5.41691
55.15647585066083 5.36565
55.181595341907496 5.32
55.20671771104285 5.3495099999999995
55.232039262617704 5.31459
55.25716741665048 5.27083
55.28229845518636 5.26762
55.30743238042802 5.20584
55.33276558731939 5.22311
55.357905315183636 5.24665
55.383047936390035 5.22671
55.40819345314859 5.14973
55.433538351073295 5.15396
55.458689688238415 5.1644
55.483843927614096 5.11935
55.509197623043605 5.06726
55.53435769621134 4.95657
55.55952067826466 5.05781
55.5846865714265 4.985580000000001
55.61005202069737 4.99788
55.63522376553902 4.96141
55.66039842818645 4.92812
55.68557601087004 4.95027
55.7109532500271 4.83097
55.73613670233794 4.89917
