TT I
1.2716486653135266 8.01927
1.2939594142134223 7.254810000000001
1.3162702121660406 7.42835
1.3385810600174564 6.8811100000000005
1.3608919586137629 7.498469999999999
1.383202908801069 7.35001
1.405513911425503 5.72472
1.4278249673332093 6.84667
1.4501343378461518 7.434069999999999
1.4724455028545926 6.50057
1.4947567236847858 6.698980000000001
1.517068001182951 6.33558
1.5393793361953272 6.569039999999999
1.5616907295681737 5.8509
1.5840021821477681 5.64562
1.60631369478041 5.72918
1.6286252683124185 5.80147
1.6509369035901333 5.94048
1.6732468618895553 5.48295
1.695558623192809 5.53524
1.7178704487808514 5.3212
1.7401823395001077 5.5292
1.7625012545597203 5.4464
1.7848028405262486 5.56948
1.8071218901122095 5.89237
1.8294236121921872 5.31441
1.8517427996910911 5.358969999999999
1.8740620574440425 5.173080000000001
1.8963639900671978 5.10013
1.9186833908139995 5.32373
1.9409854680117449 5.59197
1.9633050151394713 5.7318
1.9856246367570705 5.43612
2.0079269371922672 4.39008
2.03024671027244 4.41279
2.0525491637446027 4.5528900000000005
2.074869091674931 4.87591
2.097171701569106 4.86108
2.1194917877373847 5.40224
2.141811954326636 5.07071
2.164114805233074 4.77039
2.186435135143035 4.6864099999999995
2.208738150935709 4.50548
2.231058647554722 4.69607
2.2533792288321184 4.608230000000001
2.275682498336085 4.60838
2.298003251406138 3.9985699999999995
2.3203066942619714 4.54764
2.3426276225136022 4.63759
2.3649486396617507 4.27266
2.387252348930071 3.8732800000000003
2.4095735463442893 4.22401
2.4318774374315884 4.0688699999999995
2.4541988185014043 4.34373
2.476502894794693 4.7253
2.498824462909887 4.46295
2.521146125856138 4.322830000000001
2.5434504863470337 4.4367
2.5657723414244717 4.61455
2.588076895590662 5.37518
2.610398946189713 5.63521
2.6327210958598384 5.52456
2.6550259469304716 5.76844
2.6773482972090137 5.16756
2.6996533504259 5.63161
2.7219759047039602 6.23
2.744298562293959 5.98479
2.7666039251246595 6.125380000000001
2.7889267918020164 6.98758
2.8112323652516555 7.334219999999999
2.833555444408179 7.316789999999999
2.8558786311183852 7.34508
2.8781845268938557 8.42243
2.9005079311721484 8.52575
2.9228140460410397 8.344560000000001
2.9451376712799635 8.80455
2.967444008632326 8.86865
2.9897678582247247 9.65285
3.0120918213106695 9.54123
3.0343984987899373 10.3057
3.0567226913198637 10.8677
3.079029599759726 11.1832
3.101354025127254 12.1561
3.123678568232338 13.110999999999999
3.145985829517914 13.2876
3.16831061055229 13.8798
3.1906181112775593 13.8379
3.212943133635653 14.7404
3.2352682779763207 14.9846
3.2575761442691227 15.4236
3.2799015350264273 15.8074
3.302209649240067 16.542
3.3245352898092655 16.7987
3.3468436553365257 18.0827
3.369169549113219 18.4518
3.3914955708171384 19.3783
3.413804319727358 19.2113
3.4361305997334863 19.4829
3.4584396084414553 19.8758
3.4807661501462652 20.2039
3.503092824025881 20.9649
3.5254022288463154 21.2298
3.5477291695206588 21.5259
3.5700388426251948 22.1131
3.5923660534916446 22.5123
3.6146934007816114 22.8975
3.637003482731501 23.1881
3.6593311053109985 23.4167
3.681641464033634 23.9705
3.7039693653009733 24.5617
3.726297407241705 25.1109
3.7486081875460804 25.4419
3.7709365132734978 26.0828
3.793247578841633 26.1814
3.8155761917550093 27.0833
3.8378875459837216 27.9164
3.8602164494827234 27.7504
3.882545499606844 28.4432
3.9048572932539183 28.8686
3.9271866390645718 29.7711
3.9494987298666713 30.0516
3.971828374764527 30.6033
3.9941581705403255 31.3225
4.016470713506008 31.6937
4.038800813471445 32.8167
4.061113662089144 33.3047
4.0834440696459176 34.0001
4.105774632334751 34.5498
4.128087945865126 34.9498
4.150418821249301 35.3478
4.172732448931298 36.2717
4.195063640413578 37.5459
4.2173775856475215 38.0573
4.239709096631102 38.5529
4.262040768704612 39.2579
4.284355196706267 39.9197
4.306687193387355 40.3013
4.329001947444346 41.9101
4.35133427213731 42.9627
4.373666762177566 43.4548
4.395982011761091 44.2548
4.418314834921175 45.6538
4.44063041906622 46.6778
4.4629635787515625 47.3172
4.4852969080429785 48.0603
4.5076130004776225 50.2758
4.529946671403969 51.0661
4.552263106909177 51.847
4.574597122877047 53.8288
4.596931312711224 54.8842
4.619248269273446 55.6252
4.6415828092605835 57.1695
4.663900117405352 58.1611
4.686235010953232 59.5781
4.708552674085913 61.2128
4.730887924602802 62.9891
4.753223354952695 64.4077
4.775541557023902 66.3046
4.797877349456786 68.1041
4.820195915032126 69.7862
4.842532072957498 71.4201
4.864868414979744 73.9456
4.88718753227192 76.2215
4.909524244902505 78.9326
4.931843734218147 81.5234
4.954180820867835 84.7065
4.976518095879839 89.0786
4.998838149695359 92.8743
5.021175803844231 97.5232
5.043496238205739 101.694
5.065834274903528 108.684
5.088172504230693 116.17
5.1104935158799565 126.021
5.132832132875765 141.726
5.155153533596801 169.423
5.1774925416746225 265.197
5.199814334878411 843.677
5.2221537374521505 2276.39
5.244493338631803 3969.61
5.266815727034316 6409.51
5.289155727832427 9969.58
5.311478517248165 9558.02
5.333818921080011 4767.79
5.356159527788849 1183.9
5.3784829252032536 306.17400000000004
5.400823940070432 191.703
5.423147747031976 158.062
5.445489173474152 140.612
5.467830807066149 130.845
5.490155234831516 123.964
5.512497285125229 119.366
5.534822130975162 116.28399999999999
5.557164601388673 113.18799999999999
5.579489868738879 109.78399999999999
5.601832762690846 107.79
5.6241758697774475 106.17200000000001
5.646501775867269 104.87
5.668845311622074 104.846
5.691171647754637 104.469
5.713515615597765 102.833
5.735859800852677 101.917
5.758186788542988 100.932
5.780531411018185 101.86
5.802858837297399 101.486
5.825203900414495 101.824
5.8475491852224 103.25299999999999
5.869877275883075 104.625
5.892223006467101 107.685
5.914551544266608 112.066
5.936897724049891 119.53399999999999
5.959244129804903 135.041
5.981573344815301 187.833
6.0039202049061 420.293
6.026249875609095 914.176
6.04859719346037 1447.8
6.070927323278297 2130.94
6.093275102315365 3422.09
6.115623113320588 4537.28
6.137953938319995 3866.22
6.160302415650845 1582.07
6.182633708324452 424.212
6.2049826554078376 162.887
6.227331838745022 114.131
6.249663839443684 98.979
6.27201349767565 91.039
6.294345974611799 86.0898
6.316696111167083 82.0867
6.339046488263839 79.5282
6.361379686074702 76.7002
6.383730546639482 74.7399
6.406064229255215 72.8099
6.428415576718203 72.2688
6.450749747566656 71.0847
6.47310158535871 69.5668
6.495453669698332 68.7358
6.517788579421056 67.8276
6.540141159237969 66.8305
6.562476565766648 66.0547
6.5848296444934045 65.3354
6.607182974060425 64.4711
6.6295191323281015 64.2066
6.651872965955752 63.1473
6.6742096296068985 62.3217
6.6965639707294615 62.6898
6.71891856698715 61.9047
6.741255995248479 61.1129
6.763611104154477 60.7438
6.785949046381137 60.3345
6.808304671371482 59.724
6.8306605557940046 59.8569
6.852999275508618 59.1962
6.875355681171544 58.9725
6.897694923437771 58.535
6.92005185377892 58.6224
6.9423916220322655 58.5612
6.964749080490181 57.6465
6.987106804399774 57.2247
7.009447368180821 57.3681
7.031805625367033 56.9228
7.054146723727803 56.9795
7.076505517631004 56.6533
7.098864581288365 56.52
7.121206488070854 56.3299
7.143566093607822 56.1138
7.165908543567245 55.888000000000005
7.188268694426048 56.0026
7.2106291193438095 55.7262
7.232972390625943 55.8847
7.255333366030969 56.0921
7.277677189091925 55.7403
7.300038718428332 56.0116
7.322400526130865 55.7134
7.344745183422596 55.7982
7.367107550224791 55.5931
7.389452767901992 56.1033
7.411815697249891 55.8012
7.434161478756298 55.2563
7.456524974096713 55.5867
7.478888753837185 55.5632
7.501235387657368 56.2218
7.523599738562711 58.7087
7.545946944825532 61.1808
7.568311870344528 61.6329
7.5906770845765665 59.4378
7.613025156078678 58.008
7.635390950099687 57.2568
7.657739602662809 57.1092
7.680105979923558 57.0849
7.702472650212829 57.6505
7.724822180948224 57.8685
7.747189439655568 57.8254
7.769539560075357 58.5153
7.791907410653562 59.1011
7.81425812420825 58.6093
7.836626570110925 59.0601
7.858995315087906 59.9423
7.881346924933401 60.3658
7.903716270417482 60.8227
7.926068482028405 61.1508
7.948438431475253 61.7344
7.9708086843180235 62.6867
7.993161805171116 63.28
8.015532667162402 64.0785
8.037886398416653 64.7295
8.060257873014221 64.9055
8.082629655331942 66.0858
8.104984308787587 66.7098
8.127356708900503 67.922
8.149711981398308 68.8519
8.172085002766314 69.6699
8.194458336181368 70.2764
8.216814543847752 71.773
8.23918850371002 73.2396
8.26154533906492 74.4869
8.283919928836452 76.3548
8.306277395339652 77.7124
8.328652618483376 79.2618
8.351028159736202 81.865
8.373386579575245 84.5097
8.395762759396959 87.163
8.418121819038275 90.76700000000001
8.440498640894003 96.4968
8.462875785192262 107.611
8.485235811156207 146.415
8.507613602688501 273.69599999999997
8.529974277114228 464.717
8.552352719347912 611.658
8.574731488360351 755.615
8.59709314210385 1014.43
8.619472567021075 1417.64
8.64183487789147 1887.18
8.664214962183097 1957.51
8.686577933647762 1324.12
8.708958680784317 601.332
8.731339760774953 246.10299999999998
8.753703729764451 137.85399999999998
8.77608547780821 113.321
8.798450116065078 105.991
8.820832535634787 101.069
8.843215292401656 98.3671
8.865580941199045 96.0494
8.887964374703538 94.1781
8.910330701447199 92.8961
8.932714815164482 92.3139
8.955099270424924 90.8791
8.977466620733543 90.0151
8.999851761421976 89.4016
9.022219798361645 88.8561
9.04460562795561 88.7005
9.066991803441677 87.8936
9.089360876979615 88.0834
9.111747746589993 87.9296
9.13411751544971 86.962
9.156505082664324 87.0841
9.178875550323522 86.899
9.20126381862328 87.8322
9.223652438908596 90.9912
9.246023961427412 94.49799999999999
9.26841328802173 93.7371
9.290785518039224 91.0174
9.313175554425882 89.1465
9.335565947154315 88.2504
9.357939245086508 87.7742
9.380330352834827 88.0144
9.40270436697103 88.1537
9.425096193225055 88.2805
9.447488380180165 88.9909
9.469863475295412 89.2808
9.492256385987508 89.5998
9.514632206018318 90.7997
9.537025843935714 90.8669
9.559402392368193 91.5512
9.581796761000229 92.9038
9.604191496441521 92.9208
9.626569144158516 93.8805
9.648964615551032 94.4854
9.671343000390081 95.51299999999999
9.693739211225699 96.2637
9.716135793237463 97.6072
9.738515290448102 99.0564
9.760912617143402 100.304
9.783292860202891 101.904
9.805690935076182 103.023
9.828089385495742 104.275
9.850470754023561 106.34200000000001
9.872869957865444 109.522
9.89525208097539 112.706
9.917652041736662 117.37100000000001
9.940052382417589 129.842
9.962435644102392 179.158
9.984836746950979 289.069
10.007220771957746 432.00800000000004
10.029622640473708 542.727
10.052007432299963 642.1419999999999
10.074410069984072 771.743
10.096813093716005 999.317
10.119199042482517 1352.02
10.141602840636468 1699.6
10.163989564971628 1725.24
10.186394141051062 1251.65
10.208799107559706 641.7869999999999
10.231187001965623 284.44
10.253592751657669 157.885
10.275981430388155 127.48
10.298387966769793 118.965
10.320794897965431 116.105
10.343184759907361 113.762
10.36559248305461 112.009
10.387983138083852 113.193
10.410391656691655 124.90899999999999
10.432800574501677 155.515
10.455192425893369 191.829
10.47760214443012 219.84099999999998
10.499994797678786 239.83700000000002
10.522405320453982 272.777
10.54479877906917 333.59
10.567210109595656 417.668
10.5896218454736 499.876
10.612016518879773 542.423
10.634429067781074 436.466
10.656824555333241 282.85200000000003
10.679237920773568 167.21099999999998
10.701651695961992 113.89399999999999
10.724048411481384 98.7408
10.746463008485165 93.6033
10.768860546937125 91.1229
10.791275969274796 88.6747
10.81369180576079 86.9064
10.836090585366925 85.7471
10.858507252467449 84.3064
10.88090686379991 83.3413
10.903324365036394 82.2516
10.925724811614439 80.8144
10.948143150509463 80.278
10.970561909719066 79.3799
10.992963615930844 78.6783
11.015383218085756 77.7902
11.037785768347074 76.5613
11.06020621697282 76.0802
11.082627090322113 76.1308
11.105030913430326 75.0955
11.12745263854165 74.1319
11.149857314510728 73.3964
11.172279894912576 73.4087
11.194702904450653 72.3657
11.217108866490921 71.52199999999999
11.239532736615194 71.46300000000001
11.26193956033512 71.046
11.284364294577085 70.8718
11.306789462371718 70.475
11.329197585398376 69.9555
11.351623622610898 70.1018
11.37403261614354 69.0087
11.396459526308487 69.1643
11.418869393879497 68.8128
11.441297180532617 68.5078
11.463725406927658 67.8944
11.486136592353875 67.6906
11.508565700543707 67.1874
11.530977768845315 67.2501
11.553407762368774 66.696
11.575838200059769 66.9096
11.598251599479612 66.5574
11.620682927815501 66.4608
11.64309721895548 66.653
11.665529441478206 66.3644
11.687962112597958 66.0632
11.710377748130886 66.2402
11.732811318753434 66.0442
11.755227854859067 65.9204
11.777662328529495 65.7624
11.800079768750786 65.1079
11.822515149015453 65.4164
11.844950984084935 65.7692
11.867369787303163 65.3972
11.889806534289491 65.4623
11.912226250487029 66.8098
11.934663912939751 67.7226
11.9571020346363 68.0847
11.979523127133968 68.1557
12.001962169624331 68.9916
12.024384183972964 71.4183
12.046824150809913 78.8245
12.069264581333726 88.9691
12.091687985297767 96.6488
12.11412934550045 101.98299999999999
12.136553680195208 108.43
12.158995973632788 119.587
12.181438735204349 134.85399999999998
12.20386447284199 156.107
12.226308172985636 183.40900000000002
12.24873485024193 201.574
12.271179492516982 190.56799999999998
12.293607112949127 155.131
12.316052700916226 110.61399999999999
12.338498763250042 84.1124
12.360927805303868 71.6096
12.383374818673879 68.4386
12.405804812803074 67.6029
12.428252780773262 67.4492
12.45070122756722 67.3903
12.473132656675375 66.9925
12.49558206341869 67.281
12.518014453510101 67.1457
12.540464823770117 67.4893
12.562915677315177 67.5148
12.58534951575545 68.0874
12.607801338171472 67.9203
12.630236146511358 68.1611
12.652688941369085 68.6161
12.675124723177234 68.9754
12.697578494048786 69.6533
12.720032754458185 69.9254
12.742470003354093 70.1602
12.764925245138771 70.7761
12.787363476431278 71.4599
12.809819703166806 71.9727
12.83227642391173 72.7241
12.854716135692716 72.9807
12.877173846755147 74.3938
12.899614549869717 74.8603
12.9220732548287 75.8839
12.94453245827299 76.4213
12.966974655289818 77.4851
12.989434858002571 78.786
13.011878055298721 79.407
13.034339260862497 80.5007
13.056800969391883 82.4374
13.079245674017244 85.5933
13.101708390774869 90.5877
13.12415410463411 105.98200000000001
13.146617833206086 130.602
13.169064559883248 151.554
13.191529303857127 166.488
13.213994557076367 178.3
13.236442809902437 194.513
13.258909083908291 220.481
13.28135835851934 254.273
13.30382565690295 300.504
13.326293469022952 361.93
13.348744283242008 406.529
13.371213125129904 398.952
13.39366497011003 329.54
13.416134845360597 232.53
13.438605238843131 160.167
13.46105863690397 130.112
13.483530069144786 133.619
13.505984506951902 146.982
13.528456981549432 158.951
13.550929978879088 166.17700000000002
13.573385983253365 174.662
13.595860028340867 191.43599999999998
13.618317081455832 217.31799999999998
13.64079217790333 252.34400000000002
13.663250283359057 294.975
13.685726434770173 340.236
13.708203115221277 361.151
13.730662806148091 322.286
13.75314054697177 244.47
13.775601299246777 170.24
13.798080104050406 117.885
13.820559442405358 95.2784
13.843021793671388 88.0855
13.865502201420897 85.5073
13.887965623051947 84.59299999999999
13.910447103807167 83.2353
13.932929122629764 81.5759
13.955394156785959 81.3319
13.977877254034569 80.2565
14.000343367582113 79.3264
14.022827546871707 78.8145
14.045294743423524 78.0807
14.06778000837062 77.156
14.090265817715476 77.1501
14.112734645763819 76.962
14.13522154619454 77.0325
14.157691466286913 76.8715
14.180179461423874 76.4524
14.202668005486178 75.9442
14.22513957064374 75.1002
14.247629214846473 74.4624
14.270101881097517 73.9845
14.29259262906496 73.5981
14.315083930490205 73.6321
14.337558255389705 73.3295
14.360050666019726 73.303
14.382526101071944 72.9442
14.405019624534942 72.7395
14.427513705993134 72.7013
14.449990813291825 72.7048
14.47248601302899 72.8015
14.49496423954951 72.6918
14.517460561197822 72.7696
14.539939910570322 72.4487
14.562437357763558 72.6138
14.58493536931253 73.1116
14.607416409993311 73.2033
14.62991555254159 73.7587
14.652397725157423 73.7351
14.674898002342799 74.0804
14.697398848433282 74.2573
14.719882725991326 75.7964
14.74238471217934 79.0329
14.764869730765593 86.9292
14.787372860692983 95.6804
14.809876564079925 103.865
14.83236330125751 109.37899999999999
14.854868153850365 113.53200000000001
14.877356041159485 119.155
14.899862046604186 127.478
14.922351087688757 140.126
14.944858249632887 155.769
14.967365991421232 175.77700000000002
14.989856770231246 198.912
15.012365673994204 215.725
15.03485761569738 210.31599999999997
15.05736768508665 180.555
15.07987833888692 142.32399999999998
15.102372032001655 108.079
15.124883856909658 87.0294
15.14737872204565 78.4255
15.169891721717274 75.2651
15.192405310371893 74.2693
15.214901940621196 73.6885
15.237416709527137 72.7558
15.259914520936249 72.5692
15.282430473753607 71.7118
15.304947020131227 71.1595
15.327446610371178 70.6901
15.349964346154254 70.3572
15.372465126703139 70.2176
15.394984055556009 70.2191
15.417486030076159 69.9396
15.44000615566487 69.5637
15.462526881230803 69.51100000000001
15.485030653812652 69.4247
15.507552581617434 69.4409
15.530057557334603 69.4783
15.55258069104857 69.556
15.575104429329837 69.8992
15.597611216864632 69.8287
15.620136166564563 70.6478
15.6426441664095 73.307
15.665170331202765 79.03
15.687697105158826 86.8959
15.710206930593545 93.1928
15.732734925158933 97.5199
15.755245972089478 100.38799999999999
15.77777519094324 104.213
15.800287463046663 109.86
15.822817909869592 118.978
15.84534897229804 129.83100000000002
15.867863089299354 145.09
15.890395385222186 162.719
15.912910736597423 181.942
15.935444269699861 190.015
15.957978423016485 178.585
15.980495633101265 151.894
16.003031029129367 120.552
16.02554948280019 92.0896
16.048086125229432 76.0688
16.070623392487107 69.3172
16.09314371869582 66.6551
16.11568223789321 65.0855
16.13820381691126 64.257
16.160743591742527 63.9918
16.183283996022084 63.2358
16.205807461423195 62.4351
16.228349126881973 61.9195
16.25087385432698 61.8445
16.27341678466365 61.1055
16.29594277784926 60.9126
16.31848697676433 60.5943
16.341031811604868 60.0391
16.36355971058487 59.8769
16.3861058195587 59.5261
16.40863499352978 59.2146
16.431182380342005 58.8412
16.453730407713202 58.7789
16.476261501364792 58.6096
16.498810812136167 58.2296
16.52134319004079 58.2148
16.54389378792203 57.9119
16.566445031001553 58.0248
16.588979342490088 58.0285
16.61153187824822 57.7493
16.634067483263312 57.6619
16.656621315414416 57.575
16.679175797408888 57.159
16.701713349928728 57.2505
16.72426913389191 57.3044
16.74680798922351 57.4896
16.76936507887444 57.2913
16.791905240734874 57.4799
16.814463639794468 57.4593
16.837022695210294 57.4247
16.859564824093756 57.6933
16.882125194503903 57.6415
16.904668639217885 57.7881
16.927230328348003 57.6961
16.949792678493612 58.1264
16.972338104193863 58.0369
16.994901778652235 58.1062
17.017448529496576 58.5219
17.040013531998152 59.0777
17.06257920018044 60.451
17.0851279459922 61.9842
17.107694947817667 63.3171
17.130245028099072 64.27600000000001
17.15281336730298 65.3211
17.17536478578733 66.0652
17.19793446610687 66.9653
17.220504818648422 68.7587
17.243058251703697 70.1964
17.265629950971032 72.7089
17.288184731571736 76.0733
17.310757781306908 80.5721
17.33333150794385 83.9579
17.355888317140174 85.6196
17.37846339986244 84.1395
17.401021565958885 79.2014
17.42359800851343 73.4479
17.44617513265564 68.1312
17.468735341390783 64.6796
17.491261035594565 62.825
17.51396340099364 62.0666
17.536490463869136 62.3451
17.559018209820174 62.0854
17.58154663977963 62.1713
17.604251766089718 62.4814
17.626781572227713 62.8511
17.64931206518155 63.005
17.671843245885103 63.6257
17.69455114821572 63.592
17.717083712612634 63.8375
17.739616967569667 64.2225
17.762150914021706 64.6918
17.78486160749854 65.01899999999999
17.807396945166804 65.9421
17.829932977143503 67.8952
17.85246970436452 71.2072
17.875183204129467 75.4068
17.897721330097664 79.1929
17.920260154126645 82.0086
17.942799677153296 84.2554
17.9655159983646 85.5126
17.988056927677544 88.0722
18.010598558807683 92.0459
18.033140892692916 97.4407
18.05586005052525 103.101
18.07840379824407 110.881
18.10094825154059 121.506
18.12366954819864 133.791
18.146215420998306 143.593
18.16876200220057 145.438
18.191309292745153 137.64600000000002
18.214033452627167 124.098
18.236582170236648 107.925
18.259131600016456 96.2319
18.281681742907335 90.3318
18.304408781233683 89.6105
18.32696035875955 91.3224
18.349512652227624 94.2961
18.372065662579683 99.7626
18.394795594587553 104.572
18.41735004715306 106.427
18.43990521943684 103.654
18.46246111238171 96.4038
18.485193953325208 86.7558
18.507751296070428 77.7018
18.530309362314178 71.3365
18.552868153000343 67.8812
18.57560391815056 65.8967
18.59816416623245 65.1556
18.620725141597372 64.6714
18.643286845190268 64.1999
18.666025549835414 63.4761
18.688588718427933 63.0305
18.711152618092243 62.854
18.73389353884365 62.5265
18.75645890921984 62.2634
18.77902501351406 61.8584
18.801591852673102 61.8101
18.824335739722738 61.0649
18.846904057212626 61.093
18.8694731124168 60.8599
18.89204290628315 60.8259
18.914789774966803 60.6631
18.937361054791623 60.4171
18.959933076131318 60.2665
18.982505839934877 59.913000000000004
19.00525570560582 59.9326
19.027829963004184 59.7167
19.05040496572238 59.7413
19.072980714710468 60.203
19.095733592739563 60.6273
19.11831084296757 61.5863
19.140888842324735 62.2644
19.16346759176222 62.6531
19.18622349753803 63.0138
19.208803755869358 63.145
19.231384767143577 63.7278
19.253966532312948 64.7781
19.276725481241822 65.8377
19.29930876296784 66.8662
19.3218928014549 68.3697
19.34465404436217 70.2369
19.36723960516257 72.6856
19.389825925592426 74.9965
19.412413006605938 76.7807
19.43517731967805 76.2614
19.457765930683355 73.9032
19.48035530514408 69.735
19.50294544401556 65.5726
19.525712842708348 61.5781
19.54830451925909 59.1162
19.570896963095727 57.4427
19.593490175174704 56.8285
19.616260674962184 56.8457
19.638855432416964 56.4201
19.661450960992624 56.6252
19.68404726164677 56.4542
19.706820878021247 55.9922
19.729418731756834 56.2539
19.752017360452857 56.2025
19.77461676506804 56.5021
19.797393513540218 56.8483
19.819994478951667 57.5614
19.84259622316767 58.4206
19.8651987471481 59.11
19.887978643247177 59.1866
19.91058273574792 59.3727
19.933187610901943 59.8489
19.955969879466828 60.343999999999994
19.97857632894404 61.3326
20.00118356396599 62.1931
20.023791585494575 63.5138
20.046577028914875 65.5705
20.069186632506966 67.5035
20.091797025500632 70.1708
20.114408208858933 72.2759
20.137196842715273 73.7597
20.159809615886765 73.6693
20.18242318232135 71.5978
20.20503754298326 69.0164
20.227829382875154 66.6228
20.250445341109344 64.8448
20.27306209647285 63.7992
20.29567964993108 63.9557
20.31847471147704 64.9453
20.34109387027612 66.3194
20.363713830075454 67.3587
20.386334591841646 67.6091
20.409132890679302 66.2362
20.431755265564437 63.73
20.454378445325528 60.556999999999995
20.477002430930366 57.7461
20.499803982716553 55.6657
20.522429589228004 54.2539
20.54505600449589 53.3823
20.567683229489194 53.137
20.590488049900088 52.8998
20.61311690359731 52.7356
20.63574656993626 52.4818
20.658553853717297 52.3608
20.681185154618298 52.2145
20.703817271080066 52.1124
20.72645020407368 51.6695
20.749260783967177 51.5142
20.771895359337133 51.4756
20.794530754161617 51.7071
20.817166969412938 51.5632
20.83998086114876 51.4678
20.86261872660049 51.2518
20.885257415405402 51.3875
20.90789692853701 51.1575
20.930714147864748 51.2856
20.953355319030678 51.2294
20.97599731745334 51.4781
20.99864014410749 51.3021
21.021460706796564 51.3388
21.044105199328826 51.6126
21.06675052302631 51.5146
21.089396678865015 51.7005
21.112220600704806 51.8254
21.134868430275347 51.93600000000001
21.15751709492456 52.0985
21.180166595629693 52.2311
21.202993892429635 52.4681
21.22564507473034 52.8689
21.24829709602816 53.1522
21.27112693608965 53.8421
21.293780644891275 54.1465
21.316435195634053 53.7887
21.339090589297417 53.1875
21.361923832041875 52.6989
21.384580921090404 51.8616
21.407238856007325 51.3938
21.429897637773326 51.1728
21.45273429906592 50.9151
21.475394784108598 51.0013
21.498056118951983 50.9117
21.520718304578022 51.3088
21.543558400304388 51.2567
21.566222297108816 51.6303
21.58888704765135 52.0514
21.61155265291521 52.7624
21.63439619898156 53.5153
21.657063523335786 53.841
21.67973170537063 54.3568
21.7024007460706 54.6676
21.72524775840385 55.0767
21.747918526116475 55.5989
21.770590155457388 56.2009
21.79326264741238 57.208
21.816113141960237 58.4676
21.838787368860547 59.6542
21.861462461341976 60.8386
21.884315579735777 62.6867
21.90699241312273 64.3992
21.92967011506078 65.9756
21.95234868653799 67.0038
21.9752053151131 67.1373
21.997885635446785 66.2236
22.020566828293532 63.953
22.04324889464272 61.5101
22.066109049404666 59.2023
22.088792872571794 57.9337
22.111477572219204 57.6639
22.1341631493376 57.6707
22.157026846313123 58.1422
22.179714188221507 58.0557
22.202402410582668 57.6376
22.22509151438863 56.3305
22.24795876962584 55.0556
22.270649646204486 53.8101
22.293341407213727 52.8631
22.316034053646906 52.1394
22.338904883215342 51.6222
22.36159931041458 51.3924
22.38429462602756 51.3413
22.40699083104897 51.1171
22.429865251039757 50.9455
22.452563244831367 50.9275
22.47526213102522 51.1062
22.49813925616515 51.0269
22.520839937143307 51.0075
22.543541513520587 50.9689
22.56624398629403 50.9438
22.589124730075895 50.9309
22.611829005656723 51.3421
22.63453418063466 51.5125
22.657240256008077 51.9161
22.680124634582935 52.4524
22.70283252079775 52.8664
22.725541310413075 53.0204
22.74825100442868 53.0718
22.771139033969575 53.2588
22.79385054687155 53.2951
22.81656296718292 53.5089
22.83927629590484 54.1615
22.862167992606945 54.7064
22.88488314827121 55.4045
22.907599215359284 55.7615
22.93031619487366 56.3791
22.953211574954405 57.1849
22.975930389478226 58.6383
22.998650119445763 59.6218
23.02137076586092 59.8079
23.044269845560063 59.5536
23.06699233506288 58.6333
23.089715744034912 56.8554
23.112617610931565 55.1262
23.135342869061212 53.591
23.158069049684816 52.3486
23.1807961538087 51.6824
23.20370174880544 51.4442
23.226430710184808 51.4947
23.249160598093425 51.7895
23.271891413539002 52.0522
23.294800752937697 52.3586
23.31753343374794 52.6145
23.340267045128353 52.5946
23.36300158808808 52.8017
23.38591468821339 52.9079
23.408651104658304 53.0329
23.431388455719986 53.3146
23.454126742409 53.7049
23.4770436196085 54.103
23.499783787914662 54.7694
23.522524894889884 55.3834
23.54526694154616 55.7891
23.56818761219047 56.8487
23.59093154860734 58.0033
23.613676427751283 59.2097
23.636422250635754 59.5925
23.659346731118656 59.2677
23.68209445191868 57.9746
23.704843119509587 55.9472
23.72759273490623 53.7651
23.750521041644767 51.8975
23.77327256312355 50.446000000000005
23.796025035462787 49.4888
23.818956224555475 48.7545
23.841710609113413 48.5206
23.86446594758979 48.2661
23.887222241002014 47.9154
23.910157285144578 47.5966
23.932915498962537 47.5989
23.955674670778713 47.3283
23.978434801611975 47.1806
24.001373717286125 47.1085
24.024135776723917 46.9316
24.046898798245582 46.8461
24.06966278287146 46.6142
24.092605586582614 46.3536
24.115371508023642 46.2305
24.1381383956401 46.1172
24.16090625045381 46.0528
24.183852958731244 45.8847
24.206622758582608 45.9179
24.229393528706886 45.6888
24.252165270127392 45.8745
24.27511589952438 45.8786
24.297889594216997 45.5859
24.32066426328598 45.4206
24.34343990775613 45.43600000000001
24.36639447485003 45.3308
24.38917208083877 45.3465
24.41195066531332 45.106
24.43490819850244 45.1563
24.457688750692377 45.0526
24.48047028445616 45.0179
24.503252800821233 45.0587
24.526214300784112 45.1131
24.548998793132213 45.1395
24.57178427117417 45.0438
24.59457073593893 44.9864
24.617536219319863 45.1543
24.64032466834748 45.0889
24.663114107195035 44.9259
24.685904536893013 44.6402
24.708874020360852 44.6438
24.731666442613744 44.68600000000001
24.754459858818787 44.5215
24.777254270007962 44.4886
24.80022777025625 44.4584
24.82302418230472 44.4529
24.845821592443674 44.3965
24.86862000170663 44.4269
24.891597535453727 44.3779
24.914397953892728 44.5444
24.93719937456671 44.4356
24.96000179851076 44.6063
24.98298338249997 44.7894
25.00578782394922 45.2318
25.028593271784167 45.177
25.05157790644186 45.346000000000004
25.07438537804115 45.4499
25.097193859145293 45.5472
25.120003350792075 45.7126
25.142992065061257 45.8037
25.165803588823465 46.1241
25.18861612625217 46.3848
25.211429678386736 46.5655
25.234422489079968 46.7133
25.257238081693636 46.571000000000005
25.280054692141732 46.4737
25.3028723214652 46.3067
25.325869245420463 46.3025
25.348688923599397 46.591
25.371509623787006 46.5907
25.394331347025812 46.6793
25.41733240110666 46.6114
25.440156181590016 46.1319
25.46298098826268 45.641000000000005
25.48580682216873 45.0927
25.50881202326435 44.3643
25.53163992281684 43.8787
25.55446885274561 43.6103
25.577298814096377 43.2038
25.600308179121807 42.8393
25.623140214533745 42.8035
25.64597328451537 42.8399
25.66898578564376 42.5565
25.691820936010206 42.6164
25.714657124097695 42.7135
25.737494350954734 42.6911
25.760511045684957 42.5568
25.783350361364224 42.5813
25.806190718969255 42.6133
25.82903211955018 42.648
25.852053024868923 42.7396
25.874896522722523 42.721000000000004
25.897741066713106 42.5563
25.920586657892454 42.6304
25.943611790812668 42.684
25.966459487728237 42.7748
25.989308234998564 42.7018
26.01215803367705 43.1033
26.03518741123814 43.0185
26.05803932412957 43.1642
26.080892291600094 43.2078
26.10374631470478 43.3087
26.12677995397268 43.606
26.14963609978026 43.648999999999994
26.172493304397875 43.5148
26.19535156888223 43.3435
26.218389486949604 43.1444
26.241249882640123 42.9554
26.26411134137826 42.7091
26.28715248187403 42.7079
26.31001607820869 42.3786
26.3328807407756 42.1732
26.35574647063438 42.3589
26.37879191991473 42.2519
26.401659795896734 42.2544
26.424528742360263 42.2968
26.447398760366614 42.409
26.470448535598294 42.6055
26.49332070826805 42.5769
26.516193955675355 42.6748
26.53906827888316 42.8524
26.562122397260108 42.9084
26.584998883685063 43.2453
26.607876449110325 43.3745
26.63075509460056 43.4582
26.65381357334404 43.7396
26.67669439061878 43.7841
26.699576291163382 43.9217
26.722459276044212 43.9262
26.745522132402975 43.8625
26.768407297649354 43.5317
26.791293550442003 43.0974
26.814180891848974 42.9412
26.837248143099337 42.6221
26.860137673466657 42.4641
26.88302829566349 42.2149
26.90592001075963 42.0256
26.92899167420566 41.8512
26.951885586870763 41.6155
26.974780595655517 41.4048
26.99785558178161 41.2058
27.020752794605112 41.1232
27.043651106772522 40.8943
27.06655051935668 40.6939
27.089629948036183 40.6566
27.112531573292053 40.6336
27.135434302194138 40.6411
27.158338135817015 40.5127
27.181422024430987 40.5845
27.204328079372566 40.4903
27.22723524226965 40.4091
27.250143514198573 40.5153
27.273231880156334 40.4862
27.296142382065014 40.3126
27.319053996245536 40.1544
27.341966723775965 40.3337
27.365059584515222 40.2724
27.38797455070062 40.4243
27.410890633481237 40.2449
27.433807833936918 40.1055
27.456905206923906 40.1932
27.47982465472398 40.135999999999996
27.502745223449743 40.2506
27.525666914182825 40.4166
27.548768816912457 40.4945
27.571692763693633 40.3599
27.59461783573812 40.2622
27.617723149491244 40.1743
27.640650484125285 40.2118
27.66357894728264 40.1549
27.686508540048052 40.161
27.709618414237887 40.0323
27.732550278321757 39.9222
27.755483275279115 39.8418
27.778417406196485 39.8206
27.801531858397514 39.8217
27.824468269376716 39.7595
27.847405817586786 39.826
27.870344504116094 39.9034
27.893463551932008 39.7192
27.916404527281053 40.0245
27.93934664422563 40.059
27.962289903855886 39.9284
27.98541356491974 40.1887
28.00835912214229 40.2471
28.03130582533231 40.5087
28.054253675581805 40.6244
28.077381967556104 40.5313
28.100332124185126 40.7081
28.123283431160893 40.6903
28.146235889577238 40.6764
28.169368830154156 40.5195
28.192323603752033 40.2482
28.215279532083304 39.9255
28.238415973016764 39.66
28.261374223145094 39.5968
28.284333631303806 39.4398
28.307294198589954 39.3801
28.330435319167677 39.0287
28.353398217078915 38.914
28.376362277420153 38.5706
28.39932750129032 38.3902
28.422473319286713 38.2352
28.44544088262495 38.1124
28.468409612800283 37.8787
28.491379510913497 37.6807
28.51453004413313 37.705
28.53750229057244 37.7366
28.56047570826344 37.5978
28.583450298308804 37.5574
28.606605564586562 37.3407
28.629582511831156 37.5301
28.65256063474956 37.3404
28.675539934446338 37.3181
28.698699951647605 37.2975
28.72168161743193 37.1968
28.74466446331978 37.1948
28.767648490417624 37.1233
28.790813276438353 37.0214
28.813799678527303 37.0193
28.836787265157085 37.0083
28.859955641890075 37.1165
28.882945610203045 36.9967
28.905936766392035 37.0029
28.928929111566863 37.0617
28.952102288520145 37.0712
28.975097024308607 36.9955
28.998092952423807 36.7649
29.021090073977508 36.6505
29.04426806913204 36.6862
29.067267590245258 36.518
29.090268308143695 36.4457
29.11327022394099 36.2124
29.13645305530891 36.1418
29.159457379627167 36.0681
29.18246290519685 36.0005
29.20546963313352 36.0093
29.22865731875826 36.0085
29.25166646419296 35.9281
29.27467681535305 35.7808
29.29768837335608 35.8777
29.320880931312562 35.8858
29.34389491580634 35.7807
29.366910110507334 35.713
29.38992651653503 35.777
29.41312396492981 35.7801
29.436142806456754 35.6958
29.45916286268059 35.5851
29.48236399319994 35.628
29.50538649169417 35.4895
29.528410208259935 35.3808
29.55143514402014 35.1117
29.574641196749695 35.0199
29.597668583816574 34.9199
29.6206971934585 34.8173
29.64372702680042 34.7556
29.666938019934474 34.6948
29.689970313635285 34.6152
29.713003834422636 34.5395
29.73603858342347 34.4359
29.759254535188578 34.4172
29.78229175361658 34.3357
29.80533020365064 34.3497
29.82836988641968 34.4307
29.85159081507472 34.4601
29.874632976355343 34.3301
29.89767637376955 34.275
29.920721008448314 34.2749
29.9439469322847 34.2201
29.96699405457564 34.2338
29.9900424175358 34.1555
30.013092022298157 34.1364
30.03632295963995 33.9437
30.059375061131373 34.0776
30.08242840783577 34.0268
30.105483000888153 34.0149
30.128718970092244 33.9193
30.151776069006917 33.8407
30.17483441768648 33.9822
30.198074175317235 33.8426
30.221135036724256 33.9451
30.24419715131772 33.8864
30.267260520236203 33.7408
30.290505341942243 33.818000000000005
30.313571232750228 33.928000000000004
30.336638381310948 33.89
30.35970678876503 33.9349
30.38295669299435 33.7889
30.40602763151657 33.7704
30.429099832366074 33.6543
30.452173296685572 33.5944
30.47542830191959 33.5396
30.498504306502497 33.4694
30.521581577995562 33.5909
30.544660117543582 33.6264
30.56792024229725 33.5427
30.59100133132069 33.6142
30.614083691845494 33.5703
30.637167325018545 33.5337
30.660432587840603 33.6439
30.683518779717886 33.5401
30.70660624769615 33.6115
30.729694992924372 33.6908
30.75296541239743 33.6686
30.77605672557558 33.6269
30.799149319462742 33.618
30.8224236211637 33.6132
30.845518789950724 33.4442
30.868615242910597 33.3593
30.891712981195973 33.2724
30.91499247215866 33.1096
30.938092794619365 33.1353
30.96119440587579 33.016999999999996
30.984297307082752 32.9999
31.00758200598383 32.8707
31.030687500658694 32.7381
31.053794288760695 32.7765
31.076902371446767 32.6608
31.100192296997445 32.6282
31.12330298246119 32.6175
31.14641496599209 32.4946
31.169528248749216 32.5528
31.19282341969534 32.5394
31.215939314557186 32.3761
31.239056512134788 32.4584
31.262175013589378 32.3015
31.28547544871168 32.2743
31.30859657161541 32.3255
31.331719001892175 32.3951
31.35484274070538 32.4245
31.378148458819545 32.3867
31.401274828443725 32.302
31.424402510106933 32.2839
31.447712205419993 32.2929
31.470842524931633 32.1261
31.493974159989783 32.2286
31.51710711176168 32.2489
31.54042212308802 32.3486
31.563557722100917 32.3189
31.586694641341655 32.143
31.609832881979628 32.101
31.63315322823208 31.9856
31.656294125521327 31.8313
31.679436347728515 31.8194
31.70257989602529 31.7309
31.725905596152327 31.5729
31.74905181052835 31.5672
31.772199354521323 31.7031
31.79534822930507 31.5597
31.818679302290967 31.5673
31.84183085259981 31.5529
31.864983737233473 31.4897
31.88813795736804 31.4652
31.911474422233013 31.4072
31.934631327356435 31.561
31.9577895715215 31.3731
31.980949155906522 31.395
32.004291031706956 31.4641
32.027453310562606 31.3502
32.05061693318573 31.3005
32.07396288236386 31.3306
32.09712920658542 31.1948
32.12029687812702 31.0263
32.14346589817093 30.8886
32.166817291729984 30.8477
32.18998902288583 30.8124
32.21316210610336 30.7422
32.23633654256711 30.6026
32.259693399663725 30.6151
32.282870556771144 30.6095
32.30604907069099 30.5784
32.329228942610065 30.4987
32.35259128243769 30.4126
32.375773884550505 30.3995
32.398957848235646 30.3662
32.422143174682176 30.2359
32.445511016471215 30.2291
32.468699082679954 30.174
32.49188851523011 30.2059
32.51507931531304 30.0979
32.538452678331 30.1039
32.56164622776311 29.9716
32.58484114831493 29.9167
32.60803744118015 29.8831
32.631416344731896 29.7827
32.654615396551876 29.9374
32.67781582427913 29.7852
32.701198898634416 29.6624
32.72440209253756 29.5791
32.747606665947124 29.655
32.77081262006088 29.5476
32.79420126883317 29.5153
32.81740999876112 29.5295
32.840620112999424 29.4331
32.86383161274818 29.3493
32.88722585534586 29.3263
32.91044014056596 29.4277
32.933655814909734 29.296999999999997
32.95687287957963 29.3019
32.98027273544904 29.3113
33.00349259526636 29.1939
33.026713849030116 29.2226
33.04993649794511 29.1343
33.073341986570746 29.0541
33.09656744032826 29.0376
33.11979429286444 29.1576
33.14302254538647 29.0604
33.166433686291185 29.0713
33.18966475336992 29.0195
33.212897224069096 28.8363
33.23613109959831 28.8784
33.259547912343415 28.9028
33.2827846121627 28.9084
33.306022720453775 28.7568
33.32926223842861 28.7183
33.352684742614166 28.6924
33.37592709463173 28.7622
33.399170859982064 28.665
33.422597648419426 28.5865
33.44584425514446 28.4643
33.46909227885668 28.3877
33.4923417207723 28.2637
33.51577423505344 28.2522
33.539026528130385 28.2022
33.56228024307245 28.160999999999998
33.585535381098246 28.0321
33.60897364093058 27.9728
33.63223163992385 27.9729
33.6554910656699 27.9365
33.678751919389796 27.9274
33.702195944520106 27.9054
33.72545966903325 27.8183
33.74872482519663 27.7084
33.771991414233746 27.7306
33.79544122444841 27.704
33.81871069412428 27.5743
33.84198160035767 27.6629
33.86525394437455 27.625
33.88870955949969 27.5239
33.911984794020626 27.6092
33.93526147001624 27.5186
33.958539588715006 27.5193
33.98200102861669 27.4313
34.0052820477047 27.3028
34.02856451319451 27.3576
34.05203033759056 27.2622
34.07531571090147 27.241999999999997
34.09860253431845 27.1721
34.121890809074316 27.0883
34.145362493118924 27.0084
34.16865368561615 27.0458
34.191946333164054 27.0064
34.21524043699793 26.9062
34.23871800066799 26.9869
34.26201503218366 26.8495
34.28531352370466 26.8748
34.30861347646881 26.7635
34.33209693978188 26.7275
34.3553998301885 26.7408
34.378704185565205 26.6443
34.402010007152356 26.5971
34.42549939016683 26.6603
34.44880815937748 26.5199
34.472118398533134 26.4475
34.49543010887669 26.4209
34.51892543169198 26.3081
34.54224009966052 26.371
34.56555624255917 26.2774
34.58887386163339 26.2259
34.61237514439016 26.2086
34.6356957311114 26.1812
34.65901779775809 26.2157
34.68252356662995 26.068
34.705848608458616 26.1096
34.72917513396849 25.9926
34.75250314440949 26.0105
34.77601490857862 25.9523
34.799345904259795 25.781999999999996
34.82267838863559 25.8342
34.846012362958525 25.8258
34.869530142679984 25.7562
34.89286711232212 25.7613
34.91620557568269 25.7706
34.93954553401677 25.7061
34.9630693495876 25.6765
34.986412313340814 25.6806
35.00975677584668 25.686999999999998
35.033102738362956 25.5953
35.05663261012228 25.4722
35.0799815881786 25.4592
35.10333207003229 25.4013
35.12668405694369 25.4726
35.150220005273056 25.4497
35.17357501786656 25.3753
35.19693153931268 25.3495
35.220289570874385 25.3249
35.24383161619786 25.2998
35.267192683604904 25.232
35.290555264930376 25.1725
35.314101899412165 25.2413
35.33746752422433 25.2245
35.36083466676374 25.1309
35.38420332829803 25.0965
35.407756095629054 25.1973
35.43112781085063 25.1126
35.45450104888391 24.9619
35.477875810999194 24.9399
35.50143473172161 24.9782
35.52481255774625 24.9633
35.54819191167777 24.9355
35.57157279478914 24.9404
35.595137889488406 24.8195
35.61852184675279 24.8106
35.641907337029984 24.7597
35.665294361595684 24.7317
35.68886565090076 24.6836
35.7122557598848 24.6299
35.73564740699838 24.656
35.759040593519934 24.5658
35.78261809810353 24.5061
35.80601437933051 24.4301
35.829412203814705 24.4133
35.85281157283719 24.2869
35.876395313415884 24.3626
35.8997977874528 24.285999999999998
35.92320180988546 24.2947
35.946790244133936 24.1819
35.97019737933222 24.2353
35.993606066789866 24.1491
36.01701630779276 24.0835
36.04061101440684 24.0438
36.06402437852291 24.0515
36.08743930005611 24.0886
36.1108557802951 24.0041
36.13445678011326 23.9727
36.15787639383515 23.8812
36.18129757014299 23.8996
36.20472031032821 23.7933
36.22832762423364 23.7685
36.25175350829375 23.7151
36.275180960119776 23.7003
36.298609981005924 23.8002
36.32222362992669 23.7092
36.34565580510207 23.6609
36.36908955323448 23.5902
36.39252487562093 23.5291
36.416144880530226 23.4891
36.43958336764275 23.4018
36.463023432914625 23.4507
36.486465077645676 23.453000000000003
36.51009145956204 23.5278
36.53353627947859 23.4657
36.55698268276811 23.3087
36.58043067073321 23.2478
36.60406345072071 23.2206
36.62751462435344 23.2389
36.65096738658405 23.2474
36.67460498210655 23.1543
36.69806093788647 23.1258
36.72151848619297 23.0756
36.744977628333636 23.1251
36.76862165890998 22.9985
36.79208400512205 23.0167
36.81554794910557 23.0001
36.83901349217101 22.9133
36.862663978991606 22.874000000000002
36.88613273667352 22.9081
36.90960309738324 22.8684
36.933075062434064 22.7315
36.95673202673572 22.6934
36.98020721697122 22.6449
37.003684015502365 22.621
37.027162423645365 22.596999999999998
37.050825886711465 22.5996
37.07430753063053 22.5416
37.09779078812467 22.4636
37.121275660513014 22.4778
37.144945643673694 22.4213
37.16843376245278 22.375999999999998
37.19192350009803 22.3803
37.215414857931435 22.3188
37.239091382563885 22.2053
37.262585997426164 22.2549
37.28608223645736 22.2558
37.309763684451696 22.1691
37.33326318851098 22.1133
37.356764320726555 22.1428
37.380267082425526 22.1245
37.40395510942588 22.101999999999997
37.42746114683234 22.0263
37.45096881771841 21.9667
37.474478123414166 21.9477
37.49817275092816 21.8767
37.52168534303452 21.889
37.54519957395567 21.7978
37.568715445024665 21.7977
37.592416694607714 21.7358
37.61593586281424 21.8056
37.63945667518264 21.7944
37.66297913304891 21.6373
37.68668702630454 21.6525
37.710212792059274 21.5839
37.733740207334854 21.54
37.757269273470364 21.529
37.780983832050374 21.5342
37.80451621684926 21.4503
37.82805025654007 21.4589
37.851585952464795 21.4001
37.8753071980695 21.2984
37.89884622345676 21.3437
37.92238690911902 21.2258
37.94611318753442 21.2377
37.969657210779765 21.1714
37.99320289834801 21.177
38.016750251586465 21.1985
38.04048325513017 21.1548
38.06403395679343 21.0588
38.087586328183946 21.0161
38.11114037065203 20.9717
38.13488012115898 21.0033
38.1584375229181 20.9179
38.181996599821 20.8981
38.205557353221124 20.8839
38.229303872575656 20.8404
38.2528679961576 20.8617
38.27643380031219 20.7783
38.30000128639589 20.7208
38.32375459653193 20.7128
38.34732546371299 20.7153
38.37089801690786 20.6098
38.39447225747609 20.6074
38.418232380377425 20.6192
38.441810012983396 20.5549
38.46538933705673 20.503
38.488970353960084 20.5002
38.51273731166058 20.4151
38.536321731567014 20.4191
38.55990784840681 20.3625
38.58367995004091 20.3424
38.60726947812959 20.2576
38.63086070726198 20.281
38.654453638806274 20.2439
38.678232613930824 20.1369
38.70182896773327 20.1462
38.72542702806741 20.1043
38.7490267963045 20.1035
38.77281266709232 20.0811
38.79641586862214 20.023
38.8200207821842 19.9972
38.843627409152944 19.9883
38.86742019782782 19.9812
38.891030269149255 19.9143
38.914642058016156 19.891
38.938255565806124 19.8437
38.96205529464307 19.8817
38.98567225787121 19.8114
39.00929094417078 19.7529
39.03291135492255 19.7556
39.05671804624804 19.768
39.080341923549106 19.6723
39.103967529460334 19.6117
39.127594865365744 19.555
39.15140854155791 19.4994
39.17503935514948 19.5554
39.19867190290282 19.5167
39.22249083587951 19.531
39.24612686969409 19.4794
39.269764641845306 19.4064
39.293404153722804 19.4409
39.317230110864074 19.4014
39.34087311998506 19.3178
39.36451787301696 19.3202
39.388164371352595 19.2615
39.41199737518003 19.1863
39.43564738196752 19.23
39.45929913825317 19.1287
39.48295264543308 19.1648
39.506792718520884 19.13
39.530449745387216 19.0747
39.55410852735203 19.0646
39.57776906581474 19.0672
39.60161623079 19.0017
39.625280300200025 18.9259
39.64894613032202 18.899
39.67261372255866 18.8738
39.6964680021016 18.9011
39.72013913657293 18.8547
39.74381203738292 18.8385
39.76748670593756 18.823
39.79134812278169 18.7855
39.81502634488497 18.7652
39.83870633896685 18.6677
39.862388106436654 18.6551
39.88625668336918 18.6052
39.90994201572829 18.6423
39.933629125719285 18.5958
39.957503091207826 18.5814
39.9811937746168 18.6156
40.00488623990914 18.5217
40.02858048850006 18.4545
40.05246165409549 18.4129
40.076159487492085 18.3343
40.099859108448875 18.3402
40.123560518384345 18.3916
40.1474489070226 18.3217
40.171153913178564 18.2838
40.194860712584955 18.2388
40.2185693066637 18.2736
40.242464941335314 18.2146
40.26617714307655 18.2169
40.289891143772046 18.1559
40.3136069448471 18.1079
40.33750984859743 18.1307
40.3612292688043 18.1318
40.3849504936829 18.1277
40.40867352466194 18.0788
40.43258372059144 17.9771
40.45631038219906 17.9748
40.48003885420956 17.8669
40.503769138055105 17.8871
40.52768664931955 17.8876
40.55142057531802 17.8314
40.57515631746428 17.8098
40.599079334038514 17.7667
40.62281872700477 17.6772
40.64655994043941 17.6917
40.67030297578061 17.6873
40.69423334835778 17.6656
40.71798004609188 17.628
40.74172857006355 17.5826
40.76547892171441 17.6376
40.7894166736039 17.5613
40.813170699248566 17.5389
40.83692655691388 17.5002
40.86068424804498 17.5206
40.884629402612525 17.4546
40.908390779366385 17.4845
40.932153993938 17.4166
40.95591904777605 17.3196
40.979871628443995 17.3039
41.003640379561936 17.3457
41.02741097430883 17.2842
41.05118341413683 17.2362
41.075143444384416 17.2209
41.098919593177826 17.2122
41.1226975914255 17.118
41.14647744058318 17.1532
41.170444943946755 17.0815
41.19422851378379 17.0737
41.218013938914645 17.0249
41.24198706625173 16.980999999999998
41.26577622087193 16.9757
41.289567235177785 16.955
41.31336011063129 16.8866
41.337340752422875 16.8258
41.361137369129835 16.8615
41.38493585138705 16.8885
41.40873620066004 16.7916
41.43272438060107 16.8103
41.45652848292052 16.6823
41.48033445666918 16.680999999999997
41.50414230331616 16.654
41.528138045159764 16.7235
41.551949656675205 16.6298
41.575763145513235 16.6029
41.59957851314666 16.5877
41.62358184070442 16.5522
41.64740098505737 16.5238
41.6712220126409 16.4751
41.69504492493139 16.4599
41.71905586207357 16.4276
41.74288256296395 16.422
41.766711153007456 16.3652
41.79054163368412 16.3477
41.814560204340054 16.4096
41.838394485526365 16.4135
41.86223066180303 16.3063
41.88625497706819 16.2417
41.910094962812 16.1823
41.93393684811168 16.1935
41.95778063445365 16.1007
41.981812625263366 16.0942
42.00566023303407 16.1364
42.029509746323676 16.1357
42.05336116662236 16.0749
42.077400857069705 16.0868
42.10125611078846 16.0375
42.12511327600405 15.9986
42.14897235421036 15.9905
42.173019768448455 15.895
42.19688269209613 15.8829
42.22074753323349 15.8772
42.24461429335818 15.841
42.268669455600495 15.8361
42.292540073217886 15.7912
42.31641261433284 15.761
42.34028708044675 15.7561
42.36435001496739 15.7251
42.38822835065557 15.7008
42.41210861586426 15.6703
42.4359908120986 15.620999999999999
42.46006154323262 15.6018
42.48394762115317 15.5688
42.507835634632315 15.5865
42.531912233047436 15.5429
42.55580413732265 15.5387
42.579697981698 15.4925
42.60359376768525 15.485999999999999
42.62767820545945 15.4287
42.65157789440821 15.4067
42.67547952952185 15.3454
42.699383112316 15.3769
42.72347541395347 15.3104
42.74738291190531 15.2743
42.771292362102166 15.3022
42.795203766063516 15.2591
42.819303956130405 15.228
42.843219287476536 15.1727
42.86713657716324 15.1182
42.89105582671383 15.0899
42.91516392983864 15.1054
42.939087119032166 15.1267
42.963012272677304 15.0502
42.98693939230129 15.0593
43.01105543317513 15.0759
43.034986504731386 14.9886
43.05891954686589 14.952
43.08285456110972 14.964
43.10697856448665 14.8923
43.130917542983475 14.8626
43.15485849820081 14.8798
43.17880143167367 14.8503
43.20293342237094 14.822000000000001
43.226880332449 14.7794
43.25082922540554 14.7908
43.27496722682525 14.7592
43.29892010567796 14.7063
43.32287497204102 14.7038
43.34683182745632 14.6279
43.370977859791836 14.6119
43.39493871351105 14.5988
43.41890156092628 14.5923
43.44286640358341 14.5785
43.46702049182749 14.5384
43.49098934522816 14.5164
43.51496019852649 14.5245
43.5389330532723 14.46
43.56309522248204 14.401
43.58707210044314 14.3992
43.61105098451946 14.3331
43.63503187626491 14.3396
43.659202151562134 14.3239
43.68318707902681 14.311
43.70717401884041 14.2596
43.731162972560874 14.2298
43.75534137913236 14.208
43.779334381108384 14.1983
43.803329401683186 14.213
43.82732644241872 14.1459
43.8515130055166 14.1311
43.87551410707659 14.1285
43.89951723350145 14.1248
43.923709934595614 14.0679
43.94771713129917 14.0081
43.97172635758096 14.017999999999999
43.99573761501002 14.005
44.0199385169922 13.9535
44.04395385732619 13.9293
44.067971233533086 13.9129
44.09199064718605 13.8833
44.11619977548961 13.857999999999999
44.14022328470671 13.8317
44.16424883610785 13.8087
44.18827643127035 13.8322
44.21249381139513 13.7788
44.236525514814076 13.7508
44.26055926674478 13.7302
44.28459506876863 13.7428
44.3088207262813 13.6854
44.33286064928722 13.6841
44.35690262714919 13.632
44.38094666145278 13.584000000000001
44.4051806219871 13.5676
44.42922879003185 13.52
44.45327901929361 13.4722
44.477331311362136 13.5112
44.501573600619416 13.4595
44.525630039221795 13.4658
44.54968854541895 13.4609
44.573937102200176 13.3989
44.5979997645541 13.4008
44.622064499300315 13.3415
44.64613130803592 13.3154
44.67038823869318 13.388
44.69445921643748 13.3242
44.718532272981385 13.2575
44.742607409926194 13.2215
44.76687274034801 13.2035
44.79095205918753 13.2167
44.81503346325094 13.2115
44.839116954143876 13.1689
44.86339071028742 13.138
44.88747839599524 13.107999999999999
44.91156817336837 13.0497
44.93566004401666 13.0684
44.959942251908146 13.0797
44.984038330325966 13.0318
45.00813650686762 12.9786
45.03223678314731 13.0127
45.05652746888232 12.95
45.08063196592069 12.93
45.104738567558705 12.894
45.128847275414856 12.859000000000002
45.15314646515866 12.7814
45.17725940679741 12.804
45.20137445952892 12.811
45.22568004865265 12.8054
45.24979934496396 12.764000000000001
45.27392075725247 12.7282
45.29804428714431 12.7654
45.322358426247604 12.6998
45.346486212804315 12.677999999999999
45.370616121861914 12.658
45.39474815505086 12.6237
45.41907087049246 12.6149
45.4432071734666 12.5765
45.46734560548283 12.5783
45.49148616817604 12.6024
45.51581748638564 12.5183
45.5399623320197 12.4561
45.56410931325473 12.4608
45.58825843173002 12.4623
45.61259837920865 12.4474
45.636751793816 12.4022
45.66090735060093 12.3437
45.68506505120716 12.3329
45.7094136545275 12.3118
45.73357566449271 12.2743
45.75773982322992 12.245999999999999
45.78190613238733 12.2612
45.806263418194064 12.2108
45.83043404997326 12.2309
45.85460683713677 12.2235
45.87897065658495 12.1896
45.90314777634752 12.1746
45.92732705646868 12.1812
45.9515084986045 12.1445
45.97588104735473 12.1432
46.00006683541565 12.1092
46.02425479047904 12.0649
46.04844491420549 12.0679
46.0728262191024 12.0298
46.09702070211635 11.9788
46.12121735879483 12.0128
46.14541619080294 11.9425
46.169806278764455 11.9074
46.194009483459034 11.9368
46.21821486849841 11.902999999999999
46.24242243555223 11.8797
46.266821333570014 11.8315
46.29103328674601 11.7776
46.31524742696538 11.8073
46.33946375590237 11.7966
46.36387149104216 11.7635
46.38809221957392 11.7005
46.41231514186606 11.735
46.436540259597464 11.7315
46.460956858999374 11.709000000000001
46.48518638983522 11.6602
46.509418121166966 11.605
46.533652054678114 11.6061
46.55807754555709 11.6249
46.58231590571962 11.5794
46.60655647313217 11.5147
46.630988654873654 11.5072
46.655233659129024 11.4797
46.67948087571551 11.472000000000001
46.70373030632484 11.4727
46.72817142736393 11.4541
46.752425308428684 11.4417
46.77668140861147 11.392000000000001
46.80093972960865 11.3591
46.82538981736788 11.3561
46.849652602470904 11.3281
46.87391761349769 11.2753
46.8981848521493 11.2881
46.9226439341274 11.2761
46.946915650573224 11.2416
46.97118959976749 11.1988
46.99546578341598 11.1895
47.019933887188216 11.1958
47.04421456235744 11.1696
47.06849747711879 11.1377
47.09278263318286 11.1193
47.11725978640143 11.0744
47.14154944775105 11.0616
47.165841355555656 11.0323
47.1901355115306 11.015999999999998
47.214621741924994 11.0408
47.23892041698887 11.0296
47.26322134538975 10.974
47.28771440635075 10.9467
47.31201986422527 10.9573
47.33632758061436 10.9197
47.360637557241866 10.9144
47.38513974410611 10.9305
47.40945426407847 10.8536
47.43377104948137 10.8255
47.45809010204344 10.7778
47.48260144275502 10.7965
47.506925052572285 10.7765
47.53125093475548 10.7481
47.55557909103813 10.7424
47.58009961361992 10.6882
47.60443234110732 10.6385
47.62876734791564 10.6641
47.65310463578333 10.645
47.6776343683373 10.6226
47.7019762413987 10.6213
47.72632040075572 10.6038
47.75066684815169 10.5719
47.77520581885936 10.5333
47.799556865477655 10.5592
47.823910205386 10.5317
47.84826584033272 10.4832
47.87281407745551 10.4895
47.89717432569297 10.4646
47.92153687423484 10.4443
47.94609208429692 10.4327
47.97045925671401 10.4087
47.99482873471275 10.3864
48.01920052005013 10.3738
48.04376504619224 10.3661
48.068141469543484 10.3524
48.09252020552573 10.3181
48.11690125590099 10.3072
48.1414751266064 10.3094
48.16586082917454 10.2789
48.19024885144316 10.255999999999998
48.2146391951793 10.2181
48.239222439012764 10.2251
48.26361744916137 10.1805
48.28801478610016 10.1951
48.31241445160131 10.2052
48.337007097209366 10.1231
48.36141144338331 10.1094
48.38581812345755 10.0924
48.41022713920929 10.1004
48.434829215320704 10.0841
48.45924292604658 10.056000000000001
48.48365897780325 10.0734
48.50807737237308 9.99124
48.532688907799276 10.0156
48.55711201168574 9.98925
48.581537463754074 9.96001
48.60615611725119 9.965069999999999
48.63058628942721 9.89759
48.65501881516546 9.89133
48.6794536962573 9.89569
48.70408185970339 9.852310000000001
48.72852147531801 9.82415
48.75296345168211 9.81025
48.77740779059232 9.79631
48.80204549302823 9.7946
48.82649458091802 9.76155
48.85094603676547 9.766580000000001
48.87539986237231 9.701260000000001
48.90004713292306 9.70197
48.92450572200832 9.71565
48.94896668628025 9.67687
48.97343002754588 9.67627
48.99808689542115 9.65393
49.02255501470614 9.66315
49.04702551642794 9.62994
49.0714984023988 9.584589999999999
49.096164896893235 9.57955
49.120642575466796 9.582989999999999
49.145122643748394 9.5194
49.16960510355558 9.480410000000001
49.19428125404938 9.500910000000001
49.2187685210852 9.50561
49.243258185121555 9.48345
49.26794160167084 9.43672
49.2924360839405 9.43073
49.31693296869764 9.44046
49.34143225776915 9.36631
49.36612538195438 9.36183
49.39062950396021 9.3712
49.41513603578346 9.31252
49.4396449792564 9.31429
49.46434784069503 9.28403
49.488861631846454 9.275689999999999
49.513377840166804 9.28403
49.537896467493745 9.25667
49.56260909589029 9.197239999999999
49.587132585683285 9.224039999999999
49.611658500018365 9.19747
49.636186840738596 9.19655
49.66090926588511 9.13903
49.685442483902584 9.1227
49.70997813385706 9.07541
49.734516217597076 9.09795
49.75924846937352 9.071589999999999
49.7837914452858 9.05368
49.80833686055187 9.04856
49.83288471702571 8.99881
49.85762682540054 9.01886
49.882179588965734 8.96762
49.9067347993235 8.96574
49.93129245833333 8.957289999999999
49.95604445336378 8.9409
49.98060703442832 8.923860000000001
50.005172069746266 8.91727
50.02993150438364 8.91088
50.05450147301533 8.88865
50.07907390151433 8.82951
50.10364879174981 8.83619
50.12841816587289 8.82043
50.1529980044635 8.80335
50.17758031042124 8.798010000000001
50.20216508562089 8.76255
50.22694442953363 8.774410000000001
50.25153416817468 8.71378
50.27612638170508 8.73285
50.300721072005196 8.731069999999999
50.325510416102105 8.7183
50.350110084975064 8.67774
50.37471223628208 8.6462
50.39931687190919 8.62459
50.424116246675766 8.60385
50.44872587605249 8.60389
50.47333799543065 8.58827
50.49795260670191 8.61218
50.52276204271512 8.568060000000001
50.54738166295838 8.50346
50.57200378079314 8.57312
50.596628398116835 8.53316
50.62144792604559 8.49845
50.646077567609396 8.48883
50.670709714377715 8.48069
50.69553683636198 8.43952
50.72017401885922 8.43437
50.7448137122895 8.39682
50.76945591856022 8.40596
50.79429318636823 8.385710000000001
50.818940443716784 8.36214
50.84359021965163 8.34615
50.868242516085964 8.32215
50.893089960641895 8.30808
50.917747323549435 8.26309
50.94240721271973 8.28444
50.96706963007175 8.27325
50.99192728239342 8.27413
51.01659478166073 8.248289999999999
51.04126481489051 8.221810000000001
51.06593738400761 8.20178
51.090805275207074 8.16517
51.11548294172845 8.173860000000001
51.14016314993547 8.17659
51.164845901758845 8.16254
51.18972406304274 8.1198
51.21441192780656 8.08227
51.23910234200271 8.07356
51.2637953075678 8.05059
51.288683770237945 8.03181
51.31338186432707 8.06362
51.33808251561888 8.02719
51.362978729967345 8.0214
51.387684521509755 7.982660000000001
51.41239287610203 7.956980000000001
51.437103795691165 7.96732
51.46201036644977 7.93863
51.486726441956634 7.9099699999999995
51.51144508832545 7.90835
51.536166307509156 7.92996
51.56108326624387 7.8660000000000005
51.58580965706056 7.8759
51.61053862657523 7.834389999999999
51.635270176746864 7.784560000000001
51.66019755512065 7.79137
51.68493429268881 7.7869399999999995
51.70967361681515 7.77895
51.73441552946465 7.7598
51.759353359237934 7.76053
51.7841004750961 7.737760000000001
51.80885018539685 7.70287
51.833602492111254 7.68761
51.8585508051424 7.6475100000000005
51.883308330926425 7.645580000000001
51.90806845906181 7.6736
51.932831191525715 7.619960000000001
51.95779001977161 7.61643
51.98255798721516 7.578060000000001
52.00732856494335 7.546880000000001
52.03229530577543 7.569439999999999
52.057071130455945 7.54643
52.081849571391054 7.531860000000001
52.106630630568695 7.529560000000001
52.13160794279417 7.49472
52.15639426492067 7.47624
52.18118321127822 7.48256
52.205974783860896 7.47312
52.23096269971011 7.42692
52.255759551287994 7.383660000000001
52.280559035098186 7.371410000000001
52.30536115314103 7.41745
52.33035970494467 7.40768
52.35516711807904 7.361339999999999
52.37997717147198 7.3411800000000005
52.40478986713005 7.36596
52.42979908731974 7.33098
52.454617094216 7.2965100000000005
52.47943774942214 7.28348
52.50426105495102 7.29725
52.529280976059844 7.25652
52.554109609024096 7.2332399999999994
52.57894089837482 7.20147
52.60377484613117 7.2006
52.62880550079408 7.16597
52.65364479223379 7.156960000000001
52.67848674816189 7.14916
52.70352547971946 7.14922
52.72837279155837 7.14297
52.753222773982785 7.123289999999999
52.778075429022984 7.1406600000000005
52.80312495150885 7.078469999999999
52.827982978797436 7.063289999999999
52.85284368481815 7.05549
52.87770707160767 7.02458
52.90276741793998 7.05348
52.92763619336701 7.0026399999999995
52.952507655698504 6.95564
52.977381806977576 6.980519999999999
53.00245301017842 6.95712
53.02733256653592 6.97275
53.052214817996074 6.9817800000000005
53.077099766608484 6.93417
53.102181859804446 6.92207
53.127072229988265 6.92652
53.15196530349892 6.926010000000001
53.17686108239249 6.86257
53.20195409881522 6.8665899999999995
53.22685531582556 6.860939999999999
53.25175924441303 6.804460000000001
53.27666588664027 6.8182
53.30176985962693 6.75237
53.3266819565689 6.78786
53.35159677336455 6.76583
53.376514312083096 6.78585
53.40162927507703 6.74746
53.42655228516116 6.715319999999999
53.45147802340193 6.68202
53.47660125628886 6.67673
53.50153247842639 6.64231
53.52646643496923 6.62852
53.55140312799818 6.63382
53.576537409691696 6.63249
53.60147960336152 6.61919
53.626424539786164 6.616960000000001
53.65137222105307 6.59963
53.67651758529126 6.60456
53.70147078399681 6.578760000000001
53.72642673383343 6.54933
53.75138543689533 6.565919999999999
53.776541917524526 6.59313
53.801506154876755 6.53244
53.826473151763246 6.50545
53.851442910284916 6.46935
53.87661054126026 6.44526
53.9015858509782 6.45538
53.92656392866066 6.43264
53.95154477641532 6.40322
53.976723591801296 6.422540000000001
54.00171000771266 6.42853
54.02669920004598 6.4318599999999995
54.051691170915745 6.36412
54.076881204886796 6.29876
54.101878760928514 6.31797
54.12687910187696 6.33605
54.152077577768296 6.32863
54.1770835166946 6.23934
54.20209224691339 6.2740800000000005
54.22710377055121 6.2231
54.25231352511594 6.22757
54.27733066384342 6.24431
54.30235060239643 6.23179
54.32737334290836 6.20874
54.35259441062629 6.15691
54.377622783395324 6.17103
54.40265396455061 6.13949
54.42768795623251 6.06963
54.45292037169559 6.0258
54.477960012857906 6.04735
54.50300247099511 6.01823
54.52804774825457 6.02489
54.55329154616743 5.9526699999999995
54.57834249018678 5.99573
54.6033962597977 5.95156
54.6284528571545 5.890619999999999
54.653708072335164 5.88663
54.67877035378786 5.85145
54.70383546947698 5.84996
54.72890342156389 5.85142
54.7541700889442 5.79788
54.77924374251975 5.78536
54.8043202390049 5.8144
54.82959552413022 5.74598
54.8546777351945 5.68466
54.87976279569621 5.67753
54.90485070780914 5.75566
54.930137506558005 5.6801
54.95523115074295 5.7155
54.98032765308844 5.66062
55.005427015775496 5.61731
55.03072536339621 5.644080000000001
55.05583047570572 5.58399
55.080938454927676 5.55825
55.10604930325027 5.49607
55.131359235107396 5.51103
55.15647585066083 5.47887
55.181595341907496 5.43951
55.20671771104285 5.417999999999999
55.232039262617704 5.409619999999999
55.25716741665048 5.3575800000000005
55.28229845518636 5.37134
55.30743238042802 5.31153
55.33276558731939 5.25473
55.357905315183636 5.26397
55.383047936390035 5.26555
55.40819345314859 5.22145
55.433538351073295 5.2242
55.458689688238415 5.18625
55.483843927614096 5.11465
55.509197623043605 5.1477900000000005
55.53435769621134 5.14912
55.55952067826466 5.134519999999999
55.5846865714265 5.02376
55.61005202069737 5.00866
55.63522376553902 5.01589
55.66039842818645 4.985530000000001
55.68557601087004 5.019830000000001
55.7109532500271 4.8918800000000005
55.73613670233794 4.91943
