TT I
1.2716486653135266 7.0194399999999995
1.2939594142134223 6.87312
1.3162702121660406 6.63306
1.3385810600174564 6.3979800000000004
1.3608919586137629 6.2994900000000005
1.383202908801069 5.67317
1.405513911425503 6.84892
1.4278249673332093 6.1176699999999995
1.4501343378461518 6.08686
1.4724455028545926 6.059159999999999
1.4947567236847858 5.91563
1.517068001182951 5.50994
1.5393793361953272 5.3486
1.5616907295681737 5.554869999999999
1.5840021821477681 5.19273
1.60631369478041 5.24672
1.6286252683124185 5.43633
1.6509369035901333 4.31805
1.6732468618895553 4.66376
1.695558623192809 4.74464
1.7178704487808514 4.53011
1.7401823395001077 4.7691
1.7625012545597203 5.004569999999999
1.7848028405262486 4.75472
1.8071218901122095 4.93445
1.8294236121921872 4.5113
1.8517427996910911 5.03432
1.8740620574440425 4.79321
1.8963639900671978 4.54133
1.9186833908139995 5.00099
1.9409854680117449 5.21355
1.9633050151394713 4.722180000000001
1.9856246367570705 4.58044
2.0079269371922672 4.53487
2.03024671027244 4.50865
2.0525491637446027 4.30322
2.074869091674931 4.393669999999999
2.097171701569106 4.64905
2.1194917877373847 5.06515
2.141811954326636 5.01815
2.164114805233074 5.43533
2.186435135143035 6.847289999999999
2.208738150935709 15.4151
2.231058647554722 31.7132
2.2533792288321184 24.3633
2.275682498336085 10.9646
2.298003251406138 6.159730000000001
2.3203066942619714 5.4587900000000005
2.3426276225136022 5.48822
2.3649486396617507 5.44119
2.387252348930071 5.95223
2.4095735463442893 6.84311
2.4318774374315884 6.56532
2.4541988185014043 6.812710000000001
2.476502894794693 7.522010000000001
2.498824462909887 7.7816
2.521146125856138 7.12979
2.5434504863470337 7.598089999999999
2.5657723414244717 7.82647
2.588076895590662 8.63236
2.610398946189713 8.25928
2.6327210958598384 8.21359
2.6550259469304716 8.67043
2.6773482972090137 8.54464
2.6996533504259 8.4904
2.7219759047039602 8.68885
2.744298562293959 8.16742
2.7666039251246595 8.5437
2.7889267918020164 8.49806
2.8112323652516555 8.37142
2.833555444408179 7.906680000000001
2.8558786311183852 8.90139
2.8781845268938557 8.83997
2.9005079311721484 9.26107
2.9228140460410397 9.755980000000001
2.9451376712799635 9.4577
2.967444008632326 9.23858
2.9897678582247247 10.2341
3.0120918213106695 11.0755
3.0343984987899373 10.5312
3.0567226913198637 10.9694
3.079029599759726 11.2464
3.101354025127254 12.4101
3.123678568232338 13.2778
3.145985829517914 12.8894
3.16831061055229 13.648
3.1906181112775593 14.7126
3.212943133635653 15.1857
3.2352682779763207 15.3928
3.2575761442691227 15.6276
3.2799015350264273 15.982000000000001
3.302209649240067 16.0234
3.3245352898092655 16.9788
3.3468436553365257 17.6274
3.369169549113219 17.7101
3.3914955708171384 18.9168
3.413804319727358 19.3498
3.4361305997334863 19.1814
3.4584396084414553 20.1192
3.4807661501462652 20.9173
3.503092824025881 20.8586
3.5254022288463154 21.3777
3.5477291695206588 21.5619
3.5700388426251948 22.1352
3.5923660534916446 24.0656
3.6146934007816114 39.7697
3.637003482731501 95.1238
3.6593311053109985 106.464
3.681641464033634 60.8415
3.7039693653009733 31.5747
3.726297407241705 26.7248
3.7486081875460804 25.6999
3.7709365132734978 25.9126
3.793247578841633 26.4169
3.8155761917550093 27.0465
3.8378875459837216 26.8559
3.8602164494827234 27.3459
3.882545499606844 28.115
3.9048572932539183 28.6519
3.9271866390645718 29.2627
3.9494987298666713 29.8913
3.971828374764527 29.6727
3.9941581705403255 30.8843
4.016470713506008 31.1057
4.038800813471445 31.9458
4.061113662089144 32.7926
4.0834440696459176 33.5332
4.105774632334751 33.798
4.128087945865126 34.6963
4.150418821249301 35.1861
4.172732448931298 36.7763
4.195063640413578 38.7546
4.2173775856475215 43.3787
4.239709096631102 76.9507
4.262040768704612 256.871
4.284355196706267 350.42
4.306687193387355 227.36700000000002
4.329001947444346 86.5278
4.35133427213731 48.9216
4.373666762177566 44.5451
4.395982011761091 44.8197
4.418314834921175 45.5154
4.44063041906622 53.9368
4.4629635787515625 66.431
4.4852969080429785 65.9313
4.5076130004776225 54.4768
4.529946671403969 49.5279
4.552263106909177 49.0395
4.574597122877047 50.3967
4.596931312711224 51.6855
4.619248269273446 52.2378
4.6415828092605835 53.3874
4.663900117405352 54.8632
4.686235010953232 56.1349
4.708552674085913 57.6146
4.730887924602802 59.3794
4.753223354952695 60.4481
4.775541557023902 61.8677
4.797877349456786 63.2341
4.820195915032126 65.219
4.842532072957498 66.0063
4.864868414979744 67.9471
4.88718753227192 70.1645
4.909524244902505 71.9825
4.931843734218147 73.7304
4.954180820867835 76.4428
4.976518095879839 79.4826
4.998838149695359 81.6525
5.021175803844231 84.9899
5.043496238205739 88.1645
5.065834274903528 92.0909
5.088172504230693 96.2934
5.1104935158799565 102.307
5.132832132875765 124.166
5.155153533596801 168.17
5.1774925416746225 198.94799999999998
5.199814334878411 294.876
5.2221537374521505 780.534
5.244493338631803 2451.75
5.266815727034316 7406.26
5.289155727832427 12513.4
5.311478517248165 9052.53
5.333818921080011 2769.11
5.356159527788849 509.43
5.3784829252032536 177.882
5.400823940070432 140.403
5.423147747031976 125.448
5.445489173474152 116.208
5.467830807066149 110.652
5.490155234831516 106.975
5.512497285125229 103.984
5.534822130975162 103.135
5.557164601388673 100.367
5.579489868738879 97.5804
5.601832762690846 96.7974
5.6241758697774475 96.3516
5.646501775867269 95.3542
5.668845311622074 93.7059
5.691171647754637 92.7241
5.713515615597765 91.5601
5.735859800852677 90.7023
5.758186788542988 89.9811
5.780531411018185 90.4176
5.802858837297399 89.5696
5.825203900414495 89.1044
5.8475491852224 89.1734
5.869877275883075 89.6266
5.892223006467101 90.912
5.914551544266608 91.4513
5.936897724049891 93.3077
5.959244129804903 97.0824
5.981573344815301 110.23899999999999
6.0039202049061 174.798
6.026249875609095 376.566
6.04859719346037 839.451
6.070927323278297 2065.58
6.093275102315365 4407.5
6.115623113320588 5276.25
6.137953938319995 3262.31
6.160302415650845 943.663
6.182633708324452 223.50900000000001
6.2049826554078376 111.649
6.227331838745022 90.4794
6.249663839443684 83.4202
6.27201349767565 81.2924
6.294345974611799 88.6528
6.316696111167083 102.31700000000001
6.339046488263839 96.2261
6.361379686074702 80.1422
6.383730546639482 71.3068
6.406064229255215 68.1891
6.428415576718203 67.929
6.450749747566656 66.5428
6.47310158535871 65.2825
6.495453669698332 64.97399999999999
6.517788579421056 64.3701
6.540141159237969 63.16
6.562476565766648 62.7605
6.5848296444934045 62.3324
6.607182974060425 61.9896
6.6295191323281015 62.1538
6.651872965955752 66.0872
6.6742096296068985 94.4588
6.6965639707294615 145.368
6.71891856698715 145.718
6.741255995248479 97.8543
6.763611104154477 68.7286
6.785949046381137 59.9843
6.808304671371482 58.1169
6.8306605557940046 57.4741
6.852999275508618 57.0834
6.875355681171544 56.3539
6.897694923437771 56.7667
6.92005185377892 56.6182
6.9423916220322655 56.0679
6.964749080490181 55.4396
6.987106804399774 55.605
7.009447368180821 55.3948
7.031805625367033 55.0352
7.054146723727803 55.1551
7.076505517631004 54.8168
7.098864581288365 54.4544
7.121206488070854 54.5179
7.143566093607822 54.4028
7.165908543567245 55.2881
7.188268694426048 54.8064
7.2106291193438095 54.8838
7.232972390625943 57.0188
7.255333366030969 71.2836
7.277677189091925 129.782
7.300038718428332 181.727
7.322400526130865 152.99
7.344745183422596 92.5934
7.367107550224791 62.4459
7.389452767901992 56.2792
7.411815697249891 55.1864
7.434161478756298 54.3825
7.456524974096713 54.2655
7.478888753837185 54.6007
7.501235387657368 54.2745
7.523599738562711 54.2933
7.545946944825532 54.9123
7.568311870344528 55.0601
7.5906770845765665 55.3435
7.613025156078678 56.7419
7.635390950099687 58.1324
7.657739602662809 57.0155
7.680105979923558 55.7055
7.702472650212829 55.4543
7.724822180948224 55.3143
7.747189439655568 55.5703
7.769539560075357 55.4508
7.791907410653562 56.1572
7.81425812420825 55.9652
7.836626570110925 56.3362
7.858995315087906 56.8545
7.881346924933401 57.0475
7.903716270417482 57.6484
7.926068482028405 58.235
7.948438431475253 58.7355
7.9708086843180235 58.7649
7.993161805171116 59.7123
8.015532667162402 60.1611
8.037886398416653 60.9816
8.060257873014221 61.7316
8.082629655331942 62.0031
8.104984308787587 63.0292
8.127356708900503 66.513
8.149711981398308 72.6573
8.172085002766314 75.149
8.194458336181368 71.4518
8.216814543847752 68.6885
8.23918850371002 68.8429
8.26154533906492 69.3813
8.283919928836452 71.0187
8.306277395339652 71.4497
8.328652618483376 72.6662
8.351028159736202 74.9013
8.373386579575245 77.094
8.395762759396959 78.3429
8.418121819038275 83.7531
8.440498640894003 97.5598
8.462875785192262 111.772
8.485235811156207 119.541
8.507613602688501 145.894
8.529974277114228 217.696
8.552352719347912 338.084
8.574731488360351 590.8009999999999
8.59709314210385 1135.76
8.619472567021075 1865.31
8.64183487789147 2235.31
8.664214962183097 1822.99
8.686577933647762 944.966
8.708958680784317 362.051
8.731339760774953 167.519
8.753703729764451 110.51799999999999
8.77608547780821 97.2912
8.798450116065078 93.73700000000001
8.820832535634787 90.9816
8.843215292401656 89.5539
8.865580941199045 88.1593
8.887964374703538 87.5602
8.910330701447199 88.704
8.932714815164482 91.4874
8.955099270424924 90.8342
8.977466620733543 87.2539
8.999851761421976 84.2371
9.022219798361645 82.6156
9.04460562795561 82.3068
9.066991803441677 81.7026
9.089360876979615 81.8969
9.111747746589993 81.4171
9.13411751544971 80.6444
9.156505082664324 80.6878
9.178875550323522 80.9791
9.20126381862328 81.2087
9.223652438908596 81.75399999999999
9.246023961427412 81.6916
9.26841328802173 81.1339
9.290785518039224 80.9479
9.313175554425882 81.2252
9.335565947154315 81.2842
9.357939245086508 81.8813
9.380330352834827 81.6965
9.40270436697103 81.8864
9.425096193225055 81.5252
9.447488380180165 82.7692
9.469863475295412 82.90799999999999
9.492256385987508 83.5029
9.514632206018318 84.2043
9.537025843935714 84.2394
9.559402392368193 85.1149
9.581796761000229 85.8801
9.604191496441521 87.1924
9.626569144158516 90.75
9.648964615551032 96.0732
9.671343000390081 97.6719
9.693739211225699 94.8317
9.716135793237463 92.3566
9.738515290448102 91.9938
9.760912617143402 92.6031
9.783292860202891 93.6177
9.805690935076182 94.4286
9.828089385495742 95.726
9.850470754023561 98.4573
9.872869957865444 106.58200000000001
9.89525208097539 122.67
9.917652041736662 136.094
9.940052382417589 133.714
9.962435644102392 133.619
9.984836746950979 157.322
10.007220771957746 212.173
10.029622640473708 302.087
10.052007432299963 470.56199999999995
10.074410069984072 769.3939999999999
10.096813093716005 1236.84
10.119199042482517 1778.91
10.141602840636468 1958.77
10.163989564971628 1591.51
10.186394141051062 906.242
10.208799107559706 398.709
10.231187001965623 184.989
10.253592751657669 124.44
10.275981430388155 111.84200000000001
10.298387966769793 111.71799999999999
10.320794897965431 114.961
10.343184759907361 113.573
10.36559248305461 107.573
10.387983138083852 102.712
10.410391656691655 103.775
10.432800574501677 112.38799999999999
10.455192425893369 126.27799999999999
10.47760214443012 148.605
10.499994797678786 189.62599999999998
10.522405320453982 269.008
10.54479877906917 391.44300000000004
10.567210109595656 517.609
10.5896218454736 570.036
10.612016518879773 500.506
10.634429067781074 348.064
10.656824555333241 202.577
10.679237920773568 122.52799999999999
10.701651695961992 95.4983
10.724048411481384 88.1115
10.746463008485165 85.1067
10.768860546937125 83.7488
10.791275969274796 82.0533
10.81369180576079 81.0255
10.836090585366925 79.9439
10.858507252467449 78.8587
10.88090686379991 77.69
10.903324365036394 77.2393
10.925724811614439 77.4028
10.948143150509463 78.8906
10.970561909719066 78.0781
10.992963615930844 76.2318
11.015383218085756 73.9468
11.037785768347074 72.3338
11.06020621697282 71.792
11.082627090322113 71.5144
11.105030913430326 71.1522
11.12745263854165 71.7473
11.149857314510728 75.5384
11.172279894912576 82.133
11.194702904450653 82.9023
11.217108866490921 78.7925
11.239532736615194 73.8109
11.26193956033512 71.5487
11.284364294577085 69.6732
11.306789462371718 67.6797
11.329197585398376 66.5084
11.351623622610898 66.1038
11.37403261614354 65.6401
11.396459526308487 64.939
11.418869393879497 64.5819
11.441297180532617 64.3207
11.463725406927658 64.167
11.486136592353875 64.1942
11.508565700543707 64.7262
11.530977768845315 66.9264
11.553407762368774 67.9848
11.575838200059769 67.3825
11.598251599479612 64.9041
11.620682927815501 63.2822
11.64309721895548 62.7886
11.665529441478206 62.3835
11.687962112597958 62.4982
11.710377748130886 62.5103
11.732811318753434 62.0627
11.755227854859067 62.3778
11.777662328529495 62.3751
11.800079768750786 61.7924
11.822515149015453 61.5222
11.844950984084935 61.746
11.867369787303163 61.4985
11.889806534289491 61.6537
11.912226250487029 61.8223
11.934663912939751 61.9057
11.9571020346363 61.724
11.979523127133968 61.8156
12.001962169624331 62.4966
12.024384183972964 62.8972
12.046824150809913 65.6502
12.069264581333726 70.0171
12.091687985297767 75.7257
12.11412934550045 84.1626
12.136553680195208 98.6752
12.158995973632788 121.34
12.181438735204349 152.834
12.20386447284199 188.524
12.226308172985636 206.563
12.24873485024193 202.77
12.271179492516982 168.89
12.293607112949127 125.652
12.316052700916226 96.1478
12.338498763250042 78.404
12.360927805303868 69.8918
12.383374818673879 65.8705
12.405804812803074 63.7957
12.428252780773262 63.6348
12.45070122756722 63.3241
12.473132656675375 63.2961
12.49558206341869 63.6032
12.518014453510101 63.2749
12.540464823770117 63.8184
12.562915677315177 63.9471
12.58534951575545 64.6544
12.607801338171472 67.016
12.630236146511358 72.6728
12.652688941369085 77.8355
12.675124723177234 78.4211
12.697578494048786 74.1483
12.720032754458185 69.6879
12.742470003354093 67.2168
12.764925245138771 66.7277
12.787363476431278 67.0079
12.809819703166806 67.4766
12.83227642391173 67.8817
12.854716135692716 68.5663
12.877173846755147 69.7393
12.899614549869717 69.9316
12.9220732548287 70.5645
12.94453245827299 71.1706
12.966974655289818 72.1193
12.989434858002571 72.6902
13.011878055298721 73.5793
13.034339260862497 74.3868
13.056800969391883 75.59100000000001
13.079245674017244 77.0973
13.101708390774869 78.6321
13.12415410463411 84.4995
13.146617833206086 94.4265
13.169064559883248 105.214
13.191529303857127 117.852
13.213994557076367 138.984
13.236442809902437 175.107
13.258909083908291 229.93200000000002
13.28135835851934 299.10400000000004
13.30382565690295 370.897
13.326293469022952 423.515
13.348744283242008 422.273
13.371213125129904 351.17199999999997
13.39366497011003 258.348
13.416134845360597 169.352
13.438605238843131 121.557
13.46105863690397 102.762
13.483530069144786 100.805
13.505984506951902 104.927
13.528456981549432 113.743
13.550929978879088 127.318
13.573385983253365 150.82
13.595860028340867 190.578
13.618317081455832 245.86599999999999
13.64079217790333 307.672
13.663250283359057 355.13800000000003
13.685726434770173 382.846
13.708203115221277 338.63599999999997
13.730662806148091 259.628
13.75314054697177 182.148
13.775601299246777 126.001
13.798080104050406 95.8667
13.820559442405358 84.1127
13.843021793671388 80.454
13.865502201420897 78.9799
13.887965623051947 78.3393
13.910447103807167 77.2499
13.932929122629764 75.9091
13.955394156785959 75.5363
13.977877254034569 74.6236
14.000343367582113 73.779
14.022827546871707 73.2253
14.045294743423524 72.6237
14.06778000837062 71.8882
14.090265817715476 71.8074
14.112734645763819 71.4712
14.13522154619454 71.374
14.157691466286913 71.538
14.180179461423874 71.3409
14.202668005486178 70.3496
14.22513957064374 69.788
14.247629214846473 69.1548
14.270101881097517 69.2918
14.29259262906496 69.7856
14.315083930490205 70.7101
14.337558255389705 70.779
14.360050666019726 70.3844
14.382526101071944 69.3314
14.405019624534942 68.3869
14.427513705993134 67.6806
14.449990813291825 67.5441
14.47248601302899 67.5879
14.49496423954951 67.565
14.517460561197822 67.6396
14.539939910570322 67.4326
14.562437357763558 67.9387
14.58493536931253 69.0132
14.607416409993311 70.2784
14.62991555254159 70.9293
14.652397725157423 70.3712
14.674898002342799 69.9113
14.697398848433282 69.2424
14.719882725991326 69.8184
14.74238471217934 70.0748
14.764869730765593 72.6656
14.787372860692983 75.70100000000001
14.809876564079925 79.4614
14.83236330125751 84.3536
14.854868153850365 92.4992
14.877356041159485 105.40899999999999
14.899862046604186 124.478
14.922351087688757 151.481
14.944858249632887 182.612
14.967365991421232 211.453
14.989856770231246 226.19799999999998
15.012365673994204 216.18599999999998
15.03485761569738 187.22400000000002
15.05736768508665 147.221
15.07987833888692 112.63600000000001
15.102372032001655 89.8294
15.124883856909658 76.4401
15.14737872204565 71.4286
15.169891721717274 69.5911
15.192405310371893 69.4963
15.214901940621196 69.9509
15.237416709527137 70.2955
15.259914520936249 70.5175
15.282430473753607 69.5629
15.304947020131227 68.1775
15.327446610371178 67.3133
15.349964346154254 66.318
15.372465126703139 65.7156
15.394984055556009 65.5957
15.417486030076159 65.3963
15.44000615566487 65.0088
15.462526881230803 65.0447
15.485030653812652 65.1802
15.507552581617434 65.354
15.530057557334603 65.4149
15.55258069104857 65.2104
15.575104429329837 65.0418
15.597611216864632 64.5537
15.620136166564563 64.6388
15.6426441664095 65.2322
15.665170331202765 66.755
15.687697105158826 69.4206
15.710206930593545 72.7303
15.732734925158933 76.2854
15.755245972089478 82.3438
15.77777519094324 90.6067
15.800287463046663 103.868
15.822817909869592 123.025
15.84534897229804 146.61
15.867863089299354 171.47400000000002
15.890395385222186 191.808
15.912910736597423 194.90599999999998
15.935444269699861 181.77200000000002
15.957978423016485 154.42700000000002
15.980495633101265 120.83
16.003031029129367 93.1349
16.02554948280019 75.7843
16.048086125229432 67.0707
16.070623392487107 64.7474
16.09314371869582 63.773999999999994
16.11568223789321 63.0547
16.13820381691126 62.0362
16.160743591742527 60.8543
16.183283996022084 59.9284
16.205807461423195 58.7653
16.228349126881973 58.1209
16.25087385432698 58.1193
16.27341678466365 57.508
16.29594277784926 57.4947
16.31848697676433 58.0318
16.341031811604868 58.4283
16.36355971058487 58.6835
16.3861058195587 58.2304
16.40863499352978 57.176
16.431182380342005 56.0979
16.453730407713202 55.4918
16.476261501364792 55.1237
16.498810812136167 54.7384
16.52134319004079 54.9398
16.54389378792203 54.6351
16.566445031001553 54.4218
16.588979342490088 54.4738
16.61153187824822 54.2614
16.634067483263312 54.2301
16.656621315414416 54.1997
16.679175797408888 53.9189
16.701713349928728 53.7804
16.72426913389191 54.0389
16.74680798922351 54.1474
16.76936507887444 54.336999999999996
16.791905240734874 54.3187
16.814463639794468 54.0429
16.837022695210294 54.0542
16.859564824093756 54.4854
16.882125194503903 55.3657
16.904668639217885 56.0204
16.927230328348003 56.2718
16.949792678493612 56.3036
16.972338104193863 55.6193
16.994901778652235 55.066
17.017448529496576 54.806000000000004
17.040013531998152 54.8627
17.06257920018044 55.2902
17.0851279459922 55.8996
17.107694947817667 56.5603
17.130245028099072 57.5299
17.15281336730298 58.8215
17.17536478578733 60.5486
17.19793446610687 62.7277
17.220504818648422 65.4688
17.243058251703697 69.1674
17.265629950971032 73.7458
17.288184731571736 79.0133
17.310757781306908 83.3629
17.33333150794385 83.1039
17.355888317140174 81.8082
17.37846339986244 76.5445
17.401021565958885 70.4538
17.42359800851343 64.6096
17.44617513265564 61.0994
17.468735341390783 59.1304
17.491261035594565 58.2872
17.51396340099364 58.0301
17.536490463869136 58.0943
17.559018209820174 58.2261
17.58154663977963 58.4588
17.604251766089718 58.6712
17.626781572227713 58.4972
17.64931206518155 58.8324
17.671843245885103 59.4624
17.69455114821572 59.7714
17.717083712612634 59.7507
17.739616967569667 60.0895
17.762150914021706 60.2538
17.78486160749854 60.2796
17.807396945166804 60.7903
17.829932977143503 61.3678
17.85246970436452 62.5063
17.875183204129467 64.0516
17.897721330097664 66.3365
17.920260154126645 68.6275
17.942799677153296 71.2451
17.9655159983646 74.8293
17.988056927677544 79.7662
18.010598558807683 87.5339
18.033140892692916 97.84100000000001
18.05586005052525 109.66
18.07840379824407 121.31299999999999
18.10094825154059 131.359
18.12366954819864 138.422
18.146215420998306 136.504
18.16876200220057 127.52799999999999
18.191309292745153 113.90700000000001
18.214033452627167 100.694
18.236582170236648 89.7745
18.259131600016456 84.3885
18.281681742907335 84.9996
18.304408781233683 89.5282
18.32696035875955 95.1735
18.349512652227624 100.084
18.372065662579683 103.859
18.394795594587553 104.37799999999999
18.41735004715306 101.04700000000001
18.43990521943684 94.2929
18.46246111238171 85.2571
18.485193953325208 76.6155
18.507751296070428 69.125
18.530309362314178 65.1215
18.552868153000343 62.5103
18.57560391815056 61.1144
18.59816416623245 60.8905
18.620725141597372 60.1011
18.643286845190268 59.9396
18.666025549835414 59.6942
18.688588718427933 59.0166
18.711152618092243 58.8923
18.73389353884365 58.465
18.75645890921984 58.1232
18.77902501351406 57.7298
18.801591852673102 57.7857
18.824335739722738 57.1285
18.846904057212626 57.0672
18.8694731124168 56.871
18.89204290628315 56.8559
18.914789774966803 56.6376
18.937361054791623 56.3545
18.959933076131318 56.2537
18.982505839934877 56.3203
19.00525570560582 56.3916
19.027829963004184 56.2872
19.05040496572238 56.1363
19.072980714710468 56.0902
19.095733592739563 56.1188
19.11831084296757 56.3511
19.140888842324735 56.8896
19.16346759176222 57.0997
19.18622349753803 57.4367
19.208803755869358 58.3295
19.231384767143577 59.3089
19.253966532312948 60.927
19.276725481241822 63.1686
19.29930876296784 65.6602
19.3218928014549 68.83800000000001
19.34465404436217 72.0628
19.36723960516257 75.1195
19.389825925592426 76.1122
19.412413006605938 75.0539
19.43517731967805 71.1005
19.457765930683355 66.446
19.48035530514408 62.3633
19.50294544401556 58.7424
19.525712842708348 55.9758
19.54830451925909 54.5468
19.570896963095727 53.4985
19.593490175174704 53.223
19.616260674962184 53.2551
19.638855432416964 52.673
19.661450960992624 52.9964
19.68404726164677 52.7488
19.706820878021247 52.5638
19.729418731756834 52.8016
19.752017360452857 52.4301
19.77461676506804 52.6821
19.797393513540218 52.6732
19.819994478951667 52.9477
19.84259622316767 53.3976
19.8651987471481 53.934
19.887978643247177 54.1253
19.91058273574792 54.6939
19.933187610901943 55.292
19.955969879466828 56.1636
19.97857632894404 57.6661
20.00118356396599 59.405
20.023791585494575 61.49
20.046577028914875 64.273
20.069186632506966 66.6997
20.091797025500632 68.3197
20.114408208858933 68.9183
20.137196842715273 68.4253
20.159809615886765 67.0857
20.18242318232135 64.5778
20.20503754298326 62.386
20.227829382875154 61.2804
20.250445341109344 61.4664
20.27306209647285 62.325
20.29567964993108 63.59
20.31847471147704 64.9201
20.34109387027612 65.2895
20.363713830075454 65.0052
20.386334591841646 63.2534
20.409132890679302 60.7072
20.431755265564437 57.7348
20.454378445325528 54.8901
20.477002430930366 52.9627
20.499803982716553 51.7646
20.522429589228004 51.0381
20.54505600449589 50.6294
20.567683229489194 50.3828
20.590488049900088 50.0424
20.61311690359731 49.6599
20.63574656993626 49.3971
20.658553853717297 48.9764
20.681185154618298 48.9268
20.703817271080066 48.8383
20.72645020407368 48.4446
20.749260783967177 48.4154
20.771895359337133 48.4998
20.794530754161617 48.3659
20.817166969412938 48.2754
20.83998086114876 48.166000000000004
20.86261872660049 48.0345
20.885257415405402 47.891000000000005
20.90789692853701 47.9273
20.930714147864748 48.00899999999999
20.953355319030678 48.0435
20.97599731745334 47.901
20.99864014410749 47.8806
21.021460706796564 47.9137
21.044105199328826 48.2258
21.06675052302631 48.2027
21.089396678865015 48.5637
21.112220600704806 48.9344
21.134868430275347 49.2373
21.15751709492456 49.3728
21.180166595629693 49.7794
21.202993892429635 50.3087
21.22564507473034 50.7101
21.24829709602816 50.8812
21.27112693608965 50.8577
21.293780644891275 50.5828
21.316435195634053 50.0655
21.339090589297417 49.4208
21.361923832041875 48.9632
21.384580921090404 48.4283
21.407238856007325 47.861999999999995
21.429897637773326 47.658
21.45273429906592 47.6653
21.475394784108598 47.979
21.498056118951983 47.7515
21.520718304578022 47.8281
21.543558400304388 47.905
21.566222297108816 48.0152
21.58888704765135 48.007
21.61155265291521 48.3323
21.63439619898156 48.8944
21.657063523335786 48.8954
21.67973170537063 49.5546
21.7024007460706 50.0289
21.72524775840385 50.7589
21.747918526116475 51.6575
21.770590155457388 52.7894
21.79326264741238 54.422
21.816113141960237 56.2321
21.838787368860547 58.2539
21.861462461341976 60.2714
21.884315579735777 61.9718
21.90699241312273 63.5244
21.92967011506078 63.5881
21.95234868653799 63.5139
21.9752053151131 62.1751
21.997885635446785 60.2948
22.020566828293532 58.5498
22.04324889464272 57.0761
22.066109049404666 55.998999999999995
22.088792872571794 55.3599
22.111477572219204 55.4991
22.1341631493376 55.4857
22.157026846313123 55.2845
22.179714188221507 54.4761
22.202402410582668 53.5151
22.22509151438863 51.9593
22.24795876962584 50.6544
22.270649646204486 49.7442
22.293341407213727 49.2071
22.316034053646906 48.7276
22.338904883215342 48.5217
22.36159931041458 48.6525
22.38429462602756 48.5075
22.40699083104897 48.2513
22.429865251039757 48.1682
22.452563244831367 48.3348
22.47526213102522 48.3969
22.49813925616515 48.1975
22.520839937143307 48.138000000000005
22.543541513520587 48.1209
22.56624398629403 47.9986
22.589124730075895 47.9455
22.611829005656723 48.0091
22.63453418063466 47.981
22.657240256008077 48.1737
22.680124634582935 48.2637
22.70283252079775 48.5163
22.725541310413075 48.6173
22.74825100442868 48.858000000000004
22.771139033969575 49.3907
22.79385054687155 49.6241
22.81656296718292 50.3039
22.83927629590484 51.1444
22.862167992606945 52.1463
22.88488314827121 53.3885
22.907599215359284 54.6305
22.93031619487366 55.7312
22.953211574954405 56.5893
22.975930389478226 57.2672
22.998650119445763 57.4249
23.02137076586092 56.6626
23.044269845560063 55.486999999999995
23.06699233506288 53.6664
23.089715744034912 51.9996
23.112617610931565 50.4197
23.135342869061212 49.3294
23.158069049684816 48.5748
23.1807961538087 48.2234
23.20370174880544 48.0747
23.226430710184808 48.0652
23.249160598093425 48.0587
23.271891413539002 47.997
23.294800752937697 48.0567
23.31753343374794 48.2216
23.340267045128353 48.1427
23.36300158808808 48.5901
23.38591468821339 48.9892
23.408651104658304 49.4003
23.431388455719986 50.0301
23.454126742409 50.724
23.4770436196085 51.8024
23.499783787914662 53.0449
23.522524894889884 54.3274
23.54526694154616 55.4905
23.56818761219047 56.4518
23.59093154860734 56.9362
23.613676427751283 57.1825
23.636422250635754 56.2284
23.659346731118656 54.8181
23.68209445191868 53.108999999999995
23.704843119509587 50.8268
23.72759273490623 49.06
23.750521041644767 47.7773
23.77327256312355 46.7935
23.796025035462787 46.0911
23.818956224555475 45.6247
23.841710609113413 45.5391
23.86446594758979 45.2616
23.887222241002014 44.9654
23.910157285144578 44.4902
23.932915498962537 44.6957
23.955674670778713 44.6083
23.978434801611975 44.2896
24.001373717286125 44.1126
24.024135776723917 44.0101
24.046898798245582 43.917
24.06966278287146 43.9313
24.092605586582614 43.711000000000006
24.115371508023642 43.5842
24.1381383956401 43.4883
24.16090625045381 43.5099
24.183852958731244 43.3882
24.206622758582608 43.3613
24.229393528706886 43.0578
24.252165270127392 43.2626
24.27511589952438 43.1292
24.297889594216997 42.733999999999995
24.32066426328598 42.7571
24.34343990775613 42.7989
24.36639447485003 42.535
24.38917208083877 42.5954
24.41195066531332 42.5941
24.43490819850244 42.5354
24.457688750692377 42.4624
24.48047028445616 42.4113
24.503252800821233 42.678999999999995
24.526214300784112 42.7078
24.548998793132213 42.5396
24.57178427117417 42.3537
24.59457073593893 42.3887
24.617536219319863 42.3355
24.64032466834748 42.5293
24.663114107195035 42.4204
24.685904536893013 42.1644
24.708874020360852 41.9519
24.731666442613744 41.8938
24.754459858818787 41.9157
24.777254270007962 41.7298
24.80022777025625 41.7577
24.82302418230472 41.6235
24.845821592443674 41.7012
24.86862000170663 41.5949
24.891597535453727 41.5951
24.914397953892728 41.7016
24.93719937456671 41.6129
24.96000179851076 41.8075
24.98298338249997 41.9386
25.00578782394922 42.0522
25.028593271784167 42.1517
25.05157790644186 42.5035
25.07438537804115 42.7396
25.097193859145293 42.9043
25.120003350792075 43.2236
25.142992065061257 43.3691
25.165803588823465 43.7047
25.18861612625217 43.9759
25.211429678386736 44.1108
25.234422489079968 44.1131
25.257238081693636 44.222
25.280054692141732 44.3594
25.3028723214652 44.3627
25.325869245420463 44.4327
25.348688923599397 44.4543
25.371509623787006 44.2928
25.394331347025812 43.9639
25.41733240110666 43.6675
25.440156181590016 43.0194
25.46298098826268 42.4255
25.48580682216873 41.9119
25.50881202326435 41.325
25.53163992281684 41.0443
25.55446885274561 40.7737
25.577298814096377 40.425
25.600308179121807 40.3116
25.623140214533745 40.3201
25.64597328451537 40.2124
25.66898578564376 39.961999999999996
25.691820936010206 39.9466
25.714657124097695 39.9341
25.737494350954734 39.9956
25.760511045684957 39.8646
25.783350361364224 40.0155
25.806190718969255 39.9954
25.82903211955018 40.0547
25.852053024868923 39.9867
25.874896522722523 39.9885
25.897741066713106 39.9516
25.920586657892454 40.2648
25.943611790812668 40.3002
25.966459487728237 40.4522
25.989308234998564 40.3867
26.01215803367705 40.7733
26.03518741123814 41.0249
26.05803932412957 41.0777
26.080892291600094 41.1073
26.10374631470478 41.0145
26.12677995397268 41.2089
26.14963609978026 41.1838
26.172493304397875 40.7497
26.19535156888223 40.5474
26.218389486949604 40.3197
26.241249882640123 40.0066
26.26411134137826 39.7504
26.28715248187403 39.7486
26.31001607820869 39.6411
26.3328807407756 39.4637
26.35574647063438 39.6907
26.37879191991473 39.5265
26.401659795896734 39.4718
26.424528742360263 39.6708
26.447398760366614 39.9602
26.470448535598294 39.9782
26.49332070826805 40.2209
26.516193955675355 40.5615
26.53906827888316 40.6437
26.562122397260108 40.9934
26.584998883685063 41.2144
26.607876449110325 41.4468
26.63075509460056 41.4319
26.65381357334404 41.6357
26.67669439061878 41.6801
26.699576291163382 41.5218
26.722459276044212 41.3629
26.745522132402975 41.1073
26.768407297649354 40.845
26.791293550442003 40.5414
26.814180891848974 40.2681
26.837248143099337 40.0786
26.860137673466657 40.0191
26.88302829566349 39.6535
26.90592001075963 39.5116
26.92899167420566 39.3295
26.951885586870763 39.0884
26.974780595655517 38.7271
26.99785558178161 38.7441
27.020752794605112 38.5121
27.043651106772522 38.4203
27.06655051935668 38.4207
27.089629948036183 38.2297
27.112531573292053 38.221
27.135434302194138 38.1954
27.158338135817015 38.0995
27.181422024430987 38.0931
27.204328079372566 37.9713
27.22723524226965 37.9731
27.250143514198573 38.1608
27.273231880156334 38.0598
27.296142382065014 38.0374
27.319053996245536 37.8414
27.341966723775965 38.0229
27.365059584515222 37.895
27.38797455070062 37.9814
27.410890633481237 37.9035
27.433807833936918 37.8766
27.456905206923906 38.0045
27.47982465472398 37.9833
27.502745223449743 37.9702
27.525666914182825 38.1806
27.548768816912457 38.0779
27.571692763693633 37.9054
27.59461783573812 37.8761
27.617723149491244 37.7199
27.640650484125285 37.7326
27.66357894728264 37.6576
27.686508540048052 37.6137
27.709618414237887 37.4577
27.732550278321757 37.3124
27.755483275279115 37.3156
27.778417406196485 37.4179
27.801531858397514 37.3706
27.824468269376716 37.2473
27.847405817586786 37.3397
27.870344504116094 37.5089
27.893463551932008 37.5649
27.916404527281053 37.8135
27.93934664422563 37.8672
27.962289903855886 38.0084
27.98541356491974 38.1752
28.00835912214229 38.2491
28.03130582533231 38.5288
28.054253675581805 38.7069
28.077381967556104 38.5945
28.100332124185126 38.5511
28.123283431160893 38.5145
28.146235889577238 38.2945
28.169368830154156 38.2224
28.192323603752033 38.0923
28.215279532083304 37.7521
28.238415973016764 37.4772
28.261374223145094 37.3858
28.284333631303806 37.1712
28.307294198589954 36.9799
28.330435319167677 36.7274
28.353398217078915 36.4935
28.376362277420153 36.2472
28.39932750129032 36.1492
28.422473319286713 35.9248
28.44544088262495 35.9201
28.468409612800283 35.9441
28.491379510913497 35.6378
28.51453004413313 35.5312
28.53750229057244 35.5397
28.56047570826344 35.3382
28.583450298308804 35.4553
28.606605564586562 35.2641
28.629582511831156 35.2713
28.65256063474956 35.2432
28.675539934446338 35.1533
28.698699951647605 35.1509
28.72168161743193 35.05
28.74466446331978 35.1106
28.767648490417624 34.9201
28.790813276438353 34.8709
28.813799678527303 35.0086
28.836787265157085 35.0851
28.859955641890075 35.1535
28.882945610203045 34.9974
28.905936766392035 34.876
28.928929111566863 34.878
28.952102288520145 34.8933
28.975097024308607 34.6672
28.998092952423807 34.5719
29.021090073977508 34.5019
29.04426806913204 34.3944
29.067267590245258 34.1774
29.090268308143695 34.1923
29.11327022394099 34.0633
29.13645305530891 34.0246
29.159457379627167 33.9376
29.18246290519685 33.9366
29.20546963313352 33.9375
29.22865731875826 33.9516
29.25166646419296 33.9288
29.27467681535305 33.7714
29.29768837335608 33.9059
29.320880931312562 33.9697
29.34389491580634 33.9323
29.366910110507334 33.8243
29.38992651653503 33.8557
29.41312396492981 33.8792
29.436142806456754 33.7785
29.45916286268059 33.5858
29.48236399319994 33.6423
29.50538649169417 33.3278
29.528410208259935 33.4011
29.55143514402014 33.2099
29.574641196749695 33.0265
29.597668583816574 32.9198
29.6206971934585 32.7498
29.64372702680042 32.8069
29.666938019934474 32.7372
29.689970313635285 32.6526
29.713003834422636 32.6649
29.73603858342347 32.6245
29.759254535188578 32.5117
29.78229175361658 32.4395
29.80533020365064 32.4947
29.82836988641968 32.5441
29.85159081507472 32.3771
29.874632976355343 32.3144
29.89767637376955 32.3587
29.920721008448314 32.1814
29.9439469322847 32.2593
29.96699405457564 32.0848
29.9900424175358 32.1858
30.013092022298157 32.1086
30.03632295963995 32.0766
30.059375061131373 32.1251
30.08242840783577 32.1883
30.105483000888153 32.1186
30.128718970092244 31.9778
30.151776069006917 32.0108
30.17483441768648 32.0295
30.198074175317235 32.0313
30.221135036724256 32.1091
30.24419715131772 31.9804
30.267260520236203 31.9641
30.290505341942243 31.9352
30.313571232750228 32.003
30.336638381310948 31.9157
30.35970678876503 31.8101
30.38295669299435 31.7923
30.40602763151657 31.7806
30.429099832366074 31.8078
30.452173296685572 31.6897
30.47542830191959 31.6535
30.498504306502497 31.6204
30.521581577995562 31.682
30.544660117543582 31.686999999999998
30.56792024229725 31.7909
30.59100133132069 31.8296
30.614083691845494 31.796999999999997
30.637167325018545 31.7031
30.660432587840603 31.8918
30.683518779717886 31.9156
30.70660624769615 31.8613
30.729694992924372 31.7402
30.75296541239743 31.8156
30.77605672557558 31.8246
30.799149319462742 31.7067
30.8224236211637 31.7064
30.845518789950724 31.5686
30.868615242910597 31.4688
30.891712981195973 31.3383
30.91499247215866 31.2681
30.938092794619365 31.2001
30.96119440587579 31.0908
30.984297307082752 30.9988
31.00758200598383 30.8731
31.030687500658694 30.8726
31.053794288760695 30.7026
31.076902371446767 30.7066
31.100192296997445 30.6856
31.12330298246119 30.6809
31.14641496599209 30.5755
31.169528248749216 30.6161
31.19282341969534 30.4892
31.215939314557186 30.6084
31.239056512134788 30.6683
31.262175013589378 30.5625
31.28547544871168 30.5443
31.30859657161541 30.4308
31.331719001892175 30.4766
31.35484274070538 30.5581
31.378148458819545 30.5564
31.401274828443725 30.4725
31.424402510106933 30.4812
31.447712205419993 30.5977
31.470842524931633 30.4864
31.493974159989783 30.518
31.51710711176168 30.3848
31.54042212308802 30.5135
31.563557722100917 30.3974
31.586694641341655 30.287
31.609832881979628 30.1122
31.63315322823208 30.1391
31.656294125521327 29.9646
31.679436347728515 29.9371
31.70257989602529 29.8849
31.725905596152327 29.7921
31.74905181052835 29.660999999999998
31.772199354521323 29.8518
31.79534822930507 29.7737
31.818679302290967 29.8988
31.84183085259981 29.8699
31.864983737233473 29.7125
31.88813795736804 29.6587
31.911474422233013 29.6158
31.934631327356435 29.7638
31.9577895715215 29.7215
31.980949155906522 29.6882
32.004291031706956 29.6177
32.027453310562606 29.4462
32.05061693318573 29.4401
32.07396288236386 29.5156
32.09712920658542 29.3532
32.12029687812702 29.2086
32.14346589817093 29.1592
32.166817291729984 29.1879
32.18998902288583 29.1925
32.21316210610336 29.0415
32.23633654256711 28.8904
32.259693399663725 28.7888
32.282870556771144 28.7038
32.30604907069099 28.8681
32.329228942610065 28.7258
32.35259128243769 28.6253
32.375773884550505 28.5895
32.398957848235646 28.6125
32.422143174682176 28.5719
32.445511016471215 28.4776
32.468699082679954 28.4304
32.49188851523011 28.3335
32.51507931531304 28.2923
32.538452678331 28.3195
32.56164622776311 28.2854
32.58484114831493 28.1351
32.60803744118015 28.0808
32.631416344731896 28.0737
32.654615396551876 28.1236
32.67781582427913 28.0117
32.701198898634416 27.9528
32.72440209253756 27.8702
32.747606665947124 27.96
32.77081262006088 27.894000000000002
32.79420126883317 27.7652
32.81740999876112 27.7929
32.840620112999424 27.6924
32.86383161274818 27.6709
32.88722585534586 27.6864
32.91044014056596 27.7581
32.933655814909734 27.7448
32.95687287957963 27.7376
32.98027273544904 27.5817
33.00349259526636 27.4844
33.026713849030116 27.5435
33.04993649794511 27.4004
33.073341986570746 27.4476
33.09656744032826 27.4584
33.11979429286444 27.4857
33.14302254538647 27.4727
33.166433686291185 27.4527
33.18966475336992 27.4203
33.212897224069096 27.2346
33.23613109959831 27.2094
33.259547912343415 27.2657
33.2827846121627 27.2544
33.306022720453775 27.0903
33.32926223842861 27.0619
33.352684742614166 27.1378
33.37592709463173 27.034000000000002
33.399170859982064 26.9545
33.422597648419426 26.8326
33.44584425514446 26.7272
33.46909227885668 26.7556
33.4923417207723 26.6502
33.51577423505344 26.6989
33.539026528130385 26.5531
33.56228024307245 26.5484
33.585535381098246 26.4234
33.60897364093058 26.4068
33.63223163992385 26.4268
33.6554910656699 26.4239
33.678751919389796 26.3498
33.702195944520106 26.2308
33.72545966903325 26.2917
33.74872482519663 26.1846
33.771991414233746 26.206999999999997
33.79544122444841 26.1278
33.81871069412428 26.0024
33.84198160035767 26.0267
33.86525394437455 26.0746
33.88870955949969 26.0526
33.911984794020626 25.9754
33.93526147001624 25.9439
33.958539588715006 25.8635
33.98200102861669 25.8668
34.0052820477047 25.7934
34.02856451319451 25.7327
34.05203033759056 25.6344
34.07531571090147 25.6847
34.09860253431845 25.6308
34.121890809074316 25.6409
34.145362493118924 25.5897
34.16865368561615 25.5064
34.191946333164054 25.427
34.21524043699793 25.4504
34.23871800066799 25.3936
34.26201503218366 25.3466
34.28531352370466 25.3626
34.30861347646881 25.2494
34.33209693978188 25.1835
34.3553998301885 25.2458
34.378704185565205 25.2089
34.402010007152356 25.1087
34.42549939016683 25.0531
34.44880815937748 24.961
34.472118398533134 24.9775
34.49543010887669 24.9031
34.51892543169198 24.7804
34.54224009966052 24.9064
34.56555624255917 24.8549
34.58887386163339 24.7632
34.61237514439016 24.7041
34.6356957311114 24.7273
34.65901779775809 24.6864
34.68252356662995 24.6619
34.705848608458616 24.6025
34.72917513396849 24.5283
34.75250314440949 24.5472
34.77601490857862 24.4331
34.799345904259795 24.3177
34.82267838863559 24.4323
34.846012362958525 24.4551
34.869530142679984 24.3664
34.89286711232212 24.3899
34.91620557568269 24.3139
34.93954553401677 24.2999
34.9630693495876 24.2107
34.986412313340814 24.2371
35.00975677584668 24.1911
35.033102738362956 24.1482
35.05663261012228 24.1216
35.0799815881786 24.0192
35.10333207003229 23.9751
35.12668405694369 24.0259
35.150220005273056 23.9485
35.17357501786656 23.9639
35.19693153931268 23.9226
35.220289570874385 23.8817
35.24383161619786 23.8238
35.267192683604904 23.8467
35.290555264930376 23.8021
35.314101899412165 23.8655
35.33746752422433 23.7636
35.36083466676374 23.7456
35.38420332829803 23.745
35.407756095629054 23.7263
35.43112781085063 23.6686
35.45450104888391 23.654
35.477875810999194 23.6765
35.50143473172161 23.5256
35.52481255774625 23.6055
35.54819191167777 23.4964
35.57157279478914 23.4935
35.595137889488406 23.4351
35.61852184675279 23.3835
35.641907337029984 23.2782
35.665294361595684 23.3446
35.68886565090076 23.3477
35.7122557598848 23.2682
35.73564740699838 23.2427
35.759040593519934 23.1799
35.78261809810353 23.1874
35.80601437933051 23.0208
35.829412203814705 23.0419
35.85281157283719 22.9559
35.876395313415884 23.0157
35.8997977874528 22.9422
35.92320180988546 22.9574
35.946790244133936 22.8958
35.97019737933222 22.8671
35.993606066789866 22.9294
36.01701630779276 22.861
36.04061101440684 22.6623
36.06402437852291 22.6812
36.08743930005611 22.6546
36.1108557802951 22.6312
36.13445678011326 22.6161
36.15787639383515 22.62
36.18129757014299 22.5985
36.20472031032821 22.484
36.22832762423364 22.4306
36.25175350829375 22.4197
36.275180960119776 22.3433
36.298609981005924 22.4405
36.32222362992669 22.4192
36.34565580510207 22.3585
36.36908955323448 22.3278
36.39252487562093 22.2281
36.416144880530226 22.2075
36.43958336764275 22.2294
36.463023432914625 22.1311
36.486465077645676 22.05
36.51009145956204 22.0955
36.53353627947859 22.1172
36.55698268276811 22.1166
36.58043067073321 22.0334
36.60406345072071 21.9315
36.62751462435344 21.9195
36.65096738658405 21.961
36.67460498210655 21.9306
36.69806093788647 21.8887
36.72151848619297 21.7133
36.744977628333636 21.7272
36.76862165890998 21.7599
36.79208400512205 21.6944
36.81554794910557 21.6408
36.83901349217101 21.5923
36.862663978991606 21.5875
36.88613273667352 21.4931
36.90960309738324 21.5381
36.933075062434064 21.5518
36.95673202673572 21.4698
36.98020721697122 21.4025
37.003684015502365 21.3501
37.027162423645365 21.3801
37.050825886711465 21.4071
37.07430753063053 21.2275
37.09779078812467 21.2208
37.121275660513014 21.1982
37.144945643673694 21.1538
37.16843376245278 21.1685
37.19192350009803 21.0984
37.215414857931435 21.0524
37.239091382563885 20.969
37.262585997426164 21.0013
37.28608223645736 21.0024
37.309763684451696 20.9056
37.33326318851098 20.9023
37.356764320726555 20.8687
37.380267082425526 20.8612
37.40395510942588 20.8201
37.42746114683234 20.761999999999997
37.45096881771841 20.7404
37.474478123414166 20.7392
37.49817275092816 20.701999999999998
37.52168534303452 20.6588
37.54519957395567 20.5537
37.568715445024665 20.599
37.592416694607714 20.497
37.61593586281424 20.5058
37.63945667518264 20.5643
37.66297913304891 20.4478
37.68668702630454 20.4728
37.710212792059274 20.4086
37.733740207334854 20.4079
37.757269273470364 20.3049
37.780983832050374 20.3016
37.80451621684926 20.2469
37.82805025654007 20.1984
37.851585952464795 20.167
37.8753071980695 20.1246
37.89884622345676 20.1314
37.92238690911902 20.069000000000003
37.94611318753442 20.0572
37.969657210779765 20.0329
37.99320289834801 20.0498
38.016750251586465 20.0291
38.04048325513017 19.9818
38.06403395679343 19.9327
38.087586328183946 19.9396
38.11114037065203 19.8646
38.13488012115898 19.8844
38.1584375229181 19.85
38.181996599821 19.7697
38.205557353221124 19.7118
38.229303872575656 19.676
38.2528679961576 19.6233
38.27643380031219 19.5831
38.30000128639589 19.5164
38.32375459653193 19.5532
38.34732546371299 19.5936
38.37089801690786 19.4358
38.39447225747609 19.4838
38.418232380377425 19.457
38.441810012983396 19.4219
38.46538933705673 19.4215
38.488970353960084 19.3522
38.51273731166058 19.3375
38.536321731567014 19.2534
38.55990784840681 19.2048
38.58367995004091 19.1661
38.60726947812959 19.1739
38.63086070726198 19.249000000000002
38.654453638806274 19.1986
38.678232613930824 19.1226
38.70182896773327 19.0562
38.72542702806741 19.0634
38.7490267963045 19.0635
38.77281266709232 18.9737
38.79641586862214 18.9492
38.8200207821842 18.8727
38.843627409152944 18.9318
38.86742019782782 18.8538
38.891030269149255 18.8361
38.914642058016156 18.8923
38.938255565806124 18.7704
38.96205529464307 18.7385
38.98567225787121 18.7162
39.00929094417078 18.6559
39.03291135492255 18.714000000000002
39.05671804624804 18.701
39.080341923549106 18.5874
39.103967529460334 18.5736
39.127594865365744 18.4811
39.15140854155791 18.4069
39.17503935514948 18.4092
39.19867190290282 18.4832
39.22249083587951 18.4391
39.24612686969409 18.3694
39.269764641845306 18.4366
39.293404153722804 18.3284
39.317230110864074 18.2655
39.34087311998506 18.2571
39.36451787301696 18.1968
39.388164371352595 18.1446
39.41199737518003 18.222
39.43564738196752 18.1773
39.45929913825317 18.1092
39.48295264543308 18.1158
39.506792718520884 18.049
39.530449745387216 18.0699
39.55410852735203 17.9931
39.57776906581474 18.0473
39.60161623079 17.994
39.625280300200025 17.9004
39.64894613032202 17.8139
39.67261372255866 17.8471
39.6964680021016 17.8885
39.72013913657293 17.8635
39.74381203738292 17.7732
39.76748670593756 17.8359
39.79134812278169 17.7743
39.81502634488497 17.7468
39.83870633896685 17.7228
39.862388106436654 17.6378
39.88625668336918 17.5637
39.90994201572829 17.6203
39.933629125719285 17.5832
39.957503091207826 17.5733
39.9811937746168 17.585
40.00488623990914 17.487000000000002
40.02858048850006 17.399
40.05246165409549 17.4153
40.076159487492085 17.4057
40.099859108448875 17.4095
40.123560518384345 17.3891
40.1474489070226 17.2706
40.171153913178564 17.2799
40.194860712584955 17.284000000000002
40.2185693066637 17.2585
40.242464941335314 17.2982
40.26617714307655 17.1983
40.289891143772046 17.1356
40.3136069448471 17.0558
40.33750984859743 17.0688
40.3612292688043 17.1117
40.3849504936829 17.0616
40.40867352466194 17.0119
40.43258372059144 17.0349
40.45631038219906 16.9635
40.48003885420956 16.9558
40.503769138055105 16.9142
40.52768664931955 16.8591
40.55142057531802 16.8564
40.57515631746428 16.8228
40.599079334038514 16.8736
40.62281872700477 16.7762
40.64655994043941 16.7226
40.67030297578061 16.7119
40.69423334835778 16.7158
40.71798004609188 16.6723
40.74172857006355 16.6338
40.76547892171441 16.6612
40.7894166736039 16.6196
40.813170699248566 16.5661
40.83692655691388 16.5518
40.86068424804498 16.5198
40.884629402612525 16.4666
40.908390779366385 16.5102
40.932153993938 16.4221
40.95591904777605 16.4636
40.979871628443995 16.4525
41.003640379561936 16.3454
41.02741097430883 16.3422
41.05118341413683 16.3106
41.075143444384416 16.3042
41.098919593177826 16.2592
41.1226975914255 16.2142
41.14647744058318 16.2182
41.170444943946755 16.1559
41.19422851378379 16.1326
41.218013938914645 16.1715
41.24198706625173 16.0923
41.26577622087193 16.0608
41.289567235177785 16.046
41.31336011063129 16.0065
41.337340752422875 16.0263
41.361137369129835 15.9575
41.38493585138705 15.8644
41.40873620066004 15.8941
41.43272438060107 15.8991
41.45652848292052 15.843
41.48033445666918 15.7564
41.50414230331616 15.7335
41.528138045159764 15.7177
41.551949656675205 15.7105
41.575763145513235 15.7013
41.59957851314666 15.6813
41.62358184070442 15.6391
41.64740098505737 15.6251
41.6712220126409 15.5801
41.69504492493139 15.5601
41.71905586207357 15.5302
41.74288256296395 15.5628
41.766711153007456 15.4552
41.79054163368412 15.4714
41.814560204340054 15.4738
41.838394485526365 15.4675
41.86223066180303 15.4119
41.88625497706819 15.3377
41.910094962812 15.3382
41.93393684811168 15.3131
41.95778063445365 15.2633
41.981812625263366 15.2821
42.00566023303407 15.3054
42.029509746323676 15.2144
42.05336116662236 15.1706
42.077400857069705 15.1663
42.10125611078846 15.1815
42.12511327600405 15.0745
42.14897235421036 15.0661
42.173019768448455 15.038
42.19688269209613 15.0443
42.22074753323349 15.0333
42.24461429335818 15.0189
42.268669455600495 14.9696
42.292540073217886 14.9523
42.31641261433284 14.9173
42.34028708044675 14.9018
42.36435001496739 14.8801
42.38822835065557 14.8591
42.41210861586426 14.837
42.4359908120986 14.7659
42.46006154323262 14.7969
42.48394762115317 14.7522
42.507835634632315 14.7353
42.531912233047436 14.6905
42.55580413732265 14.6992
42.579697981698 14.6506
42.60359376768525 14.6277
42.62767820545945 14.6692
42.65157789440821 14.6088
42.67547952952185 14.5708
42.699383112316 14.5793
42.72347541395347 14.4935
42.74738291190531 14.4586
42.771292362102166 14.4542
42.795203766063516 14.4215
42.819303956130405 14.4144
42.843219287476536 14.3573
42.86713657716324 14.3618
42.89105582671383 14.3172
42.91516392983864 14.3432
42.939087119032166 14.3096
42.963012272677304 14.2582
42.98693939230129 14.2039
43.01105543317513 14.165999999999999
43.034986504731386 14.2115
43.05891954686589 14.1895
43.08285456110972 14.1838
43.10697856448665 14.0967
43.130917542983475 14.0335
43.15485849820081 14.0835
43.17880143167367 14.0622
43.20293342237094 13.9797
43.226880332449 13.9882
43.25082922540554 13.9905
43.27496722682525 13.9531
43.29892010567796 13.9641
43.32287497204102 13.8938
43.34683182745632 13.9289
43.370977859791836 13.8394
43.39493871351105 13.7801
43.41890156092628 13.8116
43.44286640358341 13.8111
43.46702049182749 13.745999999999999
43.49098934522816 13.7581
43.51496019852649 13.66
43.5389330532723 13.6338
43.56309522248204 13.6437
43.58707210044314 13.6482
43.61105098451946 13.5938
43.63503187626491 13.5861
43.659202151562134 13.5733
43.68318707902681 13.5502
43.70717401884041 13.4879
43.731162972560874 13.4216
43.75534137913236 13.4479
43.779334381108384 13.4435
43.803329401683186 13.4194
43.82732644241872 13.3799
43.8515130055166 13.4072
43.87551410707659 13.3964
43.89951723350145 13.3953
43.923709934595614 13.3236
43.94771713129917 13.3496
43.97172635758096 13.2955
43.99573761501002 13.2545
44.0199385169922 13.2167
44.04395385732619 13.1856
44.067971233533086 13.1819
44.09199064718605 13.1611
44.11619977548961 13.1352
44.14022328470671 13.1225
44.16424883610785 13.1163
44.18827643127035 13.0723
44.21249381139513 13.001
44.236525514814076 12.9712
44.26055926674478 12.9719
44.28459506876863 12.985
44.3088207262813 12.9666
44.33286064928722 12.8581
44.35690262714919 12.862
44.38094666145278 12.8507
44.4051806219871 12.8851
44.42922879003185 12.8391
44.45327901929361 12.7927
44.477331311362136 12.8082
44.501573600619416 12.7612
44.525630039221795 12.7511
44.54968854541895 12.7252
44.573937102200176 12.6935
44.5979997645541 12.6998
44.622064499300315 12.6777
44.64613130803592 12.6176
44.67038823869318 12.6145
44.69445921643748 12.5683
44.718532272981385 12.494000000000002
44.742607409926194 12.5659
44.76687274034801 12.5674
44.79095205918753 12.4587
44.81503346325094 12.5089
44.839116954143876 12.4663
44.86339071028742 12.4532
44.88747839599524 12.4155
44.91156817336837 12.4258
44.93566004401666 12.4045
44.959942251908146 12.3529
44.984038330325966 12.3115
45.00813650686762 12.3111
45.03223678314731 12.2716
45.05652746888232 12.2263
45.08063196592069 12.1961
45.104738567558705 12.1622
45.128847275414856 12.2095
45.15314646515866 12.1416
45.17725940679741 12.1571
45.20137445952892 12.1805
45.22568004865265 12.1246
45.24979934496396 12.0707
45.27392075725247 12.0528
45.29804428714431 12.0292
45.322358426247604 12.0226
45.346486212804315 12.0031
45.370616121861914 12.0095
45.39474815505086 11.9268
45.41907087049246 11.8977
45.4432071734666 11.9488
45.46734560548283 11.9236
45.49148616817604 11.8878
45.51581748638564 11.879000000000001
45.5399623320197 11.8545
45.56410931325473 11.814
45.58825843173002 11.8134
45.61259837920865 11.7693
45.636751793816 11.7859
45.66090735060093 11.7514
45.68506505120716 11.6892
45.7094136545275 11.6575
45.73357566449271 11.5956
45.75773982322992 11.6211
45.78190613238733 11.6426
45.806263418194064 11.5781
45.83043404997326 11.5975
45.85460683713677 11.6078
45.87897065658495 11.5389
45.90314777634752 11.5335
45.92732705646868 11.4632
45.9515084986045 11.457
45.97588104735473 11.4595
46.00006683541565 11.4413
46.02425479047904 11.4319
46.04844491420549 11.4158
46.0728262191024 11.4067
46.09702070211635 11.3538
46.12121735879483 11.3327
46.14541619080294 11.3279
46.169806278764455 11.3221
46.194009483459034 11.3048
46.21821486849841 11.2395
46.24242243555223 11.144
46.266821333570014 11.2226
46.29103328674601 11.1573
46.31524742696538 11.17
46.33946375590237 11.1496
46.36387149104216 11.1384
46.38809221957392 11.0742
46.41231514186606 11.1172
46.436540259597464 11.0931
46.460956858999374 11.0702
46.48518638983522 11.001
46.509418121166966 10.9737
46.533652054678114 10.9612
46.55807754555709 10.9246
46.58231590571962 10.9844
46.60655647313217 10.8815
46.630988654873654 10.8567
46.655233659129024 10.8333
46.67948087571551 10.8874
46.70373030632484 10.8662
46.72817142736393 10.8661
46.752425308428684 10.8226
46.77668140861147 10.8018
46.80093972960865 10.7206
46.82538981736788 10.7141
46.849652602470904 10.6874
46.87391761349769 10.7136
46.8981848521493 10.6913
46.9226439341274 10.6667
46.946915650573224 10.6579
46.97118959976749 10.6317
46.99546578341598 10.5843
47.019933887188216 10.6062
47.04421456235744 10.6216
47.06849747711879 10.5939
47.09278263318286 10.5135
47.11725978640143 10.5225
47.14154944775105 10.4673
47.165841355555656 10.4614
47.1901355115306 10.4405
47.214621741924994 10.4576
47.23892041698887 10.4246
47.26322134538975 10.3853
47.28771440635075 10.3205
47.31201986422527 10.3263
47.33632758061436 10.3441
47.360637557241866 10.339
47.38513974410611 10.2982
47.40945426407847 10.2772
47.43377104948137 10.2656
47.45809010204344 10.227
47.48260144275502 10.225
47.506925052572285 10.1756
47.53125093475548 10.1764
47.55557909103813 10.1757
47.58009961361992 10.1124
47.60443234110732 10.1048
47.62876734791564 10.1229
47.65310463578333 10.0697
47.6776343683373 10.0715
47.7019762413987 10.0039
47.72632040075572 9.99438
47.75066684815169 10.0127
47.77520581885936 9.93758
47.799556865477655 9.97861
47.823910205386 9.9579
47.84826584033272 9.9203
47.87281407745551 9.88078
47.89717432569297 9.90422
47.92153687423484 9.89835
47.94609208429692 9.90302
47.97045925671401 9.9145
47.99482873471275 9.855269999999999
48.01920052005013 9.80838
48.04376504619224 9.80381
48.068141469543484 9.83371
48.09252020552573 9.77993
48.11690125590099 9.756269999999999
48.1414751266064 9.74227
48.16586082917454 9.71485
48.19024885144316 9.6949
48.2146391951793 9.66193
48.239222439012764 9.67521
48.26361744916137 9.630189999999999
48.28801478610016 9.65932
48.31241445160131 9.63989
48.337007097209366 9.60854
48.36141144338331 9.58784
48.38581812345755 9.548739999999999
48.41022713920929 9.54406
48.434829215320704 9.51035
48.45924292604658 9.49545
48.48365897780325 9.50385
48.50807737237308 9.44032
48.532688907799276 9.47943
48.55711201168574 9.43632
48.581537463754074 9.41491
48.60615611725119 9.40748
48.63058628942721 9.39687
48.65501881516546 9.36848
48.6794536962573 9.34565
48.70408185970339 9.3545
48.72852147531801 9.31508
48.75296345168211 9.32653
48.77740779059232 9.27255
48.80204549302823 9.28786
48.82649458091802 9.23847
48.85094603676547 9.224960000000001
48.87539986237231 9.1826
48.90004713292306 9.19346
48.92450572200832 9.1782
48.94896668628025 9.16189
48.97343002754588 9.13948
48.99808689542115 9.12313
49.02255501470614 9.125739999999999
49.04702551642794 9.0739
49.0714984023988 9.08388
49.096164896893235 9.053239999999999
49.120642575466796 9.02763
49.145122643748394 9.01648
49.16960510355558 8.991660000000001
49.19428125404938 8.9926
49.2187685210852 8.941189999999999
49.243258185121555 8.94766
49.26794160167084 8.96336
49.2924360839405 8.90906
49.31693296869764 8.917580000000001
49.34143225776915 8.86615
49.36612538195438 8.85104
49.39062950396021 8.87615
49.41513603578346 8.818439999999999
49.4396449792564 8.82981
49.46434784069503 8.82029
49.488861631846454 8.799669999999999
49.513377840166804 8.78143
49.537896467493745 8.72627
49.56260909589029 8.71652
49.587132585683285 8.712769999999999
49.611658500018365 8.715689999999999
49.636186840738596 8.66727
49.66090926588511 8.67733
49.685442483902584 8.65024
49.70997813385706 8.60485
49.734516217597076 8.62383
49.75924846937352 8.58126
49.7837914452858 8.599789999999999
49.80833686055187 8.558860000000001
49.83288471702571 8.54542
49.85762682540054 8.54951
49.882179588965734 8.50474
49.9067347993235 8.46814
49.93129245833333 8.48344
49.95604445336378 8.45625
49.98060703442832 8.42838
50.005172069746266 8.42805
50.02993150438364 8.44074
50.05450147301533 8.44315
50.07907390151433 8.38286
50.10364879174981 8.36015
50.12841816587289 8.3657
50.1529980044635 8.35797
50.17758031042124 8.2946
50.20216508562089 8.30838
50.22694442953363 8.254719999999999
50.25153416817468 8.24961
50.27612638170508 8.27246
50.300721072005196 8.23294
50.325510416102105 8.23943
50.350110084975064 8.1599
50.37471223628208 8.193489999999999
50.39931687190919 8.1841
50.424116246675766 8.20233
50.44872587605249 8.16575
50.47333799543065 8.13923
50.49795260670191 8.09705
50.52276204271512 8.081719999999999
50.54738166295838 8.10417
50.57200378079314 8.106160000000001
50.596628398116835 8.08183
50.62144792604559 8.03466
50.646077567609396 8.038160000000001
50.670709714377715 8.02267
50.69553683636198 8.0066
50.72017401885922 8.004660000000001
50.7448137122895 7.96468
50.76945591856022 7.96433
50.79429318636823 7.89228
50.818940443716784 7.88524
50.84359021965163 7.89416
50.868242516085964 7.8890899999999995
50.893089960641895 7.88595
50.917747323549435 7.8345
50.94240721271973 7.840669999999999
50.96706963007175 7.842460000000001
50.99192728239342 7.78753
51.01659478166073 7.812410000000001
51.04126481489051 7.7998899999999995
51.06593738400761 7.769769999999999
51.090805275207074 7.7495
51.11548294172845 7.730580000000001
51.14016314993547 7.70246
51.164845901758845 7.7368
51.18972406304274 7.69152
51.21441192780656 7.66482
51.23910234200271 7.665210000000001
51.2637953075678 7.62547
51.288683770237945 7.600410000000001
51.31338186432707 7.59696
51.33808251561888 7.576919999999999
51.362978729967345 7.57112
51.387684521509755 7.54648
51.41239287610203 7.564430000000001
51.437103795691165 7.56314
51.46201036644977 7.51307
51.486726441956634 7.506469999999999
51.51144508832545 7.4873899999999995
51.536166307509156 7.4679899999999995
51.56108326624387 7.46024
51.58580965706056 7.4515899999999995
51.61053862657523 7.43622
51.635270176746864 7.39502
51.66019755512065 7.38702
51.68493429268881 7.39532
51.70967361681515 7.36401
51.73441552946465 7.352119999999999
51.759353359237934 7.36486
51.7841004750961 7.314010000000001
51.80885018539685 7.3182
51.833602492111254 7.28879
51.8585508051424 7.2492
51.883308330926425 7.26491
51.90806845906181 7.2465
51.932831191525715 7.20175
51.95779001977161 7.1919699999999995
51.98255798721516 7.2069600000000005
52.00732856494335 7.1696800000000005
52.03229530577543 7.14694
52.057071130455945 7.16598
52.081849571391054 7.120439999999999
52.106630630568695 7.11978
52.13160794279417 7.1067100000000005
52.15639426492067 7.0961300000000005
52.18118321127822 7.094410000000001
52.205974783860896 7.06367
52.23096269971011 7.0264
52.255759551287994 7.02053
52.280559035098186 6.984139999999999
52.30536115314103 6.98002
52.33035970494467 6.9898
52.35516711807904 6.99622
52.37997717147198 6.9842
52.40478986713005 6.955939999999999
52.42979908731974 6.90148
52.454617094216 6.913360000000001
52.47943774942214 6.91005
52.50426105495102 6.9238
52.529280976059844 6.8479
52.554109609024096 6.8581199999999995
52.57894089837482 6.83758
52.60377484613117 6.84755
52.62880550079408 6.8463899999999995
52.65364479223379 6.820069999999999
52.67848674816189 6.80395
52.70352547971946 6.78337
52.72837279155837 6.7584800000000005
52.753222773982785 6.7364
52.778075429022984 6.770789999999999
52.80312495150885 6.74905
52.827982978797436 6.677460000000001
52.85284368481815 6.63365
52.87770707160767 6.68284
52.90276741793998 6.65592
52.92763619336701 6.6384
52.952507655698504 6.63001
52.977381806977576 6.62798
53.00245301017842 6.654610000000001
53.02733256653592 6.557010000000001
53.052214817996074 6.5652800000000004
53.077099766608484 6.56942
53.102181859804446 6.576410000000001
53.127072229988265 6.54108
53.15196530349892 6.51411
53.17686108239249 6.51451
53.20195409881522 6.50711
53.22685531582556 6.50063
53.25175924441303 6.43882
53.27666588664027 6.40572
53.30176985962693 6.451980000000001
53.3266819565689 6.45905
53.35159677336455 6.4239
53.376514312083096 6.406540000000001
53.40162927507703 6.405959999999999
53.42655228516116 6.38304
53.45147802340193 6.36215
53.47660125628886 6.308590000000001
53.50153247842639 6.32134
53.52646643496923 6.3311
53.55140312799818 6.32445
53.576537409691696 6.33029
53.60147960336152 6.245419999999999
53.626424539786164 6.247669999999999
53.65137222105307 6.25905
53.67651758529126 6.2481
53.70147078399681 6.21991
53.72642673383343 6.18964
53.75138543689533 6.1852
53.776541917524526 6.19484
53.801506154876755 6.18208
53.826473151763246 6.1647
53.851442910284916 6.12099
53.87661054126026 6.07311
53.9015858509782 6.077780000000001
53.92656392866066 6.11681
53.95154477641532 6.13467
53.976723591801296 6.07111
54.00171000771266 6.02605
54.02669920004598 6.075819999999999
54.051691170915745 6.00404
54.076881204886796 6.04745
54.101878760928514 6.00444
54.12687910187696 5.96218
54.152077577768296 5.96491
54.1770835166946 5.9584
54.20209224691339 5.97248
54.22710377055121 5.91971
54.25231352511594 5.91559
54.27733066384342 5.89855
54.30235060239643 5.89048
54.32737334290836 5.89647
54.35259441062629 5.87309
54.377622783395324 5.85458
54.40265396455061 5.79039
54.42768795623251 5.79798
54.45292037169559 5.81115
54.477960012857906 5.788119999999999
54.50300247099511 5.733230000000001
54.52804774825457 5.73044
54.55329154616743 5.6944300000000005
54.57834249018678 5.692069999999999
54.6033962597977 5.68999
54.6284528571545 5.6929
54.653708072335164 5.65431
54.67877035378786 5.667999999999999
54.70383546947698 5.55934
54.72890342156389 5.5370800000000004
54.7541700889442 5.5252300000000005
54.77924374251975 5.53296
54.8043202390049 5.55006
54.82959552413022 5.46373
54.8546777351945 5.49036
54.87976279569621 5.44062
54.90485070780914 5.43492
54.930137506558005 5.47147
54.95523115074295 5.433
54.98032765308844 5.3862
55.005427015775496 5.3768400000000005
55.03072536339621 5.38681
55.05583047570572 5.30966
55.080938454927676 5.28509
55.10604930325027 5.2938
55.131359235107396 5.314019999999999
55.15647585066083 5.2147
55.181595341907496 5.21561
55.20671771104285 5.20351
55.232039262617704 5.16025
55.25716741665048 5.15604
55.28229845518636 5.1586300000000005
55.30743238042802 5.09425
55.33276558731939 5.11555
55.357905315183636 5.08202
55.383047936390035 5.01452
55.40819345314859 5.023969999999999
55.433538351073295 5.03627
55.458689688238415 5.00858
55.483843927614096 4.90603
55.509197623043605 4.88504
55.53435769621134 4.87826
55.55952067826466 4.86081
55.5846865714265 4.900580000000001
55.61005202069737 4.842569999999999
55.63522376553902 4.83331
55.66039842818645 4.8025400000000005
55.68557601087004 4.79387
55.7109532500271 4.76726
55.73613670233794 4.75405
