TT I
1.2716486653135266 7.5342199999999995
1.2939594142134223 7.4530199999999995
1.3162702121660406 6.90925
1.3385810600174564 6.602760000000001
1.3608919586137629 7.51012
1.383202908801069 7.07448
1.405513911425503 6.3569
1.4278249673332093 6.62834
1.4501343378461518 6.32759
1.4724455028545926 6.608060000000001
1.4947567236847858 7.0906899999999995
1.517068001182951 6.79783
1.5393793361953272 6.4604
1.5616907295681737 6.19309
1.5840021821477681 5.63805
1.60631369478041 6.09629
1.6286252683124185 6.27771
1.6509369035901333 5.59265
1.6732468618895553 5.3924199999999995
1.695558623192809 5.23148
1.7178704487808514 5.61811
1.7401823395001077 5.22884
1.7625012545597203 5.31744
1.7848028405262486 5.39098
1.8071218901122095 5.26817
1.8294236121921872 4.93591
1.8517427996910911 4.79129
1.8740620574440425 4.89234
1.8963639900671978 5.2012
1.9186833908139995 4.8571800000000005
1.9409854680117449 5.53147
1.9633050151394713 5.27246
1.9856246367570705 5.07335
2.0079269371922672 4.7522400000000005
2.03024671027244 4.9162
2.0525491637446027 4.8358099999999995
2.074869091674931 4.56872
2.097171701569106 5.093719999999999
2.1194917877373847 4.50091
2.141811954326636 4.39546
2.164114805233074 4.447430000000001
2.186435135143035 4.77165
2.208738150935709 4.89156
2.231058647554722 4.31867
2.2533792288321184 4.38541
2.275682498336085 4.9056
2.298003251406138 4.315169999999999
2.3203066942619714 4.41822
2.3426276225136022 5.025180000000001
2.3649486396617507 4.15069
2.387252348930071 4.38322
2.4095735463442893 4.46076
2.4318774374315884 5.0078
2.4541988185014043 4.43529
2.476502894794693 5.2597
2.498824462909887 5.2382599999999995
2.521146125856138 5.40161
2.5434504863470337 5.26985
2.5657723414244717 6.12817
2.588076895590662 5.9777
2.610398946189713 5.9045
2.6327210958598384 5.36412
2.6550259469304716 5.69909
2.6773482972090137 5.77867
2.6996533504259 6.41485
2.7219759047039602 6.82245
2.744298562293959 6.54701
2.7666039251246595 7.22607
2.7889267918020164 7.44958
2.8112323652516555 6.9892199999999995
2.833555444408179 7.0708
2.8558786311183852 7.66467
2.8781845268938557 8.16178
2.9005079311721484 8.18047
2.9228140460410397 8.53544
2.9451376712799635 9.05973
2.967444008632326 8.98761
2.9897678582247247 10.1721
3.0120918213106695 10.7433
3.0343984987899373 11.292
3.0567226913198637 11.0906
3.079029599759726 11.5684
3.101354025127254 11.6828
3.123678568232338 12.7133
3.145985829517914 12.4789
3.16831061055229 13.5237
3.1906181112775593 14.1134
3.212943133635653 15.0395
3.2352682779763207 14.7634
3.2575761442691227 14.9754
3.2799015350264273 16.1634
3.302209649240067 16.6725
3.3245352898092655 17.0635
3.3468436553365257 17.1004
3.369169549113219 17.2447
3.3914955708171384 18.8863
3.413804319727358 19.0711
3.4361305997334863 19.5528
3.4584396084414553 20.2697
3.4807661501462652 20.4807
3.503092824025881 20.6327
3.5254022288463154 20.6336
3.5477291695206588 21.5817
3.5700388426251948 22.1188
3.5923660534916446 22.1797
3.6146934007816114 22.7037
3.637003482731501 23.1557
3.6593311053109985 23.6631
3.681641464033634 24.1348
3.7039693653009733 24.4643
3.726297407241705 25.204
3.7486081875460804 25.3797
3.7709365132734978 25.925
3.793247578841633 26.3907
3.8155761917550093 26.8312
3.8378875459837216 27.3289
3.8602164494827234 28.1238
3.882545499606844 28.5814
3.9048572932539183 28.9969
3.9271866390645718 29.4693
3.9494987298666713 30.3182
3.971828374764527 30.7746
3.9941581705403255 31.3994
4.016470713506008 31.8452
4.038800813471445 32.4163
4.061113662089144 33.0852
4.0834440696459176 34.178000000000004
4.105774632334751 34.0573
4.128087945865126 34.8582
4.150418821249301 35.5209
4.172732448931298 36.3711
4.195063640413578 37.3992
4.2173775856475215 37.8494
4.239709096631102 39.0762
4.262040768704612 39.3843
4.284355196706267 40.1866
4.306687193387355 40.2908
4.329001947444346 42.1478
4.35133427213731 42.8137
4.373666762177566 44.1793
4.395982011761091 44.5504
4.418314834921175 45.497
4.44063041906622 46.6998
4.4629635787515625 47.1677
4.4852969080429785 48.4452
4.5076130004776225 50.5767
4.529946671403969 52.54
4.552263106909177 53.9193
4.574597122877047 54.3989
4.596931312711224 55.2736
4.619248269273446 55.9595
4.6415828092605835 57.4066
4.663900117405352 57.9071
4.686235010953232 59.8348
4.708552674085913 60.964
4.730887924602802 62.7286
4.753223354952695 64.5137
4.775541557023902 66.4265
4.797877349456786 68.6413
4.820195915032126 70.219
4.842532072957498 71.5041
4.864868414979744 74.6211
4.88718753227192 76.8594
4.909524244902505 79.2103
4.931843734218147 81.817
4.954180820867835 85.4004
4.976518095879839 88.5392
4.998838149695359 91.9986
5.021175803844231 96.6909
5.043496238205739 101.083
5.065834274903528 106.693
5.088172504230693 114.272
5.1104935158799565 124.334
5.132832132875765 141.129
5.155153533596801 169.35299999999998
5.1774925416746225 285.95599999999996
5.199814334878411 884.77
5.2221537374521505 2194.85
5.244493338631803 3983.73
5.266815727034316 6769.05
5.289155727832427 10799.4
5.311478517248165 9433.46
5.333818921080011 4169.92
5.356159527788849 993.248
5.3784829252032536 275.379
5.400823940070432 183.15
5.423147747031976 153.43
5.445489173474152 137.725
5.467830807066149 129.61700000000002
5.490155234831516 124.353
5.512497285125229 118.594
5.534822130975162 115.335
5.557164601388673 111.75
5.579489868738879 108.74799999999999
5.601832762690846 107.26
5.6241758697774475 105.66
5.646501775867269 104.61399999999999
5.668845311622074 103.96600000000001
5.691171647754637 103.46600000000001
5.713515615597765 102.065
5.735859800852677 101.116
5.758186788542988 101.06299999999999
5.780531411018185 101.93
5.802858837297399 101.646
5.825203900414495 102.546
5.8475491852224 104.594
5.869877275883075 104.95299999999999
5.892223006467101 107.10700000000001
5.914551544266608 110.07799999999999
5.936897724049891 117.081
5.959244129804903 133.07
5.981573344815301 198.229
6.0039202049061 448.069
6.026249875609095 896.4169999999999
6.04859719346037 1426.94
6.070927323278297 2224.53
6.093275102315365 3682.58
6.115623113320588 4675.3
6.137953938319995 3703.16
6.160302415650845 1414.35
6.182633708324452 357.81300000000005
6.2049826554078376 146.77100000000002
6.227331838745022 108.928
6.249663839443684 96.3931
6.27201349767565 88.7875
6.294345974611799 84.7776
6.316696111167083 81.2398
6.339046488263839 78.7413
6.361379686074702 76.2716
6.383730546639482 74.8812
6.406064229255215 73.0254
6.428415576718203 72.9317
6.450749747566656 71.1635
6.47310158535871 69.6127
6.495453669698332 68.4742
6.517788579421056 67.8246
6.540141159237969 66.7618
6.562476565766648 65.7644
6.5848296444934045 65.4647
6.607182974060425 64.6488
6.6295191323281015 64.1781
6.651872965955752 63.3122
6.6742096296068985 62.379
6.6965639707294615 62.4044
6.71891856698715 61.7034
6.741255995248479 61.2916
6.763611104154477 60.7458
6.785949046381137 60.6207
6.808304671371482 60.5002
6.8306605557940046 60.3502
6.852999275508618 59.4463
6.875355681171544 58.8669
6.897694923437771 58.6903
6.92005185377892 58.5564
6.9423916220322655 58.3594
6.964749080490181 57.7462
6.987106804399774 57.3535
7.009447368180821 57.7144
7.031805625367033 57.1604
7.054146723727803 57.4391
7.076505517631004 56.9538
7.098864581288365 56.4742
7.121206488070854 56.306999999999995
7.143566093607822 56.4505
7.165908543567245 56.7094
7.188268694426048 56.5597
7.2106291193438095 56.0773
7.232972390625943 55.9611
7.255333366030969 56.0681
7.277677189091925 55.6082
7.300038718428332 55.5784
7.322400526130865 55.5973
7.344745183422596 55.8944
7.367107550224791 56.0472
7.389452767901992 56.3183
7.411815697249891 55.9038
7.434161478756298 55.2663
7.456524974096713 55.5996
7.478888753837185 55.4771
7.501235387657368 56.2385
7.523599738562711 56.1586
7.545946944825532 56.9151
7.568311870344528 57.1331
7.5906770845765665 57.007
7.613025156078678 57.4786
7.635390950099687 57.5697
7.657739602662809 57.3779
7.680105979923558 57.3086
7.702472650212829 58.5438
7.724822180948224 58.0298
7.747189439655568 58.0995
7.769539560075357 58.2723
7.791907410653562 58.7748
7.81425812420825 58.4721
7.836626570110925 59.4237
7.858995315087906 60.2006
7.881346924933401 60.2908
7.903716270417482 60.9047
7.926068482028405 61.3359
7.948438431475253 62.1354
7.9708086843180235 62.6416
7.993161805171116 63.5758
8.015532667162402 63.802
8.037886398416653 64.8973
8.060257873014221 65.3767
8.082629655331942 65.8725
8.104984308787587 66.8977
8.127356708900503 67.7704
8.149711981398308 69.2681
8.172085002766314 69.8038
8.194458336181368 70.7968
8.216814543847752 71.7066
8.23918850371002 73.7453
8.26154533906492 74.49600000000001
8.283919928836452 76.5739
8.306277395339652 77.5568
8.328652618483376 79.1983
8.351028159736202 81.9345
8.373386579575245 84.6872
8.395762759396959 87.4872
8.418121819038275 91.1461
8.440498640894003 96.6018
8.462875785192262 111.22399999999999
8.485235811156207 164.264
8.507613602688501 291.086
8.529974277114228 449.897
8.552352719347912 586.443
8.574731488360351 762.52
8.59709314210385 1075.77
8.619472567021075 1554.69
8.64183487789147 1979.76
8.664214962183097 1898.93
8.686577933647762 1198.77
8.708958680784317 514.476
8.731339760774953 213.825
8.753703729764451 130.45600000000002
8.77608547780821 111.055
8.798450116065078 104.365
8.820832535634787 100.03200000000001
8.843215292401656 97.9238
8.865580941199045 96.0456
8.887964374703538 94.7645
8.910330701447199 93.8595
8.932714815164482 92.2312
8.955099270424924 90.715
8.977466620733543 89.8406
8.999851761421976 89.4253
9.022219798361645 88.6982
9.04460562795561 88.2547
9.066991803441677 88.0832
9.089360876979615 88.039
9.111747746589993 87.4971
9.13411751544971 87.1498
9.156505082664324 86.7958
9.178875550323522 86.863
9.20126381862328 86.4612
9.223652438908596 86.5555
9.246023961427412 87.0812
9.26841328802173 86.9761
9.290785518039224 87.1556
9.313175554425882 88.5038
9.335565947154315 88.1936
9.357939245086508 88.5209
9.380330352834827 88.1489
9.40270436697103 88.4803
9.425096193225055 88.6704
9.447488380180165 89.4887
9.469863475295412 89.382
9.492256385987508 89.5434
9.514632206018318 90.4134
9.537025843935714 90.6906
9.559402392368193 91.807
9.581796761000229 92.9347
9.604191496441521 93.7648
9.626569144158516 94.7969
9.648964615551032 94.788
9.671343000390081 95.7984
9.693739211225699 96.7011
9.716135793237463 97.5601
9.738515290448102 98.7508
9.760912617143402 100.58200000000001
9.783292860202891 101.973
9.805690935076182 103.512
9.828089385495742 104.788
9.850470754023561 106.95200000000001
9.872869957865444 109.314
9.89525208097539 112.24600000000001
9.917652041736662 118.445
9.940052382417589 137.66299999999998
9.962435644102392 200.899
9.984836746950979 303.759
10.007220771957746 415.295
10.029622640473708 517.809
10.052007432299963 637.344
10.074410069984072 809.932
10.096813093716005 1079.72
10.119199042482517 1458.96
10.141602840636468 1780.93
10.163989564971628 1679.74
10.186394141051062 1122.79
10.208799107559706 551.648
10.231187001965623 253.045
10.253592751657669 149.295
10.275981430388155 124.34
10.298387966769793 117.73899999999999
10.320794897965431 115.23700000000001
10.343184759907361 112.963
10.36559248305461 111.921
10.387983138083852 115.509
10.410391656691655 131.703
10.432800574501677 159.41
10.455192425893369 186.88299999999998
10.47760214443012 212.28099999999998
10.499994797678786 239.101
10.522405320453982 284.08299999999997
10.54479877906917 356.56800000000004
10.567210109595656 448.426
10.5896218454736 533.896
10.612016518879773 532.2040000000001
10.634429067781074 415.61699999999996
10.656824555333241 248.31599999999997
10.679237920773568 151.602
10.701651695961992 107.92399999999999
10.724048411481384 95.8418
10.746463008485165 92.3378
10.768860546937125 90.4248
10.791275969274796 88.2345
10.81369180576079 86.6329
10.836090585366925 85.6296
10.858507252467449 84.0353
10.88090686379991 83.2338
10.903324365036394 82.1516
10.925724811614439 80.9934
10.948143150509463 80.8271
10.970561909719066 79.6952
10.992963615930844 79.0011
11.015383218085756 77.7913
11.037785768347074 76.8213
11.06020621697282 76.4132
11.082627090322113 75.7123
11.105030913430326 74.8024
11.12745263854165 74.2261
11.149857314510728 73.3486
11.172279894912576 73.6179
11.194702904450653 72.4087
11.217108866490921 71.773
11.239532736615194 71.1888
11.26193956033512 71.0267
11.284364294577085 70.5051
11.306789462371718 70.07600000000001
11.329197585398376 69.8962
11.351623622610898 70.1219
11.37403261614354 69.0853
11.396459526308487 69.1547
11.418869393879497 68.7059
11.441297180532617 68.0814
11.463725406927658 68.0119
11.486136592353875 67.6591
11.508565700543707 67.2528
11.530977768845315 67.2123
11.553407762368774 66.762
11.575838200059769 66.6552
11.598251599479612 66.5308
11.620682927815501 66.1379
11.64309721895548 66.6038
11.665529441478206 66.0988
11.687962112597958 66.1211
11.710377748130886 66.0836
11.732811318753434 65.7845
11.755227854859067 65.8226
11.777662328529495 65.7761
11.800079768750786 65.5902
11.822515149015453 65.3416
11.844950984084935 65.8459
11.867369787303163 65.6345
11.889806534289491 65.4715
11.912226250487029 65.8271
11.934663912939751 66.0511
11.9571020346363 66.4669
11.979523127133968 66.7557
12.001962169624331 68.5951
12.024384183972964 73.0019
12.046824150809913 80.0403
12.069264581333726 87.9066
12.091687985297767 94.3281
12.11412934550045 100.35600000000001
12.136553680195208 109.16799999999999
12.158995973632788 122.787
12.181438735204349 142.455
12.20386447284199 165.648
12.226308172985636 194.275
12.24873485024193 209.033
12.271179492516982 183.38
12.293607112949127 144.649
12.316052700916226 103.302
12.338498763250042 78.628
12.360927805303868 70.0015
12.383374818673879 67.9716
12.405804812803074 67.373
12.428252780773262 67.2404
12.45070122756722 67.5601
12.473132656675375 67.1935
12.49558206341869 67.2447
12.518014453510101 67.5504
12.540464823770117 67.5584
12.562915677315177 67.4339
12.58534951575545 67.993
12.607801338171472 67.7659
12.630236146511358 68.1424
12.652688941369085 68.8083
12.675124723177234 68.8746
12.697578494048786 69.6508
12.720032754458185 69.5803
12.742470003354093 70.2982
12.764925245138771 71.01100000000001
12.787363476431278 71.3969
12.809819703166806 71.7059
12.83227642391173 72.6763
12.854716135692716 73.0008
12.877173846755147 74.6075
12.899614549869717 74.7653
12.9220732548287 75.6698
12.94453245827299 76.5494
12.966974655289818 77.7078
12.989434858002571 78.55199999999999
13.011878055298721 79.725
13.034339260862497 81.0521
13.056800969391883 82.8418
13.079245674017244 86.3365
13.101708390774869 94.2529
13.12415410463411 111.079
13.146617833206086 130.816
13.169064559883248 147.014
13.191529303857127 160.362
13.213994557076367 174.847
13.236442809902437 197.69299999999998
13.258909083908291 230.801
13.28135835851934 270.685
13.30382565690295 323.89799999999997
13.326293469022952 386.57300000000004
13.348744283242008 421.05699999999996
13.371213125129904 393.185
13.39366497011003 309.507
13.416134845360597 209.554
13.438605238843131 149.2
13.46105863690397 129.422
13.483530069144786 133.439
13.505984506951902 143.235
13.528456981549432 153.224
13.550929978879088 161.741
13.573385983253365 175.05599999999998
13.595860028340867 197.613
13.618317081455832 227.268
13.64079217790333 265.482
13.663250283359057 311.095
13.685726434770173 354.596
13.708203115221277 354.666
13.730662806148091 306.7
13.75314054697177 225.69099999999997
13.775601299246777 154.938
13.798080104050406 110.78299999999999
13.820559442405358 92.6925
13.843021793671388 86.8938
13.865502201420897 84.6758
13.887965623051947 84.219
13.910447103807167 83.0074
13.932929122629764 81.4468
13.955394156785959 81.2144
13.977877254034569 80.1481
14.000343367582113 79.1424
14.022827546871707 78.51100000000001
14.045294743423524 77.6087
14.06778000837062 76.9818
14.090265817715476 76.639
14.112734645763819 76.3151
14.13522154619454 75.6219
14.157691466286913 75.3134
14.180179461423874 75.0281
14.202668005486178 74.5603
14.22513957064374 74.5182
14.247629214846473 74.2545
14.270101881097517 73.5721
14.29259262906496 73.4022
14.315083930490205 73.4606
14.337558255389705 73.2767
14.360050666019726 73.2706
14.382526101071944 72.7006
14.405019624534942 72.4792
14.427513705993134 72.4516
14.449990813291825 72.6662
14.47248601302899 72.3867
14.49496423954951 72.5601
14.517460561197822 72.4473
14.539939910570322 72.2959
14.562437357763558 72.7252
14.58493536931253 73.0409
14.607416409993311 72.9089
14.62991555254159 73.4014
14.652397725157423 73.4375
14.674898002342799 73.8527
14.697398848433282 74.6379
14.719882725991326 76.9832
14.74238471217934 81.2388
14.764869730765593 88.9655
14.787372860692983 95.1077
14.809876564079925 101.331
14.83236330125751 106.76799999999999
14.854868153850365 111.583
14.877356041159485 120.333
14.899862046604186 130.835
14.922351087688757 146.167
14.944858249632887 165.114
14.967365991421232 187.52
14.989856770231246 210.238
15.012365673994204 221.63400000000001
15.03485761569738 204.998
15.05736768508665 169.078
15.07987833888692 130.884
15.102372032001655 100.633
15.124883856909658 83.053
15.14737872204565 76.857
15.169891721717274 74.5618
15.192405310371893 73.7753
15.214901940621196 73.2246
15.237416709527137 72.5869
15.259914520936249 72.3547
15.282430473753607 71.5642
15.304947020131227 71.0976
15.327446610371178 70.4864
15.349964346154254 70.2381
15.372465126703139 70.0895
15.394984055556009 70.0025
15.417486030076159 69.8423
15.44000615566487 69.4398
15.462526881230803 69.5531
15.485030653812652 69.4657
15.507552581617434 69.3415
15.530057557334603 69.1798
15.55258069104857 69.4238
15.575104429329837 69.9453
15.597611216864632 69.7899
15.620136166564563 71.3599
15.6426441664095 75.3954
15.665170331202765 80.8425
15.687697105158826 85.9077
15.710206930593545 90.9514
15.732734925158933 94.6799
15.755245972089478 98.1579
15.77777519094324 103.655
15.800287463046663 111.694
15.822817909869592 122.598
15.84534897229804 136.15200000000002
15.867863089299354 153.87
15.890395385222186 172.572
15.912910736597423 189.773
15.935444269699861 193.454
15.957978423016485 173.83
15.980495633101265 142.911
16.003031029129367 110.759
16.02554948280019 85.4562
16.048086125229432 72.7924
16.070623392487107 67.8348
16.09314371869582 65.8779
16.11568223789321 64.5989
16.13820381691126 63.9147
16.160743591742527 63.4821
16.183283996022084 62.9734
16.205807461423195 62.3344
16.228349126881973 61.5404
16.25087385432698 61.6447
16.27341678466365 60.8681
16.29594277784926 60.7775
16.31848697676433 60.3067
16.341031811604868 59.7325
16.36355971058487 59.511
16.3861058195587 59.5078
16.40863499352978 58.7681
16.431182380342005 58.8068
16.453730407713202 58.6854
16.476261501364792 58.302
16.498810812136167 58.0881
16.52134319004079 58.2402
16.54389378792203 58.0817
16.566445031001553 57.9343
16.588979342490088 57.887
16.61153187824822 57.7132
16.634067483263312 57.416000000000004
16.656621315414416 57.3065
16.679175797408888 57.0634
16.701713349928728 57.1023
16.72426913389191 57.2225
16.74680798922351 57.1525
16.76936507887444 57.181000000000004
16.791905240734874 57.2075
16.814463639794468 57.1747
16.837022695210294 57.1056
16.859564824093756 57.1854
16.882125194503903 57.5455
16.904668639217885 57.5549
16.927230328348003 57.2663
16.949792678493612 57.6073
16.972338104193863 57.7064
16.994901778652235 57.8571
17.017448529496576 58.3215
17.040013531998152 59.4646
17.06257920018044 60.8582
17.0851279459922 61.8341
17.107694947817667 63.0515
17.130245028099072 63.8329
17.15281336730298 64.6583
17.17536478578733 65.509
17.19793446610687 67.095
17.220504818648422 68.7588
17.243058251703697 70.9109
17.265629950971032 73.9038
17.288184731571736 77.4302
17.310757781306908 82.1067
17.33333150794385 85.0642
17.355888317140174 85.9189
17.37846339986244 82.9401
17.401021565958885 77.0121
17.42359800851343 70.8348
17.44617513265564 66.8894
17.468735341390783 63.9769
17.491261035594565 62.4746
17.51396340099364 61.7996
17.536490463869136 62.0235
17.559018209820174 61.9687
17.58154663977963 62.1528
17.604251766089718 62.3487
17.626781572227713 62.5862
17.64931206518155 62.7834
17.671843245885103 63.0966
17.69455114821572 63.3311
17.717083712612634 63.6707
17.739616967569667 64.0284
17.762150914021706 64.497
17.78486160749854 65.1013
17.807396945166804 66.7132
17.829932977143503 69.2048
17.85246970436452 72.1735
17.875183204129467 75.3163
17.897721330097664 78.2826
17.920260154126645 80.4525
17.942799677153296 82.73299999999999
17.9655159983646 84.9603
17.988056927677544 88.462
18.010598558807683 93.3213
18.033140892692916 99.2796
18.05586005052525 106.56299999999999
18.07840379824407 115.652
18.10094825154059 127.495
18.12366954819864 138.895
18.146215420998306 145.99
18.16876200220057 144.14700000000002
18.191309292745153 133.445
18.214033452627167 117.991
18.236582170236648 102.98
18.259131600016456 93.57600000000001
18.281681742907335 89.7013
18.304408781233683 90.4403
18.32696035875955 93.2315
18.349512652227624 97.1231
18.372065662579683 102.704
18.394795594587553 106.53
18.41735004715306 106.15799999999999
18.43990521943684 101.72200000000001
18.46246111238171 93.2991
18.485193953325208 83.24700000000001
18.507751296070428 75.1716
18.530309362314178 69.8724
18.552868153000343 66.9863
18.57560391815056 65.5405
18.59816416623245 64.8768
18.620725141597372 64.4047
18.643286845190268 63.9821
18.666025549835414 63.5138
18.688588718427933 62.6951
18.711152618092243 62.526
18.73389353884365 62.4145
18.75645890921984 62.1671
18.77902501351406 61.5615
18.801591852673102 61.6229
18.824335739722738 60.8512
18.846904057212626 61.0463
18.8694731124168 60.5434
18.89204290628315 60.4473
18.914789774966803 60.4926
18.937361054791623 60.0795
18.959933076131318 59.7611
18.982505839934877 59.9073
19.00525570560582 59.727
19.027829963004184 59.713
19.05040496572238 59.8099
19.072980714710468 60.4366
19.095733592739563 60.8137
19.11831084296757 61.1603
19.140888842324735 61.9283
19.16346759176222 62.0633
19.18622349753803 62.4599
19.208803755869358 62.8933
19.231384767143577 63.6536
19.253966532312948 64.8938
19.276725481241822 65.9828
19.29930876296784 67.2465
19.3218928014549 69.2206
19.34465404436217 71.61399999999999
19.36723960516257 74.0041
19.389825925592426 76.1047
19.412413006605938 77.0478
19.43517731967805 75.7739
19.457765930683355 72.5549
19.48035530514408 68.1207
19.50294544401556 63.7649
19.525712842708348 60.3693
19.54830451925909 58.2441
19.570896963095727 56.9421
19.593490175174704 56.5507
19.616260674962184 56.4833
19.638855432416964 56.2971
19.661450960992624 56.5007
19.68404726164677 56.2375
19.706820878021247 55.9361
19.729418731756834 56.2463
19.752017360452857 56.1024
19.77461676506804 56.6756
19.797393513540218 57.1235
19.819994478951667 57.7606
19.84259622316767 58.3131
19.8651987471481 58.6587
19.887978643247177 58.732
19.91058273574792 59.0029
19.933187610901943 59.4989
19.955969879466828 60.4593
19.97857632894404 61.4196
20.00118356396599 62.4599
20.023791585494575 64.1786
20.046577028914875 66.4232
20.069186632506966 68.4163
20.091797025500632 70.6872
20.114408208858933 72.4596
20.137196842715273 73.78
20.159809615886765 72.8791
20.18242318232135 70.4476
20.20503754298326 67.8325
20.227829382875154 65.5765
20.250445341109344 64.3439
20.27306209647285 63.8316
20.29567964993108 64.5037
20.31847471147704 65.5017
20.34109387027612 66.7551
20.363713830075454 67.6531
20.386334591841646 67.415
20.409132890679302 65.2375
20.431755265564437 62.1353
20.454378445325528 59.2267
20.477002430930366 56.9031
20.499803982716553 55.0365
20.522429589228004 53.5888
20.54505600449589 53.0457
20.567683229489194 53.0052
20.590488049900088 52.7982
20.61311690359731 52.6062
20.63574656993626 52.4793
20.658553853717297 52.0784
20.681185154618298 52.0077
20.703817271080066 51.9255
20.72645020407368 51.6454
20.749260783967177 51.5238
20.771895359337133 51.3347
20.794530754161617 51.3542
20.817166969412938 51.3646
20.83998086114876 51.2634
20.86261872660049 51.199
20.885257415405402 51.1351
20.90789692853701 50.9902
20.930714147864748 51.2249
20.953355319030678 51.2084
20.97599731745334 51.3387
20.99864014410749 51.3555
21.021460706796564 51.2212
21.044105199328826 51.3307
21.06675052302631 51.4601
21.089396678865015 51.6167
21.112220600704806 51.9189
21.134868430275347 52.0951
21.15751709492456 52.1807
21.180166595629693 52.1084
21.202993892429635 52.5788
21.22564507473034 53.13
21.24829709602816 53.4578
21.27112693608965 53.6874
21.293780644891275 53.9552
21.316435195634053 53.5064
21.339090589297417 52.8396
21.361923832041875 52.2699
21.384580921090404 51.6032
21.407238856007325 50.9576
21.429897637773326 50.8853
21.45273429906592 50.8443
21.475394784108598 50.9165
21.498056118951983 50.91
21.520718304578022 51.1717
21.543558400304388 51.4159
21.566222297108816 51.8416
21.58888704765135 52.3418
21.61155265291521 52.6964
21.63439619898156 53.2286
21.657063523335786 53.5372
21.67973170537063 53.9193
21.7024007460706 54.3677
21.72524775840385 54.7832
21.747918526116475 55.5025
21.770590155457388 56.5328
21.79326264741238 57.4782
21.816113141960237 58.8209
21.838787368860547 60.2196
21.861462461341976 61.6664
21.884315579735777 63.4448
21.90699241312273 65.1593
21.92967011506078 66.7608
21.95234868653799 67.3784
21.9752053151131 66.8457
21.997885635446785 65.2179
22.020566828293532 63.1255
22.04324889464272 60.6014
22.066109049404666 58.673
22.088792872571794 57.7324
22.111477572219204 57.6588
22.1341631493376 57.9306
22.157026846313123 58.4347
22.179714188221507 58.2225
22.202402410582668 57.3241
22.22509151438863 55.9041
22.24795876962584 54.571999999999996
22.270649646204486 53.3657
22.293341407213727 52.5284
22.316034053646906 51.7306
22.338904883215342 51.4259
22.36159931041458 51.3002
22.38429462602756 51.2128
22.40699083104897 51.0117
22.429865251039757 51.0049
22.452563244831367 50.9553
22.47526213102522 51.1298
22.49813925616515 50.8259
22.520839937143307 50.8873
22.543541513520587 50.846000000000004
22.56624398629403 50.8795
22.589124730075895 50.9378
22.611829005656723 51.4238
22.63453418063466 51.4439
22.657240256008077 51.9538
22.680124634582935 52.1745
22.70283252079775 52.4517
22.725541310413075 52.632
22.74825100442868 52.7646
22.771139033969575 53.2051
22.79385054687155 53.1326
22.81656296718292 53.4927
22.83927629590484 54.223
22.862167992606945 54.7757
22.88488314827121 55.4608
22.907599215359284 56.1244
22.93031619487366 57.1562
22.953211574954405 58.1668
22.975930389478226 59.1477
22.998650119445763 60.0085
23.02137076586092 59.8505
23.044269845560063 59.1728
23.06699233506288 57.9637
23.089715744034912 56.2206
23.112617610931565 54.3496
23.135342869061212 52.8712
23.158069049684816 52.0273
23.1807961538087 51.4275
23.20370174880544 51.4195
23.226430710184808 51.7167
23.249160598093425 51.8495
23.271891413539002 51.8934
23.294800752937697 52.0723
23.31753343374794 52.3333
23.340267045128353 52.3929
23.36300158808808 52.5201
23.38591468821339 52.54600000000001
23.408651104658304 53.0518
23.431388455719986 53.3632
23.454126742409 53.7101
23.4770436196085 54.1755
23.499783787914662 55.0875
23.522524894889884 55.5746
23.54526694154616 56.5006
23.56818761219047 57.7033
23.59093154860734 58.6165
23.613676427751283 59.6907
23.636422250635754 59.5958
23.659346731118656 58.6185
23.68209445191868 57.1111
23.704843119509587 55.0885
23.72759273490623 52.7792
23.750521041644767 51.2189
23.77327256312355 49.923
23.796025035462787 48.9514
23.818956224555475 48.3101
23.841710609113413 48.2732
23.86446594758979 48.0609
23.887222241002014 47.6333
23.910157285144578 47.2072
23.932915498962537 47.3054
23.955674670778713 47.3298
23.978434801611975 47.1357
24.001373717286125 46.9248
24.024135776723917 46.6633
24.046898798245582 46.5967
24.06966278287146 46.5124
24.092605586582614 46.2913
24.115371508023642 46.196000000000005
24.1381383956401 46.101000000000006
24.16090625045381 46.0478
24.183852958731244 46.0176
24.206622758582608 45.9017
24.229393528706886 45.6258
24.252165270127392 45.7183
24.27511589952438 45.6539
24.297889594216997 45.5702
24.32066426328598 45.3274
24.34343990775613 45.3383
24.36639447485003 45.218999999999994
24.38917208083877 45.1636
24.41195066531332 45.1279
24.43490819850244 45.1296
24.457688750692377 44.9626
24.48047028445616 44.8684
24.503252800821233 45.0698
24.526214300784112 45.1206
24.548998793132213 45.0423
24.57178427117417 44.9712
24.59457073593893 45.0063
24.617536219319863 44.9783
24.64032466834748 45.08
24.663114107195035 44.8339
24.685904536893013 44.576
24.708874020360852 44.5036
24.731666442613744 44.4201
24.754459858818787 44.4133
24.777254270007962 44.2789
24.80022777025625 44.247
24.82302418230472 44.4122
24.845821592443674 44.3645
24.86862000170663 44.3374
24.891597535453727 44.0029
24.914397953892728 44.5298
24.93719937456671 44.4325
24.96000179851076 44.6908
24.98298338249997 44.7886
25.00578782394922 45.0149
25.028593271784167 44.9994
25.05157790644186 45.2547
25.07438537804115 45.3654
25.097193859145293 45.5126
25.120003350792075 45.5794
25.142992065061257 45.9499
25.165803588823465 46.2525
25.18861612625217 46.4514
25.211429678386736 46.6951
25.234422489079968 46.5916
25.257238081693636 46.5435
25.280054692141732 46.5784
25.3028723214652 46.343
25.325869245420463 46.5194
25.348688923599397 46.6066
25.371509623787006 46.6235
25.394331347025812 46.7027
25.41733240110666 46.4293
25.440156181590016 45.9002
25.46298098826268 45.4595
25.48580682216873 44.6705
25.50881202326435 43.9565
25.53163992281684 43.5542
25.55446885274561 43.2927
25.577298814096377 42.9399
25.600308179121807 42.7615
25.623140214533745 42.9201
25.64597328451537 42.7222
25.66898578564376 42.5028
25.691820936010206 42.5868
25.714657124097695 42.515
25.737494350954734 42.6125
25.760511045684957 42.5512
25.783350361364224 42.5869
25.806190718969255 42.5038
25.82903211955018 42.4861
25.852053024868923 42.5339
25.874896522722523 42.3862
25.897741066713106 42.5061
25.920586657892454 42.5768
25.943611790812668 42.7111
25.966459487728237 42.66
25.989308234998564 42.653999999999996
26.01215803367705 43.0455
26.03518741123814 43.07
26.05803932412957 43.2453
26.080892291600094 43.1659
26.10374631470478 43.2337
26.12677995397268 43.5195
26.14963609978026 43.5572
26.172493304397875 43.4598
26.19535156888223 43.2735
26.218389486949604 42.9805
26.241249882640123 42.7349
26.26411134137826 42.4495
26.28715248187403 42.3569
26.31001607820869 42.17
26.3328807407756 41.9885
26.35574647063438 42.0763
26.37879191991473 42.0615
26.401659795896734 42.0298
26.424528742360263 42.2706
26.447398760366614 42.5186
26.470448535598294 42.4792
26.49332070826805 42.5793
26.516193955675355 42.7421
26.53906827888316 42.8354
26.562122397260108 42.9406
26.584998883685063 43.2191
26.607876449110325 43.4775
26.63075509460056 43.746
26.65381357334404 43.9609
26.67669439061878 43.9231
26.699576291163382 43.9231
26.722459276044212 43.83
26.745522132402975 43.6505
26.768407297649354 43.5046
26.791293550442003 43.1681
26.814180891848974 42.9052
26.837248143099337 42.5149
26.860137673466657 42.3738
26.88302829566349 42.0126
26.90592001075963 41.9206
26.92899167420566 41.8778
26.951885586870763 41.4373
26.974780595655517 41.1184
26.99785558178161 41.0889
27.020752794605112 40.9322
27.043651106772522 40.7151
27.06655051935668 40.7188
27.089629948036183 40.6107
27.112531573292053 40.5821
27.135434302194138 40.5226
27.158338135817015 40.4608
27.181422024430987 40.4101
27.204328079372566 40.3424
27.22723524226965 40.4623
27.250143514198573 40.4647
27.273231880156334 40.3333
27.296142382065014 40.3379
27.319053996245536 40.1198
27.341966723775965 40.1647
27.365059584515222 40.2528
27.38797455070062 40.2649
27.410890633481237 40.0734
27.433807833936918 40.1178
27.456905206923906 40.2573
27.47982465472398 40.2818
27.502745223449743 40.2028
27.525666914182825 40.4505
27.548768816912457 40.3529
27.571692763693633 40.3714
27.59461783573812 40.2865
27.617723149491244 40.2098
27.640650484125285 40.1409
27.66357894728264 40.0391
27.686508540048052 39.9055
27.709618414237887 39.9822
27.732550278321757 39.676
27.755483275279115 39.6864
27.778417406196485 39.7703
27.801531858397514 39.8234
27.824468269376716 39.6028
27.847405817586786 39.6368
27.870344504116094 39.7783
27.893463551932008 39.8012
27.916404527281053 39.9017
27.93934664422563 40.0301
27.962289903855886 39.9386
27.98541356491974 40.0642
28.00835912214229 40.2819
28.03130582533231 40.4708
28.054253675581805 40.6407
28.077381967556104 40.7459
28.100332124185126 40.7815
28.123283431160893 40.7133
28.146235889577238 40.6013
28.169368830154156 40.3541
28.192323603752033 40.1245
28.215279532083304 39.9166
28.238415973016764 39.8648
28.261374223145094 39.658
28.284333631303806 39.535
28.307294198589954 39.3202
28.330435319167677 38.9117
28.353398217078915 38.7076
28.376362277420153 38.3857
28.39932750129032 38.2071
28.422473319286713 38.1254
28.44544088262495 38.0985
28.468409612800283 37.9643
28.491379510913497 37.7261
28.51453004413313 37.6355
28.53750229057244 37.6156
28.56047570826344 37.5191
28.583450298308804 37.5896
28.606605564586562 37.3604
28.629582511831156 37.4096
28.65256063474956 37.2717
28.675539934446338 37.3991
28.698699951647605 37.2884
28.72168161743193 37.0874
28.74466446331978 37.1379
28.767648490417624 37.1102
28.790813276438353 37.0644
28.813799678527303 37.0673
28.836787265157085 36.9402
28.859955641890075 36.9897
28.882945610203045 37.0163
28.905936766392035 36.8693
28.928929111566863 36.8335
28.952102288520145 36.8663
28.975097024308607 36.7903
28.998092952423807 36.5605
29.021090073977508 36.7284
29.04426806913204 36.6006
29.067267590245258 36.2282
29.090268308143695 36.3516
29.11327022394099 36.1822
29.13645305530891 36.1494
29.159457379627167 35.8756
29.18246290519685 35.9382
29.20546963313352 35.9696
29.22865731875826 35.9385
29.25166646419296 35.9286
29.27467681535305 35.7341
29.29768837335608 35.7726
29.320880931312562 35.7783
29.34389491580634 35.7269
29.366910110507334 35.7204
29.38992651653503 35.6339
29.41312396492981 35.6052
29.436142806456754 35.569
29.45916286268059 35.6004
29.48236399319994 35.629
29.50538649169417 35.4042
29.528410208259935 35.3111
29.55143514402014 35.0491
29.574641196749695 34.9598
29.597668583816574 34.8618
29.6206971934585 34.5785
29.64372702680042 34.7314
29.666938019934474 34.5514
29.689970313635285 34.5501
29.713003834422636 34.4605
29.73603858342347 34.5078
29.759254535188578 34.3305
29.78229175361658 34.3182
29.80533020365064 34.4483
29.82836988641968 34.4435
29.85159081507472 34.2412
29.874632976355343 34.102
29.89767637376955 34.1471
29.920721008448314 34.1311
29.9439469322847 34.131
29.96699405457564 34.135
29.9900424175358 34.0866
30.013092022298157 34.0613
30.03632295963995 33.8982
30.059375061131373 34.0218
30.08242840783577 33.9783
30.105483000888153 33.9375
30.128718970092244 33.9134
30.151776069006917 33.8939
30.17483441768648 33.8716
30.198074175317235 33.9085
30.221135036724256 33.8954
30.24419715131772 33.8874
30.267260520236203 33.8073
30.290505341942243 33.858000000000004
30.313571232750228 33.825
30.336638381310948 33.8705
30.35970678876503 33.8053
30.38295669299435 33.678000000000004
30.40602763151657 33.6595
30.429099832366074 33.6054
30.452173296685572 33.5404
30.47542830191959 33.5583
30.498504306502497 33.4642
30.521581577995562 33.5739
30.544660117543582 33.5558
30.56792024229725 33.4492
30.59100133132069 33.4888
30.614083691845494 33.4105
30.637167325018545 33.5417
30.660432587840603 33.6403
30.683518779717886 33.5921
30.70660624769615 33.6543
30.729694992924372 33.7256
30.75296541239743 33.7032
30.77605672557558 33.606
30.799149319462742 33.6582
30.8224236211637 33.6106
30.845518789950724 33.3972
30.868615242910597 33.4292
30.891712981195973 33.1915
30.91499247215866 33.1736
30.938092794619365 33.0765
30.96119440587579 32.9657
30.984297307082752 32.9407
31.00758200598383 32.8265
31.030687500658694 32.7654
31.053794288760695 32.7005
31.076902371446767 32.6849
31.100192296997445 32.5768
31.12330298246119 32.5486
31.14641496599209 32.4299
31.169528248749216 32.4942
31.19282341969534 32.3857
31.215939314557186 32.4262
31.239056512134788 32.3567
31.262175013589378 32.2893
31.28547544871168 32.2478
31.30859657161541 32.1608
31.331719001892175 32.1978
31.35484274070538 32.2835
31.378148458819545 32.3969
31.401274828443725 32.2585
31.424402510106933 32.1912
31.447712205419993 32.2305
31.470842524931633 32.2376
31.493974159989783 32.2975
31.51710711176168 32.2831
31.54042212308802 32.2573
31.563557722100917 32.1547
31.586694641341655 32.0796
31.609832881979628 31.9325
31.63315322823208 31.9168
31.656294125521327 31.8134
31.679436347728515 31.7903
31.70257989602529 31.6629
31.725905596152327 31.6131
31.74905181052835 31.4437
31.772199354521323 31.5081
31.79534822930507 31.5009
31.818679302290967 31.4574
31.84183085259981 31.4644
31.864983737233473 31.5386
31.88813795736804 31.5424
31.911474422233013 31.4128
31.934631327356435 31.4498
31.9577895715215 31.4134
31.980949155906522 31.4475
32.004291031706956 31.2866
32.027453310562606 31.3608
32.05061693318573 31.1347
32.07396288236386 31.0928
32.09712920658542 31.1151
32.12029687812702 30.9779
32.14346589817093 30.905
32.166817291729984 30.8876
32.18998902288583 30.8147
32.21316210610336 30.7671
32.23633654256711 30.6514
32.259693399663725 30.6649
32.282870556771144 30.5449
32.30604907069099 30.5459
32.329228942610065 30.4954
32.35259128243769 30.3252
32.375773884550505 30.2905
32.398957848235646 30.3703
32.422143174682176 30.2431
32.445511016471215 30.1807
32.468699082679954 30.1046
32.49188851523011 29.9712
32.51507931531304 29.9029
32.538452678331 30.0522
32.56164622776311 29.8394
32.58484114831493 29.8671
32.60803744118015 29.7997
32.631416344731896 29.7638
32.654615396551876 29.7474
32.67781582427913 29.7281
32.701198898634416 29.6612
32.72440209253756 29.5044
32.747606665947124 29.6059
32.77081262006088 29.3937
32.79420126883317 29.4815
32.81740999876112 29.4476
32.840620112999424 29.4211
32.86383161274818 29.3197
32.88722585534586 29.2985
32.91044014056596 29.4308
32.933655814909734 29.3521
32.95687287957963 29.3928
32.98027273544904 29.2657
33.00349259526636 29.1713
33.026713849030116 29.1667
33.04993649794511 29.1126
33.073341986570746 29.0987
33.09656744032826 29.0294
33.11979429286444 29.0934
33.14302254538647 29.0504
33.166433686291185 28.9482
33.18966475336992 28.9175
33.212897224069096 28.9732
33.23613109959831 28.8717
33.259547912343415 28.7737
33.2827846121627 28.8198
33.306022720453775 28.7639
33.32926223842861 28.6665
33.352684742614166 28.6787
33.37592709463173 28.5962
33.399170859982064 28.5591
33.422597648419426 28.4053
33.44584425514446 28.3867
33.46909227885668 28.3517
33.4923417207723 28.2058
33.51577423505344 28.2895
33.539026528130385 28.2027
33.56228024307245 28.1184
33.585535381098246 28.0356
33.60897364093058 27.8985
33.63223163992385 27.9731
33.6554910656699 27.9003
33.678751919389796 27.9297
33.702195944520106 27.8144
33.72545966903325 27.7957
33.74872482519663 27.703000000000003
33.771991414233746 27.7482
33.79544122444841 27.6811
33.81871069412428 27.6038
33.84198160035767 27.6375
33.86525394437455 27.6215
33.88870955949969 27.4925
33.911984794020626 27.4433
33.93526147001624 27.4158
33.958539588715006 27.406
33.98200102861669 27.349
34.0052820477047 27.2508
34.02856451319451 27.2984
34.05203033759056 27.2564
34.07531571090147 27.2569
34.09860253431845 27.1435
34.121890809074316 27.0982
34.145362493118924 26.9976
34.16865368561615 26.9872
34.191946333164054 27.0026
34.21524043699793 27.0105
34.23871800066799 26.9421
34.26201503218366 26.8838
34.28531352370466 26.8977
34.30861347646881 26.7719
34.33209693978188 26.7041
34.3553998301885 26.6594
34.378704185565205 26.5111
34.402010007152356 26.5422
34.42549939016683 26.5733
34.44880815937748 26.4747
34.472118398533134 26.4181
34.49543010887669 26.5014
34.51892543169198 26.2715
34.54224009966052 26.2636
34.56555624255917 26.3194
34.58887386163339 26.2012
34.61237514439016 26.0851
34.6356957311114 26.066
34.65901779775809 26.0383
34.68252356662995 26.0912
34.705848608458616 26.0547
34.72917513396849 26.0202
34.75250314440949 25.9235
34.77601490857862 25.8798
34.799345904259795 25.8183
34.82267838863559 25.8842
34.846012362958525 25.7906
34.869530142679984 25.7291
34.89286711232212 25.6931
34.91620557568269 25.7264
34.93954553401677 25.6747
34.9630693495876 25.5333
34.986412313340814 25.6035
35.00975677584668 25.6299
35.033102738362956 25.5378
35.05663261012228 25.3827
35.0799815881786 25.4609
35.10333207003229 25.3128
35.12668405694369 25.4419
35.150220005273056 25.3889
35.17357501786656 25.4018
35.19693153931268 25.3136
35.220289570874385 25.2785
35.24383161619786 25.2679
35.267192683604904 25.3223
35.290555264930376 25.2053
35.314101899412165 25.1791
35.33746752422433 25.0156
35.36083466676374 25.0494
35.38420332829803 25.0481
35.407756095629054 25.0716
35.43112781085063 25.0411
35.45450104888391 25.0103
35.477875810999194 25.0105
35.50143473172161 24.9125
35.52481255774625 24.9217
35.54819191167777 24.8678
35.57157279478914 24.7619
35.595137889488406 24.7764
35.61852184675279 24.7548
35.641907337029984 24.7633
35.665294361595684 24.6449
35.68886565090076 24.5711
35.7122557598848 24.5199
35.73564740699838 24.5912
35.759040593519934 24.5398
35.78261809810353 24.5364
35.80601437933051 24.3843
35.829412203814705 24.4376
35.85281157283719 24.3212
35.876395313415884 24.3573
35.8997977874528 24.3461
35.92320180988546 24.2193
35.946790244133936 24.1425
35.97019737933222 24.1721
35.993606066789866 24.0961
36.01701630779276 24.1432
36.04061101440684 24.0772
36.06402437852291 24.0557
36.08743930005611 23.9926
36.1108557802951 23.9771
36.13445678011326 24.0015
36.15787639383515 23.9551
36.18129757014299 23.8369
36.20472031032821 23.7724
36.22832762423364 23.8562
36.25175350829375 23.7653
36.275180960119776 23.6421
36.298609981005924 23.714000000000002
36.32222362992669 23.7295
36.34565580510207 23.6336
36.36908955323448 23.6351
36.39252487562093 23.5156
36.416144880530226 23.4779
36.43958336764275 23.4078
36.463023432914625 23.3554
36.486465077645676 23.3085
36.51009145956204 23.4841
36.53353627947859 23.385
36.55698268276811 23.3602
36.58043067073321 23.3657
36.60406345072071 23.2466
36.62751462435344 23.2252
36.65096738658405 23.2123
36.67460498210655 23.113000000000003
36.69806093788647 23.1474
36.72151848619297 23.0254
36.744977628333636 23.0704
36.76862165890998 23.0131
36.79208400512205 23.0557
36.81554794910557 22.9918
36.83901349217101 22.9509
36.862663978991606 22.8107
36.88613273667352 22.7655
36.90960309738324 22.7682
36.933075062434064 22.695
36.95673202673572 22.6353
36.98020721697122 22.5959
37.003684015502365 22.586
37.027162423645365 22.534000000000002
37.050825886711465 22.564
37.07430753063053 22.4793
37.09779078812467 22.4161
37.121275660513014 22.3816
37.144945643673694 22.3577
37.16843376245278 22.3565
37.19192350009803 22.3249
37.215414857931435 22.287
37.239091382563885 22.1938
37.262585997426164 22.2227
37.28608223645736 22.2434
37.309763684451696 22.1666
37.33326318851098 22.0883
37.356764320726555 22.1146
37.380267082425526 22.134
37.40395510942588 21.9703
37.42746114683234 22.006999999999998
37.45096881771841 21.9233
37.474478123414166 21.9405
37.49817275092816 21.9163
37.52168534303452 21.9083
37.54519957395567 21.7735
37.568715445024665 21.7875
37.592416694607714 21.7112
37.61593586281424 21.7554
37.63945667518264 21.7657
37.66297913304891 21.680999999999997
37.68668702630454 21.6272
37.710212792059274 21.5415
37.733740207334854 21.5254
37.757269273470364 21.4857
37.780983832050374 21.5193
37.80451621684926 21.443
37.82805025654007 21.3378
37.851585952464795 21.3995
37.8753071980695 21.3367
37.89884622345676 21.3201
37.92238690911902 21.3198
37.94611318753442 21.2054
37.969657210779765 21.2034
37.99320289834801 21.1956
38.016750251586465 21.1632
38.04048325513017 21.0579
38.06403395679343 21.0972
38.087586328183946 21.0437
38.11114037065203 21.035
38.13488012115898 21.0092
38.1584375229181 20.9812
38.181996599821 20.8859
38.205557353221124 20.8725
38.229303872575656 20.8395
38.2528679961576 20.7898
38.27643380031219 20.7992
38.30000128639589 20.7262
38.32375459653193 20.685
38.34732546371299 20.6932
38.37089801690786 20.6846
38.39447225747609 20.5575
38.418232380377425 20.5357
38.441810012983396 20.5085
38.46538933705673 20.4759
38.488970353960084 20.4351
38.51273731166058 20.4303
38.536321731567014 20.3893
38.55990784840681 20.3787
38.58367995004091 20.3215
38.60726947812959 20.2897
38.63086070726198 20.3073
38.654453638806274 20.2893
38.678232613930824 20.2008
38.70182896773327 20.1008
38.72542702806741 20.1222
38.7490267963045 20.121
38.77281266709232 20.0644
38.79641586862214 20.0436
38.8200207821842 20.0113
38.843627409152944 19.9752
38.86742019782782 19.9134
38.891030269149255 19.874000000000002
38.914642058016156 19.9189
38.938255565806124 19.8182
38.96205529464307 19.8037
38.98567225787121 19.7542
39.00929094417078 19.7663
39.03291135492255 19.7468
39.05671804624804 19.743
39.080341923549106 19.6595
39.103967529460334 19.6553
39.127594865365744 19.5768
39.15140854155791 19.6163
39.17503935514948 19.549
39.19867190290282 19.5227
39.22249083587951 19.4954
39.24612686969409 19.5084
39.269764641845306 19.4223
39.293404153722804 19.4349
39.317230110864074 19.3444
39.34087311998506 19.2725
39.36451787301696 19.2934
39.388164371352595 19.2262
39.41199737518003 19.1892
39.43564738196752 19.1668
39.45929913825317 19.1293
39.48295264543308 19.144000000000002
39.506792718520884 19.0731
39.530449745387216 19.0789
39.55410852735203 19.0852
39.57776906581474 19.1097
39.60161623079 18.9773
39.625280300200025 18.9647
39.64894613032202 18.9356
39.67261372255866 18.8774
39.6964680021016 18.8625
39.72013913657293 18.8146
39.74381203738292 18.8576
39.76748670593756 18.8302
39.79134812278169 18.784000000000002
39.81502634488497 18.7103
39.83870633896685 18.6795
39.862388106436654 18.6081
39.88625668336918 18.6204
39.90994201572829 18.5994
39.933629125719285 18.5812
39.957503091207826 18.521
39.9811937746168 18.5426
40.00488623990914 18.5308
40.02858048850006 18.4386
40.05246165409549 18.3723
40.076159487492085 18.4042
40.099859108448875 18.428
40.123560518384345 18.3737
40.1474489070226 18.3132
40.171153913178564 18.283
40.194860712584955 18.2608
40.2185693066637 18.1811
40.242464941335314 18.1886
40.26617714307655 18.1758
40.289891143772046 18.1692
40.3136069448471 18.0631
40.33750984859743 18.0731
40.3612292688043 18.0287
40.3849504936829 18.0082
40.40867352466194 18.02
40.43258372059144 17.9429
40.45631038219906 17.9252
40.48003885420956 17.8894
40.503769138055105 17.8388
40.52768664931955 17.903
40.55142057531802 17.8365
40.57515631746428 17.7594
40.599079334038514 17.7494
40.62281872700477 17.699
40.64655994043941 17.702
40.67030297578061 17.6898
40.69423334835778 17.6246
40.71798004609188 17.608
40.74172857006355 17.5588
40.76547892171441 17.5843
40.7894166736039 17.5658
40.813170699248566 17.5397
40.83692655691388 17.517
40.86068424804498 17.5248
40.884629402612525 17.4689
40.908390779366385 17.4387
40.932153993938 17.3616
40.95591904777605 17.2961
40.979871628443995 17.2987
41.003640379561936 17.3216
41.02741097430883 17.3253
41.05118341413683 17.3079
41.075143444384416 17.2613
41.098919593177826 17.1798
41.1226975914255 17.2435
41.14647744058318 17.1202
41.170444943946755 17.0658
41.19422851378379 17.0885
41.218013938914645 17.026
41.24198706625173 17.0003
41.26577622087193 16.9442
41.289567235177785 16.9377
41.31336011063129 16.919
41.337340752422875 16.8743
41.361137369129835 16.8097
41.38493585138705 16.7987
41.40873620066004 16.7785
41.43272438060107 16.7484
41.45652848292052 16.7004
41.48033445666918 16.6946
41.50414230331616 16.7069
41.528138045159764 16.6778
41.551949656675205 16.5908
41.575763145513235 16.6155
41.59957851314666 16.5435
41.62358184070442 16.5252
41.64740098505737 16.534000000000002
41.6712220126409 16.4796
41.69504492493139 16.4393
41.71905586207357 16.428
41.74288256296395 16.379
41.766711153007456 16.3659
41.79054163368412 16.3376
41.814560204340054 16.3525
41.838394485526365 16.3384
41.86223066180303 16.2712
41.88625497706819 16.1846
41.910094962812 16.1808
41.93393684811168 16.1625
41.95778063445365 16.0615
41.981812625263366 16.0824
42.00566023303407 16.046
42.029509746323676 16.0595
42.05336116662236 16.0412
42.077400857069705 16.0088
42.10125611078846 16.0181
42.12511327600405 15.9633
42.14897235421036 15.9012
42.173019768448455 15.9611
42.19688269209613 15.8627
42.22074753323349 15.8952
42.24461429335818 15.8714
42.268669455600495 15.7795
42.292540073217886 15.8238
42.31641261433284 15.7747
42.34028708044675 15.7538
42.36435001496739 15.7161
42.38822835065557 15.6821
42.41210861586426 15.657
42.4359908120986 15.6154
42.46006154323262 15.5899
42.48394762115317 15.5828
42.507835634632315 15.5599
42.531912233047436 15.5545
42.55580413732265 15.5306
42.579697981698 15.5153
42.60359376768525 15.3812
42.62767820545945 15.4206
42.65157789440821 15.3971
42.67547952952185 15.3934
42.699383112316 15.354000000000001
42.72347541395347 15.2248
42.74738291190531 15.255999999999998
42.771292362102166 15.2479
42.795203766063516 15.2477
42.819303956130405 15.2036
42.843219287476536 15.198
42.86713657716324 15.1635
42.89105582671383 15.1385
42.91516392983864 15.0856
42.939087119032166 15.0569
42.963012272677304 15.0348
42.98693939230129 14.9792
43.01105543317513 14.9843
43.034986504731386 14.9704
43.05891954686589 14.9537
43.08285456110972 14.9333
43.10697856448665 14.9385
43.130917542983475 14.8247
43.15485849820081 14.8305
43.17880143167367 14.8362
43.20293342237094 14.7964
43.226880332449 14.734000000000002
43.25082922540554 14.7087
43.27496722682525 14.6971
43.29892010567796 14.725
43.32287497204102 14.725999999999999
43.34683182745632 14.6166
43.370977859791836 14.6294
43.39493871351105 14.593
43.41890156092628 14.5723
43.44286640358341 14.5574
43.46702049182749 14.574000000000002
43.49098934522816 14.4888
43.51496019852649 14.404000000000002
43.5389330532723 14.4586
43.56309522248204 14.3952
43.58707210044314 14.4421
43.61105098451946 14.3234
43.63503187626491 14.362
43.659202151562134 14.3068
43.68318707902681 14.3255
43.70717401884041 14.2792
43.731162972560874 14.1963
43.75534137913236 14.1863
43.779334381108384 14.1712
43.803329401683186 14.1923
43.82732644241872 14.1752
43.8515130055166 14.1671
43.87551410707659 14.0343
43.89951723350145 14.085
43.923709934595614 14.0508
43.94771713129917 14.0436
43.97172635758096 13.9928
43.99573761501002 14.0415
44.0199385169922 13.9547
44.04395385732619 13.9427
44.067971233533086 13.8904
44.09199064718605 13.8836
44.11619977548961 13.8119
44.14022328470671 13.8121
44.16424883610785 13.8507
44.18827643127035 13.7859
44.21249381139513 13.7583
44.236525514814076 13.7346
44.26055926674478 13.7137
44.28459506876863 13.7097
44.3088207262813 13.6736
44.33286064928722 13.6287
44.35690262714919 13.5889
44.38094666145278 13.5872
44.4051806219871 13.5823
44.42922879003185 13.5649
44.45327901929361 13.4822
44.477331311362136 13.4545
44.501573600619416 13.4938
44.525630039221795 13.4363
44.54968854541895 13.4319
44.573937102200176 13.4238
44.5979997645541 13.3675
44.622064499300315 13.3671
44.64613130803592 13.3115
44.67038823869318 13.3585
44.69445921643748 13.2967
44.718532272981385 13.2306
44.742607409926194 13.173
44.76687274034801 13.2194
44.79095205918753 13.1648
44.81503346325094 13.1567
44.839116954143876 13.1493
44.86339071028742 13.1274
44.88747839599524 13.0567
44.91156817336837 13.0808
44.93566004401666 13.0321
44.959942251908146 13.0458
44.984038330325966 13.0076
45.00813650686762 12.9945
45.03223678314731 12.9931
45.05652746888232 12.9039
45.08063196592069 12.9416
45.104738567558705 12.9183
45.128847275414856 12.8664
45.15314646515866 12.7753
45.17725940679741 12.8141
45.20137445952892 12.8113
45.22568004865265 12.7898
45.24979934496396 12.7491
45.27392075725247 12.7282
45.29804428714431 12.7282
45.322358426247604 12.7186
45.346486212804315 12.6432
45.370616121861914 12.6221
45.39474815505086 12.6247
45.41907087049246 12.5549
45.4432071734666 12.5395
45.46734560548283 12.5729
45.49148616817604 12.5257
45.51581748638564 12.4856
45.5399623320197 12.5423
45.56410931325473 12.4735
45.58825843173002 12.4557
45.61259837920865 12.4332
45.636751793816 12.3969
45.66090735060093 12.3568
45.68506505120716 12.3456
45.7094136545275 12.2905
45.73357566449271 12.3006
45.75773982322992 12.2818
45.78190613238733 12.2784
45.806263418194064 12.2289
45.83043404997326 12.2369
45.85460683713677 12.1926
45.87897065658495 12.1744
45.90314777634752 12.1459
45.92732705646868 12.1228
45.9515084986045 12.1096
45.97588104735473 12.094000000000001
46.00006683541565 12.0745
46.02425479047904 12.0445
46.04844491420549 12.029000000000002
46.0728262191024 11.993
46.09702070211635 11.9569
46.12121735879483 11.9822
46.14541619080294 11.9644
46.169806278764455 11.9047
46.194009483459034 11.9032
46.21821486849841 11.8287
46.24242243555223 11.8183
46.266821333570014 11.847999999999999
46.29103328674601 11.8389
46.31524742696538 11.8215
46.33946375590237 11.7819
46.36387149104216 11.7447
46.38809221957392 11.6741
46.41231514186606 11.6878
46.436540259597464 11.6808
46.460956858999374 11.6985
46.48518638983522 11.6365
46.509418121166966 11.6298
46.533652054678114 11.5742
46.55807754555709 11.5751
46.58231590571962 11.5679
46.60655647313217 11.5476
46.630988654873654 11.5589
46.655233659129024 11.4845
46.67948087571551 11.4386
46.70373030632484 11.4151
46.72817142736393 11.4299
46.752425308428684 11.3672
46.77668140861147 11.372
46.80093972960865 11.3829
46.82538981736788 11.2939
46.849652602470904 11.2566
46.87391761349769 11.2524
46.8981848521493 11.2726
46.9226439341274 11.2556
46.946915650573224 11.1833
46.97118959976749 11.1992
46.99546578341598 11.1695
47.019933887188216 11.155
47.04421456235744 11.1065
47.06849747711879 11.1329
47.09278263318286 11.1121
47.11725978640143 11.0587
47.14154944775105 11.0423
47.165841355555656 10.9892
47.1901355115306 11.0161
47.214621741924994 10.9961
47.23892041698887 10.9937
47.26322134538975 10.9487
47.28771440635075 10.8817
47.31201986422527 10.9288
47.33632758061436 10.8827
47.360637557241866 10.8913
47.38513974410611 10.883
47.40945426407847 10.85
47.43377104948137 10.8286
47.45809010204344 10.8006
47.48260144275502 10.7767
47.506925052572285 10.7368
47.53125093475548 10.7202
47.55557909103813 10.6976
47.58009961361992 10.7031
47.60443234110732 10.6843
47.62876734791564 10.6529
47.65310463578333 10.6147
47.6776343683373 10.6029
47.7019762413987 10.5682
47.72632040075572 10.5526
47.75066684815169 10.5545
47.77520581885936 10.5247
47.799556865477655 10.5364
47.823910205386 10.5271
47.84826584033272 10.4845
47.87281407745551 10.436
47.89717432569297 10.4458
47.92153687423484 10.4347
47.94609208429692 10.4054
47.97045925671401 10.3645
47.99482873471275 10.3761
48.01920052005013 10.3764
48.04376504619224 10.3391
48.068141469543484 10.3712
48.09252020552573 10.3095
48.11690125590099 10.2972
48.1414751266064 10.2482
48.16586082917454 10.2295
48.19024885144316 10.211
48.2146391951793 10.187000000000001
48.239222439012764 10.2212
48.26361744916137 10.1699
48.28801478610016 10.193999999999999
48.31241445160131 10.1522
48.337007097209366 10.1427
48.36141144338331 10.1037
48.38581812345755 10.0897
48.41022713920929 10.1141
48.434829215320704 10.0441
48.45924292604658 10.037
48.48365897780325 10.0308
48.50807737237308 9.97659
48.532688907799276 9.954419999999999
48.55711201168574 9.95708
48.581537463754074 9.92408
48.60615611725119 9.949530000000001
48.63058628942721 9.87161
48.65501881516546 9.86234
48.6794536962573 9.87418
48.70408185970339 9.81626
48.72852147531801 9.83203
48.75296345168211 9.78739
48.77740779059232 9.7931
48.80204549302823 9.798060000000001
48.82649458091802 9.76666
48.85094603676547 9.69909
48.87539986237231 9.68363
48.90004713292306 9.62927
48.92450572200832 9.64938
48.94896668628025 9.63562
48.97343002754588 9.67498
48.99808689542115 9.66849
49.02255501470614 9.62797
49.04702551642794 9.53537
49.0714984023988 9.54597
49.096164896893235 9.55226
49.120642575466796 9.56585
49.145122643748394 9.49349
49.16960510355558 9.48351
49.19428125404938 9.50775
49.2187685210852 9.48939
49.243258185121555 9.46989
49.26794160167084 9.44943
49.2924360839405 9.42817
49.31693296869764 9.372860000000001
49.34143225776915 9.34937
49.36612538195438 9.30408
49.39062950396021 9.334489999999999
49.41513603578346 9.35315
49.4396449792564 9.29979
49.46434784069503 9.28807
49.488861631846454 9.25956
49.513377840166804 9.22372
49.537896467493745 9.207180000000001
49.56260909589029 9.1902
49.587132585683285 9.2058
49.611658500018365 9.1871
49.636186840738596 9.15126
49.66090926588511 9.15178
49.685442483902584 9.1368
49.70997813385706 9.06725
49.734516217597076 9.08125
49.75924846937352 9.06043
49.7837914452858 9.051060000000001
49.80833686055187 9.00525
49.83288471702571 9.01702
49.85762682540054 9.02125
49.882179588965734 8.98479
49.9067347993235 8.95702
49.93129245833333 8.93548
49.95604445336378 8.92812
49.98060703442832 8.8827
50.005172069746266 8.8948
50.02993150438364 8.87777
50.05450147301533 8.84839
50.07907390151433 8.82289
50.10364879174981 8.82323
50.12841816587289 8.80415
50.1529980044635 8.79703
50.17758031042124 8.76039
50.20216508562089 8.74588
50.22694442953363 8.72813
50.25153416817468 8.73103
50.27612638170508 8.702
50.300721072005196 8.687660000000001
50.325510416102105 8.68035
50.350110084975064 8.6448
50.37471223628208 8.6689
50.39931687190919 8.62955
50.424116246675766 8.60561
50.44872587605249 8.58566
50.47333799543065 8.5534
50.49795260670191 8.55857
50.52276204271512 8.57307
50.54738166295838 8.51487
50.57200378079314 8.51719
50.596628398116835 8.51212
50.62144792604559 8.4859
50.646077567609396 8.44212
50.670709714377715 8.44673
50.69553683636198 8.4222
50.72017401885922 8.40044
50.7448137122895 8.371360000000001
50.76945591856022 8.40734
50.79429318636823 8.3976
50.818940443716784 8.355039999999999
50.84359021965163 8.33624
50.868242516085964 8.32254
50.893089960641895 8.30137
50.917747323549435 8.27705
50.94240721271973 8.26074
50.96706963007175 8.2284
50.99192728239342 8.224
51.01659478166073 8.23024
51.04126481489051 8.19645
51.06593738400761 8.1859
51.090805275207074 8.174669999999999
51.11548294172845 8.16757
51.14016314993547 8.13308
51.164845901758845 8.112039999999999
51.18972406304274 8.05705
51.21441192780656 8.03398
51.23910234200271 8.052810000000001
51.2637953075678 8.062999999999999
51.288683770237945 8.01637
51.31338186432707 8.03916
51.33808251561888 7.99218
51.362978729967345 7.98521
51.387684521509755 7.94565
51.41239287610203 8.00033
51.437103795691165 7.96628
51.46201036644977 7.90195
51.486726441956634 7.90623
51.51144508832545 7.87345
51.536166307509156 7.86601
51.56108326624387 7.84765
51.58580965706056 7.8139899999999995
51.61053862657523 7.81187
51.635270176746864 7.76547
51.66019755512065 7.7622800000000005
51.68493429268881 7.77527
51.70967361681515 7.81843
51.73441552946465 7.71289
51.759353359237934 7.68992
51.7841004750961 7.736330000000001
51.80885018539685 7.7097
51.833602492111254 7.685810000000001
51.8585508051424 7.66352
51.883308330926425 7.65175
51.90806845906181 7.58856
51.932831191525715 7.5540899999999995
51.95779001977161 7.582910000000001
51.98255798721516 7.587289999999999
52.00732856494335 7.54829
52.03229530577543 7.5524
52.057071130455945 7.54743
52.081849571391054 7.52925
52.106630630568695 7.51642
52.13160794279417 7.47772
52.15639426492067 7.49242
52.18118321127822 7.4744399999999995
52.205974783860896 7.453010000000001
52.23096269971011 7.4118699999999995
52.255759551287994 7.4142399999999995
52.280559035098186 7.40643
52.30536115314103 7.3505
52.33035970494467 7.3396
52.35516711807904 7.367189999999999
52.37997717147198 7.34035
52.40478986713005 7.3129
52.42979908731974 7.310980000000001
52.454617094216 7.300089999999999
52.47943774942214 7.24282
52.50426105495102 7.24633
52.529280976059844 7.20896
52.554109609024096 7.221080000000001
52.57894089837482 7.2298
52.60377484613117 7.20898
52.62880550079408 7.185739999999999
52.65364479223379 7.16373
52.67848674816189 7.145580000000001
52.70352547971946 7.133839999999999
52.72837279155837 7.11373
52.753222773982785 7.11176
52.778075429022984 7.09806
52.80312495150885 7.0621100000000006
52.827982978797436 7.073739999999999
52.85284368481815 7.058610000000001
52.87770707160767 7.0606100000000005
52.90276741793998 7.05138
52.92763619336701 7.016789999999999
52.952507655698504 6.992139999999999
52.977381806977576 6.97423
53.00245301017842 6.9762
53.02733256653592 6.98912
53.052214817996074 6.94525
53.077099766608484 6.930689999999999
53.102181859804446 6.93019
53.127072229988265 6.89233
53.15196530349892 6.897469999999999
53.17686108239249 6.83851
53.20195409881522 6.832000000000001
53.22685531582556 6.86267
53.25175924441303 6.8158199999999995
53.27666588664027 6.78908
53.30176985962693 6.75833
53.3266819565689 6.76691
53.35159677336455 6.748660000000001
53.376514312083096 6.743510000000001
53.40162927507703 6.739380000000001
53.42655228516116 6.719989999999999
53.45147802340193 6.66752
53.47660125628886 6.72392
53.50153247842639 6.66932
53.52646643496923 6.655530000000001
53.55140312799818 6.63598
53.576537409691696 6.62983
53.60147960336152 6.622319999999999
53.626424539786164 6.60377
53.65137222105307 6.543080000000001
53.67651758529126 6.5696
53.70147078399681 6.51621
53.72642673383343 6.53219
53.75138543689533 6.52779
53.776541917524526 6.52254
53.801506154876755 6.51157
53.826473151763246 6.485119999999999
53.851442910284916 6.46619
53.87661054126026 6.40952
53.9015858509782 6.4209
53.92656392866066 6.423830000000001
53.95154477641532 6.42359
53.976723591801296 6.38523
54.00171000771266 6.42968
54.02669920004598 6.37424
54.051691170915745 6.31082
54.076881204886796 6.31732
54.101878760928514 6.34307
54.12687910187696 6.3022800000000005
54.152077577768296 6.30888
54.1770835166946 6.25137
54.20209224691339 6.27532
54.22710377055121 6.2092
54.25231352511594 6.2094
54.27733066384342 6.20564
54.30235060239643 6.2302800000000005
54.32737334290836 6.18748
54.35259441062629 6.17021
54.377622783395324 6.11648
54.40265396455061 6.094180000000001
54.42768795623251 6.1333400000000005
54.45292037169559 6.10681
54.477960012857906 6.112080000000001
54.50300247099511 6.09764
54.52804774825457 6.04496
54.55329154616743 5.95303
54.57834249018678 5.947030000000001
54.6033962597977 5.93834
54.6284528571545 5.937880000000001
54.653708072335164 5.8777099999999995
54.67877035378786 5.84385
54.70383546947698 5.823169999999999
54.72890342156389 5.84117
54.7541700889442 5.78749
54.77924374251975 5.86526
54.8043202390049 5.83085
54.82959552413022 5.7454
54.8546777351945 5.7153599999999996
54.87976279569621 5.68529
54.90485070780914 5.72998
54.930137506558005 5.65294
54.95523115074295 5.67009
54.98032765308844 5.65792
55.005427015775496 5.64826
55.03072536339621 5.65836
55.05583047570572 5.56422
55.080938454927676 5.51551
55.10604930325027 5.60459
55.131359235107396 5.546119999999999
55.15647585066083 5.51005
55.181595341907496 5.466480000000001
55.20671771104285 5.46587
55.232039262617704 5.41235
55.25716741665048 5.3731800000000005
55.28229845518636 5.41354
55.30743238042802 5.356240000000001
55.33276558731939 5.32075
55.357905315183636 5.30478
55.383047936390035 5.27223
55.40819345314859 5.21864
55.433538351073295 5.23224
55.458689688238415 5.23326
55.483843927614096 5.18295
55.509197623043605 5.12557
55.53435769621134 5.1029
55.55952067826466 5.07711
55.5846865714265 5.0842
55.61005202069737 5.02433
55.63522376553902 5.03201
55.66039842818645 5.04654
55.68557601087004 5.01508
55.7109532500271 4.98802
55.73613670233794 5.00287
