TT I
1.2716486653135266 7.14467
1.2939594142134223 7.10248
1.3162702121660406 6.590330000000001
1.3385810600174564 6.0801
1.3608919586137629 6.30331
1.383202908801069 5.82585
1.405513911425503 5.76242
1.4278249673332093 6.45363
1.4501343378461518 5.79842
1.4724455028545926 5.745340000000001
1.4947567236847858 5.21592
1.517068001182951 5.638719999999999
1.5393793361953272 5.456180000000001
1.5616907295681737 4.97538
1.5840021821477681 5.17363
1.60631369478041 5.0809
1.6286252683124185 5.47516
1.6509369035901333 4.48807
1.6732468618895553 4.59122
1.695558623192809 4.0726
1.7178704487808514 4.4682900000000005
1.7401823395001077 4.55277
1.7625012545597203 4.56384
1.7848028405262486 4.78726
1.8071218901122095 3.94204
1.8294236121921872 4.01502
1.8517427996910911 4.09122
1.8740620574440425 4.52842
1.8963639900671978 4.83216
1.9186833908139995 4.27947
1.9409854680117449 4.47275
1.9633050151394713 4.97253
1.9856246367570705 3.75087
2.0079269371922672 4.21666
2.03024671027244 4.38241
2.0525491637446027 3.64313
2.074869091674931 3.46824
2.097171701569106 4.62451
2.1194917877373847 4.3722
2.141811954326636 4.31847
2.164114805233074 4.12563
2.186435135143035 4.40608
2.208738150935709 5.35184
2.231058647554722 6.5611
2.2533792288321184 6.7817
2.275682498336085 5.4913300000000005
2.298003251406138 5.38202
2.3203066942619714 5.396319999999999
2.3426276225136022 5.59664
2.3649486396617507 5.5429699999999995
2.387252348930071 6.11855
2.4095735463442893 5.901330000000001
2.4318774374315884 5.70729
2.4541988185014043 6.5741
2.476502894794693 7.26416
2.498824462909887 7.433210000000001
2.521146125856138 7.04485
2.5434504863470337 7.25052
2.5657723414244717 6.85464
2.588076895590662 7.795030000000001
2.610398946189713 8.61801
2.6327210958598384 8.546660000000001
2.6550259469304716 8.679960000000001
2.6773482972090137 9.29433
2.6996533504259 8.751380000000001
2.7219759047039602 8.879480000000001
2.744298562293959 8.74006
2.7666039251246595 7.980910000000001
2.7889267918020164 8.56408
2.8112323652516555 7.9062
2.833555444408179 8.55819
2.8558786311183852 8.165
2.8781845268938557 9.04391
2.9005079311721484 9.43132
2.9228140460410397 8.7546
2.9451376712799635 9.34627
2.967444008632326 9.52768
2.9897678582247247 9.97742
3.0120918213106695 10.6651
3.0343984987899373 11.064
3.0567226913198637 10.9155
3.079029599759726 11.5529
3.101354025127254 12.2368
3.123678568232338 13.4427
3.145985829517914 13.2528
3.16831061055229 13.8926
3.1906181112775593 14.5994
3.212943133635653 14.5043
3.2352682779763207 14.9773
3.2575761442691227 15.2183
3.2799015350264273 15.3349
3.302209649240067 15.4269
3.3245352898092655 16.0423
3.3468436553365257 17.0485
3.369169549113219 17.357
3.3914955708171384 17.9196
3.413804319727358 18.717
3.4361305997334863 18.4777
3.4584396084414553 19.2361
3.4807661501462652 19.4273
3.503092824025881 19.6845
3.5254022288463154 20.1352
3.5477291695206588 20.5614
3.5700388426251948 20.858
3.5923660534916446 21.2641
3.6146934007816114 23.1614
3.637003482731501 28.2943
3.6593311053109985 30.6976
3.681641464033634 26.8922
3.7039693653009733 24.1572
3.726297407241705 24.0329
3.7486081875460804 23.7221
3.7709365132734978 24.5559
3.793247578841633 24.8546
3.8155761917550093 25.7041
3.8378875459837216 25.5096
3.8602164494827234 26.0292
3.882545499606844 26.9621
3.9048572932539183 27.4853
3.9271866390645718 27.7929
3.9494987298666713 28.3128
3.971828374764527 28.8053
3.9941581705403255 28.9373
4.016470713506008 29.701
4.038800813471445 30.1725
4.061113662089144 30.7411
4.0834440696459176 31.6925
4.105774632334751 31.4411
4.128087945865126 31.9916
4.150418821249301 33.1467
4.172732448931298 33.867
4.195063640413578 34.3663
4.2173775856475215 35.3418
4.239709096631102 38.0426
4.262040768704612 52.9023
4.284355196706267 65.6375
4.306687193387355 57.441
4.329001947444346 44.4427
4.35133427213731 40.3311
4.373666762177566 40.3624
4.395982011761091 40.8234
4.418314834921175 41.6778
4.44063041906622 43.2897
4.4629635787515625 44.8648
4.4852969080429785 46.0877
4.5076130004776225 46.1761
4.529946671403969 46.5352
4.552263106909177 46.8283
4.574597122877047 48.1638
4.596931312711224 49.636
4.619248269273446 50.3013
4.6415828092605835 51.3959
4.663900117405352 52.2292
4.686235010953232 53.5809
4.708552674085913 55.0404
4.730887924602802 56.4276
4.753223354952695 57.336999999999996
4.775541557023902 58.4536
4.797877349456786 60.1831
4.820195915032126 62.4918
4.842532072957498 63.3902
4.864868414979744 65.7171
4.88718753227192 67.73899999999999
4.909524244902505 69.5133
4.931843734218147 70.958
4.954180820867835 73.1978
4.976518095879839 76.0696
4.998838149695359 78.6162
5.021175803844231 82.5093
5.043496238205739 84.891
5.065834274903528 89.0498
5.088172504230693 92.6156
5.1104935158799565 96.9902
5.132832132875765 104.602
5.155153533596801 116.50200000000001
5.1774925416746225 135.961
5.199814334878411 226.657
5.2221537374521505 751.1569999999999
5.244493338631803 2344.83
5.266815727034316 7026.15
5.289155727832427 13292.1
5.311478517248165 9743.33
5.333818921080011 3430.78
5.356159527788849 745.5360000000001
5.3784829252032536 232.942
5.400823940070432 150.972
5.423147747031976 125.238
5.445489173474152 113.895
5.467830807066149 107.96700000000001
5.490155234831516 104.34200000000001
5.512497285125229 100.449
5.534822130975162 98.5057
5.557164601388673 96.8534
5.579489868738879 93.8336
5.601832762690846 92.2972
5.6241758697774475 90.8355
5.646501775867269 90.4026
5.668845311622074 89.7361
5.691171647754637 89.2315
5.713515615597765 87.7376
5.735859800852677 86.9175
5.758186788542988 86.0497
5.780531411018185 86.2858
5.802858837297399 85.1767
5.825203900414495 85.5163
5.8475491852224 86.015
5.869877275883075 86.3966
5.892223006467101 87.3664
5.914551544266608 88.3454
5.936897724049891 89.8349
5.959244129804903 93.5112
5.981573344815301 104.8
6.0039202049061 157.795
6.026249875609095 366.29
6.04859719346037 822.862
6.070927323278297 1962.36
6.093275102315365 4345.79
6.115623113320588 5779.46
6.137953938319995 3502.56
6.160302415650845 1058.26
6.182633708324452 248.761
6.2049826554078376 110.535
6.227331838745022 86.9304
6.249663839443684 79.6653
6.27201349767565 75.5373
6.294345974611799 73.5267
6.316696111167083 72.6634
6.339046488263839 71.2599
6.361379686074702 68.2853
6.383730546639482 65.9063
6.406064229255215 64.2179
6.428415576718203 63.4942
6.450749747566656 62.7811
6.47310158535871 62.0644
6.495453669698332 61.1622
6.517788579421056 60.8535
6.540141159237969 59.9737
6.562476565766648 58.9209
6.5848296444934045 58.696999999999996
6.607182974060425 57.8631
6.6295191323281015 57.7851
6.651872965955752 56.937
6.6742096296068985 58.1908
6.6965639707294615 62.9099
6.71891856698715 64.2221
6.741255995248479 60.1002
6.763611104154477 56.4754
6.785949046381137 55.2311
6.808304671371482 54.146
6.8306605557940046 54.097
6.852999275508618 53.8108
6.875355681171544 53.3548
6.897694923437771 53.0317
6.92005185377892 52.6613
6.9423916220322655 52.6759
6.964749080490181 52.2522
6.987106804399774 52.0903
7.009447368180821 52.3188
7.031805625367033 51.826
7.054146723727803 51.8094
7.076505517631004 51.7256
7.098864581288365 52.0623
7.121206488070854 51.7744
7.143566093607822 51.2757
7.165908543567245 51.229
7.188268694426048 51.0713
7.2106291193438095 50.8912
7.232972390625943 51.0177
7.255333366030969 51.383
7.277677189091925 55.4823
7.300038718428332 62.1062
7.322400526130865 61.7047
7.344745183422596 56.228
7.367107550224791 52.2141
7.389452767901992 51.6072
7.411815697249891 51.5976
7.434161478756298 51.012
7.456524974096713 51.0958
7.478888753837185 51.3323
7.501235387657368 53.2274
7.523599738562711 61.3585
7.545946944825532 75.8891
7.568311870344528 82.2379
7.5906770845765665 70.9912
7.613025156078678 58.2451
7.635390950099687 53.9757
7.657739602662809 52.4041
7.680105979923558 52.5153
7.702472650212829 52.9329
7.724822180948224 52.6047
7.747189439655568 52.7011
7.769539560075357 52.815
7.791907410653562 53.4421
7.81425812420825 53.4235
7.836626570110925 53.4522
7.858995315087906 54.1854
7.881346924933401 54.485
7.903716270417482 54.7318
7.926068482028405 55.2945
7.948438431475253 56.0464
7.9708086843180235 56.5166
7.993161805171116 56.8047
8.015532667162402 57.1169
8.037886398416653 58.0867
8.060257873014221 58.3077
8.082629655331942 59.0941
8.104984308787587 59.7691
8.127356708900503 60.4141
8.149711981398308 61.7655
8.172085002766314 63.2001
8.194458336181368 63.1024
8.216814543847752 63.8162
8.23918850371002 64.8776
8.26154533906492 66.4245
8.283919928836452 67.498
8.306277395339652 68.3997
8.328652618483376 70.0452
8.351028159736202 71.577
8.373386579575245 73.2525
8.395762759396959 74.4001
8.418121819038275 76.7604
8.440498640894003 80.6678
8.462875785192262 85.52
8.485235811156207 92.9388
8.507613602688501 125.09299999999999
8.529974277114228 217.84599999999998
8.552352719347912 343.721
8.574731488360351 581.382
8.59709314210385 1055.76
8.619472567021075 1820.65
8.64183487789147 2279.69
8.664214962183097 2012.0
8.686577933647762 1104.35
8.708958680784317 436.75699999999995
8.731339760774953 182.222
8.753703729764451 110.515
8.77608547780821 94.7077
8.798450116065078 90.5871
8.820832535634787 87.6182
8.843215292401656 85.6288
8.865580941199045 84.5463
8.887964374703538 83.7416
8.910330701447199 83.3824
8.932714815164482 82.6701
8.955099270424924 81.5396
8.977466620733543 81.1765
8.999851761421976 80.1512
9.022219798361645 79.6102
9.04460562795561 79.3802
9.066991803441677 79.0266
9.089360876979615 78.6312
9.111747746589993 79.1162
9.13411751544971 78.6004
9.156505082664324 78.7926
9.178875550323522 79.3507
9.20126381862328 82.8166
9.223652438908596 96.1747
9.246023961427412 118.99
9.26841328802173 127.243
9.290785518039224 113.54700000000001
9.313175554425882 93.7107
9.335565947154315 82.7116
9.357939245086508 79.597
9.380330352834827 79.4769
9.40270436697103 79.34899999999999
9.425096193225055 79.0481
9.447488380180165 79.7883
9.469863475295412 80.1108
9.492256385987508 80.1617
9.514632206018318 80.64
9.537025843935714 80.9075
9.559402392368193 81.4593
9.581796761000229 82.4783
9.604191496441521 82.3221
9.626569144158516 83.3366
9.648964615551032 84.6526
9.671343000390081 85.4496
9.693739211225699 86.2238
9.716135793237463 86.7102
9.738515290448102 87.2433
9.760912617143402 88.2379
9.783292860202891 89.5016
9.805690935076182 90.3748
9.828089385495742 91.3626
9.850470754023561 92.8024
9.872869957865444 94.4667
9.89525208097539 97.6417
9.917652041736662 101.505
9.940052382417589 105.042
9.962435644102392 113.759
9.984836746950979 143.315
10.007220771957746 216.138
10.029622640473708 323.44599999999997
10.052007432299963 479.101
10.074410069984072 734.117
10.096813093716005 1170.07
10.119199042482517 1732.22
10.141602840636468 2097.69
10.163989564971628 1697.11
10.186394141051062 1014.68
10.208799107559706 451.952
10.231187001965623 207.05900000000003
10.253592751657669 126.743
10.275981430388155 107.333
10.298387966769793 102.492
10.320794897965431 101.50299999999999
10.343184759907361 99.9806
10.36559248305461 98.1584
10.387983138083852 96.5887
10.410391656691655 97.8844
10.432800574501677 106.081
10.455192425893369 125.615
10.47760214443012 153.194
10.499994797678786 192.28
10.522405320453982 257.692
10.54479877906917 368.202
10.567210109595656 490.92800000000005
10.5896218454736 575.419
10.612016518879773 528.248
10.634429067781074 377.765
10.656824555333241 223.299
10.679237920773568 145.553
10.701651695961992 107.961
10.724048411481384 95.2214
10.746463008485165 87.3333
10.768860546937125 82.7301
10.791275969274796 79.4709
10.81369180576079 77.8078
10.836090585366925 77.0874
10.858507252467449 75.7613
10.88090686379991 74.8529
10.903324365036394 73.9787
10.925724811614439 72.8171
10.948143150509463 72.6255
10.970561909719066 71.7633
10.992963615930844 71.1786
11.015383218085756 70.0013
11.037785768347074 69.1062
11.06020621697282 68.5113
11.082627090322113 67.965
11.105030913430326 67.5317
11.12745263854165 66.7634
11.149857314510728 66.4696
11.172279894912576 66.9487
11.194702904450653 66.8853
11.217108866490921 65.7117
11.239532736615194 65.2354
11.26193956033512 64.6306
11.284364294577085 64.0664
11.306789462371718 63.3033
11.329197585398376 62.7945
11.351623622610898 63.0845
11.37403261614354 62.3645
11.396459526308487 62.3417
11.418869393879497 61.9827
11.441297180532617 61.405
11.463725406927658 61.4245
11.486136592353875 61.0963
11.508565700543707 60.6516
11.530977768845315 60.8501
11.553407762368774 60.5403
11.575838200059769 60.5625
11.598251599479612 60.3743
11.620682927815501 60.0959
11.64309721895548 60.2547
11.665529441478206 59.6783
11.687962112597958 59.4922
11.710377748130886 59.5615
11.732811318753434 59.2662
11.755227854859067 59.4645
11.777662328529495 59.2613
11.800079768750786 59.1212
11.822515149015453 59.2351
11.844950984084935 59.5957
11.867369787303163 59.2864
11.889806534289491 59.8272
11.912226250487029 62.2968
11.934663912939751 67.0009
11.9571020346363 71.0732
11.979523127133968 71.5312
12.001962169624331 68.676
12.024384183972964 64.6377
12.046824150809913 63.8503
12.069264581333726 68.2501
12.091687985297767 74.6292
12.11412934550045 82.6625
12.136553680195208 95.4322
12.158995973632788 115.681
12.181438735204349 143.241
12.20386447284199 175.419
12.226308172985636 199.791
12.24873485024193 205.845
12.271179492516982 171.615
12.293607112949127 132.47299999999998
12.316052700916226 94.6465
12.338498763250042 72.6472
12.360927805303868 63.9076
12.383374818673879 61.5179
12.405804812803074 60.6929
12.428252780773262 60.8556
12.45070122756722 60.6774
12.473132656675375 60.6668
12.49558206341869 60.6664
12.518014453510101 60.7469
12.540464823770117 60.6716
12.562915677315177 60.8511
12.58534951575545 61.2126
12.607801338171472 61.3757
12.630236146511358 62.0108
12.652688941369085 62.9013
12.675124723177234 63.6192
12.697578494048786 63.8324
12.720032754458185 63.3152
12.742470003354093 63.4911
12.764925245138771 64.0486
12.787363476431278 64.2165
12.809819703166806 64.3581
12.83227642391173 65.2546
12.854716135692716 65.8758
12.877173846755147 66.8758
12.899614549869717 67.0249
12.9220732548287 67.8492
12.94453245827299 68.3032
12.966974655289818 69.2577
12.989434858002571 69.9828
13.011878055298721 70.7309
13.034339260862497 71.6707
13.056800969391883 73.479
13.079245674017244 76.3223
13.101708390774869 78.2995
13.12415410463411 81.9439
13.146617833206086 91.3415
13.169064559883248 104.29700000000001
13.191529303857127 120.199
13.213994557076367 140.111
13.236442809902437 171.399
13.258909083908291 219.922
13.28135835851934 283.579
13.30382565690295 358.413
13.326293469022952 423.599
13.348744283242008 441.292
13.371213125129904 374.685
13.39366497011003 278.964
13.416134845360597 185.68
13.438605238843131 126.7
13.46105863690397 101.62899999999999
13.483530069144786 97.5409
13.505984506951902 104.928
13.528456981549432 115.853
13.550929978879088 129.866
13.573385983253365 149.875
13.595860028340867 181.46099999999998
13.618317081455832 229.765
13.64079217790333 290.154
13.663250283359057 353.834
13.685726434770173 386.844
13.708203115221277 362.142
13.730662806148091 287.347
13.75314054697177 205.47
13.775601299246777 138.53799999999998
13.798080104050406 99.5421
13.820559442405358 83.87200000000001
13.843021793671388 78.7522
13.865502201420897 76.624
13.887965623051947 76.0519
13.910447103807167 74.9341
13.932929122629764 73.8615
13.955394156785959 73.6051
13.977877254034569 72.7407
14.000343367582113 72.0305
14.022827546871707 71.2364
14.045294743423524 70.7382
14.06778000837062 70.0057
14.090265817715476 70.4655
14.112734645763819 71.9612
14.13522154619454 74.8083
14.157691466286913 77.3193
14.180179461423874 77.5353
14.202668005486178 75.0369
14.22513957064374 71.4199
14.247629214846473 68.9472
14.270101881097517 67.6477
14.29259262906496 67.2262
14.315083930490205 66.7197
14.337558255389705 66.7604
14.360050666019726 66.5412
14.382526101071944 66.2347
14.405019624534942 65.8855
14.427513705993134 65.5174
14.449990813291825 65.6837
14.47248601302899 65.4727
14.49496423954951 65.3791
14.517460561197822 65.5765
14.539939910570322 65.4289
14.562437357763558 65.5341
14.58493536931253 66.0006
14.607416409993311 66.0239
14.62991555254159 66.222
14.652397725157423 66.33800000000001
14.674898002342799 66.8216
14.697398848433282 66.6133
14.719882725991326 67.4603
14.74238471217934 67.6595
14.764869730765593 69.47399999999999
14.787372860692983 73.0502
14.809876564079925 79.2123
14.83236330125751 85.8132
14.854868153850365 93.8859
14.877356041159485 105.792
14.899862046604186 120.911
14.922351087688757 144.17700000000002
14.944858249632887 175.502
14.967365991421232 205.114
14.989856770231246 225.979
15.012365673994204 225.632
15.03485761569738 198.081
15.05736768508665 158.055
15.07987833888692 121.993
15.102372032001655 93.8671
15.124883856909658 76.8516
15.14737872204565 70.5787
15.169891721717274 68.1452
15.192405310371893 67.3372
15.214901940621196 66.6587
15.237416709527137 65.934
15.259914520936249 65.8506
15.282430473753607 65.0806
15.304947020131227 64.3367
15.327446610371178 64.123
15.349964346154254 63.6931
15.372465126703139 63.5519
15.394984055556009 63.5324
15.417486030076159 63.3399
15.44000615566487 63.1334
15.462526881230803 62.8657
15.485030653812652 62.7573
15.507552581617434 62.4015
15.530057557334603 62.5536
15.55258069104857 62.5717
15.575104429329837 62.8276
15.597611216864632 62.5446
15.620136166564563 62.7445
15.6426441664095 63.2187
15.665170331202765 64.462
15.687697105158826 67.6133
15.710206930593545 71.89399999999999
15.732734925158933 77.0122
15.755245972089478 83.15100000000001
15.77777519094324 90.7608
15.800287463046663 101.631
15.822817909869592 119.035
15.84534897229804 140.233
15.867863089299354 166.6
15.890395385222186 188.261
15.912910736597423 201.618
15.935444269699861 193.581
15.957978423016485 168.02200000000002
15.980495633101265 133.736
16.003031029129367 102.95700000000001
16.02554948280019 81.2686
16.048086125229432 69.6663
16.070623392487107 65.3516
16.09314371869582 63.317
16.11568223789321 61.3691
16.13820381691126 59.7108
16.160743591742527 58.7563
16.183283996022084 57.8024
16.205807461423195 56.8266
16.228349126881973 56.3872
16.25087385432698 56.3163
16.27341678466365 55.5539
16.29594277784926 55.3708
16.31848697676433 55.0196
16.341031811604868 54.7441
16.36355971058487 54.6025
16.3861058195587 54.5109
16.40863499352978 53.9866
16.431182380342005 53.7122
16.453730407713202 53.2985
16.476261501364792 53.0986
16.498810812136167 53.1034
16.52134319004079 52.9568
16.54389378792203 52.9911
16.566445031001553 52.7903
16.588979342490088 52.6405
16.61153187824822 52.5403
16.634067483263312 52.3017
16.656621315414416 52.1621
16.679175797408888 51.8416
16.701713349928728 51.9941
16.72426913389191 52.3673
16.74680798922351 52.1721
16.76936507887444 51.9802
16.791905240734874 52.2835
16.814463639794468 52.1766
16.837022695210294 52.1944
16.859564824093756 52.3145
16.882125194503903 52.619
16.904668639217885 53.2482
16.927230328348003 53.5991
16.949792678493612 54.0483
16.972338104193863 54.1165
16.994901778652235 53.7137
17.017448529496576 53.3133
17.040013531998152 53.2253
17.06257920018044 53.411
17.0851279459922 54.0783
17.107694947817667 55.2567
17.130245028099072 56.1444
17.15281336730298 57.4134
17.17536478578733 59.0063
17.19793446610687 60.7892
17.220504818648422 63.5909
17.243058251703697 66.7289
17.265629950971032 71.3489
17.288184731571736 76.7705
17.310757781306908 81.4248
17.33333150794385 83.2902
17.355888317140174 81.9272
17.37846339986244 77.5839
17.401021565958885 71.0338
17.42359800851343 64.9478
17.44617513265564 60.8218
17.468735341390783 58.31100000000001
17.491261035594565 57.0473
17.51396340099364 56.6514
17.536490463869136 56.5286
17.559018209820174 56.4386
17.58154663977963 56.8983
17.604251766089718 56.8124
17.626781572227713 57.0564
17.64931206518155 57.1088
17.671843245885103 57.481
17.69455114821572 57.9152
17.717083712612634 58.2391
17.739616967569667 58.7484
17.762150914021706 59.5197
17.78486160749854 59.8359
17.807396945166804 60.4684
17.829932977143503 60.4717
17.85246970436452 61.1696
17.875183204129467 62.6512
17.897721330097664 65.2691
17.920260154126645 68.193
17.942799677153296 71.3272
17.9655159983646 74.8246
17.988056927677544 79.3104
18.010598558807683 86.1249
18.033140892692916 95.1021
18.05586005052525 106.348
18.07840379824407 118.36
18.10094825154059 130.98
18.12366954819864 140.749
18.146215420998306 143.099
18.16876200220057 136.914
18.191309292745153 123.185
18.214033452627167 108.632
18.236582170236648 95.1159
18.259131600016456 87.3637
18.281681742907335 84.5462
18.304408781233683 87.3552
18.32696035875955 93.2668
18.349512652227624 98.3826
18.372065662579683 104.375
18.394795594587553 105.92200000000001
18.41735004715306 104.14200000000001
18.43990521943684 97.8595
18.46246111238171 88.4729
18.485193953325208 78.3258
18.507751296070428 70.4139
18.530309362314178 65.2222
18.552868153000343 62.3599
18.57560391815056 61.0606
18.59816416623245 60.4633
18.620725141597372 59.668
18.643286845190268 59.0165
18.666025549835414 58.4219
18.688588718427933 57.6594
18.711152618092243 57.3263
18.73389353884365 57.1815
18.75645890921984 56.6267
18.77902501351406 56.4138
18.801591852673102 56.5735
18.824335739722738 55.8192
18.846904057212626 55.7534
18.8694731124168 55.5026
18.89204290628315 55.5783
18.914789774966803 55.2835
18.937361054791623 54.9308
18.959933076131318 54.8209
18.982505839934877 54.6851
19.00525570560582 54.7433
19.027829963004184 54.5926
19.05040496572238 54.5315
19.072980714710468 54.5747
19.095733592739563 54.4937
19.11831084296757 54.5756
19.140888842324735 55.1427
19.16346759176222 55.5994
19.18622349753803 56.1645
19.208803755869358 57.0338
19.231384767143577 58.3403
19.253966532312948 59.6959
19.276725481241822 61.9373
19.29930876296784 65.0227
19.3218928014549 68.3927
19.34465404436217 71.6952
19.36723960516257 74.8321
19.389825925592426 75.6129
19.412413006605938 75.0542
19.43517731967805 72.0088
19.457765930683355 67.6448
19.48035530514408 62.8204
19.50294544401556 58.9226
19.525712842708348 55.5797
19.54830451925909 53.8745
19.570896963095727 52.4032
19.593490175174704 51.9626
19.616260674962184 51.9269
19.638855432416964 51.5661
19.661450960992624 51.693999999999996
19.68404726164677 51.5327
19.706820878021247 51.376999999999995
19.729418731756834 51.4667
19.752017360452857 51.318999999999996
19.77461676506804 51.4085
19.797393513540218 51.352
19.819994478951667 51.4745
19.84259622316767 52.0951
19.8651987471481 52.5362
19.887978643247177 52.8255
19.91058273574792 53.2361
19.933187610901943 54.2997
19.955969879466828 55.2495
19.97857632894404 56.6535
20.00118356396599 57.9617
20.023791585494575 60.068000000000005
20.046577028914875 63.0431
20.069186632506966 65.7911
20.091797025500632 68.2682
20.114408208858933 69.7805
20.137196842715273 69.9351
20.159809615886765 68.5447
20.18242318232135 65.8493
20.20503754298326 63.457
20.227829382875154 61.4606
20.250445341109344 60.9497
20.27306209647285 61.3193
20.29567964993108 62.7632
20.31847471147704 63.7408
20.34109387027612 64.8875
20.363713830075454 64.8575
20.386334591841646 64.0264
20.409132890679302 61.4476
20.431755265564437 58.0779
20.454378445325528 54.9536
20.477002430930366 52.5745
20.499803982716553 50.6561
20.522429589228004 49.6003
20.54505600449589 48.9789
20.567683229489194 48.6312
20.590488049900088 48.5198
20.61311690359731 48.2858
20.63574656993626 48.1755
20.658553853717297 47.7025
20.681185154618298 47.803000000000004
20.703817271080066 47.7008
20.72645020407368 47.4156
20.749260783967177 47.4881
20.771895359337133 47.7261
20.794530754161617 47.6188
20.817166969412938 47.6591
20.83998086114876 47.3731
20.86261872660049 47.0955
20.885257415405402 47.1034
20.90789692853701 46.861999999999995
20.930714147864748 46.8555
20.953355319030678 46.8838
20.97599731745334 47.0216
20.99864014410749 46.6752
21.021460706796564 46.7968
21.044105199328826 47.0326
21.06675052302631 47.1159
21.089396678865015 47.3987
21.112220600704806 47.4999
21.134868430275347 47.7206
21.15751709492456 48.0406
21.180166595629693 48.3892
21.202993892429635 48.9601
21.22564507473034 49.466
21.24829709602816 49.8173
21.27112693608965 50.2517
21.293780644891275 50.2915
21.316435195634053 49.6874
21.339090589297417 48.6666
21.361923832041875 48.1692
21.384580921090404 47.4467
21.407238856007325 46.8843
21.429897637773326 46.8177
21.45273429906592 46.8693
21.475394784108598 46.76
21.498056118951983 46.6991
21.520718304578022 46.8072
21.543558400304388 46.9672
21.566222297108816 47.0179
21.58888704765135 46.9707
21.61155265291521 47.1934
21.63439619898156 47.8891
21.657063523335786 48.2894
21.67973170537063 48.7517
21.7024007460706 49.3181
21.72524775840385 49.9213
21.747918526116475 50.7571
21.770590155457388 52.0446
21.79326264741238 53.3968
21.816113141960237 55.1507
21.838787368860547 57.2555
21.861462461341976 59.4546
21.884315579735777 61.8689
21.90699241312273 63.7505
21.92967011506078 64.7017
21.95234868653799 64.7613
21.9752053151131 63.483999999999995
21.997885635446785 61.3873
22.020566828293532 59.3081
22.04324889464272 57.2256
22.066109049404666 55.8709
22.088792872571794 55.4818
22.111477572219204 55.4886
22.1341631493376 55.6606
22.157026846313123 55.5779
22.179714188221507 55.1372
22.202402410582668 54.163999999999994
22.22509151438863 52.3227
22.24795876962584 50.79
22.270649646204486 49.5534
22.293341407213727 48.6529
22.316034053646906 47.8532
22.338904883215342 47.5061
22.36159931041458 47.306000000000004
22.38429462602756 47.1018
22.40699083104897 47.0184
22.429865251039757 46.9833
22.452563244831367 46.9165
22.47526213102522 46.9663
22.49813925616515 46.9164
22.520839937143307 46.9965
22.543541513520587 47.0913
22.56624398629403 46.9849
22.589124730075895 46.8265
22.611829005656723 47.0321
22.63453418063466 46.9244
22.657240256008077 47.1011
22.680124634582935 47.2176
22.70283252079775 47.7595
22.725541310413075 48.1746
22.74825100442868 48.4304
22.771139033969575 48.8643
22.79385054687155 49.1415
22.81656296718292 49.8653
22.83927629590484 50.4915
22.862167992606945 51.5409
22.88488314827121 52.7243
22.907599215359284 53.8231
22.93031619487366 55.2127
22.953211574954405 56.2654
22.975930389478226 57.3099
22.998650119445763 57.6372
23.02137076586092 57.1171
23.044269845560063 55.9093
23.06699233506288 54.4264
23.089715744034912 52.4159
23.112617610931565 50.5444
23.135342869061212 49.2218
23.158069049684816 48.1833
23.1807961538087 47.556999999999995
23.20370174880544 47.3269
23.226430710184808 47.2299
23.249160598093425 47.1928
23.271891413539002 47.3436
23.294800752937697 47.2799
23.31753343374794 47.7617
23.340267045128353 47.928999999999995
23.36300158808808 48.4395
23.38591468821339 48.6749
23.408651104658304 49.1158
23.431388455719986 49.8637
23.454126742409 50.5731
23.4770436196085 51.4613
23.499783787914662 52.7896
23.522524894889884 53.7666
23.54526694154616 55.0538
23.56818761219047 56.6721
23.59093154860734 57.5841
23.613676427751283 57.9253
23.636422250635754 57.6141
23.659346731118656 56.0618
23.68209445191868 53.8794
23.704843119509587 51.6638
23.72759273490623 49.6978
23.750521041644767 47.8512
23.77327256312355 46.3814
23.796025035462787 45.5448
23.818956224555475 45.0052
23.841710609113413 44.9116
23.86446594758979 44.5038
23.887222241002014 44.187
23.910157285144578 43.8171
23.932915498962537 43.8379
23.955674670778713 43.5552
23.978434801611975 43.6298
24.001373717286125 43.3392
24.024135776723917 43.3495
24.046898798245582 43.2313
24.06966278287146 43.1659
24.092605586582614 42.8818
24.115371508023642 42.6903
24.1381383956401 42.6752
24.16090625045381 42.4043
24.183852958731244 42.3829
24.206622758582608 42.2685
24.229393528706886 42.1226
24.252165270127392 42.3371
24.27511589952438 42.2719
24.297889594216997 41.8539
24.32066426328598 41.8893
24.34343990775613 41.8614
24.36639447485003 41.6134
24.38917208083877 41.7054
24.41195066531332 41.5711
24.43490819850244 41.6764
24.457688750692377 41.637
24.48047028445616 41.6487
24.503252800821233 41.6124
24.526214300784112 41.7208
24.548998793132213 41.7021
24.57178427117417 41.5815
24.59457073593893 41.542
24.617536219319863 41.5818
24.64032466834748 41.713
24.663114107195035 41.6716
24.685904536893013 41.4204
24.708874020360852 41.2493
24.731666442613744 41.1568
24.754459858818787 41.0854
24.777254270007962 40.9335
24.80022777025625 40.9091
24.82302418230472 40.8504
24.845821592443674 40.8482
24.86862000170663 40.8292
24.891597535453727 40.6952
24.914397953892728 40.9371
24.93719937456671 40.8477
24.96000179851076 40.9424
24.98298338249997 41.2366
25.00578782394922 41.4984
25.028593271784167 41.522
25.05157790644186 41.9529
25.07438537804115 42.038999999999994
25.097193859145293 42.183
25.120003350792075 42.6742
25.142992065061257 43.0845
25.165803588823465 43.3205
25.18861612625217 43.5971
25.211429678386736 43.7364
25.234422489079968 44.0147
25.257238081693636 44.0746
25.280054692141732 44.1855
25.3028723214652 44.0907
25.325869245420463 44.18
25.348688923599397 44.2897
25.371509623787006 44.2203
25.394331347025812 43.9612
25.41733240110666 43.49100000000001
25.440156181590016 42.8498
25.46298098826268 42.3086
25.48580682216873 41.8462
25.50881202326435 41.0311
25.53163992281684 40.3822
25.55446885274561 40.1284
25.577298814096377 39.7217
25.600308179121807 39.5273
25.623140214533745 39.6145
25.64597328451537 39.4243
25.66898578564376 39.3984
25.691820936010206 39.245
25.714657124097695 39.3494
25.737494350954734 39.3655
25.760511045684957 39.268
25.783350361364224 39.2535
25.806190718969255 39.273
25.82903211955018 39.4774
25.852053024868923 39.5284
25.874896522722523 39.5215
25.897741066713106 39.3205
25.920586657892454 39.5045
25.943611790812668 39.6956
25.966459487728237 39.7359
25.989308234998564 39.7142
26.01215803367705 40.2405
26.03518741123814 40.3377
26.05803932412957 40.5011
26.080892291600094 40.5784
26.10374631470478 40.7373
26.12677995397268 40.8518
26.14963609978026 40.8269
26.172493304397875 40.5332
26.19535156888223 40.4293
26.218389486949604 39.9103
26.241249882640123 39.6956
26.26411134137826 39.35
26.28715248187403 39.1933
26.31001607820869 38.9552
26.3328807407756 38.8706
26.35574647063438 38.9712
26.37879191991473 38.9635
26.401659795896734 38.9537
26.424528742360263 39.1786
26.447398760366614 39.2808
26.470448535598294 39.5183
26.49332070826805 39.6485
26.516193955675355 39.7968
26.53906827888316 40.0935
26.562122397260108 40.3736
26.584998883685063 40.8253
26.607876449110325 41.1824
26.63075509460056 41.3397
26.65381357334404 41.5746
26.67669439061878 41.4728
26.699576291163382 41.424
26.722459276044212 41.3557
26.745522132402975 40.9878
26.768407297649354 40.7504
26.791293550442003 40.4564
26.814180891848974 40.1865
26.837248143099337 39.8756
26.860137673466657 39.6513
26.88302829566349 39.4719
26.90592001075963 39.306
26.92899167420566 39.1791
26.951885586870763 38.7196
26.974780595655517 38.5035
26.99785558178161 38.3533
27.020752794605112 38.0911
27.043651106772522 37.8823
27.06655051935668 37.8675
27.089629948036183 37.7477
27.112531573292053 37.7133
27.135434302194138 37.7188
27.158338135817015 37.5051
27.181422024430987 37.6804
27.204328079372566 37.5153
27.22723524226965 37.454
27.250143514198573 37.4775
27.273231880156334 37.4525
27.296142382065014 37.3235
27.319053996245536 37.2174
27.341966723775965 37.3647
27.365059584515222 37.4783
27.38797455070062 37.4666
27.410890633481237 37.353
27.433807833936918 37.4429
27.456905206923906 37.6016
27.47982465472398 37.6092
27.502745223449743 37.6693
27.525666914182825 37.6952
27.548768816912457 37.781
27.571692763693633 37.5113
27.59461783573812 37.608000000000004
27.617723149491244 37.3723
27.640650484125285 37.3071
27.66357894728264 37.2004
27.686508540048052 37.0978
27.709618414237887 37.066
27.732550278321757 36.9068
27.755483275279115 36.8975
27.778417406196485 36.8977
27.801531858397514 36.8801
27.824468269376716 36.8099
27.847405817586786 36.7805
27.870344504116094 36.9373
27.893463551932008 37.0958
27.916404527281053 37.4277
27.93934664422563 37.3359
27.962289903855886 37.5902
27.98541356491974 37.9378
28.00835912214229 38.085
28.03130582533231 38.4493
28.054253675581805 38.6572
28.077381967556104 38.5255
28.100332124185126 38.4921
28.123283431160893 38.4469
28.146235889577238 38.2464
28.169368830154156 38.0446
28.192323603752033 37.9614
28.215279532083304 37.5987
28.238415973016764 37.368
28.261374223145094 37.2388
28.284333631303806 36.979
28.307294198589954 36.8383
28.330435319167677 36.2866
28.353398217078915 36.2455
28.376362277420153 35.9838
28.39932750129032 35.739000000000004
28.422473319286713 35.4845
28.44544088262495 35.5066
28.468409612800283 35.3169
28.491379510913497 35.2094
28.51453004413313 34.9613
28.53750229057244 34.9645
28.56047570826344 35.0217
28.583450298308804 34.9634
28.606605564586562 34.6886
28.629582511831156 34.759
28.65256063474956 34.6709
28.675539934446338 34.7086
28.698699951647605 34.6579
28.72168161743193 34.5565
28.74466446331978 34.6115
28.767648490417624 34.4485
28.790813276438353 34.4804
28.813799678527303 34.5771
28.836787265157085 34.4414
28.859955641890075 34.5692
28.882945610203045 34.4444
28.905936766392035 34.313
28.928929111566863 34.3673
28.952102288520145 34.3503
28.975097024308607 34.2665
28.998092952423807 34.0969
29.021090073977508 34.0694
29.04426806913204 33.9043
29.067267590245258 33.7597
29.090268308143695 33.7253
29.11327022394099 33.6835
29.13645305530891 33.4968
29.159457379627167 33.4455
29.18246290519685 33.3838
29.20546963313352 33.375
29.22865731875826 33.3809
29.25166646419296 33.3176
29.27467681535305 33.2566
29.29768837335608 33.3852
29.320880931312562 33.4084
29.34389491580634 33.3619
29.366910110507334 33.3621
29.38992651653503 33.3346
29.41312396492981 33.3669
29.436142806456754 33.308
29.45916286268059 33.1923
29.48236399319994 33.1004
29.50538649169417 32.9161
29.528410208259935 32.9261
29.55143514402014 32.7255
29.574641196749695 32.5161
29.597668583816574 32.4236
29.6206971934585 32.2454
29.64372702680042 32.2997
29.666938019934474 32.1021
29.689970313635285 31.9496
29.713003834422636 32.1345
29.73603858342347 31.9704
29.759254535188578 31.859
29.78229175361658 31.9782
29.80533020365064 31.8987
29.82836988641968 31.989
29.85159081507472 31.8637
29.874632976355343 31.8403
29.89767637376955 31.9143
29.920721008448314 31.6734
29.9439469322847 31.779
29.96699405457564 31.6186
29.9900424175358 31.6919
30.013092022298157 31.6888
30.03632295963995 31.5963
30.059375061131373 31.6019
30.08242840783577 31.6472
30.105483000888153 31.5744
30.128718970092244 31.5064
30.151776069006917 31.5739
30.17483441768648 31.6366
30.198074175317235 31.4271
30.221135036724256 31.5824
30.24419715131772 31.4477
30.267260520236203 31.4111
30.290505341942243 31.5508
30.313571232750228 31.4447
30.336638381310948 31.5575
30.35970678876503 31.4397
30.38295669299435 31.3503
30.40602763151657 31.372
30.429099832366074 31.3326
30.452173296685572 31.2593
30.47542830191959 31.1742
30.498504306502497 31.1631
30.521581577995562 31.1829
30.544660117543582 31.3952
30.56792024229725 31.4135
30.59100133132069 31.3154
30.614083691845494 31.3585
30.637167325018545 31.4186
30.660432587840603 31.447
30.683518779717886 31.4696
30.70660624769615 31.5337
30.729694992924372 31.4475
30.75296541239743 31.4908
30.77605672557558 31.499000000000002
30.799149319462742 31.3846
30.8224236211637 31.2034
30.845518789950724 31.1998
30.868615242910597 31.1486
30.891712981195973 30.9689
30.91499247215866 30.8731
30.938092794619365 30.8751
30.96119440587579 30.778000000000002
30.984297307082752 30.6534
31.00758200598383 30.5908
31.030687500658694 30.496
31.053794288760695 30.3942
31.076902371446767 30.2902
31.100192296997445 30.4728
31.12330298246119 30.3705
31.14641496599209 30.1249
31.169528248749216 30.256
31.19282341969534 30.0918
31.215939314557186 30.1548
31.239056512134788 30.2665
31.262175013589378 30.2169
31.28547544871168 30.0921
31.30859657161541 30.0587
31.331719001892175 30.0829
31.35484274070538 30.2117
31.378148458819545 30.2396
31.401274828443725 30.2014
31.424402510106933 30.2102
31.447712205419993 30.2065
31.470842524931633 30.1114
31.493974159989783 30.2451
31.51710711176168 30.1177
31.54042212308802 30.143
31.563557722100917 30.1491
31.586694641341655 29.973000000000003
31.609832881979628 29.9114
31.63315322823208 29.8112
31.656294125521327 29.6548
31.679436347728515 29.5164
31.70257989602529 29.4556
31.725905596152327 29.3985
31.74905181052835 29.3983
31.772199354521323 29.425
31.79534822930507 29.3991
31.818679302290967 29.5027
31.84183085259981 29.3915
31.864983737233473 29.3941
31.88813795736804 29.5073
31.911474422233013 29.3959
31.934631327356435 29.4211
31.9577895715215 29.3914
31.980949155906522 29.4449
32.004291031706956 29.4115
32.027453310562606 29.305
32.05061693318573 29.162
32.07396288236386 29.0843
32.09712920658542 29.0845
32.12029687812702 28.9954
32.14346589817093 28.8727
32.166817291729984 28.8589
32.18998902288583 28.7478
32.21316210610336 28.6841
32.23633654256711 28.5006
32.259693399663725 28.5027
32.282870556771144 28.5093
32.30604907069099 28.5458
32.329228942610065 28.4341
32.35259128243769 28.2308
32.375773884550505 28.1888
32.398957848235646 28.1949
32.422143174682176 28.1313
32.445511016471215 28.0404
32.468699082679954 27.9391
32.49188851523011 28.0212
32.51507931531304 27.9757
32.538452678331 27.9761
32.56164622776311 27.8138
32.58484114831493 27.8366
32.60803744118015 27.7791
32.631416344731896 27.7122
32.654615396551876 27.7124
32.67781582427913 27.6858
32.701198898634416 27.594
32.72440209253756 27.6448
32.747606665947124 27.5724
32.77081262006088 27.5391
32.79420126883317 27.5123
32.81740999876112 27.4569
32.840620112999424 27.3877
32.86383161274818 27.3619
32.88722585534586 27.4064
32.91044014056596 27.4026
32.933655814909734 27.2184
32.95687287957963 27.2146
32.98027273544904 27.1471
33.00349259526636 27.1767
33.026713849030116 27.256999999999998
33.04993649794511 27.2193
33.073341986570746 27.1568
33.09656744032826 27.1732
33.11979429286444 27.1714
33.14302254538647 27.1401
33.166433686291185 27.0371
33.18966475336992 27.0657
33.212897224069096 27.0009
33.23613109959831 26.971999999999998
33.259547912343415 26.8847
33.2827846121627 26.9771
33.306022720453775 26.8113
33.32926223842861 26.8604
33.352684742614166 26.8359
33.37592709463173 26.7678
33.399170859982064 26.6153
33.422597648419426 26.5483
33.44584425514446 26.4727
33.46909227885668 26.4725
33.4923417207723 26.358
33.51577423505344 26.42
33.539026528130385 26.2947
33.56228024307245 26.2531
33.585535381098246 26.0471
33.60897364093058 26.065
33.63223163992385 26.0939
33.6554910656699 26.0601
33.678751919389796 25.9147
33.702195944520106 25.9407
33.72545966903325 25.9014
33.74872482519663 25.8157
33.771991414233746 25.853
33.79544122444841 25.8685
33.81871069412428 25.808000000000003
33.84198160035767 25.7379
33.86525394437455 25.7372
33.88870955949969 25.7179
33.911984794020626 25.6333
33.93526147001624 25.5932
33.958539588715006 25.5277
33.98200102861669 25.502
34.0052820477047 25.4051
34.02856451319451 25.37
34.05203033759056 25.2876
34.07531571090147 25.3013
34.09860253431845 25.4309
34.121890809074316 25.3286
34.145362493118924 25.2195
34.16865368561615 25.1616
34.191946333164054 25.0827
34.21524043699793 25.1591
34.23871800066799 25.0716
34.26201503218366 25.0054
34.28531352370466 24.9762
34.30861347646881 24.9705
34.33209693978188 24.9136
34.3553998301885 24.87
34.378704185565205 24.8118
34.402010007152356 24.7806
34.42549939016683 24.7823
34.44880815937748 24.7402
34.472118398533134 24.6319
34.49543010887669 24.5677
34.51892543169198 24.4722
34.54224009966052 24.4965
34.56555624255917 24.4722
34.58887386163339 24.3644
34.61237514439016 24.3804
34.6356957311114 24.3337
34.65901779775809 24.3032
34.68252356662995 24.3069
34.705848608458616 24.2306
34.72917513396849 24.178
34.75250314440949 24.1746
34.77601490857862 24.1026
34.799345904259795 24.0383
34.82267838863559 24.0345
34.846012362958525 24.0164
34.869530142679984 24.0307
34.89286711232212 23.9291
34.91620557568269 23.9297
34.93954553401677 23.9534
34.9630693495876 23.913
34.986412313340814 23.9066
35.00975677584668 23.8096
35.033102738362956 23.7867
35.05663261012228 23.7405
35.0799815881786 23.7825
35.10333207003229 23.726999999999997
35.12668405694369 23.6951
35.150220005273056 23.6589
35.17357501786656 23.6055
35.19693153931268 23.6603
35.220289570874385 23.5869
35.24383161619786 23.5299
35.267192683604904 23.4957
35.290555264930376 23.5617
35.314101899412165 23.47
35.33746752422433 23.4147
35.36083466676374 23.4696
35.38420332829803 23.4747
35.407756095629054 23.484
35.43112781085063 23.425
35.45450104888391 23.4399
35.477875810999194 23.4353
35.50143473172161 23.2529
35.52481255774625 23.3586
35.54819191167777 23.2667
35.57157279478914 23.2344
35.595137889488406 23.2017
35.61852184675279 23.1836
35.641907337029984 23.0807
35.665294361595684 23.0389
35.68886565090076 22.9604
35.7122557598848 22.9498
35.73564740699838 22.9169
35.759040593519934 22.9422
35.78261809810353 22.9204
35.80601437933051 22.8124
35.829412203814705 22.7872
35.85281157283719 22.6872
35.876395313415884 22.7298
35.8997977874528 22.6736
35.92320180988546 22.593000000000004
35.946790244133936 22.5567
35.97019737933222 22.5313
35.993606066789866 22.5869
36.01701630779276 22.5388
36.04061101440684 22.4757
36.06402437852291 22.4869
36.08743930005611 22.4448
36.1108557802951 22.3204
36.13445678011326 22.4006
36.15787639383515 22.2841
36.18129757014299 22.2368
36.20472031032821 22.2193
36.22832762423364 22.151999999999997
36.25175350829375 22.1295
36.275180960119776 22.0623
36.298609981005924 22.1988
36.32222362992669 22.1289
36.34565580510207 22.1145
36.36908955323448 22.0563
36.39252487562093 21.9345
36.416144880530226 21.9104
36.43958336764275 21.9239
36.463023432914625 21.9022
36.486465077645676 21.7528
36.51009145956204 21.8859
36.53353627947859 21.8962
36.55698268276811 21.7826
36.58043067073321 21.7489
36.60406345072071 21.6738
36.62751462435344 21.6491
36.65096738658405 21.6325
36.67460498210655 21.5833
36.69806093788647 21.5778
36.72151848619297 21.5027
36.744977628333636 21.4374
36.76862165890998 21.4831
36.79208400512205 21.4683
36.81554794910557 21.4207
36.83901349217101 21.3054
36.862663978991606 21.364
36.88613273667352 21.2954
36.90960309738324 21.2345
36.933075062434064 21.1892
36.95673202673572 21.2071
36.98020721697122 21.1481
37.003684015502365 21.0878
37.027162423645365 21.0761
37.050825886711465 21.0939
37.07430753063053 20.9869
37.09779078812467 21.0033
37.121275660513014 20.9773
37.144945643673694 20.8697
37.16843376245278 20.8129
37.19192350009803 20.9478
37.215414857931435 20.8078
37.239091382563885 20.7549
37.262585997426164 20.750999999999998
37.28608223645736 20.7068
37.309763684451696 20.6648
37.33326318851098 20.6259
37.356764320726555 20.5975
37.380267082425526 20.5896
37.40395510942588 20.5593
37.42746114683234 20.5059
37.45096881771841 20.4613
37.474478123414166 20.5018
37.49817275092816 20.4223
37.52168534303452 20.3661
37.54519957395567 20.3047
37.568715445024665 20.2907
37.592416694607714 20.2632
37.61593586281424 20.2356
37.63945667518264 20.2449
37.66297913304891 20.1808
37.68668702630454 20.1686
37.710212792059274 20.0246
37.733740207334854 20.0523
37.757269273470364 20.0302
37.780983832050374 20.0486
37.80451621684926 19.9754
37.82805025654007 19.995
37.851585952464795 19.9588
37.8753071980695 19.7909
37.89884622345676 19.8446
37.92238690911902 19.9132
37.94611318753442 19.7629
37.969657210779765 19.7858
37.99320289834801 19.7837
38.016750251586465 19.6829
38.04048325513017 19.7008
38.06403395679343 19.6431
38.087586328183946 19.5827
38.11114037065203 19.561
38.13488012115898 19.5121
38.1584375229181 19.5493
38.181996599821 19.4105
38.205557353221124 19.46
38.229303872575656 19.4658
38.2528679961576 19.4161
38.27643380031219 19.3003
38.30000128639589 19.3178
38.32375459653193 19.2734
38.34732546371299 19.2886
38.37089801690786 19.2399
38.39447225747609 19.1485
38.418232380377425 19.1682
38.441810012983396 19.1679
38.46538933705673 19.1207
38.488970353960084 19.1132
38.51273731166058 19.0622
38.536321731567014 19.0838
38.55990784840681 19.0435
38.58367995004091 19.0301
38.60726947812959 18.9185
38.63086070726198 18.9121
38.654453638806274 18.9518
38.678232613930824 18.8858
38.70182896773327 18.77
38.72542702806741 18.7434
38.7490267963045 18.73
38.77281266709232 18.686
38.79641586862214 18.7377
38.8200207821842 18.6489
38.843627409152944 18.6857
38.86742019782782 18.6246
38.891030269149255 18.5101
38.914642058016156 18.5789
38.938255565806124 18.5433
38.96205529464307 18.4521
38.98567225787121 18.4159
39.00929094417078 18.438
39.03291135492255 18.4756
39.05671804624804 18.4004
39.080341923549106 18.3418
39.103967529460334 18.3516
39.127594865365744 18.2524
39.15140854155791 18.2219
39.17503935514948 18.2547
39.19867190290282 18.2505
39.22249083587951 18.1779
39.24612686969409 18.143
39.269764641845306 18.0857
39.293404153722804 18.0866
39.317230110864074 18.0059
39.34087311998506 17.9758
39.36451787301696 18.0189
39.388164371352595 17.9625
39.41199737518003 17.8997
39.43564738196752 17.9272
39.45929913825317 17.8713
39.48295264543308 17.8642
39.506792718520884 17.7873
39.530449745387216 17.7594
39.55410852735203 17.7855
39.57776906581474 17.787
39.60161623079 17.6958
39.625280300200025 17.6677
39.64894613032202 17.5806
39.67261372255866 17.5993
39.6964680021016 17.6033
39.72013913657293 17.6367
39.74381203738292 17.5409
39.76748670593756 17.5478
39.79134812278169 17.5092
39.81502634488497 17.532
39.83870633896685 17.4732
39.862388106436654 17.4284
39.88625668336918 17.4372
39.90994201572829 17.3974
39.933629125719285 17.3022
39.957503091207826 17.2342
39.9811937746168 17.3053
40.00488623990914 17.2204
40.02858048850006 17.211
40.05246165409549 17.1348
40.076159487492085 17.1077
40.099859108448875 17.1626
40.123560518384345 17.0829
40.1474489070226 17.0795
40.171153913178564 17.0429
40.194860712584955 17.0371
40.2185693066637 17.0048
40.242464941335314 16.9402
40.26617714307655 16.906
40.289891143772046 16.9446
40.3136069448471 16.8629
40.33750984859743 16.8788
40.3612292688043 16.8381
40.3849504936829 16.8402
40.40867352466194 16.7742
40.43258372059144 16.7254
40.45631038219906 16.7033
40.48003885420956 16.6508
40.503769138055105 16.6708
40.52768664931955 16.6789
40.55142057531802 16.6853
40.57515631746428 16.6284
40.599079334038514 16.5488
40.62281872700477 16.4988
40.64655994043941 16.5226
40.67030297578061 16.4957
40.69423334835778 16.4548
40.71798004609188 16.4655
40.74172857006355 16.4514
40.76547892171441 16.436
40.7894166736039 16.385
40.813170699248566 16.3453
40.83692655691388 16.2641
40.86068424804498 16.3684
40.884629402612525 16.3028
40.908390779366385 16.2645
40.932153993938 16.2067
40.95591904777605 16.2152
40.979871628443995 16.2184
41.003640379561936 16.1454
41.02741097430883 16.1312
41.05118341413683 16.1022
41.075143444384416 16.0745
41.098919593177826 16.0456
41.1226975914255 16.0906
41.14647744058318 15.9512
41.170444943946755 15.9782
41.19422851378379 15.9968
41.218013938914645 15.9508
41.24198706625173 15.87
41.26577622087193 15.8783
41.289567235177785 15.8663
41.31336011063129 15.8031
41.337340752422875 15.7838
41.361137369129835 15.7785
41.38493585138705 15.7279
41.40873620066004 15.7073
41.43272438060107 15.7226
41.45652848292052 15.6218
41.48033445666918 15.6447
41.50414230331616 15.5575
41.528138045159764 15.4924
41.551949656675205 15.4356
41.575763145513235 15.4626
41.59957851314666 15.4886
41.62358184070442 15.4577
41.64740098505737 15.4276
41.6712220126409 15.3724
41.69504492493139 15.3299
41.71905586207357 15.2854
41.74288256296395 15.3065
41.766711153007456 15.2715
41.79054163368412 15.3075
41.814560204340054 15.3095
41.838394485526365 15.2606
41.86223066180303 15.1657
41.88625497706819 15.1769
41.910094962812 15.1224
41.93393684811168 15.1419
41.95778063445365 15.088
41.981812625263366 15.0708
42.00566023303407 15.0599
42.029509746323676 14.9842
42.05336116662236 14.9732
42.077400857069705 14.9504
42.10125611078846 14.9657
42.12511327600405 14.889000000000001
42.14897235421036 14.842
42.173019768448455 14.884
42.19688269209613 14.8306
42.22074753323349 14.8042
42.24461429335818 14.7792
42.268669455600495 14.7486
42.292540073217886 14.7542
42.31641261433284 14.7396
42.34028708044675 14.7128
42.36435001496739 14.6607
42.38822835065557 14.69
42.41210861586426 14.6156
42.4359908120986 14.595
42.46006154323262 14.5852
42.48394762115317 14.5609
42.507835634632315 14.5845
42.531912233047436 14.5267
42.55580413732265 14.4504
42.579697981698 14.4192
42.60359376768525 14.3561
42.62767820545945 14.3756
42.65157789440821 14.3809
42.67547952952185 14.3358
42.699383112316 14.3298
42.72347541395347 14.2676
42.74738291190531 14.2448
42.771292362102166 14.2533
42.795203766063516 14.2422
42.819303956130405 14.1739
42.843219287476536 14.1545
42.86713657716324 14.1404
42.89105582671383 14.118
42.91516392983864 14.0925
42.939087119032166 14.1255
42.963012272677304 14.0395
42.98693939230129 14.0057
43.01105543317513 14.0183
43.034986504731386 13.9931
43.05891954686589 13.9715
43.08285456110972 13.9857
43.10697856448665 13.8661
43.130917542983475 13.912
43.15485849820081 13.8343
43.17880143167367 13.8075
43.20293342237094 13.8075
43.226880332449 13.765999999999998
43.25082922540554 13.7982
43.27496722682525 13.7676
43.29892010567796 13.7441
43.32287497204102 13.7498
43.34683182745632 13.693
43.370977859791836 13.6678
43.39493871351105 13.6567
43.41890156092628 13.5858
43.44286640358341 13.5471
43.46702049182749 13.5484
43.49098934522816 13.5726
43.51496019852649 13.5279
43.5389330532723 13.5355
43.56309522248204 13.4502
43.58707210044314 13.4512
43.61105098451946 13.415999999999999
43.63503187626491 13.4414
43.659202151562134 13.4023
43.68318707902681 13.3965
43.70717401884041 13.296
43.731162972560874 13.2662
43.75534137913236 13.2062
43.779334381108384 13.2412
43.803329401683186 13.2656
43.82732644241872 13.2251
43.8515130055166 13.2052
43.87551410707659 13.1565
43.89951723350145 13.1398
43.923709934595614 13.1414
43.94771713129917 13.1151
43.97172635758096 13.0417
43.99573761501002 13.0697
44.0199385169922 13.0508
44.04395385732619 12.9815
44.067971233533086 13.0286
44.09199064718605 13.011
44.11619977548961 12.9354
44.14022328470671 12.9267
44.16424883610785 12.9138
44.18827643127035 12.9001
44.21249381139513 12.8422
44.236525514814076 12.7918
44.26055926674478 12.7959
44.28459506876863 12.8163
44.3088207262813 12.7022
44.33286064928722 12.6998
44.35690262714919 12.6997
44.38094666145278 12.6995
44.4051806219871 12.7099
44.42922879003185 12.6521
44.45327901929361 12.624
44.477331311362136 12.6376
44.501573600619416 12.5954
44.525630039221795 12.5151
44.54968854541895 12.5249
44.573937102200176 12.5474
44.5979997645541 12.492
44.622064499300315 12.4654
44.64613130803592 12.4343
44.67038823869318 12.4419
44.69445921643748 12.429
44.718532272981385 12.3462
44.742607409926194 12.362
44.76687274034801 12.3398
44.79095205918753 12.3082
44.81503346325094 12.2973
44.839116954143876 12.2769
44.86339071028742 12.2437
44.88747839599524 12.2237
44.91156817336837 12.2128
44.93566004401666 12.1963
44.959942251908146 12.1629
44.984038330325966 12.1289
45.00813650686762 12.0997
45.03223678314731 12.1173
45.05652746888232 12.0629
45.08063196592069 12.0629
45.104738567558705 12.0323
45.128847275414856 12.02
45.15314646515866 12.0075
45.17725940679741 11.9734
45.20137445952892 11.9207
45.22568004865265 11.967
45.24979934496396 11.8882
45.27392075725247 11.8707
45.29804428714431 11.8906
45.322358426247604 11.8807
45.346486212804315 11.8804
45.370616121861914 11.8342
45.39474815505086 11.8002
45.41907087049246 11.7614
45.4432071734666 11.7356
45.46734560548283 11.7412
45.49148616817604 11.7725
45.51581748638564 11.7366
45.5399623320197 11.681
45.56410931325473 11.6261
45.58825843173002 11.6747
45.61259837920865 11.6161
45.636751793816 11.6392
45.66090735060093 11.5627
45.68506505120716 11.5158
45.7094136545275 11.4854
45.73357566449271 11.4589
45.75773982322992 11.4873
45.78190613238733 11.4736
45.806263418194064 11.4456
45.83043404997326 11.4264
45.85460683713677 11.427999999999999
45.87897065658495 11.3432
45.90314777634752 11.3968
45.92732705646868 11.3187
45.9515084986045 11.3367
45.97588104735473 11.2832
46.00006683541565 11.245
46.02425479047904 11.2382
46.04844491420549 11.2624
46.0728262191024 11.2204
46.09702070211635 11.2057
46.12121735879483 11.1949
46.14541619080294 11.157
46.169806278764455 11.1401
46.194009483459034 11.1245
46.21821486849841 11.0836
46.24242243555223 11.0893
46.266821333570014 11.0496
46.29103328674601 11.0587
46.31524742696538 11.0641
46.33946375590237 10.9876
46.36387149104216 11.0095
46.38809221957392 10.9742
46.41231514186606 10.9068
46.436540259597464 10.9466
46.460956858999374 10.9102
46.48518638983522 10.8513
46.509418121166966 10.843
46.533652054678114 10.8244
46.55807754555709 10.8388
46.58231590571962 10.8269
46.60655647313217 10.7654
46.630988654873654 10.7432
46.655233659129024 10.7584
46.67948087571551 10.6892
46.70373030632484 10.6731
46.72817142736393 10.6559
46.752425308428684 10.6731
46.77668140861147 10.6117
46.80093972960865 10.587
46.82538981736788 10.5846
46.849652602470904 10.5569
46.87391761349769 10.5212
46.8981848521493 10.5282
46.9226439341274 10.5348
46.946915650573224 10.5172
46.97118959976749 10.4551
46.99546578341598 10.4482
47.019933887188216 10.4459
47.04421456235744 10.4106
47.06849747711879 10.4185
47.09278263318286 10.3761
47.11725978640143 10.3599
47.14154944775105 10.3513
47.165841355555656 10.3259
47.1901355115306 10.265
47.214621741924994 10.2813
47.23892041698887 10.265999999999998
47.26322134538975 10.2265
47.28771440635075 10.1808
47.31201986422527 10.2017
47.33632758061436 10.234
47.360637557241866 10.1723
47.38513974410611 10.1354
47.40945426407847 10.1283
47.43377104948137 10.1233
47.45809010204344 10.0874
47.48260144275502 10.0825
47.506925052572285 10.0838
47.53125093475548 10.0045
47.55557909103813 10.039
47.58009961361992 9.99427
47.60443234110732 9.941089999999999
47.62876734791564 9.9554
47.65310463578333 9.9549
47.6776343683373 9.93016
47.7019762413987 9.88685
47.72632040075572 9.89685
47.75066684815169 9.88217
47.77520581885936 9.84808
47.799556865477655 9.82123
47.823910205386 9.83013
47.84826584033272 9.82749
47.87281407745551 9.79004
47.89717432569297 9.78399
47.92153687423484 9.76758
47.94609208429692 9.69973
47.97045925671401 9.719430000000001
47.99482873471275 9.70128
48.01920052005013 9.69662
48.04376504619224 9.67728
48.068141469543484 9.664819999999999
48.09252020552573 9.64581
48.11690125590099 9.62285
48.1414751266064 9.58383
48.16586082917454 9.61011
48.19024885144316 9.552489999999999
48.2146391951793 9.51078
48.239222439012764 9.56027
48.26361744916137 9.50561
48.28801478610016 9.51005
48.31241445160131 9.49594
48.337007097209366 9.49574
48.36141144338331 9.47407
48.38581812345755 9.44083
48.41022713920929 9.41938
48.434829215320704 9.396519999999999
48.45924292604658 9.384789999999999
48.48365897780325 9.37375
48.50807737237308 9.35595
48.532688907799276 9.3769
48.55711201168574 9.30883
48.581537463754074 9.30981
48.60615611725119 9.27632
48.63058628942721 9.283380000000001
48.65501881516546 9.26543
48.6794536962573 9.26472
48.70408185970339 9.20299
48.72852147531801 9.16222
48.75296345168211 9.13434
48.77740779059232 9.11368
48.80204549302823 9.13156
48.82649458091802 9.13584
48.85094603676547 9.0882
48.87539986237231 9.09201
48.90004713292306 9.09427
48.92450572200832 9.064639999999999
48.94896668628025 9.047039999999999
48.97343002754588 9.040939999999999
48.99808689542115 9.014610000000001
49.02255501470614 9.0051
49.04702551642794 8.966339999999999
49.0714984023988 8.945789999999999
49.096164896893235 8.91981
49.120642575466796 8.92343
49.145122643748394 8.9129
49.16960510355558 8.89728
49.19428125404938 8.87739
49.2187685210852 8.85032
49.243258185121555 8.80523
49.26794160167084 8.81458
49.2924360839405 8.80069
49.31693296869764 8.78951
49.34143225776915 8.74034
49.36612538195438 8.758410000000001
49.39062950396021 8.79167
49.41513603578346 8.72526
49.4396449792564 8.68087
49.46434784069503 8.671
49.488861631846454 8.64045
49.513377840166804 8.6268
49.537896467493745 8.60486
49.56260909589029 8.6029
49.587132585683285 8.626489999999999
49.611658500018365 8.56145
49.636186840738596 8.51419
49.66090926588511 8.55304
49.685442483902584 8.525210000000001
49.70997813385706 8.49292
49.734516217597076 8.4886
49.75924846937352 8.49034
49.7837914452858 8.47043
49.80833686055187 8.45084
49.83288471702571 8.434989999999999
49.85762682540054 8.42763
49.882179588965734 8.43189
49.9067347993235 8.37245
49.93129245833333 8.36696
49.95604445336378 8.35493
49.98060703442832 8.354569999999999
50.005172069746266 8.33116
50.02993150438364 8.313239999999999
50.05450147301533 8.30023
50.07907390151433 8.297189999999999
50.10364879174981 8.25179
50.12841816587289 8.26239
50.1529980044635 8.230080000000001
50.17758031042124 8.20479
50.20216508562089 8.22213
50.22694442953363 8.192
50.25153416817468 8.193660000000001
50.27612638170508 8.169960000000001
50.300721072005196 8.136389999999999
50.325510416102105 8.131
50.350110084975064 8.11973
50.37471223628208 8.097000000000001
50.39931687190919 8.068710000000001
50.424116246675766 8.03871
50.44872587605249 8.02708
50.47333799543065 8.01843
50.49795260670191 8.03872
50.52276204271512 8.01797
50.54738166295838 7.982310000000001
50.57200378079314 7.95745
50.596628398116835 7.925389999999999
50.62144792604559 7.919969999999999
50.646077567609396 7.90568
50.670709714377715 7.92209
50.69553683636198 7.88823
50.72017401885922 7.89935
50.7448137122895 7.86765
50.76945591856022 7.81473
50.79429318636823 7.82
50.818940443716784 7.822539999999999
50.84359021965163 7.79477
50.868242516085964 7.76187
50.893089960641895 7.75318
50.917747323549435 7.779710000000001
50.94240721271973 7.75213
50.96706963007175 7.724
50.99192728239342 7.717280000000001
51.01659478166073 7.731139999999999
51.04126481489051 7.685789999999999
51.06593738400761 7.638
51.090805275207074 7.64348
51.11548294172845 7.625960000000001
51.14016314993547 7.63961
51.164845901758845 7.609189999999999
51.18972406304274 7.59214
51.21441192780656 7.51775
51.23910234200271 7.52279
51.2637953075678 7.52093
51.288683770237945 7.530289999999999
51.31338186432707 7.48636
51.33808251561888 7.469689999999999
51.362978729967345 7.4985
51.387684521509755 7.49292
51.41239287610203 7.444189999999999
51.437103795691165 7.42572
51.46201036644977 7.398110000000001
51.486726441956634 7.378710000000001
51.51144508832545 7.3919
51.536166307509156 7.38621
51.56108326624387 7.33743
51.58580965706056 7.33137
51.61053862657523 7.327539999999999
51.635270176746864 7.32155
51.66019755512065 7.327030000000001
51.68493429268881 7.307239999999999
51.70967361681515 7.279739999999999
51.73441552946465 7.25362
51.759353359237934 7.2217
51.7841004750961 7.2415899999999995
51.80885018539685 7.228
51.833602492111254 7.19315
51.8585508051424 7.1933300000000004
51.883308330926425 7.162780000000001
51.90806845906181 7.15545
51.932831191525715 7.12747
51.95779001977161 7.11575
51.98255798721516 7.075189999999999
52.00732856494335 7.09345
52.03229530577543 7.06115
52.057071130455945 7.067489999999999
52.081849571391054 7.0452699999999995
52.106630630568695 7.05397
52.13160794279417 7.02225
52.15639426492067 7.02244
52.18118321127822 6.99729
52.205974783860896 6.967410000000001
52.23096269971011 6.97835
52.255759551287994 6.99118
52.280559035098186 6.939260000000001
52.30536115314103 6.8977
52.33035970494467 6.9372
52.35516711807904 6.92698
52.37997717147198 6.82747
52.40478986713005 6.852180000000001
52.42979908731974 6.83665
52.454617094216 6.8221
52.47943774942214 6.845210000000001
52.50426105495102 6.815739999999999
52.529280976059844 6.80655
52.554109609024096 6.7701199999999995
52.57894089837482 6.7728399999999995
52.60377484613117 6.7453199999999995
52.62880550079408 6.7441
52.65364479223379 6.70679
52.67848674816189 6.687130000000001
52.70352547971946 6.678
52.72837279155837 6.6635
52.753222773982785 6.64087
52.778075429022984 6.6687899999999996
52.80312495150885 6.665369999999999
52.827982978797436 6.5818
52.85284368481815 6.583010000000001
52.87770707160767 6.5625800000000005
52.90276741793998 6.551830000000001
52.92763619336701 6.53522
52.952507655698504 6.53385
52.977381806977576 6.51091
53.00245301017842 6.52133
53.02733256653592 6.5046800000000005
53.052214817996074 6.50879
53.077099766608484 6.48986
53.102181859804446 6.48891
53.127072229988265 6.45943
53.15196530349892 6.42427
53.17686108239249 6.40747
53.20195409881522 6.427630000000001
53.22685531582556 6.38128
53.25175924441303 6.36964
53.27666588664027 6.371230000000001
53.30176985962693 6.30166
53.3266819565689 6.3182599999999995
53.35159677336455 6.35047
53.376514312083096 6.368130000000001
53.40162927507703 6.31061
53.42655228516116 6.30295
53.45147802340193 6.24683
53.47660125628886 6.27431
53.50153247842639 6.2763599999999995
53.52646643496923 6.2359800000000005
53.55140312799818 6.2211300000000005
53.576537409691696 6.21361
53.60147960336152 6.1627
53.626424539786164 6.17213
53.65137222105307 6.15875
53.67651758529126 6.15545
53.70147078399681 6.15235
53.72642673383343 6.14329
53.75138543689533 6.10686
53.776541917524526 6.0877099999999995
53.801506154876755 6.05255
53.826473151763246 6.0563400000000005
53.851442910284916 6.02458
53.87661054126026 6.01616
53.9015858509782 6.00137
53.92656392866066 6.00128
53.95154477641532 5.99214
53.976723591801296 5.95852
54.00171000771266 5.9798800000000005
54.02669920004598 6.0024
54.051691170915745 5.90477
54.076881204886796 5.94166
54.101878760928514 5.9339900000000005
54.12687910187696 5.88099
54.152077577768296 5.878819999999999
54.1770835166946 5.87824
54.20209224691339 5.8730199999999995
54.22710377055121 5.85919
54.25231352511594 5.86447
54.27733066384342 5.81657
54.30235060239643 5.79
54.32737334290836 5.79939
54.35259441062629 5.71817
54.377622783395324 5.75577
54.40265396455061 5.7687800000000005
54.42768795623251 5.74442
54.45292037169559 5.694719999999999
54.477960012857906 5.704
54.50300247099511 5.6381
54.52804774825457 5.654669999999999
54.55329154616743 5.65031
54.57834249018678 5.60609
54.6033962597977 5.61921
54.6284528571545 5.59965
54.653708072335164 5.54939
54.67877035378786 5.56318
54.70383546947698 5.55682
54.72890342156389 5.543819999999999
54.7541700889442 5.46876
54.77924374251975 5.45794
54.8043202390049 5.42665
54.82959552413022 5.427169999999999
54.8546777351945 5.40174
54.87976279569621 5.3631
54.90485070780914 5.3996699999999995
54.930137506558005 5.3551400000000005
54.95523115074295 5.33327
54.98032765308844 5.32704
55.005427015775496 5.261340000000001
55.03072536339621 5.27537
55.05583047570572 5.27583
55.080938454927676 5.268269999999999
55.10604930325027 5.25151
55.131359235107396 5.21172
55.15647585066083 5.15785
55.181595341907496 5.11099
55.20671771104285 5.11192
55.232039262617704 5.09627
55.25716741665048 5.12798
55.28229845518636 5.09665
55.30743238042802 5.00204
55.33276558731939 5.00662
55.357905315183636 5.04539
55.383047936390035 4.97831
55.40819345314859 4.96553
55.433538351073295 4.95325
55.458689688238415 4.94597
55.483843927614096 4.87352
55.509197623043605 4.8641
55.53435769621134 4.86805
55.55952067826466 4.8491599999999995
55.5846865714265 4.82554
55.61005202069737 4.7817099999999995
55.63522376553902 4.76816
55.66039842818645 4.78587
55.68557601087004 4.80132
55.7109532500271 4.66962
55.73613670233794 4.72582
