TT I
1.2716486653135266 7.41989
1.2939594142134223 7.37332
1.3162702121660406 6.37389
1.3385810600174564 6.5587100000000005
1.3608919586137629 6.658060000000001
1.383202908801069 6.38006
1.405513911425503 6.61217
1.4278249673332093 6.38375
1.4501343378461518 6.1794
1.4724455028545926 5.88986
1.4947567236847858 5.92479
1.517068001182951 5.92382
1.5393793361953272 5.90457
1.5616907295681737 5.29894
1.5840021821477681 6.24124
1.60631369478041 5.61836
1.6286252683124185 5.08295
1.6509369035901333 4.81918
1.6732468618895553 4.88813
1.695558623192809 5.14578
1.7178704487808514 5.412640000000001
1.7401823395001077 5.1660900000000005
1.7625012545597203 4.93709
1.7848028405262486 4.78546
1.8071218901122095 4.66467
1.8294236121921872 4.66124
1.8517427996910911 4.49263
1.8740620574440425 5.0827
1.8963639900671978 5.01883
1.9186833908139995 4.84256
1.9409854680117449 4.98386
1.9633050151394713 4.910019999999999
1.9856246367570705 4.77074
2.0079269371922672 4.58146
2.03024671027244 4.359430000000001
2.0525491637446027 4.4054400000000005
2.074869091674931 4.7201699999999995
2.097171701569106 4.60065
2.1194917877373847 5.08087
2.141811954326636 4.56499
2.164114805233074 4.82055
2.186435135143035 6.06126
2.208738150935709 14.2631
2.231058647554722 27.8788
2.2533792288321184 21.3052
2.275682498336085 10.0541
2.298003251406138 6.17515
2.3203066942619714 5.514530000000001
2.3426276225136022 5.28748
2.3649486396617507 5.65717
2.387252348930071 5.4764800000000005
2.4095735463442893 5.70907
2.4318774374315884 5.8520900000000005
2.4541988185014043 6.29373
2.476502894794693 6.44907
2.498824462909887 6.04145
2.521146125856138 6.9523
2.5434504863470337 7.63845
2.5657723414244717 7.202839999999999
2.588076895590662 7.93462
2.610398946189713 7.85151
2.6327210958598384 7.30132
2.6550259469304716 7.158360000000001
2.6773482972090137 7.50517
2.6996533504259 7.61428
2.7219759047039602 8.287939999999999
2.744298562293959 8.49375
2.7666039251246595 8.10317
2.7889267918020164 7.46497
2.8112323652516555 7.97395
2.833555444408179 8.9685
2.8558786311183852 8.633
2.8781845268938557 8.84709
2.9005079311721484 8.78769
2.9228140460410397 9.02243
2.9451376712799635 8.926160000000001
2.967444008632326 10.1497
2.9897678582247247 10.5393
3.0120918213106695 10.5842
3.0343984987899373 11.1
3.0567226913198637 11.0258
3.079029599759726 11.6864
3.101354025127254 12.3323
3.123678568232338 12.4614
3.145985829517914 12.9228
3.16831061055229 13.4455
3.1906181112775593 14.4711
3.212943133635653 15.3583
3.2352682779763207 14.9966
3.2575761442691227 15.4508
3.2799015350264273 15.8434
3.302209649240067 16.5228
3.3245352898092655 16.8041
3.3468436553365257 17.5512
3.369169549113219 17.9656
3.3914955708171384 18.9224
3.413804319727358 18.5383
3.4361305997334863 19.1095
3.4584396084414553 19.4561
3.4807661501462652 20.4362
3.503092824025881 20.8347
3.5254022288463154 21.399
3.5477291695206588 22.1719
3.5700388426251948 22.6969
3.5923660534916446 24.095
3.6146934007816114 38.4363
3.637003482731501 89.8085
3.6593311053109985 99.5402
3.681641464033634 57.2558
3.7039693653009733 30.7803
3.726297407241705 26.2231
3.7486081875460804 25.8711
3.7709365132734978 26.4017
3.793247578841633 26.7059
3.8155761917550093 26.7418
3.8378875459837216 27.5504
3.8602164494827234 27.5669
3.882545499606844 28.9698
3.9048572932539183 29.3032
3.9271866390645718 29.1927
3.9494987298666713 29.9405
3.971828374764527 30.8915
3.9941581705403255 30.6948
4.016470713506008 31.6902
4.038800813471445 32.6322
4.061113662089144 33.278
4.0834440696459176 33.5447
4.105774632334751 34.4294
4.128087945865126 35.3415
4.150418821249301 35.8556
4.172732448931298 37.0832
4.195063640413578 38.9687
4.2173775856475215 43.42
4.239709096631102 75.1258
4.262040768704612 236.642
4.284355196706267 322.038
4.306687193387355 206.658
4.329001947444346 80.9725
4.35133427213731 48.3636
4.373666762177566 45.1302
4.395982011761091 44.9816
4.418314834921175 45.9512
4.44063041906622 54.2513
4.4629635787515625 65.2496
4.4852969080429785 64.9901
4.5076130004776225 54.4702
4.529946671403969 50.3805
4.552263106909177 50.1893
4.574597122877047 51.4334
4.596931312711224 52.5825
4.619248269273446 53.5249
4.6415828092605835 54.6111
4.663900117405352 55.593
4.686235010953232 57.1139
4.708552674085913 58.5358
4.730887924602802 59.8231
4.753223354952695 61.3074
4.775541557023902 62.8699
4.797877349456786 63.7174
4.820195915032126 66.2614
4.842532072957498 67.7849
4.864868414979744 69.7951
4.88718753227192 71.566
4.909524244902505 73.4121
4.931843734218147 75.7221
4.954180820867835 78.1975
4.976518095879839 81.5606
4.998838149695359 83.7964
5.021175803844231 87.9381
5.043496238205739 91.3004
5.065834274903528 96.4696
5.088172504230693 101.585
5.1104935158799565 107.764
5.132832132875765 131.14600000000002
5.155153533596801 176.361
5.1774925416746225 213.63299999999998
5.199814334878411 380.05199999999996
5.2221537374521505 1085.99
5.244493338631803 2975.27
5.266815727034316 7704.3
5.289155727832427 12319.6
5.311478517248165 9117.49
5.333818921080011 3143.82
5.356159527788849 639.0880000000001
5.3784829252032536 198.36900000000003
5.400823940070432 148.366
5.423147747031976 130.683
5.445489173474152 120.55799999999999
5.467830807066149 114.044
5.490155234831516 110.15899999999999
5.512497285125229 106.46700000000001
5.534822130975162 104.801
5.557164601388673 102.734
5.579489868738879 100.354
5.601832762690846 99.068
5.6241758697774475 97.9845
5.646501775867269 97.8027
5.668845311622074 95.9874
5.691171647754637 94.8363
5.713515615597765 93.4186
5.735859800852677 93.109
5.758186788542988 92.3079
5.780531411018185 92.3718
5.802858837297399 91.7316
5.825203900414495 91.7152
5.8475491852224 91.84899999999999
5.869877275883075 92.9803
5.892223006467101 94.087
5.914551544266608 95.5238
5.936897724049891 99.0226
5.959244129804903 104.781
5.981573344815301 124.82799999999999
6.0039202049061 220.313
6.026249875609095 483.452
6.04859719346037 1018.91
6.070927323278297 2216.24
6.093275102315365 4358.37
6.115623113320588 5364.6
6.137953938319995 3340.74
6.160302415650845 1087.45
6.182633708324452 259.482
6.2049826554078376 117.613
6.227331838745022 94.6651
6.249663839443684 86.4529
6.27201349767565 83.8254
6.294345974611799 89.3211
6.316696111167083 101.70700000000001
6.339046488263839 95.6492
6.361379686074702 80.4087
6.383730546639482 72.3218
6.406064229255215 69.5044
6.428415576718203 69.1516
6.450749747566656 67.8973
6.47310158535871 66.1346
6.495453669698332 66.0661
6.517788579421056 65.1651
6.540141159237969 64.0922
6.562476565766648 63.7802
6.5848296444934045 63.1673
6.607182974060425 63.0219
6.6295191323281015 63.1097
6.651872965955752 66.6355
6.6742096296068985 93.4131
6.6965639707294615 140.696
6.71891856698715 139.91899999999998
6.741255995248479 95.4152
6.763611104154477 68.5129
6.785949046381137 60.8444
6.808304671371482 59.0538
6.8306605557940046 58.4587
6.852999275508618 57.7854
6.875355681171544 57.2994
6.897694923437771 57.3432
6.92005185377892 57.6336
6.9423916220322655 56.882
6.964749080490181 55.967
6.987106804399774 55.9757
7.009447368180821 56.2815
7.031805625367033 55.7993
7.054146723727803 56.0381
7.076505517631004 55.5019
7.098864581288365 55.5539
7.121206488070854 55.3415
7.143566093607822 55.2943
7.165908543567245 55.6478
7.188268694426048 55.7288
7.2106291193438095 55.6768
7.232972390625943 57.2917
7.255333366030969 69.7417
7.277677189091925 125.322
7.300038718428332 174.13
7.322400526130865 146.21
7.344745183422596 90.2694
7.367107550224791 62.2084
7.389452767901992 56.5194
7.411815697249891 55.8312
7.434161478756298 55.0723
7.456524974096713 54.7736
7.478888753837185 54.74100000000001
7.501235387657368 55.2063
7.523599738562711 55.1984
7.545946944825532 55.3852
7.568311870344528 55.7869
7.5906770845765665 56.104
7.613025156078678 57.5286
7.635390950099687 58.8225
7.657739602662809 57.5688
7.680105979923558 56.6289
7.702472650212829 56.3594
7.724822180948224 56.2544
7.747189439655568 56.5065
7.769539560075357 56.2733
7.791907410653562 56.9775
7.81425812420825 57.015
7.836626570110925 57.3483
7.858995315087906 58.2693
7.881346924933401 58.2125
7.903716270417482 58.8748
7.926068482028405 59.3404
7.948438431475253 60.1205
7.9708086843180235 60.3796
7.993161805171116 60.981
8.015532667162402 61.1976
8.037886398416653 62.2316
8.060257873014221 62.4875
8.082629655331942 62.9795
8.104984308787587 64.1363
8.127356708900503 67.5518
8.149711981398308 73.5144
8.172085002766314 75.6647
8.194458336181368 72.4252
8.216814543847752 70.2879
8.23918850371002 70.1857
8.26154533906492 70.5873
8.283919928836452 72.3109
8.306277395339652 73.1184
8.328652618483376 74.9168
8.351028159736202 76.7387
8.373386579575245 78.9155
8.395762759396959 80.7089
8.418121819038275 85.7617
8.440498640894003 99.6285
8.462875785192262 114.758
8.485235811156207 126.492
8.507613602688501 168.58
8.529974277114228 263.325
8.552352719347912 404.719
8.574731488360351 676.5260000000001
8.59709314210385 1194.25
8.619472567021075 1868.3
8.64183487789147 2196.22
8.664214962183097 1809.06
8.686577933647762 956.803
8.708958680784317 372.899
8.731339760774953 168.271
8.753703729764451 112.88
8.77608547780821 100.28399999999999
8.798450116065078 96.0959
8.820832535634787 93.1421
8.843215292401656 91.5388
8.865580941199045 89.8408
8.887964374703538 88.8501
8.910330701447199 90.0441
8.932714815164482 92.4965
8.955099270424924 91.6045
8.977466620733543 88.4681
8.999851761421976 85.5721
9.022219798361645 84.3172
9.04460562795561 84.1623
9.066991803441677 83.3276
9.089360876979615 83.0399
9.111747746589993 83.1217
9.13411751544971 82.2477
9.156505082664324 82.2891
9.178875550323522 82.3777
9.20126381862328 82.7564
9.223652438908596 83.3352
9.246023961427412 83.2841
9.26841328802173 82.5457
9.290785518039224 82.5389
9.313175554425882 83.2319
9.335565947154315 83.1054
9.357939245086508 83.1124
9.380330352834827 83.1251
9.40270436697103 83.3831
9.425096193225055 83.2019
9.447488380180165 84.6074
9.469863475295412 84.7041
9.492256385987508 85.2899
9.514632206018318 85.524
9.537025843935714 85.8885
9.559402392368193 86.6432
9.581796761000229 87.7971
9.604191496441521 88.6792
9.626569144158516 92.0571
9.648964615551032 96.8807
9.671343000390081 98.6461
9.693739211225699 96.3933
9.716135793237463 93.9788
9.738515290448102 93.9229
9.760912617143402 94.6002
9.783292860202891 95.4852
9.805690935076182 96.8075
9.828089385495742 97.715
9.850470754023561 100.506
9.872869957865444 108.71799999999999
9.89525208097539 124.01700000000001
9.917652041736662 136.695
9.940052382417589 136.847
9.962435644102392 143.666
9.984836746950979 181.051
10.007220771957746 250.00799999999998
10.029622640473708 354.32800000000003
10.052007432299963 533.567
10.074410069984072 819.008
10.096813093716005 1261.85
10.119199042482517 1701.91
10.141602840636468 1928.3
10.163989564971628 1605.15
10.186394141051062 898.2489999999999
10.208799107559706 395.33099999999996
10.231187001965623 187.34
10.253592751657669 126.977
10.275981430388155 114.375
10.298387966769793 113.709
10.320794897965431 116.193
10.343184759907361 115.03399999999999
10.36559248305461 109.318
10.387983138083852 105.47200000000001
10.410391656691655 107.99600000000001
10.432800574501677 120.111
10.455192425893369 138.04
10.47760214443012 164.795
10.499994797678786 206.479
10.522405320453982 288.248
10.54479877906917 399.106
10.567210109595656 518.7819999999999
10.5896218454736 564.211
10.612016518879773 510.81199999999995
10.634429067781074 344.17199999999997
10.656824555333241 194.954
10.679237920773568 121.318
10.701651695961992 95.6237
10.724048411481384 89.7257
10.746463008485165 86.8645
10.768860546937125 85.4039
10.791275969274796 83.5042
10.81369180576079 82.6406
10.836090585366925 81.5847
10.858507252467449 80.2244
10.88090686379991 79.4181
10.903324365036394 78.8362
10.925724811614439 78.7841
10.948143150509463 79.9775
10.970561909719066 79.1092
10.992963615930844 77.2849
11.015383218085756 75.1468
11.037785768347074 73.7477
11.06020621697282 73.3084
11.082627090322113 72.9084
11.105030913430326 72.2917
11.12745263854165 72.7133
11.149857314510728 76.4226
11.172279894912576 82.5075
11.194702904450653 83.5407
11.217108866490921 79.0656
11.239532736615194 74.5302
11.26193956033512 72.357
11.284364294577085 70.82300000000001
11.306789462371718 68.5545
11.329197585398376 67.3907
11.351623622610898 67.2655
11.37403261614354 66.6492
11.396459526308487 66.3862
11.418869393879497 66.024
11.441297180532617 65.6716
11.463725406927658 65.3331
11.486136592353875 65.0177
11.508565700543707 65.8947
11.530977768845315 67.6947
11.553407762368774 68.4406
11.575838200059769 67.6393
11.598251599479612 66.0522
11.620682927815501 64.4386
11.64309721895548 64.0763
11.665529441478206 63.7035
11.687962112597958 63.2594
11.710377748130886 63.2957
11.732811318753434 63.5525
11.755227854859067 63.3613
11.777662328529495 63.1843
11.800079768750786 63.0611
11.822515149015453 62.6436
11.844950984084935 63.1574
11.867369787303163 62.9879
11.889806534289491 62.8699
11.912226250487029 63.266999999999996
11.934663912939751 63.2239
11.9571020346363 63.306000000000004
11.979523127133968 63.3348
12.001962169624331 64.054
12.024384183972964 65.1713
12.046824150809913 68.5404
12.069264581333726 73.8976
12.091687985297767 80.3374
12.11412934550045 89.9282
12.136553680195208 104.40799999999999
12.158995973632788 126.32799999999999
12.181438735204349 153.107
12.20386447284199 182.05
12.226308172985636 206.396
12.24873485024193 202.96099999999998
12.271179492516982 166.606
12.293607112949127 130.235
12.316052700916226 95.7984
12.338498763250042 78.7249
12.360927805303868 70.5245
12.383374818673879 67.0909
12.405804812803074 65.2333
12.428252780773262 64.7016
12.45070122756722 64.848
12.473132656675375 64.4764
12.49558206341869 64.8536
12.518014453510101 64.97
12.540464823770117 65.0812
12.562915677315177 65.2318
12.58534951575545 65.9693
12.607801338171472 67.877
12.630236146511358 73.6097
12.652688941369085 78.4684
12.675124723177234 78.7739
12.697578494048786 75.1485
12.720032754458185 70.3549
12.742470003354093 68.6164
12.764925245138771 68.0518
12.787363476431278 68.3052
12.809819703166806 68.9229
12.83227642391173 69.6774
12.854716135692716 70.2156
12.877173846755147 71.2472
12.899614549869717 71.1237
12.9220732548287 72.3698
12.94453245827299 72.78699999999999
12.966974655289818 73.7856
12.989434858002571 74.5426
13.011878055298721 75.4518
13.034339260862497 76.2935
13.056800969391883 77.6385
13.079245674017244 79.6343
13.101708390774869 81.7327
13.12415410463411 88.8442
13.146617833206086 101.619
13.169064559883248 114.015
13.191529303857127 129.47299999999998
13.213994557076367 152.34799999999998
13.236442809902437 187.94799999999998
13.258909083908291 241.295
13.28135835851934 302.66700000000003
13.30382565690295 371.35900000000004
13.326293469022952 426.298
13.348744283242008 432.76599999999996
13.371213125129904 364.32
13.39366497011003 264.865
13.416134845360597 174.415
13.438605238843131 123.44200000000001
13.46105863690397 106.265
13.483530069144786 106.625
13.505984506951902 112.29299999999999
13.528456981549432 122.34200000000001
13.550929978879088 137.303
13.573385983253365 161.4
13.595860028340867 199.30200000000002
13.618317081455832 250.19
13.64079217790333 304.813
13.663250283359057 352.64599999999996
13.685726434770173 375.186
13.708203115221277 344.005
13.730662806148091 264.267
13.75314054697177 186.86700000000002
13.775601299246777 130.18
13.798080104050406 97.77600000000001
13.820559442405358 85.6323
13.843021793671388 82.0724
13.865502201420897 80.717
13.887965623051947 80.1473
13.910447103807167 79.0192
13.932929122629764 77.4428
13.955394156785959 77.1406
13.977877254034569 76.2177
14.000343367582113 75.5302
14.022827546871707 74.7274
14.045294743423524 74.2773
14.06778000837062 73.473
14.090265817715476 73.4427
14.112734645763819 73.0167
14.13522154619454 72.7862
14.157691466286913 72.7658
14.180179461423874 72.663
14.202668005486178 71.7987
14.22513957064374 71.3442
14.247629214846473 70.9374
14.270101881097517 70.6944
14.29259262906496 71.056
14.315083930490205 71.9815
14.337558255389705 72.0451
14.360050666019726 71.6607
14.382526101071944 70.4227
14.405019624534942 69.7847
14.427513705993134 69.0201
14.449990813291825 69.0714
14.47248601302899 68.9436
14.49496423954951 69.2771
14.517460561197822 69.5477
14.539939910570322 69.2883
14.562437357763558 69.5587
14.58493536931253 70.5638
14.607416409993311 71.5659
14.62991555254159 72.3875
14.652397725157423 72.2988
14.674898002342799 71.5494
14.697398848433282 70.9534
14.719882725991326 71.7282
14.74238471217934 72.5387
14.764869730765593 75.896
14.787372860692983 79.7336
14.809876564079925 84.5254
14.83236330125751 90.3955
14.854868153850365 99.1468
14.877356041159485 111.939
14.899862046604186 130.64600000000002
14.922351087688757 154.816
14.944858249632887 182.012
14.967365991421232 209.459
14.989856770231246 223.886
15.012365673994204 219.907
15.03485761569738 188.882
15.05736768508665 148.566
15.07987833888692 113.87899999999999
15.102372032001655 90.4738
15.124883856909658 77.5284
15.14737872204565 72.8458
15.169891721717274 71.08
15.192405310371893 70.7416
15.214901940621196 71.4507
15.237416709527137 71.6358
15.259914520936249 71.6575
15.282430473753607 70.7094
15.304947020131227 69.5527
15.327446610371178 68.527
15.349964346154254 67.8149
15.372465126703139 67.3143
15.394984055556009 66.9224
15.417486030076159 66.9533
15.44000615566487 66.4127
15.462526881230803 66.3967
15.485030653812652 66.6158
15.507552581617434 66.7738
15.530057557334603 66.887
15.55258069104857 66.6328
15.575104429329837 66.8305
15.597611216864632 66.3209
15.620136166564563 66.4211
15.6426441664095 67.2072
15.665170331202765 69.7994
15.687697105158826 73.2515
15.710206930593545 76.5418
15.732734925158933 80.9817
15.755245972089478 87.3111
15.77777519094324 96.5282
15.800287463046663 109.139
15.822817909869592 127.38799999999999
15.84534897229804 147.69299999999998
15.867863089299354 171.291
15.890395385222186 188.282
15.912910736597423 195.581
15.935444269699861 182.364
15.957978423016485 154.817
15.980495633101265 122.647
16.003031029129367 95.7698
16.02554948280019 76.1809
16.048086125229432 67.9748
16.070623392487107 65.6517
16.09314371869582 65.1313
16.11568223789321 64.2247
16.13820381691126 63.1181
16.160743591742527 62.0371
16.183283996022084 60.9588
16.205807461423195 59.871
16.228349126881973 59.3364
16.25087385432698 59.3031
16.27341678466365 58.9185
16.29594277784926 58.773999999999994
16.31848697676433 59.1388
16.341031811604868 59.3391
16.36355971058487 59.8141
16.3861058195587 59.4812
16.40863499352978 58.2219
16.431182380342005 57.1442
16.453730407713202 56.7979
16.476261501364792 56.246
16.498810812136167 55.9079
16.52134319004079 55.9186
16.54389378792203 55.8905
16.566445031001553 55.6798
16.588979342490088 55.6103
16.61153187824822 55.2936
16.634067483263312 55.4135
16.656621315414416 55.3038
16.679175797408888 54.9781
16.701713349928728 54.8614
16.72426913389191 55.2409
16.74680798922351 55.1943
16.76936507887444 55.1936
16.791905240734874 55.1965
16.814463639794468 55.2094
16.837022695210294 55.2301
16.859564824093756 55.6028
16.882125194503903 56.2882
16.904668639217885 56.9957
16.927230328348003 57.2603
16.949792678493612 57.4597
16.972338104193863 56.8085
16.994901778652235 56.0923
17.017448529496576 56.1664
17.040013531998152 56.2209
17.06257920018044 56.8671
17.0851279459922 57.5353
17.107694947817667 58.2919
17.130245028099072 59.1453
17.15281336730298 60.5292
17.17536478578733 62.3015
17.19793446610687 64.25399999999999
17.220504818648422 67.3589
17.243058251703697 70.4329
17.265629950971032 74.7205
17.288184731571736 79.0049
17.310757781306908 83.0649
17.33333150794385 84.1635
17.355888317140174 82.6528
17.37846339986244 78.365
17.401021565958885 71.6488
17.42359800851343 66.2619
17.44617513265564 62.2275
17.468735341390783 60.3108
17.491261035594565 59.4235
17.51396340099364 59.3013
17.536490463869136 59.5833
17.559018209820174 59.6535
17.58154663977963 59.8052
17.604251766089718 59.7601
17.626781572227713 60.0849
17.64931206518155 60.2765
17.671843245885103 60.7822
17.69455114821572 61.1028
17.717083712612634 61.4699
17.739616967569667 61.6931
17.762150914021706 61.7954
17.78486160749854 61.851000000000006
17.807396945166804 62.6145
17.829932977143503 63.2773
17.85246970436452 64.706
17.875183204129467 66.7287
17.897721330097664 69.194
17.920260154126645 71.666
17.942799677153296 74.5614
17.9655159983646 78.1742
17.988056927677544 83.3443
18.010598558807683 91.0389
18.033140892692916 100.616
18.05586005052525 110.83
18.07840379824407 122.53
18.10094825154059 133.451
18.12366954819864 141.72899999999998
18.146215420998306 141.952
18.16876200220057 132.808
18.191309292745153 117.815
18.214033452627167 103.613
18.236582170236648 91.4403
18.259131600016456 86.5242
18.281681742907335 86.9921
18.304408781233683 91.0438
18.32696035875955 96.1665
18.349512652227624 101.652
18.372065662579683 106.12700000000001
18.394795594587553 108.09200000000001
18.41735004715306 104.574
18.43990521943684 97.1703
18.46246111238171 87.7789
18.485193953325208 77.6765
18.507751296070428 70.4438
18.530309362314178 66.3637
18.552868153000343 63.9313
18.57560391815056 62.5871
18.59816416623245 62.0233
18.620725141597372 61.7687
18.643286845190268 61.1769
18.666025549835414 60.8848
18.688588718427933 60.2203
18.711152618092243 60.3319
18.73389353884365 59.983000000000004
18.75645890921984 59.3607
18.77902501351406 59.1756
18.801591852673102 59.0916
18.824335739722738 58.3971
18.846904057212626 58.5774
18.8694731124168 58.1768
18.89204290628315 58.1953
18.914789774966803 58.0268
18.937361054791623 57.7481
18.959933076131318 57.4469
18.982505839934877 57.4571
19.00525570560582 57.54
19.027829963004184 57.2622
19.05040496572238 57.2704
19.072980714710468 57.3555
19.095733592739563 57.4042
19.11831084296757 57.8884
19.140888842324735 58.3191
19.16346759176222 58.5652
19.18622349753803 59.2884
19.208803755869358 60.0983
19.231384767143577 61.3152
19.253966532312948 62.6887
19.276725481241822 64.9504
19.29930876296784 67.1223
19.3218928014549 69.9978
19.34465404436217 73.2369
19.36723960516257 75.7527
19.389825925592426 76.9464
19.412413006605938 76.0766
19.43517731967805 72.3947
19.457765930683355 68.1859
19.48035530514408 63.3099
19.50294544401556 59.5671
19.525712842708348 56.9813
19.54830451925909 55.5978
19.570896963095727 54.5305
19.593490175174704 54.3124
19.616260674962184 54.1601
19.638855432416964 53.9145
19.661450960992624 54.0887
19.68404726164677 53.8076
19.706820878021247 53.6235
19.729418731756834 53.9936
19.752017360452857 53.898999999999994
19.77461676506804 53.7757
19.797393513540218 53.9868
19.819994478951667 54.2751
19.84259622316767 54.7895
19.8651987471481 55.3151
19.887978643247177 55.6181
19.91058273574792 56.0433
19.933187610901943 56.8793
19.955969879466828 57.803999999999995
19.97857632894404 59.3285
20.00118356396599 60.8727
20.023791585494575 63.0079
20.046577028914875 65.4924
20.069186632506966 67.679
20.091797025500632 69.7034
20.114408208858933 70.535
20.137196842715273 70.4977
20.159809615886765 68.5172
20.18242318232135 65.9969
20.20503754298326 63.7613
20.227829382875154 62.592
20.250445341109344 62.6157
20.27306209647285 63.2771
20.29567964993108 64.3965
20.31847471147704 65.4371
20.34109387027612 66.3385
20.363713830075454 66.1174
20.386334591841646 64.6352
20.409132890679302 61.9977
20.431755265564437 58.6508
20.454378445325528 55.7817
20.477002430930366 53.8221
20.499803982716553 52.9365
20.522429589228004 51.9869
20.54505600449589 51.5901
20.567683229489194 51.2845
20.590488049900088 51.0751
20.61311690359731 50.7118
20.63574656993626 50.4173
20.658553853717297 50.0023
20.681185154618298 49.9515
20.703817271080066 49.8479
20.72645020407368 49.6526
20.749260783967177 49.4578
20.771895359337133 49.4238
20.794530754161617 49.3128
20.817166969412938 49.1663
20.83998086114876 49.136
20.86261872660049 48.9913
20.885257415405402 49.1153
20.90789692853701 49.0597
20.930714147864748 48.8764
20.953355319030678 49.0354
20.97599731745334 49.2761
20.99864014410749 49.0163
21.021460706796564 48.9016
21.044105199328826 49.2144
21.06675052302631 49.4389
21.089396678865015 49.6757
21.112220600704806 49.9144
21.134868430275347 50.181999999999995
21.15751709492456 50.4052
21.180166595629693 50.8586
21.202993892429635 51.1389
21.22564507473034 51.7554
21.24829709602816 51.8657
21.27112693608965 52.0101
21.293780644891275 51.7786
21.316435195634053 51.0343
21.339090589297417 50.4802
21.361923832041875 49.949
21.384580921090404 49.356
21.407238856007325 49.0192
21.429897637773326 48.861999999999995
21.45273429906592 48.7825
21.475394784108598 48.8311
21.498056118951983 48.6512
21.520718304578022 48.9009
21.543558400304388 49.0685
21.566222297108816 49.1893
21.58888704765135 49.3617
21.61155265291521 49.6192
21.63439619898156 50.2944
21.657063523335786 50.3364
21.67973170537063 50.8343
21.7024007460706 51.32
21.72524775840385 51.9864
21.747918526116475 53.0975
21.770590155457388 54.2324
21.79326264741238 55.86
21.816113141960237 57.6081
21.838787368860547 59.4101
21.861462461341976 61.1303
21.884315579735777 63.1945
21.90699241312273 64.585
21.92967011506078 65.2484
21.95234868653799 64.9433
21.9752053151131 63.6964
21.997885635446785 61.8274
22.020566828293532 59.9788
22.04324889464272 57.8999
22.066109049404666 56.7052
22.088792872571794 56.3443
22.111477572219204 56.5306
22.1341631493376 56.5184
22.157026846313123 56.3257
22.179714188221507 55.7588
22.202402410582668 54.6239
22.22509151438863 52.9611
22.24795876962584 51.8038
22.270649646204486 50.8837
22.293341407213727 50.2832
22.316034053646906 49.7595
22.338904883215342 49.2856
22.36159931041458 49.4367
22.38429462602756 49.3666
22.40699083104897 49.3296
22.429865251039757 49.1399
22.452563244831367 49.4237
22.47526213102522 49.2908
22.49813925616515 49.0723
22.520839937143307 48.9741
22.543541513520587 49.0865
22.56624398629403 48.9227
22.589124730075895 48.7845
22.611829005656723 49.1207
22.63453418063466 49.0382
22.657240256008077 49.3678
22.680124634582935 49.433
22.70283252079775 49.5414
22.725541310413075 49.9466
22.74825100442868 50.1165
22.771139033969575 50.6432
22.79385054687155 50.8997
22.81656296718292 51.5971
22.83927629590484 52.2948
22.862167992606945 53.2551
22.88488314827121 54.493
22.907599215359284 55.4929
22.93031619487366 56.4716
22.953211574954405 57.4346
22.975930389478226 58.4008
22.998650119445763 58.4534
23.02137076586092 57.8356
23.044269845560063 56.6754
23.06699233506288 54.766999999999996
23.089715744034912 53.1215
23.112617610931565 51.2929
23.135342869061212 50.2006
23.158069049684816 49.5235
23.1807961538087 49.148
23.20370174880544 49.15
23.226430710184808 49.1758
23.249160598093425 49.2299
23.271891413539002 49.324
23.294800752937697 49.2
23.31753343374794 49.3601
23.340267045128353 49.5013
23.36300158808808 49.8271
23.38591468821339 50.1284
23.408651104658304 50.5526
23.431388455719986 51.1756
23.454126742409 51.9988
23.4770436196085 53.0357
23.499783787914662 54.2888
23.522524894889884 55.2281
23.54526694154616 56.2168
23.56818761219047 57.3545
23.59093154860734 57.9054
23.613676427751283 58.5569
23.636422250635754 57.6798
23.659346731118656 56.0072
23.68209445191868 53.9282
23.704843119509587 51.7642
23.72759273490623 49.835
23.750521041644767 48.3277
23.77327256312355 47.4092
23.796025035462787 46.8118
23.818956224555475 46.3878
23.841710609113413 46.4265
23.86446594758979 46.2237
23.887222241002014 45.8683
23.910157285144578 45.5194
23.932915498962537 45.4821
23.955674670778713 45.3697
23.978434801611975 45.1773
24.001373717286125 45.0229
24.024135776723917 44.9255
24.046898798245582 44.907
24.06966278287146 44.9357
24.092605586582614 44.6827
24.115371508023642 44.5242
24.1381383956401 44.276
24.16090625045381 44.3619
24.183852958731244 44.3197
24.206622758582608 44.1353
24.229393528706886 44.0044
24.252165270127392 43.8857
24.27511589952438 43.8846
24.297889594216997 43.7609
24.32066426328598 43.5639
24.34343990775613 43.6042
24.36639447485003 43.4338
24.38917208083877 43.4476
24.41195066531332 43.3418
24.43490819850244 43.4516
24.457688750692377 43.2531
24.48047028445616 43.1666
24.503252800821233 43.3868
24.526214300784112 43.4116
24.548998793132213 43.3554
24.57178427117417 43.2694
24.59457073593893 43.285
24.617536219319863 43.2372
24.64032466834748 43.3486
24.663114107195035 43.0649
24.685904536893013 42.8521
24.708874020360852 42.763000000000005
24.731666442613744 42.7382
24.754459858818787 42.645
24.777254270007962 42.6591
24.80022777025625 42.5449
24.82302418230472 42.485
24.845821592443674 42.4912
24.86862000170663 42.528999999999996
24.891597535453727 42.3735
24.914397953892728 42.663999999999994
24.93719937456671 42.5726
24.96000179851076 42.6055
24.98298338249997 42.8831
25.00578782394922 43.0023
25.028593271784167 43.1659
25.05157790644186 43.5656
25.07438537804115 43.6175
25.097193859145293 43.8566
25.120003350792075 44.1558
25.142992065061257 44.4841
25.165803588823465 44.6809
25.18861612625217 44.9711
25.211429678386736 45.111000000000004
25.234422489079968 45.1246
25.257238081693636 45.1502
25.280054692141732 45.1765
25.3028723214652 45.2564
25.325869245420463 45.206
25.348688923599397 45.3092
25.371509623787006 45.3334
25.394331347025812 45.0098
25.41733240110666 44.5531
25.440156181590016 43.7739
25.46298098826268 43.2124
25.48580682216873 42.7632
25.50881202326435 42.2884
25.53163992281684 41.8043
25.55446885274561 41.5765
25.577298814096377 41.2643
25.600308179121807 41.2196
25.623140214533745 41.2884
25.64597328451537 41.1727
25.66898578564376 40.8714
25.691820936010206 40.8149
25.714657124097695 40.8146
25.737494350954734 40.8715
25.760511045684957 40.7928
25.783350361364224 40.8324
25.806190718969255 40.689
25.82903211955018 40.976000000000006
25.852053024868923 41.0756
25.874896522722523 40.9728
25.897741066713106 40.8496
25.920586657892454 40.914
25.943611790812668 41.0567
25.966459487728237 41.17100000000001
25.989308234998564 41.1931
26.01215803367705 41.7205
26.03518741123814 41.9101
26.05803932412957 41.857
26.080892291600094 41.8681
26.10374631470478 41.9388
26.12677995397268 42.0745
26.14963609978026 42.1001
26.172493304397875 41.63
26.19535156888223 41.398
26.218389486949604 41.1957
26.241249882640123 40.9302
26.26411134137826 40.5739
26.28715248187403 40.5891
26.31001607820869 40.4422
26.3328807407756 40.443000000000005
26.35574647063438 40.4819
26.37879191991473 40.4734
26.401659795896734 40.4569
26.424528742360263 40.6445
26.447398760366614 40.7859
26.470448535598294 40.843
26.49332070826805 41.0199
26.516193955675355 41.4291
26.53906827888316 41.5874
26.562122397260108 41.7124
26.584998883685063 42.1044
26.607876449110325 42.3342
26.63075509460056 42.4899
26.65381357334404 42.5069
26.67669439061878 42.4704
26.699576291163382 42.4076
26.722459276044212 42.2783
26.745522132402975 41.9959
26.768407297649354 41.7672
26.791293550442003 41.3627
26.814180891848974 41.0786
26.837248143099337 40.9658
26.860137673466657 40.7263
26.88302829566349 40.5226
26.90592001075963 40.213
26.92899167420566 40.1591
26.951885586870763 39.7903
26.974780595655517 39.5048
26.99785558178161 39.4253
27.020752794605112 39.3695
27.043651106772522 39.0972
27.06655051935668 39.1561
27.089629948036183 38.9199
27.112531573292053 39.1117
27.135434302194138 39.0387
27.158338135817015 38.7393
27.181422024430987 38.8417
27.204328079372566 38.7904
27.22723524226965 38.7592
27.250143514198573 38.8805
27.273231880156334 38.9014
27.296142382065014 38.8045
27.319053996245536 38.5878
27.341966723775965 38.6335
27.365059584515222 38.7339
27.38797455070062 38.6824
27.410890633481237 38.6738
27.433807833936918 38.7243
27.456905206923906 38.8077
27.47982465472398 38.6681
27.502745223449743 38.8368
27.525666914182825 38.9943
27.548768816912457 38.8614
27.571692763693633 38.7441
27.59461783573812 38.7102
27.617723149491244 38.5982
27.640650484125285 38.4517
27.66357894728264 38.4058
27.686508540048052 38.2937
27.709618414237887 38.3082
27.732550278321757 38.1338
27.755483275279115 38.1735
27.778417406196485 38.0927
27.801531858397514 38.0947
27.824468269376716 38.0807
27.847405817586786 38.2279
27.870344504116094 38.3659
27.893463551932008 38.4658
27.916404527281053 38.6205
27.93934664422563 38.7687
27.962289903855886 38.6988
27.98541356491974 38.8866
28.00835912214229 38.9807
28.03130582533231 39.2972
28.054253675581805 39.4437
28.077381967556104 39.2348
28.100332124185126 39.3213
28.123283431160893 39.2588
28.146235889577238 39.064
28.169368830154156 38.8758
28.192323603752033 38.7683
28.215279532083304 38.4705
28.238415973016764 38.2554
28.261374223145094 38.2377
28.284333631303806 37.7928
28.307294198589954 37.7509
28.330435319167677 37.5118
28.353398217078915 37.099000000000004
28.376362277420153 36.9431
28.39932750129032 36.7905
28.422473319286713 36.7453
28.44544088262495 36.6513
28.468409612800283 36.5149
28.491379510913497 36.4305
28.51453004413313 36.3005
28.53750229057244 36.1438
28.56047570826344 36.1569
28.583450298308804 36.1757
28.606605564586562 35.7826
28.629582511831156 35.9345
28.65256063474956 35.8578
28.675539934446338 35.8743
28.698699951647605 35.7501
28.72168161743193 35.6862
28.74466446331978 35.8084
28.767648490417624 35.8004
28.790813276438353 35.725
28.813799678527303 35.7058
28.836787265157085 35.6725
28.859955641890075 35.7612
28.882945610203045 35.6749
28.905936766392035 35.6052
28.928929111566863 35.5415
28.952102288520145 35.5945
28.975097024308607 35.3702
28.998092952423807 35.2834
29.021090073977508 35.2076
29.04426806913204 35.1776
29.067267590245258 34.9467
29.090268308143695 34.9057
29.11327022394099 34.7674
29.13645305530891 34.6616
29.159457379627167 34.6669
29.18246290519685 34.5299
29.20546963313352 34.5452
29.22865731875826 34.6632
29.25166646419296 34.626
29.27467681535305 34.4504
29.29768837335608 34.5883
29.320880931312562 34.6203
29.34389491580634 34.4999
29.366910110507334 34.4896
29.38992651653503 34.5692
29.41312396492981 34.5118
29.436142806456754 34.3823
29.45916286268059 34.288000000000004
29.48236399319994 34.2012
29.50538649169417 33.9623
29.528410208259935 33.9577
29.55143514402014 33.8326
29.574641196749695 33.684
29.597668583816574 33.6002
29.6206971934585 33.3387
29.64372702680042 33.421
29.666938019934474 33.3189
29.689970313635285 33.2566
29.713003834422636 33.2659
29.73603858342347 33.2317
29.759254535188578 33.1389
29.78229175361658 33.1091
29.80533020365064 33.0965
29.82836988641968 33.086
29.85159081507472 33.0292
29.874632976355343 33.0056
29.89767637376955 33.1201
29.920721008448314 32.9158
29.9439469322847 32.9022
29.96699405457564 32.86
29.9900424175358 32.8058
30.013092022298157 32.7677
30.03632295963995 32.7248
30.059375061131373 32.6799
30.08242840783577 32.7602
30.105483000888153 32.7174
30.128718970092244 32.6248
30.151776069006917 32.669000000000004
30.17483441768648 32.6927
30.198074175317235 32.592
30.221135036724256 32.6654
30.24419715131772 32.6276
30.267260520236203 32.5677
30.290505341942243 32.5747
30.313571232750228 32.544000000000004
30.336638381310948 32.5615
30.35970678876503 32.4361
30.38295669299435 32.3695
30.40602763151657 32.4752
30.429099832366074 32.4043
30.452173296685572 32.2547
30.47542830191959 32.2445
30.498504306502497 32.1651
30.521581577995562 32.3338
30.544660117543582 32.3429
30.56792024229725 32.4167
30.59100133132069 32.3766
30.614083691845494 32.4013
30.637167325018545 32.4392
30.660432587840603 32.5028
30.683518779717886 32.4199
30.70660624769615 32.4853
30.729694992924372 32.5005
30.75296541239743 32.452
30.77605672557558 32.403
30.799149319462742 32.4114
30.8224236211637 32.3173
30.845518789950724 32.1715
30.868615242910597 32.1498
30.891712981195973 31.9203
30.91499247215866 31.8987
30.938092794619365 31.7976
30.96119440587579 31.7702
30.984297307082752 31.6485
31.00758200598383 31.5637
31.030687500658694 31.4826
31.053794288760695 31.4564
31.076902371446767 31.316
31.100192296997445 31.3334
31.12330298246119 31.2018
31.14641496599209 31.1608
31.169528248749216 31.1506
31.19282341969534 31.1612
31.215939314557186 31.2199
31.239056512134788 31.1908
31.262175013589378 31.1704
31.28547544871168 31.0459
31.30859657161541 31.095
31.331719001892175 31.1652
31.35484274070538 31.228
31.378148458819545 31.1227
31.401274828443725 31.1664
31.424402510106933 31.1841
31.447712205419993 31.1761
31.470842524931633 31.0962
31.493974159989783 31.1391
31.51710711176168 31.1222
31.54042212308802 30.9956
31.563557722100917 30.8986
31.586694641341655 30.8091
31.609832881979628 30.8172
31.63315322823208 30.6782
31.656294125521327 30.5597
31.679436347728515 30.5993
31.70257989602529 30.5517
31.725905596152327 30.4049
31.74905181052835 30.3274
31.772199354521323 30.4191
31.79534822930507 30.4583
31.818679302290967 30.408
31.84183085259981 30.346999999999998
31.864983737233473 30.379
31.88813795736804 30.3894
31.911474422233013 30.2611
31.934631327356435 30.3603
31.9577895715215 30.2988
31.980949155906522 30.1561
32.004291031706956 30.208000000000002
32.027453310562606 30.2134
32.05061693318573 30.0446
32.07396288236386 30.0342
32.09712920658542 29.9058
32.12029687812702 29.8332
32.14346589817093 29.7719
32.166817291729984 29.6627
32.18998902288583 29.6594
32.21316210610336 29.5698
32.23633654256711 29.5244
32.259693399663725 29.3866
32.282870556771144 29.3741
32.30604907069099 29.4278
32.329228942610065 29.3756
32.35259128243769 29.2252
32.375773884550505 29.1447
32.398957848235646 29.1469
32.422143174682176 29.1003
32.445511016471215 29.026999999999997
32.468699082679954 28.956
32.49188851523011 28.9507
32.51507931531304 28.8175
32.538452678331 28.8242
32.56164622776311 28.7058
32.58484114831493 28.6741
32.60803744118015 28.7387
32.631416344731896 28.7091
32.654615396551876 28.6227
32.67781582427913 28.6151
32.701198898634416 28.4987
32.72440209253756 28.5282
32.747606665947124 28.5093
32.77081262006088 28.3767
32.79420126883317 28.3653
32.81740999876112 28.354
32.840620112999424 28.1831
32.86383161274818 28.2814
32.88722585534586 28.2109
32.91044014056596 28.2634
32.933655814909734 28.1169
32.95687287957963 28.2028
32.98027273544904 28.2072
33.00349259526636 28.0125
33.026713849030116 28.1202
33.04993649794511 27.964000000000002
33.073341986570746 27.9837
33.09656744032826 28.0103
33.11979429286444 28.0494
33.14302254538647 27.9598
33.166433686291185 27.9321
33.18966475336992 27.8797
33.212897224069096 27.7032
33.23613109959831 27.8833
33.259547912343415 27.7692
33.2827846121627 27.8018
33.306022720453775 27.7443
33.32926223842861 27.6906
33.352684742614166 27.6654
33.37592709463173 27.5111
33.399170859982064 27.5003
33.422597648419426 27.4533
33.44584425514446 27.39
33.46909227885668 27.2777
33.4923417207723 27.1923
33.51577423505344 27.1447
33.539026528130385 27.1128
33.56228024307245 27.0694
33.585535381098246 26.9975
33.60897364093058 26.9783
33.63223163992385 26.9636
33.6554910656699 26.8524
33.678751919389796 26.8498
33.702195944520106 26.8517
33.72545966903325 26.7951
33.74872482519663 26.7023
33.771991414233746 26.7394
33.79544122444841 26.756999999999998
33.81871069412428 26.6319
33.84198160035767 26.6268
33.86525394437455 26.6628
33.88870955949969 26.5105
33.911984794020626 26.5839
33.93526147001624 26.4483
33.958539588715006 26.432
33.98200102861669 26.316
34.0052820477047 26.2602
34.02856451319451 26.2597
34.05203033759056 26.0721
34.07531571090147 26.1602
34.09860253431845 26.165
34.121890809074316 26.0435
34.145362493118924 26.103
34.16865368561615 25.9775
34.191946333164054 25.9678
34.21524043699793 26.0428
34.23871800066799 25.9952
34.26201503218366 25.8408
34.28531352370466 25.7458
34.30861347646881 25.7596
34.33209693978188 25.7524
34.3553998301885 25.6983
34.378704185565205 25.6219
34.402010007152356 25.5786
34.42549939016683 25.6178
34.44880815937748 25.5523
34.472118398533134 25.5136
34.49543010887669 25.4763
34.51892543169198 25.3206
34.54224009966052 25.3432
34.56555624255917 25.3478
34.58887386163339 25.2231
34.61237514439016 25.186999999999998
34.6356957311114 25.1569
34.65901779775809 25.138
34.68252356662995 25.1526
34.705848608458616 25.1763
34.72917513396849 25.0801
34.75250314440949 24.9819
34.77601490857862 24.8709
34.799345904259795 24.8459
34.82267838863559 24.8969
34.846012362958525 24.9015
34.869530142679984 24.8458
34.89286711232212 24.798000000000002
34.91620557568269 24.8289
34.93954553401677 24.7649
34.9630693495876 24.6881
34.986412313340814 24.7316
35.00975677584668 24.6341
35.033102738362956 24.5838
35.05663261012228 24.480999999999998
35.0799815881786 24.526999999999997
35.10333207003229 24.3899
35.12668405694369 24.3955
35.150220005273056 24.4251
35.17357501786656 24.4551
35.19693153931268 24.4296
35.220289570874385 24.3426
35.24383161619786 24.2918
35.267192683604904 24.3719
35.290555264930376 24.3483
35.314101899412165 24.3101
35.33746752422433 24.2377
35.36083466676374 24.2924
35.38420332829803 24.1496
35.407756095629054 24.1885
35.43112781085063 24.1406
35.45450104888391 24.175
35.477875810999194 24.1159
35.50143473172161 24.1845
35.52481255774625 24.0474
35.54819191167777 23.9514
35.57157279478914 23.9199
35.595137889488406 24.0256
35.61852184675279 23.9979
35.641907337029984 23.8631
35.665294361595684 23.8353
35.68886565090076 23.8117
35.7122557598848 23.7149
35.73564740699838 23.6577
35.759040593519934 23.5993
35.78261809810353 23.5231
35.80601437933051 23.5214
35.829412203814705 23.4776
35.85281157283719 23.4898
35.876395313415884 23.4331
35.8997977874528 23.3618
35.92320180988546 23.3646
35.946790244133936 23.3006
35.97019737933222 23.3653
35.993606066789866 23.3661
36.01701630779276 23.2828
36.04061101440684 23.2015
36.06402437852291 23.2258
36.08743930005611 23.1631
36.1108557802951 23.0523
36.13445678011326 23.0903
36.15787639383515 23.0519
36.18129757014299 23.0356
36.20472031032821 22.9904
36.22832762423364 23.0069
36.25175350829375 22.9429
36.275180960119776 22.8192
36.298609981005924 22.8152
36.32222362992669 22.816999999999997
36.34565580510207 22.7489
36.36908955323448 22.7485
36.39252487562093 22.6257
36.416144880530226 22.6886
36.43958336764275 22.6401
36.463023432914625 22.6241
36.486465077645676 22.5294
36.51009145956204 22.6039
36.53353627947859 22.5996
36.55698268276811 22.4618
36.58043067073321 22.4653
36.60406345072071 22.3132
36.62751462435344 22.3617
36.65096738658405 22.3375
36.67460498210655 22.2967
36.69806093788647 22.3187
36.72151848619297 22.2218
36.744977628333636 22.2345
36.76862165890998 22.1264
36.79208400512205 22.1519
36.81554794910557 22.1412
36.83901349217101 22.049
36.862663978991606 22.0245
36.88613273667352 21.9218
36.90960309738324 21.9797
36.933075062434064 21.9677
36.95673202673572 21.8971
36.98020721697122 21.8072
37.003684015502365 21.7701
37.027162423645365 21.7552
37.050825886711465 21.7079
37.07430753063053 21.6709
37.09779078812467 21.6281
37.121275660513014 21.6862
37.144945643673694 21.636
37.16843376245278 21.5709
37.19192350009803 21.5983
37.215414857931435 21.5296
37.239091382563885 21.3711
37.262585997426164 21.4352
37.28608223645736 21.4037
37.309763684451696 21.3454
37.33326318851098 21.2565
37.356764320726555 21.2718
37.380267082425526 21.2538
37.40395510942588 21.3046
37.42746114683234 21.2617
37.45096881771841 21.1546
37.474478123414166 21.1029
37.49817275092816 21.0405
37.52168534303452 21.138
37.54519957395567 21.029
37.568715445024665 20.9782
37.592416694607714 20.9698
37.61593586281424 20.9585
37.63945667518264 20.9782
37.66297913304891 20.8832
37.68668702630454 20.8531
37.710212792059274 20.7684
37.733740207334854 20.7771
37.757269273470364 20.7002
37.780983832050374 20.6364
37.80451621684926 20.6754
37.82805025654007 20.6386
37.851585952464795 20.5438
37.8753071980695 20.5336
37.89884622345676 20.4531
37.92238690911902 20.4999
37.94611318753442 20.4177
37.969657210779765 20.472
37.99320289834801 20.3891
38.016750251586465 20.3251
38.04048325513017 20.2977
38.06403395679343 20.2746
38.087586328183946 20.2756
38.11114037065203 20.2808
38.13488012115898 20.2927
38.1584375229181 20.2355
38.181996599821 20.1541
38.205557353221124 20.0743
38.229303872575656 20.0318
38.2528679961576 20.0255
38.27643380031219 20.0036
38.30000128639589 19.9107
38.32375459653193 19.9366
38.34732546371299 19.9898
38.37089801690786 19.924
38.39447225747609 19.8322
38.418232380377425 19.7426
38.441810012983396 19.7601
38.46538933705673 19.7882
38.488970353960084 19.7241
38.51273731166058 19.7002
38.536321731567014 19.6517
38.55990784840681 19.6883
38.58367995004091 19.6143
38.60726947812959 19.6034
38.63086070726198 19.5546
38.654453638806274 19.5807
38.678232613930824 19.494
38.70182896773327 19.375
38.72542702806741 19.3532
38.7490267963045 19.4246
38.77281266709232 19.4401
38.79641586862214 19.4039
38.8200207821842 19.2848
38.843627409152944 19.2871
38.86742019782782 19.2806
38.891030269149255 19.1914
38.914642058016156 19.1429
38.938255565806124 19.1888
38.96205529464307 19.1357
38.98567225787121 19.1084
39.00929094417078 19.0371
39.03291135492255 19.1312
39.05671804624804 19.0501
39.080341923549106 18.9599
39.103967529460334 18.8802
39.127594865365744 18.8673
39.15140854155791 18.8364
39.17503935514948 18.8448
39.19867190290282 18.7766
39.22249083587951 18.7782
39.24612686969409 18.7624
39.269764641845306 18.7783
39.293404153722804 18.6974
39.317230110864074 18.663
39.34087311998506 18.6303
39.36451787301696 18.5892
39.388164371352595 18.528
39.41199737518003 18.5222
39.43564738196752 18.499000000000002
39.45929913825317 18.4891
39.48295264543308 18.4752
39.506792718520884 18.435
39.530449745387216 18.366
39.55410852735203 18.3245
39.57776906581474 18.3961
39.60161623079 18.3665
39.625280300200025 18.285
39.64894613032202 18.2136
39.67261372255866 18.2873
39.6964680021016 18.2277
39.72013913657293 18.1787
39.74381203738292 18.1385
39.76748670593756 18.1006
39.79134812278169 18.0711
39.81502634488497 18.0331
39.83870633896685 17.9826
39.862388106436654 18.0201
39.88625668336918 17.9607
39.90994201572829 17.9843
39.933629125719285 17.8997
39.957503091207826 17.8602
39.9811937746168 17.9555
40.00488623990914 17.8157
40.02858048850006 17.8156
40.05246165409549 17.7618
40.076159487492085 17.742
40.099859108448875 17.7307
40.123560518384345 17.7281
40.1474489070226 17.6847
40.171153913178564 17.5924
40.194860712584955 17.5889
40.2185693066637 17.5122
40.242464941335314 17.4626
40.26617714307655 17.4528
40.289891143772046 17.5434
40.3136069448471 17.4451
40.33750984859743 17.4543
40.3612292688043 17.3911
40.3849504936829 17.4239
40.40867352466194 17.3908
40.43258372059144 17.3414
40.45631038219906 17.3182
40.48003885420956 17.2213
40.503769138055105 17.2359
40.52768664931955 17.2447
40.55142057531802 17.1883
40.57515631746428 17.1439
40.599079334038514 17.1811
40.62281872700477 17.1419
40.64655994043941 17.0997
40.67030297578061 17.0462
40.69423334835778 17.0885
40.71798004609188 16.9936
40.74172857006355 16.9594
40.76547892171441 16.9938
40.7894166736039 16.9035
40.813170699248566 16.8664
40.83692655691388 16.8514
40.86068424804498 16.817999999999998
40.884629402612525 16.7767
40.908390779366385 16.7744
40.932153993938 16.7735
40.95591904777605 16.7359
40.979871628443995 16.7288
41.003640379561936 16.6774
41.02741097430883 16.6494
41.05118341413683 16.6154
41.075143444384416 16.6334
41.098919593177826 16.579
41.1226975914255 16.5422
41.14647744058318 16.5348
41.170444943946755 16.4529
41.19422851378379 16.4989
41.218013938914645 16.4419
41.24198706625173 16.3154
41.26577622087193 16.3599
41.289567235177785 16.3442
41.31336011063129 16.3203
41.337340752422875 16.2377
41.361137369129835 16.2486
41.38493585138705 16.1849
41.40873620066004 16.1561
41.43272438060107 16.1894
41.45652848292052 16.1137
41.48033445666918 16.1556
41.50414230331616 16.0833
41.528138045159764 16.0653
41.551949656675205 16.0625
41.575763145513235 15.9861
41.59957851314666 15.9878
41.62358184070442 15.8874
41.64740098505737 15.9341
41.6712220126409 15.8686
41.69504492493139 15.8393
41.71905586207357 15.8479
41.74288256296395 15.8555
41.766711153007456 15.8628
41.79054163368412 15.8063
41.814560204340054 15.8048
41.838394485526365 15.7726
41.86223066180303 15.6968
41.88625497706819 15.6601
41.910094962812 15.6462
41.93393684811168 15.6268
41.95778063445365 15.5315
41.981812625263366 15.5267
42.00566023303407 15.5675
42.029509746323676 15.5238
42.05336116662236 15.4715
42.077400857069705 15.4721
42.10125611078846 15.4763
42.12511327600405 15.4114
42.14897235421036 15.4049
42.173019768448455 15.3884
42.19688269209613 15.2941
42.22074753323349 15.2903
42.24461429335818 15.3348
42.268669455600495 15.2666
42.292540073217886 15.2584
42.31641261433284 15.2356
42.34028708044675 15.1546
42.36435001496739 15.1569
42.38822835065557 15.1555
42.41210861586426 15.0788
42.4359908120986 15.0905
42.46006154323262 15.0459
42.48394762115317 15.0488
42.507835634632315 14.9913
42.531912233047436 14.9875
42.55580413732265 14.9543
42.579697981698 14.9817
42.60359376768525 14.9406
42.62767820545945 14.9251
42.65157789440821 14.8468
42.67547952952185 14.7928
42.699383112316 14.7561
42.72347541395347 14.7547
42.74738291190531 14.745
42.771292362102166 14.7792
42.795203766063516 14.6625
42.819303956130405 14.7085
42.843219287476536 14.6598
42.86713657716324 14.6731
42.89105582671383 14.6362
42.91516392983864 14.5829
42.939087119032166 14.5682
42.963012272677304 14.5587
42.98693939230129 14.56
43.01105543317513 14.4782
43.034986504731386 14.4823
43.05891954686589 14.3953
43.08285456110972 14.4204
43.10697856448665 14.4228
43.130917542983475 14.3039
43.15485849820081 14.280999999999999
43.17880143167367 14.282
43.20293342237094 14.2834
43.226880332449 14.2376
43.25082922540554 14.265999999999998
43.27496722682525 14.2455
43.29892010567796 14.2505
43.32287497204102 14.1796
43.34683182745632 14.1439
43.370977859791836 14.1302
43.39493871351105 14.1351
43.41890156092628 14.0784
43.44286640358341 14.0556
43.46702049182749 13.9915
43.49098934522816 13.9696
43.51496019852649 13.9351
43.5389330532723 13.9232
43.56309522248204 13.8838
43.58707210044314 13.9071
43.61105098451946 13.8491
43.63503187626491 13.8121
43.659202151562134 13.7846
43.68318707902681 13.7704
43.70717401884041 13.7589
43.731162972560874 13.7677
43.75534137913236 13.7161
43.779334381108384 13.6779
43.803329401683186 13.6528
43.82732644241872 13.6419
43.8515130055166 13.6093
43.87551410707659 13.5809
43.89951723350145 13.5614
43.923709934595614 13.5559
43.94771713129917 13.5664
43.97172635758096 13.5516
43.99573761501002 13.477
44.0199385169922 13.4892
44.04395385732619 13.4853
44.067971233533086 13.4162
44.09199064718605 13.387
44.11619977548961 13.3582
44.14022328470671 13.3552
44.16424883610785 13.3357
44.18827643127035 13.3301
44.21249381139513 13.3519
44.236525514814076 13.2985
44.26055926674478 13.2074
44.28459506876863 13.2316
44.3088207262813 13.1688
44.33286064928722 13.1491
44.35690262714919 13.1006
44.38094666145278 13.0812
44.4051806219871 13.1076
44.42922879003185 13.0728
44.45327901929361 13.0489
44.477331311362136 13.0519
44.501573600619416 12.9979
44.525630039221795 12.9614
44.54968854541895 12.9542
44.573937102200176 12.9288
44.5979997645541 12.9335
44.622064499300315 12.9191
44.64613130803592 12.8438
44.67038823869318 12.8544
44.69445921643748 12.7845
44.718532272981385 12.7701
44.742607409926194 12.7931
44.76687274034801 12.7746
44.79095205918753 12.7345
44.81503346325094 12.7593
44.839116954143876 12.7314
44.86339071028742 12.6205
44.88747839599524 12.6477
44.91156817336837 12.6303
44.93566004401666 12.6097
44.959942251908146 12.5985
44.984038330325966 12.5712
45.00813650686762 12.477
45.03223678314731 12.4793
45.05652746888232 12.4592
45.08063196592069 12.4657
45.104738567558705 12.422
45.128847275414856 12.4331
45.15314646515866 12.3728
45.17725940679741 12.4284
45.20137445952892 12.3988
45.22568004865265 12.3258
45.24979934496396 12.3453
45.27392075725247 12.3349
45.29804428714431 12.2383
45.322358426247604 12.2493
45.346486212804315 12.2195
45.370616121861914 12.1906
45.39474815505086 12.1689
45.41907087049246 12.1166
45.4432071734666 12.1417
45.46734560548283 12.1415
45.49148616817604 12.1406
45.51581748638564 12.0697
45.5399623320197 12.0142
45.56410931325473 12.0243
45.58825843173002 12.0269
45.61259837920865 12.0242
45.636751793816 11.9626
45.66090735060093 11.9043
45.68506505120716 11.909
45.7094136545275 11.8843
45.73357566449271 11.8827
45.75773982322992 11.8815
45.78190613238733 11.8862
45.806263418194064 11.8123
45.83043404997326 11.8164
45.85460683713677 11.7893
45.87897065658495 11.7519
45.90314777634752 11.7307
45.92732705646868 11.6997
45.9515084986045 11.6848
45.97588104735473 11.67
46.00006683541565 11.6536
46.02425479047904 11.6379
46.04844491420549 11.5896
46.0728262191024 11.5993
46.09702070211635 11.6048
46.12121735879483 11.5368
46.14541619080294 11.5296
46.169806278764455 11.5001
46.194009483459034 11.5178
46.21821486849841 11.4906
46.24242243555223 11.4641
46.266821333570014 11.4272
46.29103328674601 11.3791
46.31524742696538 11.3987
46.33946375590237 11.327
46.36387149104216 11.364
46.38809221957392 11.3393
46.41231514186606 11.3255
46.436540259597464 11.2858
46.460956858999374 11.2182
46.48518638983522 11.2086
46.509418121166966 11.2123
46.533652054678114 11.1945
46.55807754555709 11.1919
46.58231590571962 11.1783
46.60655647313217 11.1678
46.630988654873654 11.1199
46.655233659129024 11.0972
46.67948087571551 11.1457
46.70373030632484 11.1042
46.72817142736393 11.0396
46.752425308428684 11.0078
46.77668140861147 10.9861
46.80093972960865 10.9337
46.82538981736788 10.9628
46.849652602470904 10.9479
46.87391761349769 10.9266
46.8981848521493 10.8955
46.9226439341274 10.8548
46.946915650573224 10.8091
46.97118959976749 10.837
46.99546578341598 10.7932
47.019933887188216 10.745999999999999
47.04421456235744 10.7394
47.06849747711879 10.7083
47.09278263318286 10.7355
47.11725978640143 10.7327
47.14154944775105 10.6713
47.165841355555656 10.6724
47.1901355115306 10.6189
47.214621741924994 10.6399
47.23892041698887 10.6464
47.26322134538975 10.6135
47.28771440635075 10.5864
47.31201986422527 10.5426
47.33632758061436 10.5348
47.360637557241866 10.4887
47.38513974410611 10.4956
47.40945426407847 10.4508
47.43377104948137 10.460999999999999
47.45809010204344 10.4811
47.48260144275502 10.4438
47.506925052572285 10.362
47.53125093475548 10.3876
47.55557909103813 10.4101
47.58009961361992 10.3387
47.60443234110732 10.319
47.62876734791564 10.2792
47.65310463578333 10.312000000000001
47.6776343683373 10.2543
47.7019762413987 10.2229
47.72632040075572 10.2037
47.75066684815169 10.1823
47.77520581885936 10.1865
47.799556865477655 10.1555
47.823910205386 10.1339
47.84826584033272 10.1199
47.87281407745551 10.1098
47.89717432569297 10.1215
47.92153687423484 10.1112
47.94609208429692 10.0736
47.97045925671401 10.0477
47.99482873471275 10.0431
48.01920052005013 9.99978
48.04376504619224 10.0091
48.068141469543484 10.0017
48.09252020552573 9.95332
48.11690125590099 9.94656
48.1414751266064 9.91845
48.16586082917454 9.91797
48.19024885144316 9.84587
48.2146391951793 9.82473
48.239222439012764 9.85936
48.26361744916137 9.83587
48.28801478610016 9.81427
48.31241445160131 9.80616
48.337007097209366 9.780660000000001
48.36141144338331 9.76523
48.38581812345755 9.72959
48.41022713920929 9.7278
48.434829215320704 9.70471
48.45924292604658 9.7119
48.48365897780325 9.72805
48.50807737237308 9.66113
48.532688907799276 9.65869
48.55711201168574 9.63823
48.581537463754074 9.60886
48.60615611725119 9.56091
48.63058628942721 9.57368
48.65501881516546 9.563889999999999
48.6794536962573 9.55666
48.70408185970339 9.52135
48.72852147531801 9.474969999999999
48.75296345168211 9.45623
48.77740779059232 9.44501
48.80204549302823 9.46473
48.82649458091802 9.43419
48.85094603676547 9.40823
48.87539986237231 9.37379
48.90004713292306 9.34225
48.92450572200832 9.3622
48.94896668628025 9.34197
48.97343002754588 9.32883
48.99808689542115 9.29405
49.02255501470614 9.287889999999999
49.04702551642794 9.27515
49.0714984023988 9.25341
49.096164896893235 9.21083
49.120642575466796 9.2093
49.145122643748394 9.16138
49.16960510355558 9.14409
49.19428125404938 9.144210000000001
49.2187685210852 9.139389999999999
49.243258185121555 9.161769999999999
49.26794160167084 9.08907
49.2924360839405 9.06933
49.31693296869764 9.054739999999999
49.34143225776915 9.05681
49.36612538195438 9.010530000000001
49.39062950396021 9.04813
49.41513603578346 8.99119
49.4396449792564 8.94501
49.46434784069503 8.9566
49.488861631846454 8.920069999999999
49.513377840166804 8.9401
49.537896467493745 8.89829
49.56260909589029 8.87503
49.587132585683285 8.91667
49.611658500018365 8.9031
49.636186840738596 8.83647
49.66090926588511 8.80097
49.685442483902584 8.795689999999999
49.70997813385706 8.78914
49.734516217597076 8.75323
49.75924846937352 8.74092
49.7837914452858 8.74917
49.80833686055187 8.71298
49.83288471702571 8.71873
49.85762682540054 8.71492
49.882179588965734 8.66222
49.9067347993235 8.6722
49.93129245833333 8.68473
49.95604445336378 8.61448
49.98060703442832 8.61405
50.005172069746266 8.56795
50.02993150438364 8.634730000000001
50.05450147301533 8.58949
50.07907390151433 8.54739
50.10364879174981 8.49898
50.12841816587289 8.503730000000001
50.1529980044635 8.50577
50.17758031042124 8.490219999999999
50.20216508562089 8.45889
50.22694442953363 8.41193
50.25153416817468 8.43097
50.27612638170508 8.43569
50.300721072005196 8.40928
50.325510416102105 8.3957
50.350110084975064 8.35352
50.37471223628208 8.401489999999999
50.39931687190919 8.36298
50.424116246675766 8.35885
50.44872587605249 8.288110000000001
50.47333799543065 8.30977
50.49795260670191 8.25848
50.52276204271512 8.256739999999999
50.54738166295838 8.25126
50.57200378079314 8.23017
50.596628398116835 8.21302
50.62144792604559 8.18574
50.646077567609396 8.18453
50.670709714377715 8.18416
50.69553683636198 8.12856
50.72017401885922 8.11785
50.7448137122895 8.10237
50.76945591856022 8.14659
50.79429318636823 8.09005
50.818940443716784 8.0643
50.84359021965163 8.07811
50.868242516085964 8.03433
50.893089960641895 8.04169
50.917747323549435 7.97278
50.94240721271973 7.9574300000000004
50.96706963007175 7.95585
50.99192728239342 8.001339999999999
51.01659478166073 7.973319999999999
51.04126481489051 7.93049
51.06593738400761 7.915780000000001
51.090805275207074 7.9070800000000006
51.11548294172845 7.86048
51.14016314993547 7.85947
51.164845901758845 7.847989999999999
51.18972406304274 7.8284
51.21441192780656 7.82372
51.23910234200271 7.8216399999999995
51.2637953075678 7.81163
51.288683770237945 7.768960000000001
51.31338186432707 7.73873
51.33808251561888 7.707160000000001
51.362978729967345 7.75243
51.387684521509755 7.7033
51.41239287610203 7.653980000000001
51.437103795691165 7.64463
51.46201036644977 7.647189999999999
51.486726441956634 7.59629
51.51144508832545 7.6012699999999995
51.536166307509156 7.5895600000000005
51.56108326624387 7.60151
51.58580965706056 7.630539999999999
51.61053862657523 7.5496300000000005
51.635270176746864 7.51278
51.66019755512065 7.5464199999999995
51.68493429268881 7.51422
51.70967361681515 7.5049600000000005
51.73441552946465 7.507039999999999
51.759353359237934 7.509510000000001
51.7841004750961 7.470260000000001
51.80885018539685 7.46289
51.833602492111254 7.41724
51.8585508051424 7.442360000000001
51.883308330926425 7.3928199999999995
51.90806845906181 7.371739999999999
51.932831191525715 7.318060000000001
51.95779001977161 7.3517399999999995
51.98255798721516 7.31148
52.00732856494335 7.26842
52.03229530577543 7.31122
52.057071130455945 7.28337
52.081849571391054 7.2831600000000005
52.106630630568695 7.2636199999999995
52.13160794279417 7.20528
52.15639426492067 7.20015
52.18118321127822 7.22146
52.205974783860896 7.18508
52.23096269971011 7.165039999999999
52.255759551287994 7.187139999999999
52.280559035098186 7.104410000000001
52.30536115314103 7.1171
52.33035970494467 7.10774
52.35516711807904 7.0776699999999995
52.37997717147198 7.055289999999999
52.40478986713005 7.0624899999999995
52.42979908731974 7.05253
52.454617094216 7.06417
52.47943774942214 7.0140899999999995
52.50426105495102 6.98545
52.529280976059844 7.00875
52.554109609024096 6.97823
52.57894089837482 6.955589999999999
52.60377484613117 6.9465699999999995
52.62880550079408 6.9363
52.65364479223379 6.95494
52.67848674816189 6.90649
52.70352547971946 6.896789999999999
52.72837279155837 6.8644
52.753222773982785 6.869839999999999
52.778075429022984 6.8547899999999995
52.80312495150885 6.8380600000000005
52.827982978797436 6.848489999999999
52.85284368481815 6.827319999999999
52.87770707160767 6.777
52.90276741793998 6.77105
52.92763619336701 6.74558
52.952507655698504 6.7500800000000005
52.977381806977576 6.74487
53.00245301017842 6.7261
53.02733256653592 6.678489999999999
53.052214817996074 6.703930000000001
53.077099766608484 6.70072
53.102181859804446 6.70648
53.127072229988265 6.675839999999999
53.15196530349892 6.65433
53.17686108239249 6.6678
53.20195409881522 6.6531199999999995
53.22685531582556 6.58028
53.25175924441303 6.57534
53.27666588664027 6.571110000000001
53.30176985962693 6.54059
53.3266819565689 6.51384
53.35159677336455 6.5204
53.376514312083096 6.55531
53.40162927507703 6.5111300000000005
53.42655228516116 6.4926699999999995
53.45147802340193 6.4505300000000005
53.47660125628886 6.471480000000001
53.50153247842639 6.457319999999999
53.52646643496923 6.3993
53.55140312799818 6.40204
53.576537409691696 6.4179699999999995
53.60147960336152 6.3713
53.626424539786164 6.37001
53.65137222105307 6.4044300000000005
53.67651758529126 6.34974
53.70147078399681 6.2916300000000005
53.72642673383343 6.28797
53.75138543689533 6.34704
53.776541917524526 6.29363
53.801506154876755 6.2702599999999995
53.826473151763246 6.30476
53.851442910284916 6.27283
53.87661054126026 6.21626
53.9015858509782 6.228
53.92656392866066 6.1771400000000005
53.95154477641532 6.15709
53.976723591801296 6.19428
54.00171000771266 6.20343
54.02669920004598 6.16087
54.051691170915745 6.14572
54.076881204886796 6.14313
54.101878760928514 6.11022
54.12687910187696 6.09391
54.152077577768296 6.0797099999999995
54.1770835166946 6.09768
54.20209224691339 6.10005
54.22710377055121 6.07862
54.25231352511594 6.08295
54.27733066384342 5.98738
54.30235060239643 6.0018
54.32737334290836 5.94913
54.35259441062629 5.94421
54.377622783395324 5.95009
54.40265396455061 5.9126900000000004
54.42768795623251 5.923369999999999
54.45292037169559 5.89384
54.477960012857906 5.87972
54.50300247099511 5.84115
54.52804774825457 5.84126
54.55329154616743 5.83859
54.57834249018678 5.807580000000001
54.6033962597977 5.75915
54.6284528571545 5.775119999999999
54.653708072335164 5.75932
54.67877035378786 5.761369999999999
54.70383546947698 5.6872300000000005
54.72890342156389 5.72759
54.7541700889442 5.677980000000001
54.77924374251975 5.6607199999999995
54.8043202390049 5.59845
54.82959552413022 5.58939
54.8546777351945 5.58523
54.87976279569621 5.575830000000001
54.90485070780914 5.59172
54.930137506558005 5.49815
54.95523115074295 5.51197
54.98032765308844 5.48245
55.005427015775496 5.48157
55.03072536339621 5.48175
55.05583047570572 5.44485
55.080938454927676 5.42002
55.10604930325027 5.37269
55.131359235107396 5.35095
55.15647585066083 5.30415
55.181595341907496 5.2958
55.20671771104285 5.290719999999999
55.232039262617704 5.32822
55.25716741665048 5.26145
55.28229845518636 5.27755
55.30743238042802 5.19001
55.33276558731939 5.18785
55.357905315183636 5.15198
55.383047936390035 5.15907
55.40819345314859 5.1281
55.433538351073295 5.07615
55.458689688238415 5.09987
55.483843927614096 5.05157
55.509197623043605 5.03763
55.53435769621134 5.02804
55.55952067826466 4.958019999999999
55.5846865714265 4.9596800000000005
55.61005202069737 4.9200800000000005
55.63522376553902 4.924980000000001
55.66039842818645 4.92889
55.68557601087004 4.91301
55.7109532500271 4.86029
55.73613670233794 4.85309
