TT I
1.2716486653135266 6.818219999999999
1.2939594142134223 7.0887899999999995
1.3162702121660406 6.15405
1.3385810600174564 6.48107
1.3608919586137629 7.125960000000001
1.383202908801069 6.12901
1.405513911425503 5.8034300000000005
1.4278249673332093 6.3299900000000004
1.4501343378461518 5.63815
1.4724455028545926 5.30075
1.4947567236847858 6.01042
1.517068001182951 5.31956
1.5393793361953272 5.59133
1.5616907295681737 5.687880000000001
1.5840021821477681 5.1528599999999996
1.60631369478041 5.26192
1.6286252683124185 5.03523
1.6509369035901333 4.22285
1.6732468618895553 4.505780000000001
1.695558623192809 4.94228
1.7178704487808514 4.39044
1.7401823395001077 4.993180000000001
1.7625012545597203 4.51605
1.7848028405262486 4.86983
1.8071218901122095 4.1958
1.8294236121921872 3.34711
1.8517427996910911 4.04873
1.8740620574440425 4.70169
1.8963639900671978 4.06648
1.9186833908139995 4.8262
1.9409854680117449 4.89406
1.9633050151394713 4.75858
1.9856246367570705 4.57026
2.0079269371922672 3.9758
2.03024671027244 4.09545
2.0525491637446027 4.2477599999999995
2.074869091674931 4.226
2.097171701569106 3.64395
2.1194917877373847 4.71938
2.141811954326636 4.60785
2.164114805233074 4.34914
2.186435135143035 5.23056
2.208738150935709 5.034669999999999
2.231058647554722 6.30658
2.2533792288321184 6.67707
2.275682498336085 5.35457
2.298003251406138 5.0827599999999995
2.3203066942619714 5.0823599999999995
2.3426276225136022 5.46744
2.3649486396617507 5.36792
2.387252348930071 5.72445
2.4095735463442893 6.17362
2.4318774374315884 5.6285300000000005
2.4541988185014043 6.01845
2.476502894794693 5.85872
2.498824462909887 6.52343
2.521146125856138 7.422739999999999
2.5434504863470337 7.3640300000000005
2.5657723414244717 7.40694
2.588076895590662 8.48595
2.610398946189713 8.92494
2.6327210958598384 8.925
2.6550259469304716 7.728339999999999
2.6773482972090137 8.585410000000001
2.6996533504259 8.196489999999999
2.7219759047039602 8.71597
2.744298562293959 7.999160000000001
2.7666039251246595 8.05449
2.7889267918020164 7.9429300000000005
2.8112323652516555 8.01918
2.833555444408179 8.21003
2.8558786311183852 7.89986
2.8781845268938557 8.94968
2.9005079311721484 8.741530000000001
2.9228140460410397 8.16859
2.9451376712799635 8.5141
2.967444008632326 9.48818
2.9897678582247247 9.51365
3.0120918213106695 9.82242
3.0343984987899373 10.0833
3.0567226913198637 10.2174
3.079029599759726 11.1702
3.101354025127254 11.6653
3.123678568232338 12.4477
3.145985829517914 12.4282
3.16831061055229 13.0576
3.1906181112775593 13.5691
3.212943133635653 14.4998
3.2352682779763207 14.574000000000002
3.2575761442691227 14.5458
3.2799015350264273 14.9085
3.302209649240067 15.7869
3.3245352898092655 16.3005
3.3468436553365257 16.5765
3.369169549113219 17.0744
3.3914955708171384 17.7792
3.413804319727358 18.4735
3.4361305997334863 17.9737
3.4584396084414553 18.9319
3.4807661501462652 19.5638
3.503092824025881 20.1248
3.5254022288463154 20.0366
3.5477291695206588 20.5241
3.5700388426251948 21.201999999999998
3.5923660534916446 22.0002
3.6146934007816114 23.3499
3.637003482731501 27.93
3.6593311053109985 29.669
3.681641464033634 26.4473
3.7039693653009733 24.2616
3.726297407241705 24.4011
3.7486081875460804 24.9127
3.7709365132734978 25.5847
3.793247578841633 25.4702
3.8155761917550093 25.863000000000003
3.8378875459837216 26.1199
3.8602164494827234 26.698
3.882545499606844 27.5288
3.9048572932539183 27.6823
3.9271866390645718 28.4956
3.9494987298666713 28.9568
3.971828374764527 29.2438
3.9941581705403255 29.9613
4.016470713506008 30.7426
4.038800813471445 31.2079
4.061113662089144 31.9321
4.0834440696459176 32.7197
4.105774632334751 32.5522
4.128087945865126 33.4385
4.150418821249301 34.0674
4.172732448931298 34.6102
4.195063640413578 35.0965
4.2173775856475215 36.4753
4.239709096631102 39.6863
4.262040768704612 53.9301
4.284355196706267 63.5583
4.306687193387355 54.9503
4.329001947444346 44.3728
4.35133427213731 41.6819
4.373666762177566 41.7462
4.395982011761091 42.5933
4.418314834921175 43.3784
4.44063041906622 44.6988
4.4629635787515625 46.5788
4.4852969080429785 47.8253
4.5076130004776225 49.905
4.529946671403969 54.1067
4.552263106909177 57.0595
4.574597122877047 55.162
4.596931312711224 52.8055
4.619248269273446 52.6735
4.6415828092605835 53.5861
4.663900117405352 55.3617
4.686235010953232 56.7236
4.708552674085913 57.918
4.730887924602802 59.0513
4.753223354952695 61.2943
4.775541557023902 64.4796
4.797877349456786 67.1173
4.820195915032126 67.6555
4.842532072957498 67.6714
4.864868414979744 70.0907
4.88718753227192 74.1241
4.909524244902505 77.2328
4.931843734218147 76.1943
4.954180820867835 77.4379
4.976518095879839 80.5987
4.998838149695359 82.8786
5.021175803844231 86.4162
5.043496238205739 89.19200000000001
5.065834274903528 93.6871
5.088172504230693 98.5729
5.1104935158799565 103.93299999999999
5.132832132875765 116.40799999999999
5.155153533596801 135.167
5.1774925416746225 175.47299999999998
5.199814334878411 378.88
5.2221537374521505 1005.57
5.244493338631803 2808.11
5.266815727034316 7952.57
5.289155727832427 13815.7
5.311478517248165 8312.29
5.333818921080011 2258.44
5.356159527788849 423.476
5.3784829252032536 176.31799999999998
5.400823940070432 143.385
5.423147747031976 124.975
5.445489173474152 117.212
5.467830807066149 116.431
5.490155234831516 116.259
5.512497285125229 110.50200000000001
5.534822130975162 104.21600000000001
5.557164601388673 100.946
5.579489868738879 98.3725
5.601832762690846 96.6994
5.6241758697774475 95.9675
5.646501775867269 95.0758
5.668845311622074 94.6062
5.691171647754637 93.367
5.713515615597765 92.4807
5.735859800852677 92.2274
5.758186788542988 93.5155
5.780531411018185 96.9991
5.802858837297399 95.8977
5.825203900414495 96.7203
5.8475491852224 98.3901
5.869877275883075 97.6873
5.892223006467101 95.2284
5.914551544266608 93.9584
5.936897724049891 96.24799999999999
5.959244129804903 103.916
5.981573344815301 132.566
6.0039202049061 243.584
6.026249875609095 475.02
6.04859719346037 968.398
6.070927323278297 2285.25
6.093275102315365 4816.69
6.115623113320588 5578.7
6.137953938319995 2918.3
6.160302415650845 822.061
6.182633708324452 193.965
6.2049826554078376 101.96799999999999
6.227331838745022 86.8386
6.249663839443684 80.9515
6.27201349767565 77.3203
6.294345974611799 75.8415
6.316696111167083 75.4309
6.339046488263839 73.52600000000001
6.361379686074702 71.0075
6.383730546639482 69.2952
6.406064229255215 68.6268
6.428415576718203 69.377
6.450749747566656 68.0762
6.47310158535871 65.7893
6.495453669698332 64.2104
6.517788579421056 63.7791
6.540141159237969 62.6186
6.562476565766648 61.9894
6.5848296444934045 61.8067
6.607182974060425 61.9788
6.6295191323281015 61.4815
6.651872965955752 60.1198
6.6742096296068985 61.1442
6.6965639707294615 65.6284
6.71891856698715 65.8287
6.741255995248479 61.1627
6.763611104154477 58.6883
6.785949046381137 57.69
6.808304671371482 58.1785
6.8306605557940046 59.4852
6.852999275508618 58.1955
6.875355681171544 56.6182
6.897694923437771 55.4812
6.92005185377892 55.2596
6.9423916220322655 55.3402
6.964749080490181 54.3604
6.987106804399774 54.6148
7.009447368180821 54.7857
7.031805625367033 54.6045
7.054146723727803 54.203
7.076505517631004 53.8778
7.098864581288365 53.6637
7.121206488070854 53.652
7.143566093607822 54.0158
7.165908543567245 54.8477
7.188268694426048 54.94
7.2106291193438095 53.6367
7.232972390625943 53.2267
7.255333366030969 53.6527
7.277677189091925 58.1015
7.300038718428332 63.4101
7.322400526130865 61.2001
7.344745183422596 56.566
7.367107550224791 53.6781
7.389452767901992 53.1962
7.411815697249891 53.1918
7.434161478756298 52.5897
7.456524974096713 52.6771
7.478888753837185 52.7365
7.501235387657368 53.4358
7.523599738562711 54.0443
7.545946944825532 55.0225
7.568311870344528 55.4905
7.5906770845765665 54.6354
7.613025156078678 54.1472
7.635390950099687 54.5535
7.657739602662809 54.8561
7.680105979923558 55.0215
7.702472650212829 55.9674
7.724822180948224 56.1135
7.747189439655568 55.2973
7.769539560075357 55.4682
7.791907410653562 55.4339
7.81425812420825 55.4355
7.836626570110925 55.8613
7.858995315087906 56.5772
7.881346924933401 56.8616
7.903716270417482 57.5396
7.926068482028405 57.6674
7.948438431475253 58.4107
7.9708086843180235 58.9672
7.993161805171116 59.632
8.015532667162402 60.1699
8.037886398416653 61.2812
8.060257873014221 61.7623
8.082629655331942 62.4267
8.104984308787587 62.8887
8.127356708900503 64.2316
8.149711981398308 67.4821
8.172085002766314 68.8149
8.194458336181368 68.366
8.216814543847752 67.8753
8.23918850371002 68.3844
8.26154533906492 69.1746
8.283919928836452 71.1786
8.306277395339652 72.2303
8.328652618483376 73.5069
8.351028159736202 75.3025
8.373386579575245 77.5143
8.395762759396959 79.006
8.418121819038275 82.0326
8.440498640894003 86.5296
8.462875785192262 96.598
8.485235811156207 124.197
8.507613602688501 178.82299999999998
8.529974277114228 269.129
8.552352719347912 402.087
8.574731488360351 665.801
8.59709314210385 1254.19
8.619472567021075 2043.36
8.64183487789147 2362.85
8.664214962183097 1775.19
8.686577933647762 805.69
8.708958680784317 296.22700000000003
8.731339760774953 137.871
8.753703729764451 102.992
8.77608547780821 95.7176
8.798450116065078 92.8839
8.820832535634787 91.075
8.843215292401656 91.2173
8.865580941199045 90.4355
8.887964374703538 89.8856
8.910330701447199 89.9795
8.932714815164482 89.3493
8.955099270424924 86.8063
8.977466620733543 85.0192
8.999851761421976 83.9944
9.022219798361645 83.2287
9.04460562795561 83.2913
9.066991803441677 83.4296
9.089360876979615 83.98200000000001
9.111747746589993 83.9428
9.13411751544971 81.9512
9.156505082664324 81.3609
9.178875550323522 81.542
9.20126381862328 81.3307
9.223652438908596 82.3551
9.246023961427412 83.3725
9.26841328802173 83.6619
9.290785518039224 83.3219
9.313175554425882 84.6236
9.335565947154315 85.4671
9.357939245086508 85.9597
9.380330352834827 84.82700000000001
9.40270436697103 84.48899999999999
9.425096193225055 83.9427
9.447488380180165 84.5043
9.469863475295412 83.9563
9.492256385987508 84.1909
9.514632206018318 84.8601
9.537025843935714 85.2952
9.559402392368193 86.4529
9.581796761000229 88.6999
9.604191496441521 90.5188
9.626569144158516 93.2069
9.648964615551032 92.8086
9.671343000390081 91.4308
9.693739211225699 91.3128
9.716135793237463 91.7921
9.738515290448102 92.5378
9.760912617143402 94.2061
9.783292860202891 95.8674
9.805690935076182 98.1613
9.828089385495742 99.4586
9.850470754023561 100.17
9.872869957865444 101.473
9.89525208097539 105.12100000000001
9.917652041736662 110.676
9.940052382417589 121.89399999999999
9.962435644102392 150.89
9.984836746950979 194.32
10.007220771957746 259.22900000000004
10.029622640473708 363.795
10.052007432299963 545.425
10.074410069984072 853.373
10.096813093716005 1362.66
10.119199042482517 1900.14
10.141602840636468 2032.25
10.163989564971628 1460.02
10.186394141051062 727.6619999999999
10.208799107559706 304.194
10.231187001965623 156.591
10.253592751657669 116.436
10.275981430388155 107.829
10.298387966769793 105.833
10.320794897965431 104.74
10.343184759907361 103.944
10.36559248305461 102.70100000000001
10.387983138083852 104.204
10.410391656691655 111.39
10.432800574501677 122.95100000000001
10.455192425893369 139.34
10.47760214443012 165.87900000000002
10.499994797678786 212.12599999999998
10.522405320453982 296.561
10.54479877906917 418.555
10.567210109595656 557.89
10.5896218454736 591.118
10.612016518879773 469.37800000000004
10.634429067781074 294.44599999999997
10.656824555333241 167.796
10.679237920773568 110.54799999999999
10.701651695961992 92.3257
10.724048411481384 87.5101
10.746463008485165 85.1343
10.768860546937125 83.71799999999999
10.791275969274796 82.2899
10.81369180576079 80.8502
10.836090585366925 80.0071
10.858507252467449 78.7996
10.88090686379991 77.9357
10.903324365036394 77.319
10.925724811614439 76.3992
10.948143150509463 76.6143
10.970561909719066 76.0841
10.992963615930844 75.2503
11.015383218085756 74.3799
11.037785768347074 72.8149
11.06020621697282 71.7687
11.082627090322113 71.1979
11.105030913430326 70.4044
11.12745263854165 69.9938
11.149857314510728 69.4129
11.172279894912576 70.0666
11.194702904450653 69.1366
11.217108866490921 68.145
11.239532736615194 67.3502
11.26193956033512 67.2557
11.284364294577085 66.8291
11.306789462371718 66.2227
11.329197585398376 66.1188
11.351623622610898 65.8752
11.37403261614354 65.367
11.396459526308487 65.344
11.418869393879497 64.598
11.441297180532617 64.1415
11.463725406927658 63.8054
11.486136592353875 63.8364
11.508565700543707 63.4378
11.530977768845315 63.6007
11.553407762368774 63.1965
11.575838200059769 63.3341
11.598251599479612 62.6049
11.620682927815501 62.5287
11.64309721895548 62.5971
11.665529441478206 62.00899999999999
11.687962112597958 62.021
11.710377748130886 62.2222
11.732811318753434 61.8037
11.755227854859067 61.8656
11.777662328529495 61.6276
11.800079768750786 61.6596
11.822515149015453 61.9572
11.844950984084935 62.0461
11.867369787303163 61.8108
11.889806534289491 61.6774
11.912226250487029 61.9918
11.934663912939751 62.3408
11.9571020346363 62.7606
11.979523127133968 63.1204
12.001962169624331 64.4247
12.024384183972964 65.7482
12.046824150809913 69.2631
12.069264581333726 73.5382
12.091687985297767 79.6673
12.11412934550045 88.6869
12.136553680195208 104.86200000000001
12.158995973632788 127.163
12.181438735204349 159.776
12.20386447284199 193.477
12.226308172985636 209.044
12.24873485024193 193.342
12.271179492516982 150.905
12.293607112949127 107.779
12.316052700916226 81.5994
12.338498763250042 68.6875
12.360927805303868 64.1372
12.383374818673879 63.0786
12.405804812803074 62.9127
12.428252780773262 63.1945
12.45070122756722 63.0997
12.473132656675375 63.3734
12.49558206341869 63.7209
12.518014453510101 63.8301
12.540464823770117 64.2173
12.562915677315177 63.9771
12.58534951575545 64.0885
12.607801338171472 64.1201
12.630236146511358 64.6613
12.652688941369085 65.771
12.675124723177234 66.1606
12.697578494048786 66.3716
12.720032754458185 66.2298
12.742470003354093 66.3649
12.764925245138771 66.6197
12.787363476431278 67.2058
12.809819703166806 67.557
12.83227642391173 68.3513
12.854716135692716 68.9828
12.877173846755147 70.1003
12.899614549869717 70.7425
12.9220732548287 71.4094
12.94453245827299 72.3756
12.966974655289818 73.0893
12.989434858002571 73.8671
13.011878055298721 74.7517
13.034339260862497 75.6935
13.056800969391883 77.2565
13.079245674017244 80.4131
13.101708390774869 84.619
13.12415410463411 92.8056
13.146617833206086 102.59299999999999
13.169064559883248 113.54799999999999
13.191529303857127 128.881
13.213994557076367 152.385
13.236442809902437 189.918
13.258909083908291 250.43200000000002
13.28135835851934 325.815
13.30382565690295 399.19199999999995
13.326293469022952 447.57599999999996
13.348744283242008 413.49699999999996
13.371213125129904 317.981
13.39366497011003 216.19
13.416134845360597 146.101
13.438605238843131 112.11
13.46105863690397 104.06
13.483530069144786 106.333
13.505984506951902 112.616
13.528456981549432 123.289
13.550929978879088 138.791
13.573385983253365 163.495
13.595860028340867 202.825
13.618317081455832 257.811
13.64079217790333 326.202
13.663250283359057 379.335
13.685726434770173 387.769
13.708203115221277 325.998
13.730662806148091 240.71599999999998
13.75314054697177 162.881
13.775601299246777 114.319
13.798080104050406 91.2821
13.820559442405358 82.7277
13.843021793671388 80.1273
13.865502201420897 78.7048
13.887965623051947 78.4559
13.910447103807167 77.4985
13.932929122629764 76.1651
13.955394156785959 75.8547
13.977877254034569 74.8939
14.000343367582113 74.1109
14.022827546871707 73.5461
14.045294743423524 72.7837
14.06778000837062 72.3728
14.090265817715476 72.2638
14.112734645763819 71.6817
14.13522154619454 71.3151
14.157691466286913 71.2234
14.180179461423874 71.0508
14.202668005486178 70.5362
14.22513957064374 69.7533
14.247629214846473 69.4227
14.270101881097517 69.0759
14.29259262906496 69.0006
14.315083930490205 69.1706
14.337558255389705 68.6723
14.360050666019726 68.5648
14.382526101071944 68.5757
14.405019624534942 68.501
14.427513705993134 68.0075
14.449990813291825 68.1724
14.47248601302899 67.8424
14.49496423954951 67.9559
14.517460561197822 68.0978
14.539939910570322 67.6285
14.562437357763558 68.1813
14.58493536931253 68.3336
14.607416409993311 68.5987
14.62991555254159 68.8966
14.652397725157423 69.0661
14.674898002342799 69.5888
14.697398848433282 69.8683
14.719882725991326 71.5212
14.74238471217934 73.5237
14.764869730765593 76.89399999999999
14.787372860692983 79.8015
14.809876564079925 84.476
14.83236330125751 90.6939
14.854868153850365 99.3218
14.877356041159485 114.434
14.899862046604186 132.952
14.922351087688757 160.435
14.944858249632887 195.175
14.967365991421232 222.97099999999998
14.989856770231246 231.765
15.012365673994204 214.097
15.03485761569738 175.88
15.05736768508665 132.629
15.07987833888692 101.279
15.102372032001655 82.7956
15.124883856909658 73.4627
15.14737872204565 70.5057
15.169891721717274 69.491
15.192405310371893 68.9104
15.214901940621196 68.4703
15.237416709527137 67.9197
15.259914520936249 67.6814
15.282430473753607 66.9061
15.304947020131227 66.5322
15.327446610371178 66.2582
15.349964346154254 65.8656
15.372465126703139 65.9238
15.394984055556009 66.0261
15.417486030076159 65.6548
15.44000615566487 65.1913
15.462526881230803 65.1466
15.485030653812652 65.1815
15.507552581617434 64.7558
15.530057557334603 64.8795
15.55258069104857 64.987
15.575104429329837 65.4751
15.597611216864632 65.4192
15.620136166564563 65.97800000000001
15.6426441664095 67.9021
15.665170331202765 70.2214
15.687697105158826 73.0291
15.710206930593545 76.4145
15.732734925158933 80.8419
15.755245972089478 87.461
15.77777519094324 96.9018
15.800287463046663 109.891
15.822817909869592 130.201
15.84534897229804 153.624
15.867863089299354 181.245
15.890395385222186 198.93900000000002
15.912910736597423 197.355
15.935444269699861 175.66099999999997
15.957978423016485 140.44
15.980495633101265 108.611
16.003031029129367 84.8901
16.02554948280019 70.6811
16.048086125229432 64.3821
16.070623392487107 62.3972
16.09314371869582 61.593
16.11568223789321 60.6331
16.13820381691126 59.8773
16.160743591742527 59.6892
16.183283996022084 59.0448
16.205807461423195 58.3917
16.228349126881973 57.7873
16.25087385432698 57.7985
16.27341678466365 57.2652
16.29594277784926 57.0138
16.31848697676433 56.7248
16.341031811604868 56.2919
16.36355971058487 56.1987
16.3861058195587 55.9192
16.40863499352978 55.4619
16.431182380342005 55.1824
16.453730407713202 55.0502
16.476261501364792 54.8445
16.498810812136167 54.669
16.52134319004079 54.6831
16.54389378792203 54.5116
16.566445031001553 54.5355
16.588979342490088 54.1733
16.61153187824822 54.218999999999994
16.634067483263312 53.9276
16.656621315414416 53.8554
16.679175797408888 53.7051
16.701713349928728 53.8098
16.72426913389191 53.9424
16.74680798922351 53.8399
16.76936507887444 53.9316
16.791905240734874 53.8568
16.814463639794468 53.8432
16.837022695210294 53.8558
16.859564824093756 54.0754
16.882125194503903 54.1097
16.904668639217885 54.1166
16.927230328348003 54.2162
16.949792678493612 54.5715
16.972338104193863 54.3755
16.994901778652235 54.2831
17.017448529496576 54.7061
17.040013531998152 55.2793
17.06257920018044 56.1088
17.0851279459922 56.6867
17.107694947817667 57.6618
17.130245028099072 58.2229
17.15281336730298 59.506
17.17536478578733 61.2627
17.19793446610687 63.3977
17.220504818648422 66.6495
17.243058251703697 70.2005
17.265629950971032 75.0759
17.288184731571736 80.4307
17.310757781306908 83.5663
17.33333150794385 83.1494
17.355888317140174 79.775
17.37846339986244 73.1692
17.401021565958885 67.1262
17.42359800851343 62.8806
17.44617513265564 60.1285
17.468735341390783 58.9016
17.491261035594565 58.343999999999994
17.51396340099364 57.9397
17.536490463869136 58.2519
17.559018209820174 58.4314
17.58154663977963 58.3786
17.604251766089718 58.5817
17.626781572227713 58.6808
17.64931206518155 58.9218
17.671843245885103 59.519
17.69455114821572 59.641000000000005
17.717083712612634 59.735
17.739616967569667 60.2653
17.762150914021706 60.6822
17.78486160749854 60.9482
17.807396945166804 62.0385
17.829932977143503 63.255
17.85246970436452 64.7742
17.875183204129467 66.3439
17.897721330097664 68.3925
17.920260154126645 70.9073
17.942799677153296 74.0268
17.9655159983646 77.8887
17.988056927677544 83.4612
18.010598558807683 91.6059
18.033140892692916 102.25399999999999
18.05586005052525 114.884
18.07840379824407 128.452
18.10094825154059 138.612
18.12366954819864 142.63299999999998
18.146215420998306 137.22299999999998
18.16876200220057 124.14
18.191309292745153 108.95100000000001
18.214033452627167 95.1548
18.236582170236648 86.5494
18.259131600016456 83.7108
18.281681742907335 85.3348
18.304408781233683 90.6851
18.32696035875955 97.4866
18.349512652227624 102.272
18.372065662579683 106.626
18.394795594587553 105.301
18.41735004715306 98.5049
18.43990521943684 89.5759
18.46246111238171 80.3654
18.485193953325208 71.7685
18.507751296070428 66.2681
18.530309362314178 63.5989
18.552868153000343 62.1938
18.57560391815056 61.0979
18.59816416623245 60.8665
18.620725141597372 60.3255
18.643286845190268 59.6268
18.666025549835414 59.4188
18.688588718427933 58.7881
18.711152618092243 58.6533
18.73389353884365 58.4452
18.75645890921984 58.0705
18.77902501351406 57.8988
18.801591852673102 57.8295
18.824335739722738 57.1717
18.846904057212626 57.3073
18.8694731124168 57.0004
18.89204290628315 57.0379
18.914789774966803 56.6829
18.937361054791623 56.4587
18.959933076131318 56.101000000000006
18.982505839934877 56.0093
19.00525570560582 56.1921
19.027829963004184 56.0063
19.05040496572238 56.1371
19.072980714710468 56.3051
19.095733592739563 56.3435
19.11831084296757 56.4948
19.140888842324735 56.7953
19.16346759176222 57.004
19.18622349753803 57.8674
19.208803755869358 58.6776
19.231384767143577 59.9201
19.253966532312948 61.5399
19.276725481241822 63.8573
19.29930876296784 66.5594
19.3218928014549 69.7147
19.34465404436217 72.2916
19.36723960516257 74.7356
19.389825925592426 75.4457
19.412413006605938 72.7896
19.43517731967805 68.5346
19.457765930683355 64.1044
19.48035530514408 59.8427
19.50294544401556 56.9408
19.525712842708348 54.9185
19.54830451925909 53.9646
19.570896963095727 53.1183
19.593490175174704 53.0255
19.616260674962184 53.1459
19.638855432416964 52.8937
19.661450960992624 53.0017
19.68404726164677 52.843
19.706820878021247 52.655
19.729418731756834 52.9197
19.752017360452857 52.8047
19.77461676506804 52.9351
19.797393513540218 53.2315
19.819994478951667 53.2813
19.84259622316767 53.7795
19.8651987471481 54.2027
19.887978643247177 54.431999999999995
19.91058273574792 55.0366
19.933187610901943 55.8157
19.955969879466828 56.9804
19.97857632894404 58.5539
20.00118356396599 60.3557
20.023791585494575 62.8204
20.046577028914875 65.8767
20.069186632506966 68.3137
20.091797025500632 70.3094
20.114408208858933 69.9501
20.137196842715273 68.9616
20.159809615886765 66.5631
20.18242318232135 63.3464
20.20503754298326 61.403999999999996
20.227829382875154 60.7978
20.250445341109344 61.3197
20.27306209647285 62.4634
20.29567964993108 64.0598
20.31847471147704 65.1048
20.34109387027612 65.7279
20.363713830075454 64.3603
20.386334591841646 61.6901
20.409132890679302 58.7243
20.431755265564437 55.913000000000004
20.454378445325528 53.4047
20.477002430930366 51.8725
20.499803982716553 50.8631
20.522429589228004 50.3591
20.54505600449589 49.8236
20.567683229489194 49.7075
20.590488049900088 49.4313
20.61311690359731 49.4477
20.63574656993626 49.2872
20.658553853717297 48.8512
20.681185154618298 48.9956
20.703817271080066 48.5715
20.72645020407368 48.4801
20.749260783967177 48.24
20.771895359337133 48.4297
20.794530754161617 48.3226
20.817166969412938 48.3075
20.83998086114876 48.3268
20.86261872660049 48.1111
20.885257415405402 48.1166
20.90789692853701 48.153
20.930714147864748 48.0106
20.953355319030678 48.103
20.97599731745334 47.9946
20.99864014410749 47.7579
21.021460706796564 47.9316
21.044105199328826 48.1471
21.06675052302631 48.4134
21.089396678865015 48.4068
21.112220600704806 48.9344
21.134868430275347 49.3342
21.15751709492456 49.4295
21.180166595629693 49.8366
21.202993892429635 50.4891
21.22564507473034 50.7139
21.24829709602816 50.7405
21.27112693608965 50.8421
21.293780644891275 50.6308
21.316435195634053 49.805
21.339090589297417 48.8038
21.361923832041875 48.3585
21.384580921090404 48.0209
21.407238856007325 47.4332
21.429897637773326 47.5703
21.45273429906592 47.8078
21.475394784108598 47.6247
21.498056118951983 47.81
21.520718304578022 48.0351
21.543558400304388 48.1334
21.566222297108816 48.4002
21.58888704765135 48.5238
21.61155265291521 48.723
21.63439619898156 49.2626
21.657063523335786 49.4485
21.67973170537063 49.8775
21.7024007460706 50.3811
21.72524775840385 51.1345
21.747918526116475 52.2822
21.770590155457388 53.4687
21.79326264741238 55.1329
21.816113141960237 57.0306
21.838787368860547 59.0528
21.861462461341976 61.3807
21.884315579735777 63.6056
21.90699241312273 64.5028
21.92967011506078 64.1076
21.95234868653799 62.9946
21.9752053151131 60.8973
21.997885635446785 58.7281
22.020566828293532 57.0228
22.04324889464272 55.6982
22.066109049404666 55.4386
22.088792872571794 55.1846
22.111477572219204 55.552
22.1341631493376 55.7726
22.157026846313123 55.2823
22.179714188221507 54.166000000000004
22.202402410582668 52.8035
22.22509151438863 51.2048
22.24795876962584 50.1336
22.270649646204486 49.2826
22.293341407213727 48.6422
22.316034053646906 48.4614
22.338904883215342 48.3212
22.36159931041458 48.2083
22.38429462602756 48.0769
22.40699083104897 47.7747
22.429865251039757 47.7815
22.452563244831367 47.8223
22.47526213102522 47.8984
22.49813925616515 47.9138
22.520839937143307 47.7347
22.543541513520587 47.896
22.56624398629403 47.7301
22.589124730075895 47.7926
22.611829005656723 48.086000000000006
22.63453418063466 48.1346
22.657240256008077 48.2989
22.680124634582935 48.3368
22.70283252079775 48.6366
22.725541310413075 48.9541
22.74825100442868 49.0938
22.771139033969575 49.7373
22.79385054687155 49.8111
22.81656296718292 50.6005
22.83927629590484 51.4258
22.862167992606945 52.6254
22.88488314827121 53.9934
22.907599215359284 55.0228
22.93031619487366 56.2711
22.953211574954405 57.1088
22.975930389478226 57.4266
22.998650119445763 57.1237
23.02137076586092 55.9485
23.044269845560063 54.2298
23.06699233506288 52.4522
23.089715744034912 50.9603
23.112617610931565 49.6978
23.135342869061212 48.6482
23.158069049684816 48.3037
23.1807961538087 48.0987
23.20370174880544 48.0558
23.226430710184808 48.0811
23.249160598093425 48.242
23.271891413539002 48.3042
23.294800752937697 48.1893
23.31753343374794 48.4407
23.340267045128353 48.5314
23.36300158808808 48.8912
23.38591468821339 49.2491
23.408651104658304 49.7305
23.431388455719986 50.4484
23.454126742409 51.2428
23.4770436196085 52.254
23.499783787914662 53.7986
23.522524894889884 54.951
23.54526694154616 56.1857
23.56818761219047 57.3649
23.59093154860734 57.6143
23.613676427751283 57.4785
23.636422250635754 55.9168
23.659346731118656 53.928000000000004
23.68209445191868 51.7728
23.704843119509587 49.7425
23.72759273490623 48.0115
23.750521041644767 47.0426
23.77327256312355 46.1077
23.796025035462787 45.6795
23.818956224555475 45.2258
23.841710609113413 45.1851
23.86446594758979 45.0547
23.887222241002014 44.8867
23.910157285144578 44.6062
23.932915498962537 44.555
23.955674670778713 44.4118
23.978434801611975 44.1396
24.001373717286125 44.0656
24.024135776723917 44.0196
24.046898798245582 43.8556
24.06966278287146 43.8033
24.092605586582614 43.4563
24.115371508023642 43.3817
24.1381383956401 43.3668
24.16090625045381 43.3241
24.183852958731244 43.1991
24.206622758582608 43.0326
24.229393528706886 42.8902
24.252165270127392 43.00899999999999
24.27511589952438 42.9952
24.297889594216997 42.7667
24.32066426328598 42.5487
24.34343990775613 42.5139
24.36639447485003 42.4364
24.38917208083877 42.4265
24.41195066531332 42.2909
24.43490819850244 42.5438
24.457688750692377 42.3649
24.48047028445616 42.3145
24.503252800821233 42.4307
24.526214300784112 42.5542
24.548998793132213 42.4847
24.57178427117417 42.3379
24.59457073593893 42.4013
24.617536219319863 42.2529
24.64032466834748 42.1516
24.663114107195035 42.0214
24.685904536893013 41.7749
24.708874020360852 41.7125
24.731666442613744 41.9166
24.754459858818787 41.773
24.777254270007962 41.6398
24.80022777025625 41.5744
24.82302418230472 41.6416
24.845821592443674 41.6229
24.86862000170663 41.5126
24.891597535453727 41.4381
24.914397953892728 41.5781
24.93719937456671 41.6461
24.96000179851076 41.799
24.98298338249997 41.9513
25.00578782394922 42.2079
25.028593271784167 42.2392
25.05157790644186 42.7681
25.07438537804115 42.8991
25.097193859145293 43.0472
25.120003350792075 43.4177
25.142992065061257 43.553000000000004
25.165803588823465 43.8277
25.18861612625217 43.9892
25.211429678386736 43.9356
25.234422489079968 44.0877
25.257238081693636 44.1895
25.280054692141732 44.367
25.3028723214652 44.3571
25.325869245420463 44.513999999999996
25.348688923599397 44.4194
25.371509623787006 44.2161
25.394331347025812 43.8584
25.41733240110666 43.1951
25.440156181590016 42.4399
25.46298098826268 41.9154
25.48580682216873 41.4018
25.50881202326435 40.7614
25.53163992281684 40.5751
25.55446885274561 40.4434
25.577298814096377 40.1556
25.600308179121807 40.0143
25.623140214533745 40.1916
25.64597328451537 40.118
25.66898578564376 39.9305
25.691820936010206 39.9176
25.714657124097695 39.8721
25.737494350954734 40.056
25.760511045684957 39.891
25.783350361364224 39.7885
25.806190718969255 39.8174
25.82903211955018 39.9572
25.852053024868923 39.9029
25.874896522722523 40.0317
25.897741066713106 39.9167
25.920586657892454 40.0964
25.943611790812668 40.1974
25.966459487728237 40.3417
25.989308234998564 40.4183
26.01215803367705 40.809
26.03518741123814 41.0678
26.05803932412957 41.1332
26.080892291600094 41.1325
26.10374631470478 41.0839
26.12677995397268 41.1725
26.14963609978026 41.0234
26.172493304397875 40.6749
26.19535156888223 40.3486
26.218389486949604 40.0721
26.241249882640123 39.7438
26.26411134137826 39.6464
26.28715248187403 39.5939
26.31001607820869 39.4511
26.3328807407756 39.275999999999996
26.35574647063438 39.4788
26.37879191991473 39.5965
26.401659795896734 39.5663
26.424528742360263 39.695
26.447398760366614 39.908
26.470448535598294 40.0601
26.49332070826805 40.2328
26.516193955675355 40.6098
26.53906827888316 40.7072
26.562122397260108 40.838
26.584998883685063 41.3548
26.607876449110325 41.5197
26.63075509460056 41.688
26.65381357334404 41.8519
26.67669439061878 41.5767
26.699576291163382 41.4532
26.722459276044212 41.2321
26.745522132402975 40.9375
26.768407297649354 40.5716
26.791293550442003 40.4019
26.814180891848974 40.2621
26.837248143099337 39.8721
26.860137673466657 39.8318
26.88302829566349 39.6798
26.90592001075963 39.3983
26.92899167420566 39.2572
26.951885586870763 38.854
26.974780595655517 38.6376
26.99785558178161 38.5656
27.020752794605112 38.443000000000005
27.043651106772522 38.314
27.06655051935668 38.2074
27.089629948036183 38.22
27.112531573292053 38.1782
27.135434302194138 38.164
27.158338135817015 38.0064
27.181422024430987 38.1151
27.204328079372566 38.0194
27.22723524226965 37.9096
27.250143514198573 38.0772
27.273231880156334 37.992
27.296142382065014 37.9923
27.319053996245536 37.7312
27.341966723775965 37.8685
27.365059584515222 37.978
27.38797455070062 37.9564
27.410890633481237 37.8936
27.433807833936918 37.8784
27.456905206923906 37.999
27.47982465472398 38.0082
27.502745223449743 38.0346
27.525666914182825 38.1346
27.548768816912457 38.0204
27.571692763693633 37.9855
27.59461783573812 37.85
27.617723149491244 37.6233
27.640650484125285 37.4922
27.66357894728264 37.5198
27.686508540048052 37.6501
27.709618414237887 37.5833
27.732550278321757 37.3476
27.755483275279115 37.3155
27.778417406196485 37.4182
27.801531858397514 37.4242
27.824468269376716 37.3472
27.847405817586786 37.3845
27.870344504116094 37.5183
27.893463551932008 37.6001
27.916404527281053 37.7757
27.93934664422563 37.9949
27.962289903855886 38.0129
27.98541356491974 38.3155
28.00835912214229 38.3174
28.03130582533231 38.5221
28.054253675581805 38.659
28.077381967556104 38.5674
28.100332124185126 38.4028
28.123283431160893 38.3898
28.146235889577238 38.3512
28.169368830154156 38.1601
28.192323603752033 37.8798
28.215279532083304 37.6419
28.238415973016764 37.4597
28.261374223145094 37.2442
28.284333631303806 36.9485
28.307294198589954 36.8956
28.330435319167677 36.4235
28.353398217078915 36.2673
28.376362277420153 36.0196
28.39932750129032 35.9711
28.422473319286713 35.8084
28.44544088262495 35.8141
28.468409612800283 35.7623
28.491379510913497 35.497
28.51453004413313 35.3776
28.53750229057244 35.3625
28.56047570826344 35.3246
28.583450298308804 35.376999999999995
28.606605564586562 35.1107
28.629582511831156 35.284
28.65256063474956 35.1647
28.675539934446338 35.1651
28.698699951647605 35.0953
28.72168161743193 35.1156
28.74466446331978 34.9525
28.767648490417624 34.9216
28.790813276438353 34.8809
28.813799678527303 35.0414
28.836787265157085 34.9389
28.859955641890075 35.051
28.882945610203045 34.9151
28.905936766392035 34.7357
28.928929111566863 34.7554
28.952102288520145 34.765
28.975097024308607 34.5603
28.998092952423807 34.4058
29.021090073977508 34.3906
29.04426806913204 34.2004
29.067267590245258 34.107
29.090268308143695 34.0222
29.11327022394099 34.1155
29.13645305530891 33.9372
29.159457379627167 33.8537
29.18246290519685 33.841
29.20546963313352 33.8314
29.22865731875826 33.8828
29.25166646419296 33.8692
29.27467681535305 33.6434
29.29768837335608 33.7554
29.320880931312562 33.7667
29.34389491580634 33.8522
29.366910110507334 33.7112
29.38992651653503 33.8572
29.41312396492981 33.7743
29.436142806456754 33.6667
29.45916286268059 33.5519
29.48236399319994 33.3492
29.50538649169417 33.2064
29.528410208259935 33.2223
29.55143514402014 33.0118
29.574641196749695 32.8936
29.597668583816574 32.7629
29.6206971934585 32.6362
29.64372702680042 32.6566
29.666938019934474 32.5727
29.689970313635285 32.4749
29.713003834422636 32.354
29.73603858342347 32.2734
29.759254535188578 32.4271
29.78229175361658 32.3189
29.80533020365064 32.4345
29.82836988641968 32.3799
29.85159081507472 32.293
29.874632976355343 32.3177
29.89767637376955 32.2724
29.920721008448314 32.1316
29.9439469322847 32.1573
29.96699405457564 32.047
29.9900424175358 32.1598
30.013092022298157 32.0522
30.03632295963995 31.991999999999997
30.059375061131373 32.0524
30.08242840783577 32.0166
30.105483000888153 31.9896
30.128718970092244 31.9922
30.151776069006917 31.8651
30.17483441768648 31.97
30.198074175317235 31.9313
30.221135036724256 31.9564
30.24419715131772 31.8308
30.267260520236203 31.8072
30.290505341942243 31.9362
30.313571232750228 31.9344
30.336638381310948 31.8001
30.35970678876503 31.8183
30.38295669299435 31.7646
30.40602763151657 31.7662
30.429099832366074 31.7186
30.452173296685572 31.6202
30.47542830191959 31.6034
30.498504306502497 31.5176
30.521581577995562 31.563000000000002
30.544660117543582 31.7225
30.56792024229725 31.730999999999998
30.59100133132069 31.6915
30.614083691845494 31.6458
30.637167325018545 31.9299
30.660432587840603 31.8457
30.683518779717886 31.7147
30.70660624769615 31.8055
30.729694992924372 31.7966
30.75296541239743 31.6942
30.77605672557558 31.7188
30.799149319462742 31.603
30.8224236211637 31.5257
30.845518789950724 31.4069
30.868615242910597 31.2694
30.891712981195973 31.0713
30.91499247215866 31.1153
30.938092794619365 31.0523
30.96119440587579 30.9845
30.984297307082752 30.8436
31.00758200598383 30.787
31.030687500658694 30.7371
31.053794288760695 30.6737
31.076902371446767 30.5744
31.100192296997445 30.6531
31.12330298246119 30.5816
31.14641496599209 30.482
31.169528248749216 30.4941
31.19282341969534 30.4712
31.215939314557186 30.3916
31.239056512134788 30.5057
31.262175013589378 30.473000000000003
31.28547544871168 30.3267
31.30859657161541 30.3799
31.331719001892175 30.4195
31.35484274070538 30.5497
31.378148458819545 30.4978
31.401274828443725 30.4135
31.424402510106933 30.4248
31.447712205419993 30.5083
31.470842524931633 30.3477
31.493974159989783 30.4185
31.51710711176168 30.3434
31.54042212308802 30.3501
31.563557722100917 30.2385
31.586694641341655 30.0304
31.609832881979628 30.0339
31.63315322823208 30.011
31.656294125521327 29.8399
31.679436347728515 29.7997
31.70257989602529 29.7596
31.725905596152327 29.7485
31.74905181052835 29.6716
31.772199354521323 29.7907
31.79534822930507 29.7755
31.818679302290967 29.7077
31.84183085259981 29.7582
31.864983737233473 29.6914
31.88813795736804 29.8009
31.911474422233013 29.6072
31.934631327356435 29.6891
31.9577895715215 29.6765
31.980949155906522 29.5831
32.004291031706956 29.531
32.027453310562606 29.4523
32.05061693318573 29.2859
32.07396288236386 29.3709
32.09712920658542 29.4044
32.12029687812702 29.2508
32.14346589817093 29.1175
32.166817291729984 29.1853
32.18998902288583 28.9939
32.21316210610336 28.8345
32.23633654256711 28.8166
32.259693399663725 28.7386
32.282870556771144 28.7718
32.30604907069099 28.7363
32.329228942610065 28.6154
32.35259128243769 28.519000000000002
32.375773884550505 28.4775
32.398957848235646 28.4854
32.422143174682176 28.4411
32.445511016471215 28.2687
32.468699082679954 28.322
32.49188851523011 28.2799
32.51507931531304 28.2505
32.538452678331 28.2484
32.56164622776311 28.0655
32.58484114831493 28.0802
32.60803744118015 28.1356
32.631416344731896 28.1047
32.654615396551876 28.1516
32.67781582427913 28.0322
32.701198898634416 27.9441
32.72440209253756 27.9159
32.747606665947124 27.8445
32.77081262006088 27.7793
32.79420126883317 27.748
32.81740999876112 27.7984
32.840620112999424 27.7374
32.86383161274818 27.5778
32.88722585534586 27.5193
32.91044014056596 27.5038
32.933655814909734 27.5056
32.95687287957963 27.6554
32.98027273544904 27.4799
33.00349259526636 27.5146
33.026713849030116 27.3885
33.04993649794511 27.3859
33.073341986570746 27.4246
33.09656744032826 27.3304
33.11979429286444 27.4189
33.14302254538647 27.3648
33.166433686291185 27.381
33.18966475336992 27.3864
33.212897224069096 27.2579
33.23613109959831 27.1587
33.259547912343415 27.1518
33.2827846121627 27.127
33.306022720453775 27.0312
33.32926223842861 26.9967
33.352684742614166 26.9811
33.37592709463173 26.9313
33.399170859982064 26.9137
33.422597648419426 26.8448
33.44584425514446 26.7401
33.46909227885668 26.7017
33.4923417207723 26.5707
33.51577423505344 26.5742
33.539026528130385 26.524
33.56228024307245 26.4768
33.585535381098246 26.3226
33.60897364093058 26.3047
33.63223163992385 26.403000000000002
33.6554910656699 26.324
33.678751919389796 26.3473
33.702195944520106 26.136
33.72545966903325 26.2869
33.74872482519663 26.1326
33.771991414233746 26.0584
33.79544122444841 26.0944
33.81871069412428 26.0534
33.84198160035767 25.9889
33.86525394437455 25.9782
33.88870955949969 25.8874
33.911984794020626 25.9168
33.93526147001624 25.8274
33.958539588715006 25.8129
33.98200102861669 25.744
34.0052820477047 25.6186
34.02856451319451 25.6305
34.05203033759056 25.5748
34.07531571090147 25.578000000000003
34.09860253431845 25.6303
34.121890809074316 25.5627
34.145362493118924 25.5074
34.16865368561615 25.4831
34.191946333164054 25.468000000000004
34.21524043699793 25.4132
34.23871800066799 25.3988
34.26201503218366 25.2652
34.28531352370466 25.2714
34.30861347646881 25.1733
34.33209693978188 25.1631
34.3553998301885 25.1307
34.378704185565205 25.146
34.402010007152356 25.0235
34.42549939016683 24.9643
34.44880815937748 24.8946
34.472118398533134 24.8922
34.49543010887669 24.899
34.51892543169198 24.7345
34.54224009966052 24.7354
34.56555624255917 24.7669
34.58887386163339 24.7112
34.61237514439016 24.6223
34.6356957311114 24.6048
34.65901779775809 24.5687
34.68252356662995 24.5698
34.705848608458616 24.5439
34.72917513396849 24.4254
34.75250314440949 24.4428
34.77601490857862 24.3152
34.799345904259795 24.3284
34.82267838863559 24.3719
34.846012362958525 24.3248
34.869530142679984 24.3109
34.89286711232212 24.2687
34.91620557568269 24.1793
34.93954553401677 24.1631
34.9630693495876 24.1097
34.986412313340814 24.1415
35.00975677584668 24.0593
35.033102738362956 24.0056
35.05663261012228 23.930999999999997
35.0799815881786 23.9593
35.10333207003229 23.9461
35.12668405694369 23.8713
35.150220005273056 23.9344
35.17357501786656 23.884
35.19693153931268 23.8445
35.220289570874385 23.8635
35.24383161619786 23.8078
35.267192683604904 23.7779
35.290555264930376 23.8203
35.314101899412165 23.7653
35.33746752422433 23.694000000000003
35.36083466676374 23.6886
35.38420332829803 23.6015
35.407756095629054 23.6656
35.43112781085063 23.5836
35.45450104888391 23.5767
35.477875810999194 23.6451
35.50143473172161 23.5168
35.52481255774625 23.5685
35.54819191167777 23.4042
35.57157279478914 23.3961
35.595137889488406 23.4042
35.61852184675279 23.3462
35.641907337029984 23.261999999999997
35.665294361595684 23.2703
35.68886565090076 23.1897
35.7122557598848 23.1768
35.73564740699838 23.1268
35.759040593519934 23.0973
35.78261809810353 23.125
35.80601437933051 23.0542
35.829412203814705 22.9705
35.85281157283719 22.8546
35.876395313415884 22.9275
35.8997977874528 22.8351
35.92320180988546 22.8355
35.946790244133936 22.8468
35.97019737933222 22.7946
35.993606066789866 22.732
36.01701630779276 22.7508
36.04061101440684 22.6316
36.06402437852291 22.7127
36.08743930005611 22.6283
36.1108557802951 22.5457
36.13445678011326 22.5934
36.15787639383515 22.561
36.18129757014299 22.5192
36.20472031032821 22.4147
36.22832762423364 22.3485
36.25175350829375 22.3481
36.275180960119776 22.2414
36.298609981005924 22.3256
36.32222362992669 22.29
36.34565580510207 22.2774
36.36908955323448 22.2054
36.39252487562093 22.1339
36.416144880530226 22.0388
36.43958336764275 22.1635
36.463023432914625 22.0336
36.486465077645676 22.0211
36.51009145956204 22.0934
36.53353627947859 22.1048
36.55698268276811 22.0099
36.58043067073321 21.9436
36.60406345072071 21.883000000000003
36.62751462435344 21.8953
36.65096738658405 21.8669
36.67460498210655 21.8745
36.69806093788647 21.7438
36.72151848619297 21.625999999999998
36.744977628333636 21.7137
36.76862165890998 21.6438
36.79208400512205 21.6615
36.81554794910557 21.6074
36.83901349217101 21.4812
36.862663978991606 21.463
36.88613273667352 21.4466
36.90960309738324 21.4564
36.933075062434064 21.4072
36.95673202673572 21.4557
36.98020721697122 21.357
37.003684015502365 21.2754
37.027162423645365 21.2628
37.050825886711465 21.2408
37.07430753063053 21.1948
37.09779078812467 21.1497
37.121275660513014 21.1466
37.144945643673694 21.1189
37.16843376245278 21.0649
37.19192350009803 21.1154
37.215414857931435 21.096
37.239091382563885 21.0083
37.262585997426164 20.951
37.28608223645736 20.9246
37.309763684451696 20.8855
37.33326318851098 20.7903
37.356764320726555 20.7444
37.380267082425526 20.842
37.40395510942588 20.7576
37.42746114683234 20.6796
37.45096881771841 20.6867
37.474478123414166 20.7197
37.49817275092816 20.586
37.52168534303452 20.6014
37.54519957395567 20.5509
37.568715445024665 20.4708
37.592416694607714 20.4914
37.61593586281424 20.5065
37.63945667518264 20.5662
37.66297913304891 20.4493
37.68668702630454 20.382
37.710212792059274 20.2558
37.733740207334854 20.2996
37.757269273470364 20.204
37.780983832050374 20.2294
37.80451621684926 20.2072
37.82805025654007 20.1917
37.851585952464795 20.1509
37.8753071980695 20.0364
37.89884622345676 20.0162
37.92238690911902 20.0232
37.94611318753442 19.9975
37.969657210779765 19.9439
37.99320289834801 20.0108
38.016750251586465 19.9003
38.04048325513017 19.8939
38.06403395679343 19.8325
38.087586328183946 19.8143
38.11114037065203 19.7793
38.13488012115898 19.7673
38.1584375229181 19.7321
38.181996599821 19.6468
38.205557353221124 19.5977
38.229303872575656 19.633
38.2528679961576 19.5986
38.27643380031219 19.544
38.30000128639589 19.5127
38.32375459653193 19.4975
38.34732546371299 19.5259
38.37089801690786 19.4331
38.39447225747609 19.3948
38.418232380377425 19.3561
38.441810012983396 19.2982
38.46538933705673 19.2627
38.488970353960084 19.2865
38.51273731166058 19.27
38.536321731567014 19.1508
38.55990784840681 19.1429
38.58367995004091 19.2336
38.60726947812959 19.1762
38.63086070726198 19.1932
38.654453638806274 19.0528
38.678232613930824 19.0255
38.70182896773327 18.9818
38.72542702806741 18.9739
38.7490267963045 18.9497
38.77281266709232 18.891
38.79641586862214 18.9045
38.8200207821842 18.8853
38.843627409152944 18.845
38.86742019782782 18.8209
38.891030269149255 18.8122
38.914642058016156 18.7784
38.938255565806124 18.7238
38.96205529464307 18.6508
38.98567225787121 18.6519
39.00929094417078 18.6368
39.03291135492255 18.6226
39.05671804624804 18.6075
39.080341923549106 18.5165
39.103967529460334 18.4884
39.127594865365744 18.4491
39.15140854155791 18.3915
39.17503935514948 18.4238
39.19867190290282 18.364
39.22249083587951 18.317999999999998
39.24612686969409 18.3638
39.269764641845306 18.3335
39.293404153722804 18.3034
39.317230110864074 18.1932
39.34087311998506 18.2025
39.36451787301696 18.24
39.388164371352595 18.1443
39.41199737518003 18.0705
39.43564738196752 18.1052
39.45929913825317 18.0955
39.48295264543308 18.0396
39.506792718520884 17.992
39.530449745387216 17.934
39.55410852735203 17.9188
39.57776906581474 17.9413
39.60161623079 17.8581
39.625280300200025 17.8501
39.64894613032202 17.7894
39.67261372255866 17.812
39.6964680021016 17.8119
39.72013913657293 17.7548
39.74381203738292 17.7572
39.76748670593756 17.7705
39.79134812278169 17.691
39.81502634488497 17.6385
39.83870633896685 17.594
39.862388106436654 17.5372
39.88625668336918 17.5447
39.90994201572829 17.5432
39.933629125719285 17.5243
39.957503091207826 17.4498
39.9811937746168 17.516
40.00488623990914 17.4227
40.02858048850006 17.387
40.05246165409549 17.3712
40.076159487492085 17.3651
40.099859108448875 17.3239
40.123560518384345 17.291
40.1474489070226 17.2625
40.171153913178564 17.1671
40.194860712584955 17.158
40.2185693066637 17.1611
40.242464941335314 17.1338
40.26617714307655 17.0952
40.289891143772046 17.0295
40.3136069448471 16.9888
40.33750984859743 16.958
40.3612292688043 17.0161
40.3849504936829 16.9927
40.40867352466194 16.9257
40.43258372059144 16.9195
40.45631038219906 16.9403
40.48003885420956 16.8509
40.503769138055105 16.8142
40.52768664931955 16.8289
40.55142057531802 16.824
40.57515631746428 16.7306
40.599079334038514 16.6995
40.62281872700477 16.7213
40.64655994043941 16.6932
40.67030297578061 16.636
40.69423334835778 16.6177
40.71798004609188 16.5892
40.74172857006355 16.535999999999998
40.76547892171441 16.5193
40.7894166736039 16.4891
40.813170699248566 16.4447
40.83692655691388 16.4914
40.86068424804498 16.5313
40.884629402612525 16.4773
40.908390779366385 16.4271
40.932153993938 16.3341
40.95591904777605 16.3323
40.979871628443995 16.3658
41.003640379561936 16.2977
41.02741097430883 16.2803
41.05118341413683 16.2543
41.075143444384416 16.1743
41.098919593177826 16.1951
41.1226975914255 16.1216
41.14647744058318 16.12
41.170444943946755 16.0928
41.19422851378379 16.1109
41.218013938914645 16.0565
41.24198706625173 16.0463
41.26577622087193 16.0318
41.289567235177785 16.007
41.31336011063129 15.9723
41.337340752422875 15.9081
41.361137369129835 15.8889
41.38493585138705 15.9042
41.40873620066004 15.833
41.43272438060107 15.860999999999999
41.45652848292052 15.8015
41.48033445666918 15.7421
41.50414230331616 15.6685
41.528138045159764 15.7219
41.551949656675205 15.6539
41.575763145513235 15.6177
41.59957851314666 15.585999999999999
41.62358184070442 15.5663
41.64740098505737 15.5671
41.6712220126409 15.5468
41.69504492493139 15.51
41.71905586207357 15.4923
41.74288256296395 15.4933
41.766711153007456 15.4103
41.79054163368412 15.4214
41.814560204340054 15.409
41.838394485526365 15.4049
41.86223066180303 15.3079
41.88625497706819 15.3165
41.910094962812 15.3283
41.93393684811168 15.2867
41.95778063445365 15.171
41.981812625263366 15.1962
42.00566023303407 15.187999999999999
42.029509746323676 15.1588
42.05336116662236 15.1382
42.077400857069705 15.091
42.10125611078846 15.0389
42.12511327600405 15.0566
42.14897235421036 15.032
42.173019768448455 14.9789
42.19688269209613 14.9725
42.22074753323349 14.9949
42.24461429335818 14.9397
42.268669455600495 14.9646
42.292540073217886 14.89
42.31641261433284 14.869000000000002
42.34028708044675 14.8345
42.36435001496739 14.8145
42.38822835065557 14.8035
42.41210861586426 14.7313
42.4359908120986 14.7138
42.46006154323262 14.6977
42.48394762115317 14.665999999999999
42.507835634632315 14.7011
42.531912233047436 14.6985
42.55580413732265 14.6176
42.579697981698 14.532
42.60359376768525 14.5231
42.62767820545945 14.5017
42.65157789440821 14.5277
42.67547952952185 14.5511
42.699383112316 14.4857
42.72347541395347 14.4259
42.74738291190531 14.4271
42.771292362102166 14.3897
42.795203766063516 14.3758
42.819303956130405 14.3687
42.843219287476536 14.3217
42.86713657716324 14.3202
42.89105582671383 14.3033
42.91516392983864 14.228
42.939087119032166 14.2583
42.963012272677304 14.2762
42.98693939230129 14.1968
43.01105543317513 14.1213
43.034986504731386 14.140999999999998
43.05891954686589 14.1234
43.08285456110972 14.0902
43.10697856448665 14.0535
43.130917542983475 14.0314
43.15485849820081 14.0659
43.17880143167367 13.989
43.20293342237094 13.9368
43.226880332449 13.9335
43.25082922540554 13.9198
43.27496722682525 13.8927
43.29892010567796 13.8087
43.32287497204102 13.866
43.34683182745632 13.8133
43.370977859791836 13.7554
43.39493871351105 13.7457
43.41890156092628 13.7772
43.44286640358341 13.7435
43.46702049182749 13.7126
43.49098934522816 13.7076
43.51496019852649 13.6742
43.5389330532723 13.6223
43.56309522248204 13.5988
43.58707210044314 13.5524
43.61105098451946 13.5068
43.63503187626491 13.5604
43.659202151562134 13.5245
43.68318707902681 13.4816
43.70717401884041 13.4952
43.731162972560874 13.4193
43.75534137913236 13.4395
43.779334381108384 13.3995
43.803329401683186 13.3309
43.82732644241872 13.3531
43.8515130055166 13.3311
43.87551410707659 13.3047
43.89951723350145 13.270999999999999
43.923709934595614 13.1899
43.94771713129917 13.2356
43.97172635758096 13.2124
43.99573761501002 13.2056
44.0199385169922 13.1731
44.04395385732619 13.129000000000001
44.067971233533086 13.1596
44.09199064718605 13.1671
44.11619977548961 13.0886
44.14022328470671 13.0504
44.16424883610785 13.0306
44.18827643127035 12.9983
44.21249381139513 12.9585
44.236525514814076 12.9694
44.26055926674478 12.9438
44.28459506876863 12.9624
44.3088207262813 12.8988
44.33286064928722 12.8232
44.35690262714919 12.7994
44.38094666145278 12.7662
44.4051806219871 12.7824
44.42922879003185 12.76
44.45327901929361 12.7355
44.477331311362136 12.7338
44.501573600619416 12.6792
44.525630039221795 12.6468
44.54968854541895 12.6648
44.573937102200176 12.6541
44.5979997645541 12.6198
44.622064499300315 12.5954
44.64613130803592 12.6093
44.67038823869318 12.6442
44.69445921643748 12.5152
44.718532272981385 12.4665
44.742607409926194 12.4765
44.76687274034801 12.423
44.79095205918753 12.4273
44.81503346325094 12.4103
44.839116954143876 12.4603
44.86339071028742 12.3742
44.88747839599524 12.3565
44.91156817336837 12.3371
44.93566004401666 12.3201
44.959942251908146 12.3335
44.984038330325966 12.2909
45.00813650686762 12.2088
45.03223678314731 12.2421
45.05652746888232 12.1979
45.08063196592069 12.1598
45.104738567558705 12.1493
45.128847275414856 12.1396
45.15314646515866 12.0815
45.17725940679741 12.0733
45.20137445952892 12.0432
45.22568004865265 12.0767
45.24979934496396 12.0205
45.27392075725247 12.0276
45.29804428714431 12.0052
45.322358426247604 11.9587
45.346486212804315 11.9212
45.370616121861914 11.8786
45.39474815505086 11.8382
45.41907087049246 11.8639
45.4432071734666 11.844000000000001
45.46734560548283 11.8775
45.49148616817604 11.873
45.51581748638564 11.8043
45.5399623320197 11.7558
45.56410931325473 11.729000000000001
45.58825843173002 11.7452
45.61259837920865 11.7288
45.636751793816 11.7087
45.66090735060093 11.668
45.68506505120716 11.640999999999998
45.7094136545275 11.5837
45.73357566449271 11.5585
45.75773982322992 11.5881
45.78190613238733 11.5572
45.806263418194064 11.5103
45.83043404997326 11.5471
45.85460683713677 11.5274
45.87897065658495 11.5067
45.90314777634752 11.465
45.92732705646868 11.4467
45.9515084986045 11.3922
45.97588104735473 11.4237
46.00006683541565 11.3677
46.02425479047904 11.3621
46.04844491420549 11.3539
46.0728262191024 11.3857
46.09702070211635 11.3541
46.12121735879483 11.2835
46.14541619080294 11.255
46.169806278764455 11.2901
46.194009483459034 11.2534
46.21821486849841 11.2025
46.24242243555223 11.1629
46.266821333570014 11.1814
46.29103328674601 11.1161
46.31524742696538 11.1591
46.33946375590237 11.1237
46.36387149104216 11.0744
46.38809221957392 11.0291
46.41231514186606 11.0242
46.436540259597464 10.9926
46.460956858999374 11.0025
46.48518638983522 11.0059
46.509418121166966 11.0063
46.533652054678114 10.9626
46.55807754555709 10.9581
46.58231590571962 10.9068
46.60655647313217 10.8618
46.630988654873654 10.8798
46.655233659129024 10.8293
46.67948087571551 10.8414
46.70373030632484 10.8222
46.72817142736393 10.8063
46.752425308428684 10.788
46.77668140861147 10.7477
46.80093972960865 10.6854
46.82538981736788 10.6656
46.849652602470904 10.6464
46.87391761349769 10.6332
46.8981848521493 10.6485
46.9226439341274 10.6317
46.946915650573224 10.603
46.97118959976749 10.5608
46.99546578341598 10.5651
47.019933887188216 10.5138
47.04421456235744 10.5475
47.06849747711879 10.5245
47.09278263318286 10.5026
47.11725978640143 10.4761
47.14154944775105 10.4523
47.165841355555656 10.4087
47.1901355115306 10.3686
47.214621741924994 10.4085
47.23892041698887 10.4028
47.26322134538975 10.34
47.28771440635075 10.314
47.31201986422527 10.3092
47.33632758061436 10.2743
47.360637557241866 10.2743
47.38513974410611 10.2594
47.40945426407847 10.222999999999999
47.43377104948137 10.245
47.45809010204344 10.1933
47.48260144275502 10.1591
47.506925052572285 10.1398
47.53125093475548 10.0848
47.55557909103813 10.1483
47.58009961361992 10.1126
47.60443234110732 10.1154
47.62876734791564 10.0834
47.65310463578333 10.0504
47.6776343683373 10.0259
47.7019762413987 9.98038
47.72632040075572 9.95016
47.75066684815169 9.94767
47.77520581885936 9.94111
47.799556865477655 9.87321
47.823910205386 9.92885
47.84826584033272 9.90823
47.87281407745551 9.84949
47.89717432569297 9.88476
47.92153687423484 9.84469
47.94609208429692 9.831010000000001
47.97045925671401 9.80152
47.99482873471275 9.78668
48.01920052005013 9.80813
48.04376504619224 9.76849
48.068141469543484 9.77433
48.09252020552573 9.7701
48.11690125590099 9.711310000000001
48.1414751266064 9.676680000000001
48.16586082917454 9.70088
48.19024885144316 9.6712
48.2146391951793 9.65664
48.239222439012764 9.601980000000001
48.26361744916137 9.60189
48.28801478610016 9.55458
48.31241445160131 9.53863
48.337007097209366 9.541889999999999
48.36141144338331 9.5258
48.38581812345755 9.49744
48.41022713920929 9.49584
48.434829215320704 9.52638
48.45924292604658 9.4956
48.48365897780325 9.451189999999999
48.50807737237308 9.41698
48.532688907799276 9.4279
48.55711201168574 9.418569999999999
48.581537463754074 9.35873
48.60615611725119 9.3863
48.63058628942721 9.33258
48.65501881516546 9.33646
48.6794536962573 9.326039999999999
48.70408185970339 9.257639999999999
48.72852147531801 9.27599
48.75296345168211 9.27776
48.77740779059232 9.23835
48.80204549302823 9.25407
48.82649458091802 9.20382
48.85094603676547 9.14605
48.87539986237231 9.18488
48.90004713292306 9.14109
48.92450572200832 9.12037
48.94896668628025 9.099839999999999
48.97343002754588 9.10868
48.99808689542115 9.083
49.02255501470614 9.06045
49.04702551642794 9.080060000000001
49.0714984023988 9.061960000000001
49.096164896893235 9.000919999999999
49.120642575466796 9.00267
49.145122643748394 9.01995
49.16960510355558 8.97831
49.19428125404938 8.9109
49.2187685210852 8.93189
49.243258185121555 8.93989
49.26794160167084 8.90307
49.2924360839405 8.86105
49.31693296869764 8.82518
49.34143225776915 8.823839999999999
49.36612538195438 8.7981
49.39062950396021 8.81508
49.41513603578346 8.79043
49.4396449792564 8.77069
49.46434784069503 8.76495
49.488861631846454 8.74451
49.513377840166804 8.708789999999999
49.537896467493745 8.7038
49.56260909589029 8.6759
49.587132585683285 8.711689999999999
49.611658500018365 8.63512
49.636186840738596 8.60924
49.66090926588511 8.620619999999999
49.685442483902584 8.60902
49.70997813385706 8.57929
49.734516217597076 8.58849
49.75924846937352 8.56049
49.7837914452858 8.55299
49.80833686055187 8.527389999999999
49.83288471702571 8.500110000000001
49.85762682540054 8.47129
49.882179588965734 8.48594
49.9067347993235 8.43222
49.93129245833333 8.436
49.95604445336378 8.45386
49.98060703442832 8.41738
50.005172069746266 8.400960000000001
50.02993150438364 8.369810000000001
50.05450147301533 8.346210000000001
50.07907390151433 8.343110000000001
50.10364879174981 8.32263
50.12841816587289 8.32892
50.1529980044635 8.31135
50.17758031042124 8.2734
50.20216508562089 8.26936
50.22694442953363 8.24593
50.25153416817468 8.21991
50.27612638170508 8.23727
50.300721072005196 8.160910000000001
50.325510416102105 8.17352
50.350110084975064 8.172880000000001
50.37471223628208 8.15097
50.39931687190919 8.15285
50.424116246675766 8.136289999999999
50.44872587605249 8.0827
50.47333799543065 8.09102
50.49795260670191 8.071710000000001
50.52276204271512 8.057839999999999
50.54738166295838 8.05315
50.57200378079314 8.03575
50.596628398116835 8.00405
50.62144792604559 7.993710000000001
50.646077567609396 7.969339999999999
50.670709714377715 7.989
50.69553683636198 7.9545
50.72017401885922 7.940180000000001
50.7448137122895 7.8871899999999995
50.76945591856022 7.91626
50.79429318636823 7.8753899999999994
50.818940443716784 7.86395
50.84359021965163 7.835430000000001
50.868242516085964 7.858389999999999
50.893089960641895 7.851319999999999
50.917747323549435 7.810389999999999
50.94240721271973 7.79022
50.96706963007175 7.78539
50.99192728239342 7.7664
51.01659478166073 7.77606
51.04126481489051 7.75815
51.06593738400761 7.7550300000000005
51.090805275207074 7.70091
51.11548294172845 7.723160000000001
51.14016314993547 7.667669999999999
51.164845901758845 7.69035
51.18972406304274 7.6367
51.21441192780656 7.63845
51.23910234200271 7.634189999999999
51.2637953075678 7.60513
51.288683770237945 7.599880000000001
51.31338186432707 7.58742
51.33808251561888 7.55365
51.362978729967345 7.54303
51.387684521509755 7.51594
51.41239287610203 7.53832
51.437103795691165 7.5227
51.46201036644977 7.44959
51.486726441956634 7.4471300000000005
51.51144508832545 7.44377
51.536166307509156 7.44062
51.56108326624387 7.43662
51.58580965706056 7.42904
51.61053862657523 7.41062
51.635270176746864 7.363230000000001
51.66019755512065 7.3555399999999995
51.68493429268881 7.33908
51.70967361681515 7.335310000000001
51.73441552946465 7.29258
51.759353359237934 7.31687
51.7841004750961 7.29241
51.80885018539685 7.26802
51.833602492111254 7.24297
51.8585508051424 7.255089999999999
51.883308330926425 7.20068
51.90806845906181 7.18725
51.932831191525715 7.163060000000001
51.95779001977161 7.13708
51.98255798721516 7.17829
52.00732856494335 7.14965
52.03229530577543 7.1484
52.057071130455945 7.10455
52.081849571391054 7.07325
52.106630630568695 7.12383
52.13160794279417 7.073739999999999
52.15639426492067 7.030819999999999
52.18118321127822 7.0176300000000005
52.205974783860896 7.04361
52.23096269971011 6.958810000000001
52.255759551287994 7.01554
52.280559035098186 7.0055
52.30536115314103 6.996169999999999
52.33035970494467 6.94148
52.35516711807904 6.91977
52.37997717147198 6.9004
52.40478986713005 6.9039399999999995
52.42979908731974 6.89812
52.454617094216 6.87525
52.47943774942214 6.86065
52.50426105495102 6.86884
52.529280976059844 6.82649
52.554109609024096 6.83482
52.57894089837482 6.81772
52.60377484613117 6.80365
52.62880550079408 6.77739
52.65364479223379 6.75095
52.67848674816189 6.755269999999999
52.70352547971946 6.71634
52.72837279155837 6.728439999999999
52.753222773982785 6.732289999999999
52.778075429022984 6.7306
52.80312495150885 6.701060000000001
52.827982978797436 6.672460000000001
52.85284368481815 6.6577399999999995
52.87770707160767 6.6278
52.90276741793998 6.62724
52.92763619336701 6.597239999999999
52.952507655698504 6.56105
52.977381806977576 6.6071800000000005
53.00245301017842 6.58017
53.02733256653592 6.57039
53.052214817996074 6.55836
53.077099766608484 6.52683
53.102181859804446 6.5141599999999995
53.127072229988265 6.50416
53.15196530349892 6.51308
53.17686108239249 6.49367
53.20195409881522 6.47336
53.22685531582556 6.44466
53.25175924441303 6.4228
53.27666588664027 6.45233
53.30176985962693 6.39661
53.3266819565689 6.38534
53.35159677336455 6.33401
53.376514312083096 6.37204
53.40162927507703 6.37685
53.42655228516116 6.3528199999999995
53.45147802340193 6.33384
53.47660125628886 6.29248
53.50153247842639 6.30879
53.52646643496923 6.25988
53.55140312799818 6.3111
53.576537409691696 6.2837
53.60147960336152 6.26811
53.626424539786164 6.2331199999999995
53.65137222105307 6.20895
53.67651758529126 6.2339
53.70147078399681 6.18647
53.72642673383343 6.15989
53.75138543689533 6.14644
53.776541917524526 6.145
53.801506154876755 6.143269999999999
53.826473151763246 6.13235
53.851442910284916 6.08673
53.87661054126026 6.04737
53.9015858509782 6.06763
53.92656392866066 6.06048
53.95154477641532 6.07188
53.976723591801296 6.07337
54.00171000771266 6.02989
54.02669920004598 6.08326
54.051691170915745 6.02704
54.076881204886796 5.99151
54.101878760928514 5.98342
54.12687910187696 5.9416400000000005
54.152077577768296 5.95516
54.1770835166946 5.911980000000001
54.20209224691339 5.92282
54.22710377055121 5.89347
54.25231352511594 5.92364
54.27733066384342 5.844180000000001
54.30235060239643 5.87387
54.32737334290836 5.85851
54.35259441062629 5.82444
54.377622783395324 5.8245
54.40265396455061 5.8041599999999995
54.42768795623251 5.77916
54.45292037169559 5.77842
54.477960012857906 5.81008
54.50300247099511 5.70715
54.52804774825457 5.69113
54.55329154616743 5.67167
54.57834249018678 5.69217
54.6033962597977 5.64792
54.6284528571545 5.616219999999999
54.653708072335164 5.598269999999999
54.67877035378786 5.5889999999999995
54.70383546947698 5.57608
54.72890342156389 5.50949
54.7541700889442 5.51653
54.77924374251975 5.51788
54.8043202390049 5.49597
54.82959552413022 5.45581
54.8546777351945 5.447769999999999
54.87976279569621 5.36541
54.90485070780914 5.40264
54.930137506558005 5.400580000000001
54.95523115074295 5.43201
54.98032765308844 5.3756
55.005427015775496 5.34425
55.03072536339621 5.3013900000000005
55.05583047570572 5.31118
55.080938454927676 5.341080000000001
55.10604930325027 5.3026599999999995
55.131359235107396 5.28705
55.15647585066083 5.210030000000001
55.181595341907496 5.20162
55.20671771104285 5.18025
55.232039262617704 5.16181
55.25716741665048 5.18575
55.28229845518636 5.12867
55.30743238042802 5.09109
55.33276558731939 5.069719999999999
55.357905315183636 5.08458
55.383047936390035 5.00378
55.40819345314859 4.99573
55.433538351073295 4.99411
55.458689688238415 4.96583
55.483843927614096 4.9093
55.509197623043605 4.92595
55.53435769621134 4.90415
55.55952067826466 4.85047
55.5846865714265 4.83257
55.61005202069737 4.7838400000000005
55.63522376553902 4.89452
55.66039842818645 4.80627
55.68557601087004 4.79942
55.7109532500271 4.67767
55.73613670233794 4.70463
