TT I
1.2716486653135266 7.42753
1.2939594142134223 7.23234
1.3162702121660406 6.70949
1.3385810600174564 6.4652199999999995
1.3608919586137629 6.861160000000001
1.383202908801069 6.51575
1.405513911425503 5.88929
1.4278249673332093 6.18975
1.4501343378461518 6.52755
1.4724455028545926 5.96267
1.4947567236847858 5.99412
1.517068001182951 5.6225
1.5393793361953272 6.11303
1.5616907295681737 5.9568900000000005
1.5840021821477681 4.98864
1.60631369478041 4.79935
1.6286252683124185 5.206869999999999
1.6509369035901333 5.16309
1.6732468618895553 4.79357
1.695558623192809 5.08931
1.7178704487808514 4.70003
1.7401823395001077 4.72623
1.7625012545597203 4.46603
1.7848028405262486 5.19843
1.8071218901122095 4.91873
1.8294236121921872 4.9562
1.8517427996910911 4.640969999999999
1.8740620574440425 4.6447400000000005
1.8963639900671978 4.3287
1.9186833908139995 4.24182
1.9409854680117449 5.09414
1.9633050151394713 4.5791
1.9856246367570705 4.70247
2.0079269371922672 4.62838
2.03024671027244 4.82521
2.0525491637446027 4.59065
2.074869091674931 4.90848
2.097171701569106 4.94379
2.1194917877373847 5.285909999999999
2.141811954326636 4.58632
2.164114805233074 5.20195
2.186435135143035 5.5090900000000005
2.208738150935709 7.6546199999999995
2.231058647554722 11.3844
2.2533792288321184 9.7434
2.275682498336085 6.52
2.298003251406138 5.31128
2.3203066942619714 5.3520900000000005
2.3426276225136022 5.74803
2.3649486396617507 5.68767
2.387252348930071 6.33839
2.4095735463442893 6.33565
2.4318774374315884 6.18156
2.4541988185014043 6.4663900000000005
2.476502894794693 7.384289999999999
2.498824462909887 7.263610000000001
2.521146125856138 7.49355
2.5434504863470337 7.66515
2.5657723414244717 8.1825
2.588076895590662 8.63756
2.610398946189713 8.8545
2.6327210958598384 8.21042
2.6550259469304716 8.067960000000001
2.6773482972090137 8.28328
2.6996533504259 8.582989999999999
2.7219759047039602 8.38606
2.744298562293959 8.31247
2.7666039251246595 7.7614
2.7889267918020164 8.40055
2.8112323652516555 8.724969999999999
2.833555444408179 8.852789999999999
2.8558786311183852 8.557089999999999
2.8781845268938557 8.78733
2.9005079311721484 9.34855
2.9228140460410397 9.61931
2.9451376712799635 9.12958
2.967444008632326 10.0643
2.9897678582247247 10.3079
3.0120918213106695 9.949
3.0343984987899373 10.9653
3.0567226913198637 10.9912
3.079029599759726 11.9111
3.101354025127254 12.6455
3.123678568232338 12.8305
3.145985829517914 13.2755
3.16831061055229 13.9377
3.1906181112775593 14.6828
3.212943133635653 15.1664
3.2352682779763207 15.5735
3.2575761442691227 15.4418
3.2799015350264273 15.6523
3.302209649240067 16.1106
3.3245352898092655 16.4647
3.3468436553365257 16.7909
3.369169549113219 17.3274
3.3914955708171384 18.4479
3.413804319727358 18.9175
3.4361305997334863 19.0165
3.4584396084414553 19.2821
3.4807661501462652 20.1503
3.503092824025881 20.5348
3.5254022288463154 20.9389
3.5477291695206588 21.178
3.5700388426251948 21.9311
3.5923660534916446 23.0645
3.6146934007816114 27.1695
3.637003482731501 42.1563
3.6593311053109985 43.9386
3.681641464033634 32.9301
3.7039693653009733 26.189
3.726297407241705 24.9184
3.7486081875460804 24.7661
3.7709365132734978 25.4796
3.793247578841633 26.4856
3.8155761917550093 26.1805
3.8378875459837216 26.4304
3.8602164494827234 26.5986
3.882545499606844 27.9444
3.9048572932539183 28.0904
3.9271866390645718 28.5605
3.9494987298666713 29.1675
3.971828374764527 29.8488
3.9941581705403255 30.1524
4.016470713506008 30.7521
4.038800813471445 31.4402
4.061113662089144 32.116
4.0834440696459176 32.9267
4.105774632334751 33.2198
4.128087945865126 33.6465
4.150418821249301 34.5159
4.172732448931298 35.1429
4.195063640413578 36.6791
4.2173775856475215 38.0375
4.239709096631102 49.0824
4.262040768704612 99.0982
4.284355196706267 121.01899999999999
4.306687193387355 88.0493
4.329001947444346 53.0477
4.35133427213731 43.5014
4.373666762177566 42.3156
4.395982011761091 43.1185
4.418314834921175 44.3399
4.44063041906622 47.4407
4.4629635787515625 51.145
4.4852969080429785 52.1035
4.5076130004776225 52.6147
4.529946671403969 59.3837
4.552263106909177 64.4205
4.574597122877047 59.8098
4.596931312711224 54.5772
4.619248269273446 53.2917
4.6415828092605835 53.8731
4.663900117405352 54.8875
4.686235010953232 56.3214
4.708552674085913 57.9622
4.730887924602802 59.3942
4.753223354952695 61.424
4.775541557023902 65.2918
4.797877349456786 69.2181
4.820195915032126 68.5948
4.842532072957498 67.7714
4.864868414979744 70.6549
4.88718753227192 75.9686
4.909524244902505 77.6791
4.931843734218147 76.5186
4.954180820867835 77.63600000000001
4.976518095879839 80.0853
4.998838149695359 82.2367
5.021175803844231 85.5549
5.043496238205739 88.995
5.065834274903528 93.699
5.088172504230693 97.9187
5.1104935158799565 104.741
5.132832132875765 124.28200000000001
5.155153533596801 153.485
5.1774925416746225 189.455
5.199814334878411 371.61800000000005
5.2221537374521505 952.492
5.244493338631803 2778.42
5.266815727034316 8072.59
5.289155727832427 13591.7
5.311478517248165 8878.51
5.333818921080011 2686.77
5.356159527788849 504.212
5.3784829252032536 197.135
5.400823940070432 156.225
5.423147747031976 130.512
5.445489173474152 119.303
5.467830807066149 121.09
5.490155234831516 121.984
5.512497285125229 114.26
5.534822130975162 105.82700000000001
5.557164601388673 101.738
5.579489868738879 97.8595
5.601832762690846 96.5497
5.6241758697774475 95.48299999999999
5.646501775867269 95.0787
5.668845311622074 94.1052
5.691171647754637 92.7437
5.713515615597765 92.3779
5.735859800852677 92.2319
5.758186788542988 94.6666
5.780531411018185 100.208
5.802858837297399 100.62100000000001
5.825203900414495 99.9485
5.8475491852224 104.353
5.869877275883075 103.699
5.892223006467101 97.2431
5.914551544266608 94.3814
5.936897724049891 95.73700000000001
5.959244129804903 102.259
5.981573344815301 128.583
6.0039202049061 228.12400000000002
6.026249875609095 444.848
6.04859719346037 910.61
6.070927323278297 2229.42
6.093275102315365 4680.88
6.115623113320588 5203.34
6.137953938319995 2989.07
6.160302415650845 814.885
6.182633708324452 192.31599999999997
6.2049826554078376 103.995
6.227331838745022 87.3016
6.249663839443684 81.4153
6.27201349767565 78.5421
6.294345974611799 78.8337
6.316696111167083 80.1721
6.339046488263839 78.0256
6.361379686074702 72.2401
6.383730546639482 69.6503
6.406064229255215 69.5229
6.428415576718203 71.5905
6.450749747566656 70.2074
6.47310158535871 66.7794
6.495453669698332 64.8353
6.517788579421056 63.5761
6.540141159237969 62.3648
6.562476565766648 61.9076
6.5848296444934045 62.2012
6.607182974060425 62.5824
6.6295191323281015 62.5541
6.651872965955752 62.3535
6.6742096296068985 68.7499
6.6965639707294615 81.6659
6.71891856698715 80.7404
6.741255995248479 68.1784
6.763611104154477 60.2785
6.785949046381137 57.9985
6.808304671371482 59.2965
6.8306605557940046 61.8023
6.852999275508618 60.38399999999999
6.875355681171544 57.6984
6.897694923437771 56.3008
6.92005185377892 55.2861
6.9423916220322655 55.4942
6.964749080490181 54.8758
6.987106804399774 54.6983
7.009447368180821 55.236000000000004
7.031805625367033 55.3751
7.054146723727803 55.1565
7.076505517631004 54.3535
7.098864581288365 54.1432
7.121206488070854 54.0055
7.143566093607822 54.3419
7.165908543567245 55.8312
7.188268694426048 56.3765
7.2106291193438095 54.8732
7.232972390625943 54.3967
7.255333366030969 58.071999999999996
7.277677189091925 73.9306
7.300038718428332 86.8134
7.322400526130865 79.0773
7.344745183422596 63.5914
7.367107550224791 55.6886
7.389452767901992 54.5305
7.411815697249891 53.6415
7.434161478756298 52.7279
7.456524974096713 53.2012
7.478888753837185 52.9711
7.501235387657368 53.2432
7.523599738562711 53.3832
7.545946944825532 53.7867
7.568311870344528 54.2216
7.5906770845765665 54.0386
7.613025156078678 54.4176
7.635390950099687 55.0397
7.657739602662809 55.0691
7.680105979923558 55.6627
7.702472650212829 56.6306
7.724822180948224 56.4057
7.747189439655568 55.8866
7.769539560075357 55.4902
7.791907410653562 55.5087
7.81425812420825 55.6635
7.836626570110925 56.073
7.858995315087906 56.7787
7.881346924933401 56.5797
7.903716270417482 57.4132
7.926068482028405 57.8522
7.948438431475253 58.5177
7.9708086843180235 58.7554
7.993161805171116 59.3614
8.015532667162402 60.402
8.037886398416653 61.4434
8.060257873014221 62.2166
8.082629655331942 62.9031
8.104984308787587 63.3533
8.127356708900503 66.169
8.149711981398308 70.6776
8.172085002766314 72.47
8.194458336181368 70.4602
8.216814543847752 68.5213
8.23918850371002 68.3031
8.26154533906492 69.3778
8.283919928836452 70.9034
8.306277395339652 71.7366
8.328652618483376 73.3121
8.351028159736202 74.9819
8.373386579575245 77.4396
8.395762759396959 79.158
8.418121819038275 82.0851
8.440498640894003 88.7111
8.462875785192262 99.3231
8.485235811156207 123.346
8.507613602688501 171.19
8.529974277114228 246.046
8.552352719347912 366.68
8.574731488360351 626.634
8.59709314210385 1203.66
8.619472567021075 1957.57
8.64183487789147 2232.72
8.664214962183097 1693.21
8.686577933647762 831.235
8.708958680784317 297.45799999999997
8.731339760774953 140.161
8.753703729764451 104.439
8.77608547780821 95.8231
8.798450116065078 93.2204
8.820832535634787 90.916
8.843215292401656 91.8646
8.865580941199045 92.505
8.887964374703538 92.3277
8.910330701447199 92.6145
8.932714815164482 91.7978
8.955099270424924 88.7823
8.977466620733543 85.8124
8.999851761421976 84.7583
9.022219798361645 83.2494
9.04460562795561 83.0432
9.066991803441677 83.381
9.089360876979615 83.959
9.111747746589993 83.7543
9.13411751544971 82.2096
9.156505082664324 81.2474
9.178875550323522 81.1685
9.20126381862328 80.9822
9.223652438908596 81.2127
9.246023961427412 81.3034
9.26841328802173 81.3176
9.290785518039224 82.1135
9.313175554425882 84.522
9.335565947154315 87.3151
9.357939245086508 87.5574
9.380330352834827 86.2642
9.40270436697103 85.7601
9.425096193225055 85.6237
9.447488380180165 85.1152
9.469863475295412 84.2083
9.492256385987508 83.9737
9.514632206018318 84.3819
9.537025843935714 84.946
9.559402392368193 86.4232
9.581796761000229 88.9059
9.604191496441521 92.0356
9.626569144158516 95.012
9.648964615551032 96.1087
9.671343000390081 94.5952
9.693739211225699 92.514
9.716135793237463 91.5794
9.738515290448102 92.4005
9.760912617143402 94.0987
9.783292860202891 96.5356
9.805690935076182 99.7129
9.828089385495742 100.616
9.850470754023561 101.09700000000001
9.872869957865444 103.87899999999999
9.89525208097539 108.64
9.917652041736662 114.986
9.940052382417589 123.36200000000001
9.962435644102392 147.41299999999998
9.984836746950979 185.58
10.007220771957746 240.05
10.029622640473708 331.42400000000004
10.052007432299963 509.806
10.074410069984072 832.5089999999999
10.096813093716005 1304.27
10.119199042482517 1841.4
10.141602840636468 1982.63
10.163989564971628 1463.38
10.186394141051062 765.225
10.208799107559706 324.367
10.231187001965623 161.233
10.253592751657669 117.89399999999999
10.275981430388155 109.165
10.298387966769793 107.036
10.320794897965431 106.93700000000001
10.343184759907361 105.795
10.36559248305461 103.213
10.387983138083852 103.34
10.410391656691655 109.331
10.432800574501677 119.585
10.455192425893369 132.96
10.47760214443012 157.97299999999998
10.499994797678786 204.655
10.522405320453982 290.748
10.54479877906917 414.185
10.567210109595656 550.115
10.5896218454736 583.724
10.612016518879773 480.894
10.634429067781074 312.191
10.656824555333241 175.94799999999998
10.679237920773568 111.617
10.701651695961992 91.9219
10.724048411481384 87.1223
10.746463008485165 84.7527
10.768860546937125 83.2773
10.791275969274796 82.0328
10.81369180576079 81.1006
10.836090585366925 79.953
10.858507252467449 78.7557
10.88090686379991 77.4975
10.903324365036394 77.293
10.925724811614439 77.1206
10.948143150509463 77.4357
10.970561909719066 77.351
10.992963615930844 76.309
11.015383218085756 74.7391
11.037785768347074 73.1701
11.06020621697282 71.7456
11.082627090322113 70.9385
11.105030913430326 70.062
11.12745263854165 70.2668
11.149857314510728 70.4646
11.172279894912576 72.1633
11.194702904450653 71.7341
11.217108866490921 70.328
11.239532736615194 68.4822
11.26193956033512 67.7474
11.284364294577085 67.1964
11.306789462371718 66.1531
11.329197585398376 65.9804
11.351623622610898 65.9546
11.37403261614354 65.0574
11.396459526308487 65.1257
11.418869393879497 64.4357
11.441297180532617 64.1274
11.463725406927658 63.6927
11.486136592353875 63.4943
11.508565700543707 63.2803
11.530977768845315 63.8229
11.553407762368774 63.9649
11.575838200059769 63.79600000000001
11.598251599479612 63.0059
11.620682927815501 62.4675
11.64309721895548 62.4482
11.665529441478206 62.1227
11.687962112597958 61.7965
11.710377748130886 62.0024
11.732811318753434 61.4593
11.755227854859067 61.6885
11.777662328529495 61.8628
11.800079768750786 61.8916
11.822515149015453 62.0511
11.844950984084935 62.108000000000004
11.867369787303163 61.6059
11.889806534289491 61.4211
11.912226250487029 61.98
11.934663912939751 61.9231
11.9571020346363 62.4231
11.979523127133968 62.528999999999996
12.001962169624331 63.5694
12.024384183972964 64.682
12.046824150809913 67.7956
12.069264581333726 71.6574
12.091687985297767 77.182
12.11412934550045 86.1578
12.136553680195208 102.42
12.158995973632788 127.08200000000001
12.181438735204349 159.767
12.20386447284199 190.97
12.226308172985636 209.99200000000002
12.24873485024193 201.484
12.271179492516982 153.74
12.293607112949127 113.53299999999999
12.316052700916226 85.8853
12.338498763250042 70.4326
12.360927805303868 65.1866
12.383374818673879 63.8518
12.405804812803074 62.9454
12.428252780773262 62.8149
12.45070122756722 63.2131
12.473132656675375 63.225
12.49558206341869 63.7894
12.518014453510101 64.0886
12.540464823770117 64.1315
12.562915677315177 64.0853
12.58534951575545 64.1282
12.607801338171472 64.6096
12.630236146511358 66.5232
12.652688941369085 68.2515
12.675124723177234 68.6518
12.697578494048786 67.8865
12.720032754458185 66.953
12.742470003354093 66.5128
12.764925245138771 66.6991
12.787363476431278 67.1571
12.809819703166806 67.48899999999999
12.83227642391173 68.442
12.854716135692716 69.0433
12.877173846755147 69.8986
12.899614549869717 70.4365
12.9220732548287 71.251
12.94453245827299 72.355
12.966974655289818 73.1656
12.989434858002571 73.807
13.011878055298721 74.3995
13.034339260862497 75.1269
13.056800969391883 76.4599
13.079245674017244 79.3856
13.101708390774869 83.3467
13.12415410463411 91.2631
13.146617833206086 99.8644
13.169064559883248 109.234
13.191529303857127 123.15700000000001
13.213994557076367 146.19899999999998
13.236442809902437 185.21
13.258909083908291 246.94799999999998
13.28135835851934 318.556
13.30382565690295 392.53
13.326293469022952 444.983
13.348744283242008 417.79900000000004
13.371213125129904 331.469
13.39366497011003 226.68200000000002
13.416134845360597 150.36700000000002
13.438605238843131 113.791
13.46105863690397 103.29299999999999
13.483530069144786 104.101
13.505984506951902 108.43
13.528456981549432 117.835
13.550929978879088 133.083
13.573385983253365 158.59799999999998
13.595860028340867 201.38
13.618317081455832 259.936
13.64079217790333 323.779
13.663250283359057 372.809
13.685726434770173 381.695
13.708203115221277 322.555
13.730662806148091 239.995
13.75314054697177 165.55700000000002
13.775601299246777 115.169
13.798080104050406 91.6207
13.820559442405358 83.0628
13.843021793671388 80.2596
13.865502201420897 78.6312
13.887965623051947 78.4512
13.910447103807167 77.2838
13.932929122629764 76.0403
13.955394156785959 75.7989
13.977877254034569 74.7234
14.000343367582113 73.7721
14.022827546871707 73.1726
14.045294743423524 72.5672
14.06778000837062 72.1851
14.090265817715476 71.7091
14.112734645763819 71.2639
14.13522154619454 70.8345
14.157691466286913 70.6563
14.180179461423874 70.4081
14.202668005486178 69.8948
14.22513957064374 69.6419
14.247629214846473 69.2309
14.270101881097517 68.8806
14.29259262906496 68.9275
14.315083930490205 68.8263
14.337558255389705 69.01100000000001
14.360050666019726 68.883
14.382526101071944 68.499
14.405019624534942 68.1471
14.427513705993134 67.985
14.449990813291825 67.9628
14.47248601302899 67.8118
14.49496423954951 67.9849
14.517460561197822 67.8375
14.539939910570322 67.6208
14.562437357763558 67.7878
14.58493536931253 68.5725
14.607416409993311 68.4673
14.62991555254159 69.0567
14.652397725157423 69.0253
14.674898002342799 69.3748
14.697398848433282 69.5199
14.719882725991326 71.1795
14.74238471217934 72.8294
14.764869730765593 75.7731
14.787372860692983 78.1352
14.809876564079925 81.8341
14.83236330125751 87.6293
14.854868153850365 96.2992
14.877356041159485 111.031
14.899862046604186 131.366
14.922351087688757 160.095
14.944858249632887 192.012
14.967365991421232 219.079
14.989856770231246 228.078
15.012365673994204 212.06599999999997
15.03485761569738 176.43099999999998
15.05736768508665 135.835
15.07987833888692 102.506
15.102372032001655 84.1725
15.124883856909658 73.9638
15.14737872204565 70.5348
15.169891721717274 69.3696
15.192405310371893 68.883
15.214901940621196 68.9563
15.237416709527137 68.3413
15.259914520936249 67.947
15.282430473753607 67.3775
15.304947020131227 66.61
15.327446610371178 66.1906
15.349964346154254 66.1759
15.372465126703139 65.7575
15.394984055556009 65.6254
15.417486030076159 65.3103
15.44000615566487 64.9196
15.462526881230803 64.7865
15.485030653812652 64.7078
15.507552581617434 64.4479
15.530057557334603 64.5375
15.55258069104857 64.5121
15.575104429329837 64.8347
15.597611216864632 64.8504
15.620136166564563 65.7498
15.6426441664095 67.1945
15.665170331202765 69.3078
15.687697105158826 71.6762
15.710206930593545 74.76100000000001
15.732734925158933 78.597
15.755245972089478 84.587
15.77777519094324 94.0468
15.800287463046663 108.447
15.822817909869592 128.77100000000002
15.84534897229804 152.648
15.867863089299354 177.77599999999998
15.890395385222186 195.99400000000003
15.912910736597423 195.463
15.935444269699861 177.187
15.957978423016485 144.668
15.980495633101265 111.436
16.003031029129367 86.7314
16.02554948280019 71.4734
16.048086125229432 64.6197
16.070623392487107 62.6139
16.09314371869582 61.6346
16.11568223789321 61.0153
16.13820381691126 60.2265
16.160743591742527 59.5551
16.183283996022084 58.9995
16.205807461423195 58.3238
16.228349126881973 57.8155
16.25087385432698 57.5414
16.27341678466365 57.1562
16.29594277784926 56.8072
16.31848697676433 56.7582
16.341031811604868 56.3869
16.36355971058487 56.7892
16.3861058195587 56.328
16.40863499352978 55.9221
16.431182380342005 55.522
16.453730407713202 55.1162
16.476261501364792 54.7032
16.498810812136167 54.4419
16.52134319004079 54.795
16.54389378792203 54.522
16.566445031001553 54.3214
16.588979342490088 54.2146
16.61153187824822 54.1312
16.634067483263312 53.8918
16.656621315414416 53.9183
16.679175797408888 53.5661
16.701713349928728 53.5465
16.72426913389191 53.5474
16.74680798922351 53.5718
16.76936507887444 53.7903
16.791905240734874 53.6732
16.814463639794468 53.58
16.837022695210294 53.6828
16.859564824093756 53.9468
16.882125194503903 54.1975
16.904668639217885 54.5405
16.927230328348003 54.5722
16.949792678493612 54.6077
16.972338104193863 54.4326
16.994901778652235 54.5303
17.017448529496576 54.7819
17.040013531998152 55.1013
17.06257920018044 55.4512
17.0851279459922 56.1048
17.107694947817667 56.9651
17.130245028099072 57.5179
17.15281336730298 58.9028
17.17536478578733 60.6923
17.19793446610687 62.7947
17.220504818648422 66.212
17.243058251703697 70.2096
17.265629950971032 74.9604
17.288184731571736 80.6963
17.310757781306908 83.1979
17.33333150794385 83.5971
17.355888317140174 80.3175
17.37846339986244 74.1491
17.401021565958885 67.3746
17.42359800851343 62.9807
17.44617513265564 60.2709
17.468735341390783 58.9594
17.491261035594565 58.3596
17.51396340099364 57.8421
17.536490463869136 58.1294
17.559018209820174 57.9059
17.58154663977963 58.3792
17.604251766089718 58.5523
17.626781572227713 58.7688
17.64931206518155 58.9812
17.671843245885103 59.1791
17.69455114821572 59.418
17.717083712612634 59.6128
17.739616967569667 59.9719
17.762150914021706 60.2808
17.78486160749854 60.7678
17.807396945166804 61.6963
17.829932977143503 62.7283
17.85246970436452 64.0696
17.875183204129467 65.4244
17.897721330097664 66.9798
17.920260154126645 69.1793
17.942799677153296 72.4707
17.9655159983646 76.3943
17.988056927677544 82.1389
18.010598558807683 90.6272
18.033140892692916 101.384
18.05586005052525 113.815
18.07840379824407 126.815
18.10094825154059 136.333
18.12366954819864 140.54399999999998
18.146215420998306 135.981
18.16876200220057 125.34100000000001
18.191309292745153 110.281
18.214033452627167 96.7293
18.236582170236648 86.8401
18.259131600016456 83.4819
18.281681742907335 85.458
18.304408781233683 90.8717
18.32696035875955 96.697
18.349512652227624 101.68799999999999
18.372065662579683 106.566
18.394795594587553 105.399
18.41735004715306 98.8403
18.43990521943684 90.5739
18.46246111238171 81.2211
18.485193953325208 72.8152
18.507751296070428 66.9322
18.530309362314178 63.8841
18.552868153000343 62.1052
18.57560391815056 60.967
18.59816416623245 60.6383
18.620725141597372 60.0213
18.643286845190268 59.5887
18.666025549835414 59.2794
18.688588718427933 58.5122
18.711152618092243 58.3896
18.73389353884365 58.3843
18.75645890921984 58.1412
18.77902501351406 57.6642
18.801591852673102 57.643
18.824335739722738 57.2061
18.846904057212626 57.1023
18.8694731124168 56.8366
18.89204290628315 56.9554
18.914789774966803 56.6052
18.937361054791623 56.1885
18.959933076131318 56.0316
18.982505839934877 56.0647
19.00525570560582 55.9153
19.027829963004184 55.8634
19.05040496572238 55.8817
19.072980714710468 56.0713
19.095733592739563 56.1885
19.11831084296757 56.1588
19.140888842324735 56.5286
19.16346759176222 56.6918
19.18622349753803 57.1216
19.208803755869358 58.2026
19.231384767143577 59.4957
19.253966532312948 61.3826
19.276725481241822 63.4162
19.29930876296784 66.3811
19.3218928014549 69.4375
19.34465404436217 72.2534
19.36723960516257 74.7639
19.389825925592426 74.9991
19.412413006605938 72.9036
19.43517731967805 68.972
19.457765930683355 64.4705
19.48035530514408 60.2305
19.50294544401556 57.0916
19.525712842708348 55.0289
19.54830451925909 53.8709
19.570896963095727 53.2887
19.593490175174704 53.0574
19.616260674962184 52.8847
19.638855432416964 52.6521
19.661450960992624 52.8101
19.68404726164677 52.4835
19.706820878021247 52.2816
19.729418731756834 52.74
19.752017360452857 52.3571
19.77461676506804 52.6537
19.797393513540218 52.8797
19.819994478951667 53.0654
19.84259622316767 53.6048
19.8651987471481 53.7145
19.887978643247177 53.8091
19.91058273574792 54.511
19.933187610901943 55.2197
19.955969879466828 56.7158
19.97857632894404 58.2762
20.00118356396599 60.1761
20.023791585494575 62.5558
20.046577028914875 65.4817
20.069186632506966 67.8226
20.091797025500632 69.2914
20.114408208858933 69.2708
20.137196842715273 68.0264
20.159809615886765 66.4039
20.18242318232135 63.621
20.20503754298326 61.6714
20.227829382875154 60.9101
20.250445341109344 61.3526
20.27306209647285 62.6172
20.29567964993108 64.3931
20.31847471147704 65.3573
20.34109387027612 65.2257
20.363713830075454 64.3166
20.386334591841646 62.1869
20.409132890679302 59.1984
20.431755265564437 55.9272
20.454378445325528 53.5022
20.477002430930366 51.9438
20.499803982716553 50.6071
20.522429589228004 49.9585
20.54505600449589 49.559
20.567683229489194 49.5925
20.590488049900088 49.4843
20.61311690359731 49.228
20.63574656993626 48.95399999999999
20.658553853717297 48.7287
20.681185154618298 48.8434
20.703817271080066 48.5001
20.72645020407368 48.3449
20.749260783967177 48.1417
20.771895359337133 48.0698
20.794530754161617 48.2006
20.817166969412938 48.1416
20.83998086114876 48.0867
20.86261872660049 47.8671
20.885257415405402 48.0408
20.90789692853701 48.0175
20.930714147864748 47.7228
20.953355319030678 47.9012
20.97599731745334 48.0434
20.99864014410749 47.7643
21.021460706796564 47.7891
21.044105199328826 47.9107
21.06675052302631 48.2083
21.089396678865015 48.3811
21.112220600704806 48.6956
21.134868430275347 49.1312
21.15751709492456 49.27
21.180166595629693 49.653999999999996
21.202993892429635 50.2457
21.22564507473034 50.5386
21.24829709602816 50.632
21.27112693608965 50.5816
21.293780644891275 50.6066
21.316435195634053 49.6901
21.339090589297417 48.8715
21.361923832041875 48.5682
21.384580921090404 48.0095
21.407238856007325 47.5499
21.429897637773326 47.5423
21.45273429906592 47.5632
21.475394784108598 47.7643
21.498056118951983 47.5708
21.520718304578022 47.7329
21.543558400304388 47.9778
21.566222297108816 48.2543
21.58888704765135 48.4139
21.61155265291521 48.631
21.63439619898156 48.8893
21.657063523335786 48.9673
21.67973170537063 49.5608
21.7024007460706 50.0056
21.72524775840385 50.9146
21.747918526116475 52.0121
21.770590155457388 53.3078
21.79326264741238 54.867
21.816113141960237 56.8419
21.838787368860547 58.8731
21.861462461341976 60.9858
21.884315579735777 63.2445
21.90699241312273 63.9577
21.92967011506078 64.0597
21.95234868653799 63.1299
21.9752053151131 61.2583
21.997885635446785 59.1692
22.020566828293532 57.4147
22.04324889464272 56.0761
22.066109049404666 55.508
22.088792872571794 55.4075
22.111477572219204 55.6488
22.1341631493376 55.4758
22.157026846313123 55.0233
22.179714188221507 53.948
22.202402410582668 52.7985
22.22509151438863 51.3629
22.24795876962584 50.0881
22.270649646204486 49.3205
22.293341407213727 48.8882
22.316034053646906 48.4565
22.338904883215342 48.1998
22.36159931041458 48.0744
22.38429462602756 47.8808
22.40699083104897 47.7014
22.429865251039757 47.7809
22.452563244831367 47.8652
22.47526213102522 47.9051
22.49813925616515 47.7729
22.520839937143307 47.8491
22.543541513520587 47.7611
22.56624398629403 47.6903
22.589124730075895 47.7491
22.611829005656723 47.9875
22.63453418063466 47.9107
22.657240256008077 48.1417
22.680124634582935 48.1395
22.70283252079775 48.4465
22.725541310413075 48.5755
22.74825100442868 48.8903
22.771139033969575 49.4369
22.79385054687155 49.55
22.81656296718292 50.2927
22.83927629590484 51.3474
22.862167992606945 52.4474
22.88488314827121 53.5318
22.907599215359284 54.8735
22.93031619487366 55.9955
22.953211574954405 56.7837
22.975930389478226 57.4087
22.998650119445763 57.2735
23.02137076586092 56.1729
23.044269845560063 54.5215
23.06699233506288 52.7188
23.089715744034912 51.1196
23.112617610931565 49.6782
23.135342869061212 48.5643
23.158069049684816 48.117
23.1807961538087 47.911
23.20370174880544 47.8915
23.226430710184808 47.9095
23.249160598093425 48.1458
23.271891413539002 48.0444
23.294800752937697 48.0552
23.31753343374794 48.0877
23.340267045128353 48.2239
23.36300158808808 48.6576
23.38591468821339 48.7839
23.408651104658304 49.3433
23.431388455719986 50.2108
23.454126742409 51.13
23.4770436196085 52.067
23.499783787914662 53.5223
23.522524894889884 54.6914
23.54526694154616 56.0692
23.56818761219047 56.9091
23.59093154860734 57.3303
23.613676427751283 57.2001
23.636422250635754 55.918
23.659346731118656 54.1057
23.68209445191868 51.8182
23.704843119509587 49.725
23.72759273490623 47.9516
23.750521041644767 46.8889
23.77327256312355 46.2557
23.796025035462787 45.7341
23.818956224555475 45.2999
23.841710609113413 45.1306
23.86446594758979 44.9961
23.887222241002014 44.6883
23.910157285144578 44.3937
23.932915498962537 44.4459
23.955674670778713 44.3132
23.978434801611975 44.0861
24.001373717286125 43.8814
24.024135776723917 43.7808
24.046898798245582 43.7366
24.06966278287146 43.621
24.092605586582614 43.4767
24.115371508023642 43.2362
24.1381383956401 43.2679
24.16090625045381 43.1642
24.183852958731244 43.0645
24.206622758582608 42.9491
24.229393528706886 42.8873
24.252165270127392 43.0278
24.27511589952438 42.873999999999995
24.297889594216997 42.7113
24.32066426328598 42.5247
24.34343990775613 42.5308
24.36639447485003 42.3972
24.38917208083877 42.3674
24.41195066531332 42.2744
24.43490819850244 42.4053
24.457688750692377 42.2681
24.48047028445616 42.126999999999995
24.503252800821233 42.3495
24.526214300784112 42.3498
24.548998793132213 42.3488
24.57178427117417 42.2185
24.59457073593893 42.1972
24.617536219319863 42.2545
24.64032466834748 42.1034
24.663114107195035 41.9032
24.685904536893013 41.8048
24.708874020360852 41.79
24.731666442613744 41.718
24.754459858818787 41.6536
24.777254270007962 41.4336
24.80022777025625 41.4128
24.82302418230472 41.4089
24.845821592443674 41.458999999999996
24.86862000170663 41.5568
24.891597535453727 41.3725
24.914397953892728 41.6055
24.93719937456671 41.4999
24.96000179851076 41.5658
24.98298338249997 41.8422
25.00578782394922 42.0759
25.028593271784167 42.1884
25.05157790644186 42.4582
25.07438537804115 42.7348
25.097193859145293 42.9943
25.120003350792075 43.3808
25.142992065061257 43.5683
25.165803588823465 43.6645
25.18861612625217 44.0442
25.211429678386736 43.9325
25.234422489079968 44.0429
25.257238081693636 44.026
25.280054692141732 44.2654
25.3028723214652 44.4035
25.325869245420463 44.5021
25.348688923599397 44.36600000000001
25.371509623787006 44.2352
25.394331347025812 43.7206
25.41733240110666 43.2817
25.440156181590016 42.5136
25.46298098826268 42.0272
25.48580682216873 41.5906
25.50881202326435 41.0689
25.53163992281684 40.6621
25.55446885274561 40.3862
25.577298814096377 40.1862
25.600308179121807 40.1109
25.623140214533745 40.1388
25.64597328451537 40.0167
25.66898578564376 39.8387
25.691820936010206 39.911
25.714657124097695 39.8033
25.737494350954734 39.7702
25.760511045684957 39.7461
25.783350361364224 39.7722
25.806190718969255 39.7703
25.82903211955018 39.8044
25.852053024868923 39.9005
25.874896522722523 40.0825
25.897741066713106 40.0206
25.920586657892454 39.9412
25.943611790812668 40.2199
25.966459487728237 40.2552
25.989308234998564 40.3831
26.01215803367705 40.8628
26.03518741123814 40.9561
26.05803932412957 41.1273
26.080892291600094 41.0178
26.10374631470478 41.0236
26.12677995397268 41.1114
26.14963609978026 40.9967
26.172493304397875 40.6388
26.19535156888223 40.3067
26.218389486949604 39.943000000000005
26.241249882640123 39.8335
26.26411134137826 39.5558
26.28715248187403 39.5961
26.31001607820869 39.5111
26.3328807407756 39.2675
26.35574647063438 39.4061
26.37879191991473 39.4382
26.401659795896734 39.3876
26.424528742360263 39.6062
26.447398760366614 39.8335
26.470448535598294 39.8039
26.49332070826805 40.0588
26.516193955675355 40.2878
26.53906827888316 40.6078
26.562122397260108 40.9655
26.584998883685063 41.2015
26.607876449110325 41.3252
26.63075509460056 41.4898
26.65381357334404 41.567
26.67669439061878 41.4648
26.699576291163382 41.3615
26.722459276044212 41.2004
26.745522132402975 40.9361
26.768407297649354 40.5303
26.791293550442003 40.2976
26.814180891848974 40.1537
26.837248143099337 39.7561
26.860137673466657 39.7852
26.88302829566349 39.5029
26.90592001075963 39.2667
26.92899167420566 38.9795
26.951885586870763 38.5214
26.974780595655517 38.6466
26.99785558178161 38.5223
27.020752794605112 38.4196
27.043651106772522 38.2248
27.06655051935668 38.1682
27.089629948036183 38.1113
27.112531573292053 38.1413
27.135434302194138 38.0164
27.158338135817015 37.986
27.181422024430987 37.9442
27.204328079372566 37.9029
27.22723524226965 37.7975
27.250143514198573 37.9543
27.273231880156334 37.9139
27.296142382065014 37.8326
27.319053996245536 37.6492
27.341966723775965 37.7279
27.365059584515222 37.9269
27.38797455070062 37.9547
27.410890633481237 37.679
27.433807833936918 37.8495
27.456905206923906 37.8782
27.47982465472398 37.9661
27.502745223449743 37.9674
27.525666914182825 38.1035
27.548768816912457 38.0501
27.571692763693633 37.9594
27.59461783573812 37.9158
27.617723149491244 37.6028
27.640650484125285 37.5205
27.66357894728264 37.444
27.686508540048052 37.4822
27.709618414237887 37.4678
27.732550278321757 37.2904
27.755483275279115 37.2331
27.778417406196485 37.2723
27.801531858397514 37.3154
27.824468269376716 37.1095
27.847405817586786 37.2079
27.870344504116094 37.4137
27.893463551932008 37.3491
27.916404527281053 37.7086
27.93934664422563 37.8882
27.962289903855886 37.9551
27.98541356491974 38.1191
28.00835912214229 38.2268
28.03130582533231 38.4539
28.054253675581805 38.6298
28.077381967556104 38.5322
28.100332124185126 38.3661
28.123283431160893 38.3887
28.146235889577238 38.0627
28.169368830154156 37.896
28.192323603752033 37.7498
28.215279532083304 37.5015
28.238415973016764 37.4361
28.261374223145094 37.2726
28.284333631303806 36.9254
28.307294198589954 36.6909
28.330435319167677 36.3969
28.353398217078915 36.1527
28.376362277420153 35.9344
28.39932750129032 35.8451
28.422473319286713 35.6749
28.44544088262495 35.6416
28.468409612800283 35.4691
28.491379510913497 35.3674
28.51453004413313 35.3115
28.53750229057244 35.1884
28.56047570826344 35.1741
28.583450298308804 35.298
28.606605564586562 35.1285
28.629582511831156 35.1342
28.65256063474956 34.9154
28.675539934446338 35.0223
28.698699951647605 35.0329
28.72168161743193 34.9531
28.74466446331978 34.9808
28.767648490417624 34.8871
28.790813276438353 34.8587
28.813799678527303 34.9279
28.836787265157085 34.9327
28.859955641890075 34.9006
28.882945610203045 34.8697
28.905936766392035 34.732
28.928929111566863 34.7143
28.952102288520145 34.5799
28.975097024308607 34.5142
28.998092952423807 34.3701
29.021090073977508 34.242
29.04426806913204 34.1549
29.067267590245258 34.0823
29.090268308143695 34.0489
29.11327022394099 33.9213
29.13645305530891 33.8071
29.159457379627167 33.7974
29.18246290519685 33.7614
29.20546963313352 33.6447
29.22865731875826 33.7409
29.25166646419296 33.7792
29.27467681535305 33.613
29.29768837335608 33.7413
29.320880931312562 33.789
29.34389491580634 33.6878
29.366910110507334 33.6553
29.38992651653503 33.6669
29.41312396492981 33.666
29.436142806456754 33.6569
29.45916286268059 33.4544
29.48236399319994 33.3052
29.50538649169417 33.2416
29.528410208259935 33.1279
29.55143514402014 32.8234
29.574641196749695 32.7756
29.597668583816574 32.7777
29.6206971934585 32.6532
29.64372702680042 32.6879
29.666938019934474 32.6408
29.689970313635285 32.4573
29.713003834422636 32.3352
29.73603858342347 32.3052
29.759254535188578 32.2891
29.78229175361658 32.2344
29.80533020365064 32.2868
29.82836988641968 32.3352
29.85159081507472 32.1368
29.874632976355343 32.1061
29.89767637376955 32.2484
29.920721008448314 32.0604
29.9439469322847 32.0515
29.96699405457564 31.9941
29.9900424175358 32.0469
30.013092022298157 31.886999999999997
30.03632295963995 31.9779
30.059375061131373 31.909000000000002
30.08242840783577 31.9717
30.105483000888153 31.9435
30.128718970092244 31.9115
30.151776069006917 31.8868
30.17483441768648 32.0023
30.198074175317235 31.9316
30.221135036724256 31.8691
30.24419715131772 31.7328
30.267260520236203 31.682
30.290505341942243 31.709
30.313571232750228 31.7271
30.336638381310948 31.8395
30.35970678876503 31.772
30.38295669299435 31.6543
30.40602763151657 31.6146
30.429099832366074 31.6133
30.452173296685572 31.5126
30.47542830191959 31.5384
30.498504306502497 31.5956
30.521581577995562 31.6428
30.544660117543582 31.7424
30.56792024229725 31.6621
30.59100133132069 31.6195
30.614083691845494 31.6609
30.637167325018545 31.658
30.660432587840603 31.7525
30.683518779717886 31.7021
30.70660624769615 31.8121
30.729694992924372 31.705
30.75296541239743 31.581
30.77605672557558 31.6347
30.799149319462742 31.5437
30.8224236211637 31.3988
30.845518789950724 31.2606
30.868615242910597 31.2444
30.891712981195973 31.0827
30.91499247215866 31.0516
30.938092794619365 31.0238
30.96119440587579 30.9567
30.984297307082752 30.9614
31.00758200598383 30.765
31.030687500658694 30.6802
31.053794288760695 30.5647
31.076902371446767 30.5384
31.100192296997445 30.633000000000003
31.12330298246119 30.566999999999997
31.14641496599209 30.4392
31.169528248749216 30.5155
31.19282341969534 30.4546
31.215939314557186 30.4383
31.239056512134788 30.4313
31.262175013589378 30.42
31.28547544871168 30.2829
31.30859657161541 30.254
31.331719001892175 30.3404
31.35484274070538 30.4703
31.378148458819545 30.4313
31.401274828443725 30.3684
31.424402510106933 30.4498
31.447712205419993 30.4509
31.470842524931633 30.2078
31.493974159989783 30.2526
31.51710711176168 30.3392
31.54042212308802 30.219
31.563557722100917 30.2206
31.586694641341655 30.0254
31.609832881979628 29.9193
31.63315322823208 29.8865
31.656294125521327 29.8199
31.679436347728515 29.7448
31.70257989602529 29.6895
31.725905596152327 29.5452
31.74905181052835 29.5971
31.772199354521323 29.6889
31.79534822930507 29.6308
31.818679302290967 29.5793
31.84183085259981 29.6276
31.864983737233473 29.6923
31.88813795736804 29.6848
31.911474422233013 29.6478
31.934631327356435 29.6448
31.9577895715215 29.574
31.980949155906522 29.5216
32.004291031706956 29.5025
32.027453310562606 29.3893
32.05061693318573 29.2591
32.07396288236386 29.2817
32.09712920658542 29.2401
32.12029687812702 29.0846
32.14346589817093 29.0696
32.166817291729984 29.08
32.18998902288583 28.9931
32.21316210610336 28.8936
32.23633654256711 28.7222
32.259693399663725 28.7922
32.282870556771144 28.6666
32.30604907069099 28.6272
32.329228942610065 28.5222
32.35259128243769 28.3619
32.375773884550505 28.423000000000002
32.398957848235646 28.3916
32.422143174682176 28.293000000000003
32.445511016471215 28.3253
32.468699082679954 28.1293
32.49188851523011 28.1312
32.51507931531304 28.0715
32.538452678331 28.1802
32.56164622776311 28.0767
32.58484114831493 27.8999
32.60803744118015 27.9571
32.631416344731896 28.0344
32.654615396551876 27.9773
32.67781582427913 27.9016
32.701198898634416 27.9131
32.72440209253756 27.8893
32.747606665947124 27.8146
32.77081262006088 27.7334
32.79420126883317 27.769000000000002
32.81740999876112 27.6878
32.840620112999424 27.5478
32.86383161274818 27.596
32.88722585534586 27.5693
32.91044014056596 27.5625
32.933655814909734 27.4706
32.95687287957963 27.5671
32.98027273544904 27.4653
33.00349259526636 27.4651
33.026713849030116 27.4591
33.04993649794511 27.401
33.073341986570746 27.3666
33.09656744032826 27.3102
33.11979429286444 27.3667
33.14302254538647 27.3179
33.166433686291185 27.2647
33.18966475336992 27.2379
33.212897224069096 27.1137
33.23613109959831 27.1493
33.259547912343415 27.0981
33.2827846121627 27.0613
33.306022720453775 26.9811
33.32926223842861 26.8964
33.352684742614166 26.8889
33.37592709463173 26.9399
33.399170859982064 26.7315
33.422597648419426 26.649
33.44584425514446 26.5973
33.46909227885668 26.5874
33.4923417207723 26.489
33.51577423505344 26.5764
33.539026528130385 26.5644
33.56228024307245 26.4204
33.585535381098246 26.3853
33.60897364093058 26.3082
33.63223163992385 26.2096
33.6554910656699 26.237
33.678751919389796 26.228
33.702195944520106 26.153000000000002
33.72545966903325 26.1867
33.74872482519663 26.0795
33.771991414233746 26.0902
33.79544122444841 26.0333
33.81871069412428 25.9744
33.84198160035767 25.965
33.86525394437455 26.0337
33.88870955949969 25.8928
33.911984794020626 25.8001
33.93526147001624 25.768
33.958539588715006 25.7521
33.98200102861669 25.6554
34.0052820477047 25.5496
34.02856451319451 25.5965
34.05203033759056 25.4908
34.07531571090147 25.4939
34.09860253431845 25.5495
34.121890809074316 25.5061
34.145362493118924 25.5456
34.16865368561615 25.4555
34.191946333164054 25.4246
34.21524043699793 25.2943
34.23871800066799 25.3713
34.26201503218366 25.2076
34.28531352370466 25.1377
34.30861347646881 25.129
34.33209693978188 25.1033
34.3553998301885 25.1165
34.378704185565205 25.0352
34.402010007152356 24.9356
34.42549939016683 25.0208
34.44880815937748 24.851
34.472118398533134 24.8409
34.49543010887669 24.7799
34.51892543169198 24.6948
34.54224009966052 24.7003
34.56555624255917 24.6487
34.58887386163339 24.5332
34.61237514439016 24.506
34.6356957311114 24.5022
34.65901779775809 24.4863
34.68252356662995 24.5182
34.705848608458616 24.4914
34.72917513396849 24.4166
34.75250314440949 24.3913
34.77601490857862 24.3408
34.799345904259795 24.3454
34.82267838863559 24.2451
34.846012362958525 24.2649
34.869530142679984 24.2007
34.89286711232212 24.2334
34.91620557568269 24.1803
34.93954553401677 24.1062
34.9630693495876 24.0691
34.986412313340814 24.1255
35.00975677584668 24.125999999999998
35.033102738362956 23.9777
35.05663261012228 23.939
35.0799815881786 23.9787
35.10333207003229 23.8973
35.12668405694369 23.9546
35.150220005273056 23.9428
35.17357501786656 23.8786
35.19693153931268 23.7675
35.220289570874385 23.7164
35.24383161619786 23.7634
35.267192683604904 23.717
35.290555264930376 23.695999999999998
35.314101899412165 23.7567
35.33746752422433 23.6775
35.36083466676374 23.6273
35.38420332829803 23.616
35.407756095629054 23.6165
35.43112781085063 23.6101
35.45450104888391 23.5976
35.477875810999194 23.5711
35.50143473172161 23.4602
35.52481255774625 23.5809
35.54819191167777 23.4005
35.57157279478914 23.3834
35.595137889488406 23.3283
35.61852184675279 23.2757
35.641907337029984 23.259
35.665294361595684 23.2366
35.68886565090076 23.2052
35.7122557598848 23.1224
35.73564740699838 23.0822
35.759040593519934 23.0527
35.78261809810353 22.9735
35.80601437933051 22.9426
35.829412203814705 22.9241
35.85281157283719 22.8464
35.876395313415884 22.9209
35.8997977874528 22.798000000000002
35.92320180988546 22.7823
35.946790244133936 22.6731
35.97019737933222 22.6897
35.993606066789866 22.6623
36.01701630779276 22.6439
36.04061101440684 22.5791
36.06402437852291 22.5964
36.08743930005611 22.5884
36.1108557802951 22.4884
36.13445678011326 22.5386
36.15787639383515 22.4792
36.18129757014299 22.5055
36.20472031032821 22.4395
36.22832762423364 22.2731
36.25175350829375 22.2439
36.275180960119776 22.2681
36.298609981005924 22.2931
36.32222362992669 22.3207
36.34565580510207 22.2417
36.36908955323448 22.1838
36.39252487562093 22.1368
36.416144880530226 22.0995
36.43958336764275 22.0574
36.463023432914625 22.059
36.486465077645676 21.9642
36.51009145956204 21.9955
36.53353627947859 21.9691
36.55698268276811 21.9458
36.58043067073321 21.9645
36.60406345072071 21.8255
36.62751462435344 21.855999999999998
36.65096738658405 21.8105
36.67460498210655 21.7427
36.69806093788647 21.7079
36.72151848619297 21.6638
36.744977628333636 21.7556
36.76862165890998 21.5959
36.79208400512205 21.6026
36.81554794910557 21.4899
36.83901349217101 21.5064
36.862663978991606 21.4668
36.88613273667352 21.4667
36.90960309738324 21.4377
36.933075062434064 21.3606
36.95673202673572 21.2869
36.98020721697122 21.2806
37.003684015502365 21.2737
37.027162423645365 21.2228
37.050825886711465 21.2525
37.07430753063053 21.1512
37.09779078812467 21.1367
37.121275660513014 21.1353
37.144945643673694 21.024
37.16843376245278 21.0058
37.19192350009803 21.0401
37.215414857931435 21.0168
37.239091382563885 20.9116
37.262585997426164 20.8895
37.28608223645736 20.8839
37.309763684451696 20.9384
37.33326318851098 20.8338
37.356764320726555 20.7615
37.380267082425526 20.7694
37.40395510942588 20.6839
37.42746114683234 20.6744
37.45096881771841 20.6146
37.474478123414166 20.6147
37.49817275092816 20.5606
37.52168534303452 20.5815
37.54519957395567 20.5329
37.568715445024665 20.5018
37.592416694607714 20.4955
37.61593586281424 20.4477
37.63945667518264 20.4342
37.66297913304891 20.3751
37.68668702630454 20.2812
37.710212792059274 20.2356
37.733740207334854 20.2294
37.757269273470364 20.2513
37.780983832050374 20.184
37.80451621684926 20.2032
37.82805025654007 20.1479
37.851585952464795 20.1124
37.8753071980695 20.0565
37.89884622345676 19.9891
37.92238690911902 19.9417
37.94611318753442 20.0046
37.969657210779765 19.925
37.99320289834801 19.8985
38.016750251586465 19.8329
38.04048325513017 19.7635
38.06403395679343 19.8284
38.087586328183946 19.7884
38.11114037065203 19.7659
38.13488012115898 19.7114
38.1584375229181 19.6243
38.181996599821 19.6187
38.205557353221124 19.6123
38.229303872575656 19.5961
38.2528679961576 19.5397
38.27643380031219 19.4776
38.30000128639589 19.4801
38.32375459653193 19.5173
38.34732546371299 19.5
38.37089801690786 19.3938
38.39447225747609 19.3267
38.418232380377425 19.2485
38.441810012983396 19.3583
38.46538933705673 19.2859
38.488970353960084 19.2917
38.51273731166058 19.2123
38.536321731567014 19.1547
38.55990784840681 19.1213
38.58367995004091 19.0837
38.60726947812959 19.0397
38.63086070726198 19.0684
38.654453638806274 19.0862
38.678232613930824 19.0267
38.70182896773327 18.9423
38.72542702806741 18.8848
38.7490267963045 18.9189
38.77281266709232 18.8476
38.79641586862214 18.8723
38.8200207821842 18.7978
38.843627409152944 18.7434
38.86742019782782 18.7968
38.891030269149255 18.7057
38.914642058016156 18.7084
38.938255565806124 18.6088
38.96205529464307 18.6004
38.98567225787121 18.6141
39.00929094417078 18.588
39.03291135492255 18.6035
39.05671804624804 18.5241
39.080341923549106 18.4964
39.103967529460334 18.4571
39.127594865365744 18.371
39.15140854155791 18.4066
39.17503935514948 18.3196
39.19867190290282 18.2974
39.22249083587951 18.3018
39.24612686969409 18.3197
39.269764641845306 18.3123
39.293404153722804 18.2331
39.317230110864074 18.1653
39.34087311998506 18.0958
39.36451787301696 18.0922
39.388164371352595 18.0639
39.41199737518003 18.0656
39.43564738196752 18.0626
39.45929913825317 18.055
39.48295264543308 18.0024
39.506792718520884 17.9464
39.530449745387216 17.9384
39.55410852735203 17.9185
39.57776906581474 17.9051
39.60161623079 17.8726
39.625280300200025 17.8559
39.64894613032202 17.7504
39.67261372255866 17.7938
39.6964680021016 17.7192
39.72013913657293 17.7757
39.74381203738292 17.7418
39.76748670593756 17.6606
39.79134812278169 17.6722
39.81502634488497 17.6415
39.83870633896685 17.5877
39.862388106436654 17.4762
39.88625668336918 17.5266
39.90994201572829 17.4999
39.933629125719285 17.4607
39.957503091207826 17.4627
39.9811937746168 17.4506
40.00488623990914 17.4451
40.02858048850006 17.3866
40.05246165409549 17.3653
40.076159487492085 17.2775
40.099859108448875 17.2135
40.123560518384345 17.2286
40.1474489070226 17.234
40.171153913178564 17.1804
40.194860712584955 17.1467
40.2185693066637 17.131
40.242464941335314 17.0965
40.26617714307655 17.0862
40.289891143772046 17.0249
40.3136069448471 16.96
40.33750984859743 16.9817
40.3612292688043 16.9852
40.3849504936829 16.9419
40.40867352466194 16.9354
40.43258372059144 16.8663
40.45631038219906 16.8566
40.48003885420956 16.8297
40.503769138055105 16.8098
40.52768664931955 16.7903
40.55142057531802 16.7606
40.57515631746428 16.7167
40.599079334038514 16.7467
40.62281872700477 16.6623
40.64655994043941 16.6731
40.67030297578061 16.6529
40.69423334835778 16.6374
40.71798004609188 16.5784
40.74172857006355 16.5313
40.76547892171441 16.509
40.7894166736039 16.4921
40.813170699248566 16.4914
40.83692655691388 16.4327
40.86068424804498 16.5024
40.884629402612525 16.348
40.908390779366385 16.2924
40.932153993938 16.3226
40.95591904777605 16.2819
40.979871628443995 16.2907
41.003640379561936 16.2622
41.02741097430883 16.2634
41.05118341413683 16.2316
41.075143444384416 16.1637
41.098919593177826 16.1902
41.1226975914255 16.1431
41.14647744058318 16.1177
41.170444943946755 16.0752
41.19422851378379 16.1011
41.218013938914645 16.0313
41.24198706625173 15.9957
41.26577622087193 15.9883
41.289567235177785 15.935
41.31336011063129 15.8793
41.337340752422875 15.9335
41.361137369129835 15.9518
41.38493585138705 15.8801
41.40873620066004 15.7456
41.43272438060107 15.8244
41.45652848292052 15.7405
41.48033445666918 15.718
41.50414230331616 15.6919
41.528138045159764 15.6629
41.551949656675205 15.6447
41.575763145513235 15.6169
41.59957851314666 15.6
41.62358184070442 15.5487
41.64740098505737 15.5363
41.6712220126409 15.5178
41.69504492493139 15.4846
41.71905586207357 15.4667
41.74288256296395 15.4954
41.766711153007456 15.448
41.79054163368412 15.4328
41.814560204340054 15.3989
41.838394485526365 15.4107
41.86223066180303 15.3253
41.88625497706819 15.2805
41.910094962812 15.2604
41.93393684811168 15.2517
41.95778063445365 15.1873
41.981812625263366 15.147
42.00566023303407 15.1228
42.029509746323676 15.1288
42.05336116662236 15.1222
42.077400857069705 15.1088
42.10125611078846 15.0983
42.12511327600405 15.0557
42.14897235421036 14.9566
42.173019768448455 14.9769
42.19688269209613 14.9422
42.22074753323349 14.966
42.24461429335818 14.965
42.268669455600495 14.9153
42.292540073217886 14.8706
42.31641261433284 14.8433
42.34028708044675 14.7371
42.36435001496739 14.7499
42.38822835065557 14.8298
42.41210861586426 14.7369
42.4359908120986 14.7729
42.46006154323262 14.6878
42.48394762115317 14.651
42.507835634632315 14.6803
42.531912233047436 14.6135
42.55580413732265 14.5742
42.579697981698 14.5572
42.60359376768525 14.583
42.62767820545945 14.4835
42.65157789440821 14.5218
42.67547952952185 14.415
42.699383112316 14.458
42.72347541395347 14.3533
42.74738291190531 14.3153
42.771292362102166 14.3587
42.795203766063516 14.3565
42.819303956130405 14.3497
42.843219287476536 14.295
42.86713657716324 14.255999999999998
42.89105582671383 14.287
42.91516392983864 14.2504
42.939087119032166 14.1868
42.963012272677304 14.130999999999998
42.98693939230129 14.1637
43.01105543317513 14.1092
43.034986504731386 14.0964
43.05891954686589 14.0843
43.08285456110972 14.0378
43.10697856448665 14.0298
43.130917542983475 13.9601
43.15485849820081 13.968
43.17880143167367 13.9179
43.20293342237094 13.9393
43.226880332449 13.8914
43.25082922540554 13.9065
43.27496722682525 13.8467
43.29892010567796 13.8228
43.32287497204102 13.8384
43.34683182745632 13.7885
43.370977859791836 13.7609
43.39493871351105 13.7522
43.41890156092628 13.7164
43.44286640358341 13.6923
43.46702049182749 13.7411
43.49098934522816 13.6448
43.51496019852649 13.5889
43.5389330532723 13.6324
43.56309522248204 13.5768
43.58707210044314 13.5836
43.61105098451946 13.5249
43.63503187626491 13.4684
43.659202151562134 13.472999999999999
43.68318707902681 13.433
43.70717401884041 13.4232
43.731162972560874 13.3703
43.75534137913236 13.3622
43.779334381108384 13.3454
43.803329401683186 13.3438
43.82732644241872 13.2935
43.8515130055166 13.3111
43.87551410707659 13.2187
43.89951723350145 13.251
43.923709934595614 13.2317
43.94771713129917 13.2219
43.97172635758096 13.2098
43.99573761501002 13.0995
44.0199385169922 13.0777
44.04395385732619 13.092
44.067971233533086 13.0912
44.09199064718605 13.0563
44.11619977548961 13.0083
44.14022328470671 12.9968
44.16424883610785 12.9786
44.18827643127035 13.0255
44.21249381139513 12.99
44.236525514814076 12.8954
44.26055926674478 12.8893
44.28459506876863 12.8692
44.3088207262813 12.7712
44.33286064928722 12.8126
44.35690262714919 12.8216
44.38094666145278 12.8241
44.4051806219871 12.7922
44.42922879003185 12.7609
44.45327901929361 12.7476
44.477331311362136 12.7672
44.501573600619416 12.6878
44.525630039221795 12.6519
44.54968854541895 12.6394
44.573937102200176 12.645999999999999
44.5979997645541 12.6238
44.622064499300315 12.5593
44.64613130803592 12.5541
44.67038823869318 12.544
44.69445921643748 12.4852
44.718532272981385 12.4606
44.742607409926194 12.4654
44.76687274034801 12.4325
44.79095205918753 12.4338
44.81503346325094 12.4155
44.839116954143876 12.3824
44.86339071028742 12.3647
44.88747839599524 12.3307
44.91156817336837 12.2999
44.93566004401666 12.3107
44.959942251908146 12.2933
44.984038330325966 12.2721
45.00813650686762 12.1856
45.03223678314731 12.1767
45.05652746888232 12.1718
45.08063196592069 12.1343
45.104738567558705 12.1912
45.128847275414856 12.1983
45.15314646515866 12.0948
45.17725940679741 12.0607
45.20137445952892 12.0474
45.22568004865265 12.0531
45.24979934496396 12.0523
45.27392075725247 12.0309
45.29804428714431 11.9515
45.322358426247604 11.925
45.346486212804315 11.8908
45.370616121861914 11.895999999999999
45.39474815505086 11.9157
45.41907087049246 11.8702
45.4432071734666 11.8056
45.46734560548283 11.8233
45.49148616817604 11.8352
45.51581748638564 11.7758
45.5399623320197 11.7573
45.56410931325473 11.7476
45.58825843173002 11.7425
45.61259837920865 11.6939
45.636751793816 11.7153
45.66090735060093 11.6613
45.68506505120716 11.6281
45.7094136545275 11.6042
45.73357566449271 11.5746
45.75773982322992 11.540999999999999
45.78190613238733 11.5687
45.806263418194064 11.4987
45.83043404997326 11.526
45.85460683713677 11.494000000000002
45.87897065658495 11.4491
45.90314777634752 11.4468
45.92732705646868 11.4528
45.9515084986045 11.3933
45.97588104735473 11.3926
46.00006683541565 11.3846
46.02425479047904 11.335
46.04844491420549 11.3665
46.0728262191024 11.32
46.09702070211635 11.298
46.12121735879483 11.2761
46.14541619080294 11.2424
46.169806278764455 11.2162
46.194009483459034 11.2349
46.21821486849841 11.2007
46.24242243555223 11.1911
46.266821333570014 11.1665
46.29103328674601 11.113
46.31524742696538 11.1428
46.33946375590237 11.0849
46.36387149104216 11.0765
46.38809221957392 11.0133
46.41231514186606 11.0052
46.436540259597464 11.0117
46.460956858999374 10.9867
46.48518638983522 11.0029
46.509418121166966 10.9497
46.533652054678114 10.9438
46.55807754555709 10.9017
46.58231590571962 10.9239
46.60655647313217 10.8835
46.630988654873654 10.8225
46.655233659129024 10.7983
46.67948087571551 10.7975
46.70373030632484 10.7698
46.72817142736393 10.7417
46.752425308428684 10.7638
46.77668140861147 10.7242
46.80093972960865 10.6642
46.82538981736788 10.6636
46.849652602470904 10.683
46.87391761349769 10.6518
46.8981848521493 10.6243
46.9226439341274 10.6405
46.946915650573224 10.5851
46.97118959976749 10.5898
46.99546578341598 10.5391
47.019933887188216 10.5571
47.04421456235744 10.5311
47.06849747711879 10.5176
47.09278263318286 10.440999999999999
47.11725978640143 10.4416
47.14154944775105 10.4204
47.165841355555656 10.432
47.1901355115306 10.3448
47.214621741924994 10.3757
47.23892041698887 10.4154
47.26322134538975 10.3385
47.28771440635075 10.2798
47.31201986422527 10.3167
47.33632758061436 10.2621
47.360637557241866 10.267999999999999
47.38513974410611 10.2507
47.40945426407847 10.2166
47.43377104948137 10.1948
47.45809010204344 10.135
47.48260144275502 10.1457
47.506925052572285 10.1338
47.53125093475548 10.1425
47.55557909103813 10.1055
47.58009961361992 10.059
47.60443234110732 10.0428
47.62876734791564 10.0525
47.65310463578333 9.9895
47.6776343683373 10.0599
47.7019762413987 9.98814
47.72632040075572 9.98335
47.75066684815169 9.97569
47.77520581885936 9.90034
47.799556865477655 9.9233
47.823910205386 9.907810000000001
47.84826584033272 9.861930000000001
47.87281407745551 9.86774
47.89717432569297 9.85534
47.92153687423484 9.83034
47.94609208429692 9.78764
47.97045925671401 9.79503
47.99482873471275 9.75257
48.01920052005013 9.76949
48.04376504619224 9.771510000000001
48.068141469543484 9.75255
48.09252020552573 9.72137
48.11690125590099 9.70006
48.1414751266064 9.64246
48.16586082917454 9.6394
48.19024885144316 9.62631
48.2146391951793 9.6208
48.239222439012764 9.62926
48.26361744916137 9.56826
48.28801478610016 9.59121
48.31241445160131 9.565760000000001
48.337007097209366 9.540389999999999
48.36141144338331 9.506969999999999
48.38581812345755 9.48364
48.41022713920929 9.524460000000001
48.434829215320704 9.48085
48.45924292604658 9.447460000000001
48.48365897780325 9.454880000000001
48.50807737237308 9.41858
48.532688907799276 9.41963
48.55711201168574 9.39525
48.581537463754074 9.371139999999999
48.60615611725119 9.37909
48.63058628942721 9.34827
48.65501881516546 9.30618
48.6794536962573 9.280510000000001
48.70408185970339 9.28271
48.72852147531801 9.2558
48.75296345168211 9.243260000000001
48.77740779059232 9.187619999999999
48.80204549302823 9.21458
48.82649458091802 9.19496
48.85094603676547 9.154739999999999
48.87539986237231 9.15033
48.90004713292306 9.15719
48.92450572200832 9.1391
48.94896668628025 9.09881
48.97343002754588 9.0517
48.99808689542115 9.04889
49.02255501470614 9.11805
49.04702551642794 9.071539999999999
49.0714984023988 9.0263
49.096164896893235 9.02341
49.120642575466796 8.97574
49.145122643748394 9.014660000000001
49.16960510355558 8.91525
49.19428125404938 8.93437
49.2187685210852 8.923919999999999
49.243258185121555 8.883
49.26794160167084 8.86353
49.2924360839405 8.851410000000001
49.31693296869764 8.85212
49.34143225776915 8.79266
49.36612538195438 8.80633
49.39062950396021 8.821819999999999
49.41513603578346 8.74735
49.4396449792564 8.72649
49.46434784069503 8.724969999999999
49.488861631846454 8.72153
49.513377840166804 8.729560000000001
49.537896467493745 8.680489999999999
49.56260909589029 8.621030000000001
49.587132585683285 8.6517
49.611658500018365 8.64599
49.636186840738596 8.603480000000001
49.66090926588511 8.64595
49.685442483902584 8.601560000000001
49.70997813385706 8.54615
49.734516217597076 8.55375
49.75924846937352 8.53595
49.7837914452858 8.53634
49.80833686055187 8.50437
49.83288471702571 8.48558
49.85762682540054 8.502510000000001
49.882179588965734 8.43009
49.9067347993235 8.43623
49.93129245833333 8.42103
49.95604445336378 8.43395
49.98060703442832 8.39582
50.005172069746266 8.38832
50.02993150438364 8.39142
50.05450147301533 8.338569999999999
50.07907390151433 8.34032
50.10364879174981 8.293510000000001
50.12841816587289 8.3046
50.1529980044635 8.25933
50.17758031042124 8.2724
50.20216508562089 8.25918
50.22694442953363 8.26967
50.25153416817468 8.18068
50.27612638170508 8.20842
50.300721072005196 8.16532
50.325510416102105 8.17712
50.350110084975064 8.15199
50.37471223628208 8.12223
50.39931687190919 8.11375
50.424116246675766 8.06247
50.44872587605249 8.07218
50.47333799543065 8.099910000000001
50.49795260670191 8.08266
50.52276204271512 8.04139
50.54738166295838 8.033610000000001
50.57200378079314 8.00283
50.596628398116835 8.00136
50.62144792604559 8.023639999999999
50.646077567609396 7.9832
50.670709714377715 7.962460000000001
50.69553683636198 7.928710000000001
50.72017401885922 7.918989999999999
50.7448137122895 7.9161600000000005
50.76945591856022 7.916710000000001
50.79429318636823 7.891089999999999
50.818940443716784 7.8845600000000005
50.84359021965163 7.85067
50.868242516085964 7.83582
50.893089960641895 7.84785
50.917747323549435 7.81125
50.94240721271973 7.84057
50.96706963007175 7.735580000000001
50.99192728239342 7.74602
51.01659478166073 7.73499
51.04126481489051 7.73987
51.06593738400761 7.722110000000001
51.090805275207074 7.6875
51.11548294172845 7.6673100000000005
51.14016314993547 7.645230000000001
51.164845901758845 7.6359699999999995
51.18972406304274 7.64774
51.21441192780656 7.597689999999999
51.23910234200271 7.628889999999999
51.2637953075678 7.591080000000001
51.288683770237945 7.5865100000000005
51.31338186432707 7.54007
51.33808251561888 7.56153
51.362978729967345 7.545380000000001
51.387684521509755 7.518039999999999
51.41239287610203 7.486910000000001
51.437103795691165 7.44902
51.46201036644977 7.4703800000000005
51.486726441956634 7.43735
51.51144508832545 7.4359
51.536166307509156 7.41713
51.56108326624387 7.388
51.58580965706056 7.40455
51.61053862657523 7.3720300000000005
51.635270176746864 7.36683
51.66019755512065 7.3259300000000005
51.68493429268881 7.3213
51.70967361681515 7.3212600000000005
51.73441552946465 7.30236
51.759353359237934 7.31838
51.7841004750961 7.28759
51.80885018539685 7.2766
51.833602492111254 7.24078
51.8585508051424 7.2142100000000005
51.883308330926425 7.190510000000001
51.90806845906181 7.201510000000001
51.932831191525715 7.18525
51.95779001977161 7.17227
51.98255798721516 7.16363
52.00732856494335 7.10398
52.03229530577543 7.090660000000001
52.057071130455945 7.07867
52.081849571391054 7.102989999999999
52.106630630568695 7.0949
52.13160794279417 7.05738
52.15639426492067 7.043989999999999
52.18118321127822 7.01813
52.205974783860896 6.972010000000001
52.23096269971011 6.971030000000001
52.255759551287994 6.9710600000000005
52.280559035098186 6.978510000000001
52.30536115314103 6.94747
52.33035970494467 6.940289999999999
52.35516711807904 6.9422
52.37997717147198 6.93779
52.40478986713005 6.95408
52.42979908731974 6.91782
52.454617094216 6.8819
52.47943774942214 6.88117
52.50426105495102 6.890160000000001
52.529280976059844 6.8411
52.554109609024096 6.834689999999999
52.57894089837482 6.811839999999999
52.60377484613117 6.80001
52.62880550079408 6.808330000000001
52.65364479223379 6.749039999999999
52.67848674816189 6.72007
52.70352547971946 6.72509
52.72837279155837 6.71725
52.753222773982785 6.7265
52.778075429022984 6.688439999999999
52.80312495150885 6.68693
52.827982978797436 6.697960000000001
52.85284368481815 6.65009
52.87770707160767 6.62719
52.90276741793998 6.6416
52.92763619336701 6.5953800000000005
52.952507655698504 6.575889999999999
52.977381806977576 6.5892
53.00245301017842 6.580439999999999
53.02733256653592 6.54522
53.052214817996074 6.52475
53.077099766608484 6.51058
53.102181859804446 6.5240800000000005
53.127072229988265 6.51826
53.15196530349892 6.497000000000001
53.17686108239249 6.47829
53.20195409881522 6.521780000000001
53.22685531582556 6.4682699999999995
53.25175924441303 6.40842
53.27666588664027 6.42033
53.30176985962693 6.38575
53.3266819565689 6.39093
53.35159677336455 6.35267
53.376514312083096 6.38384
53.40162927507703 6.360580000000001
53.42655228516116 6.3650400000000005
53.45147802340193 6.326919999999999
53.47660125628886 6.32834
53.50153247842639 6.28989
53.52646643496923 6.27482
53.55140312799818 6.278630000000001
53.576537409691696 6.21485
53.60147960336152 6.23778
53.626424539786164 6.26842
53.65137222105307 6.17997
53.67651758529126 6.20801
53.70147078399681 6.16446
53.72642673383343 6.16301
53.75138543689533 6.19482
53.776541917524526 6.21011
53.801506154876755 6.1152
53.826473151763246 6.1153
53.851442910284916 6.11406
53.87661054126026 6.070209999999999
53.9015858509782 6.1077900000000005
53.92656392866066 6.09477
53.95154477641532 6.10986
53.976723591801296 6.03581
54.00171000771266 6.01819
54.02669920004598 6.01471
54.051691170915745 6.01956
54.076881204886796 6.024830000000001
54.101878760928514 6.0057
54.12687910187696 5.94833
54.152077577768296 5.96671
54.1770835166946 5.92736
54.20209224691339 5.91595
54.22710377055121 5.89445
54.25231352511594 5.88659
54.27733066384342 5.8586
54.30235060239643 5.91014
54.32737334290836 5.86095
54.35259441062629 5.8039
54.377622783395324 5.8436699999999995
54.40265396455061 5.81686
54.42768795623251 5.76061
54.45292037169559 5.754630000000001
54.477960012857906 5.74945
54.50300247099511 5.70202
54.52804774825457 5.6887099999999995
54.55329154616743 5.67737
54.57834249018678 5.6785
54.6033962597977 5.65501
54.6284528571545 5.63264
54.653708072335164 5.60537
54.67877035378786 5.5782099999999994
54.70383546947698 5.53218
54.72890342156389 5.5521400000000005
54.7541700889442 5.53989
54.77924374251975 5.55426
54.8043202390049 5.50844
54.82959552413022 5.48532
54.8546777351945 5.4701699999999995
54.87976279569621 5.41364
54.90485070780914 5.40689
54.930137506558005 5.39571
54.95523115074295 5.40549
54.98032765308844 5.3089900000000005
55.005427015775496 5.30529
55.03072536339621 5.3289599999999995
55.05583047570572 5.32183
55.080938454927676 5.33752
55.10604930325027 5.28645
55.131359235107396 5.24925
55.15647585066083 5.17985
55.181595341907496 5.19003
55.20671771104285 5.1702699999999995
55.232039262617704 5.17149
55.25716741665048 5.11892
55.28229845518636 5.09286
55.30743238042802 5.08781
55.33276558731939 5.08577
55.357905315183636 5.07632
55.383047936390035 5.03092
55.40819345314859 5.01543
55.433538351073295 5.00668
55.458689688238415 5.006390000000001
55.483843927614096 4.92247
55.509197623043605 4.94259
55.53435769621134 4.91744
55.55952067826466 4.89447
55.5846865714265 4.8753
55.61005202069737 4.82541
55.63522376553902 4.774030000000001
55.66039842818645 4.82535
55.68557601087004 4.79598
55.7109532500271 4.74717
55.73613670233794 4.7354
