TT I
1.2716486653135266 6.870419999999999
1.2939594142134223 6.83316
1.3162702121660406 6.40586
1.3385810600174564 6.32498
1.3608919586137629 6.42531
1.383202908801069 6.35586
1.405513911425503 5.871980000000001
1.4278249673332093 6.0206
1.4501343378461518 6.51213
1.4724455028545926 5.708080000000001
1.4947567236847858 5.51925
1.517068001182951 5.60915
1.5393793361953272 5.638730000000001
1.5616907295681737 5.398569999999999
1.5840021821477681 5.00075
1.60631369478041 5.28303
1.6286252683124185 5.1865
1.6509369035901333 4.45911
1.6732468618895553 4.90062
1.695558623192809 4.65299
1.7178704487808514 4.46026
1.7401823395001077 4.29945
1.7625012545597203 4.78942
1.7848028405262486 5.04362
1.8071218901122095 4.4771
1.8294236121921872 4.75605
1.8517427996910911 4.54194
1.8740620574440425 4.91449
1.8963639900671978 5.30366
1.9186833908139995 4.60493
1.9409854680117449 4.76451
1.9633050151394713 5.01526
1.9856246367570705 4.14799
2.0079269371922672 4.57803
2.03024671027244 4.18518
2.0525491637446027 4.7998199999999995
2.074869091674931 4.69873
2.097171701569106 4.72692
2.1194917877373847 4.72813
2.141811954326636 5.69295
2.164114805233074 4.83475
2.186435135143035 6.1839900000000005
2.208738150935709 16.3582
2.231058647554722 36.7138
2.2533792288321184 29.1996
2.275682498336085 12.4765
2.298003251406138 7.13736
2.3203066942619714 6.0911800000000005
2.3426276225136022 5.85721
2.3649486396617507 5.3711400000000005
2.387252348930071 5.7809800000000005
2.4095735463442893 5.77303
2.4318774374315884 6.34665
2.4541988185014043 6.7046399999999995
2.476502894794693 7.457510000000001
2.498824462909887 7.31054
2.521146125856138 6.97951
2.5434504863470337 7.5166699999999995
2.5657723414244717 7.475689999999999
2.588076895590662 8.28531
2.610398946189713 8.82242
2.6327210958598384 8.48904
2.6550259469304716 7.9185
2.6773482972090137 8.288739999999999
2.6996533504259 7.75713
2.7219759047039602 7.8875399999999996
2.744298562293959 8.34556
2.7666039251246595 8.43931
2.7889267918020164 8.82442
2.8112323652516555 8.41066
2.833555444408179 8.90709
2.8558786311183852 8.69046
2.8781845268938557 8.81707
2.9005079311721484 9.39562
2.9228140460410397 9.23437
2.9451376712799635 8.725539999999999
2.967444008632326 9.39574
2.9897678582247247 10.0106
3.0120918213106695 10.0525
3.0343984987899373 11.0254
3.0567226913198637 11.2909
3.079029599759726 11.6058
3.101354025127254 12.6462
3.123678568232338 13.0243
3.145985829517914 13.5469
3.16831061055229 13.7814
3.1906181112775593 14.4162
3.212943133635653 14.6676
3.2352682779763207 14.9978
3.2575761442691227 15.8078
3.2799015350264273 15.6767
3.302209649240067 16.327
3.3245352898092655 16.3921
3.3468436553365257 17.4002
3.369169549113219 17.9714
3.3914955708171384 18.553
3.413804319727358 18.6418
3.4361305997334863 18.6163
3.4584396084414553 19.5694
3.4807661501462652 20.1111
3.503092824025881 20.8216
3.5254022288463154 21.3498
3.5477291695206588 21.769000000000002
3.5700388426251948 22.4734
3.5923660534916446 24.2943
3.6146934007816114 42.5996
3.637003482731501 111.88799999999999
3.6593311053109985 128.372
3.681641464033634 71.0756
3.7039693653009733 33.6025
3.726297407241705 26.7305
3.7486081875460804 26.4372
3.7709365132734978 26.2959
3.793247578841633 26.8707
3.8155761917550093 27.158
3.8378875459837216 26.912
3.8602164494827234 27.008000000000003
3.882545499606844 27.9203
3.9048572932539183 29.1338
3.9271866390645718 29.3106
3.9494987298666713 29.6931
3.971828374764527 30.1346
3.9941581705403255 30.8485
4.016470713506008 31.1696
4.038800813471445 32.1141
4.061113662089144 32.7933
4.0834440696459176 33.4331
4.105774632334751 33.721
4.128087945865126 34.4014
4.150418821249301 35.7641
4.172732448931298 36.6912
4.195063640413578 39.1134
4.2173775856475215 43.696000000000005
4.239709096631102 81.2085
4.262040768704612 301.944
4.284355196706267 435.935
4.306687193387355 284.015
4.329001947444346 100.095
4.35133427213731 50.2445
4.373666762177566 44.9002
4.395982011761091 44.351000000000006
4.418314834921175 45.8558
4.44063041906622 55.4494
4.4629635787515625 71.7643
4.4852969080429785 71.7025
4.5076130004776225 56.2873
4.529946671403969 49.7533
4.552263106909177 49.4565
4.574597122877047 50.2973
4.596931312711224 51.5198
4.619248269273446 51.8312
4.6415828092605835 53.4648
4.663900117405352 54.6924
4.686235010953232 55.5684
4.708552674085913 57.2087
4.730887924602802 58.2736
4.753223354952695 59.7646
4.775541557023902 60.9568
4.797877349456786 62.0615
4.820195915032126 63.9103
4.842532072957498 65.7653
4.864868414979744 67.5676
4.88718753227192 69.7852
4.909524244902505 71.3762
4.931843734218147 72.9487
4.954180820867835 75.178
4.976518095879839 78.0935
4.998838149695359 80.8232
5.021175803844231 84.0219
5.043496238205739 87.2895
5.065834274903528 91.0058
5.088172504230693 95.7689
5.1104935158799565 101.415
5.132832132875765 124.039
5.155153533596801 176.071
5.1774925416746225 211.295
5.199814334878411 282.526
5.2221537374521505 734.9830000000001
5.244493338631803 2252.38
5.266815727034316 7136.72
5.289155727832427 13119.9
5.311478517248165 9852.62
5.333818921080011 3068.89
5.356159527788849 559.488
5.3784829252032536 182.452
5.400823940070432 140.595
5.423147747031976 124.844
5.445489173474152 115.916
5.467830807066149 110.432
5.490155234831516 106.854
5.512497285125229 103.667
5.534822130975162 101.662
5.557164601388673 99.5189
5.579489868738879 96.8994
5.601832762690846 96.4151
5.6241758697774475 96.0788
5.646501775867269 95.0448
5.668845311622074 93.1666
5.691171647754637 92.1657
5.713515615597765 90.6682
5.735859800852677 89.6464
5.758186788542988 89.2653
5.780531411018185 89.1238
5.802858837297399 88.4389
5.825203900414495 88.3088
5.8475491852224 88.5561
5.869877275883075 88.7127
5.892223006467101 89.5946
5.914551544266608 89.9152
5.936897724049891 91.87100000000001
5.959244129804903 95.415
5.981573344815301 106.367
6.0039202049061 162.855
6.026249875609095 347.11199999999997
6.04859719346037 777.368
6.070927323278297 1923.15
6.093275102315365 4202.53
6.115623113320588 5224.01
6.137953938319995 3287.61
6.160302415650845 982.79
6.182633708324452 244.36
6.2049826554078376 114.367
6.227331838745022 90.2532
6.249663839443684 83.9024
6.27201349767565 81.6451
6.294345974611799 90.5725
6.316696111167083 108.32600000000001
6.339046488263839 103.23700000000001
6.361379686074702 82.5929
6.383730546639482 71.4702
6.406064229255215 67.8799
6.428415576718203 67.1901
6.450749747566656 66.1956
6.47310158535871 65.0491
6.495453669698332 64.6641
6.517788579421056 64.1032
6.540141159237969 62.8672
6.562476565766648 62.3274
6.5848296444934045 62.3852
6.607182974060425 61.6476
6.6295191323281015 62.2672
6.651872965955752 66.6197
6.6742096296068985 99.895
6.6965639707294615 165.03599999999997
6.71891856698715 170.76
6.741255995248479 110.45100000000001
6.763611104154477 72.0666
6.785949046381137 60.9554
6.808304671371482 58.4666
6.8306605557940046 57.9333
6.852999275508618 57.0544
6.875355681171544 56.5711
6.897694923437771 56.6018
6.92005185377892 56.3339
6.9423916220322655 56.2531
6.964749080490181 55.4194
6.987106804399774 55.0286
7.009447368180821 55.3094
7.031805625367033 54.8407
7.054146723727803 54.791000000000004
7.076505517631004 54.742
7.098864581288365 54.6808
7.121206488070854 54.7851
7.143566093607822 54.5621
7.165908543567245 55.2568
7.188268694426048 55.1402
7.2106291193438095 55.2037
7.232972390625943 57.226000000000006
7.255333366030969 72.4419
7.277677189091925 142.21200000000002
7.300038718428332 215.88099999999997
7.322400526130865 183.77700000000002
7.344745183422596 105.29700000000001
7.367107550224791 65.1692
7.389452767901992 56.7176
7.411815697249891 55.3856
7.434161478756298 54.3368
7.456524974096713 54.2853
7.478888753837185 53.9328
7.501235387657368 53.9017
7.523599738562711 54.302
7.545946944825532 54.56100000000001
7.568311870344528 54.7969
7.5906770845765665 55.0481
7.613025156078678 56.5828
7.635390950099687 58.3608
7.657739602662809 57.4846
7.680105979923558 55.7686
7.702472650212829 55.5351
7.724822180948224 55.6743
7.747189439655568 55.7388
7.769539560075357 55.4468
7.791907410653562 55.7819
7.81425812420825 55.5393
7.836626570110925 55.7821
7.858995315087906 57.0302
7.881346924933401 57.0813
7.903716270417482 57.4312
7.926068482028405 57.5543
7.948438431475253 58.3668
7.9708086843180235 58.7912
7.993161805171116 59.3971
8.015532667162402 59.7657
8.037886398416653 60.5756
8.060257873014221 61.2501
8.082629655331942 61.7895
8.104984308787587 62.9514
8.127356708900503 66.7554
8.149711981398308 74.1231
8.172085002766314 77.6988
8.194458336181368 73.5097
8.216814543847752 68.8322
8.23918850371002 68.3093
8.26154533906492 68.8249
8.283919928836452 70.1538
8.306277395339652 71.1617
8.328652618483376 72.1253
8.351028159736202 74.0738
8.373386579575245 75.9697
8.395762759396959 77.7528
8.418121819038275 83.0694
8.440498640894003 99.0231
8.462875785192262 116.626
8.485235811156207 123.00200000000001
8.507613602688501 141.83700000000002
8.529974277114228 205.882
8.552352719347912 318.722
8.574731488360351 549.945
8.59709314210385 1073.56
8.619472567021075 1794.66
8.64183487789147 2264.79
8.664214962183097 1909.32
8.686577933647762 1056.46
8.708958680784317 400.74199999999996
8.731339760774953 179.017
8.753703729764451 112.686
8.77608547780821 97.527
8.798450116065078 93.9903
8.820832535634787 90.7012
8.843215292401656 89.156
8.865580941199045 87.95700000000001
8.887964374703538 86.8048
8.910330701447199 88.5452
8.932714815164482 92.4553
8.955099270424924 92.2487
8.977466620733543 88.0136
8.999851761421976 84.2423
9.022219798361645 82.0537
9.04460562795561 81.9054
9.066991803441677 81.5598
9.089360876979615 81.1377
9.111747746589993 80.8708
9.13411751544971 79.9773
9.156505082664324 79.9693
9.178875550323522 80.6618
9.20126381862328 80.9011
9.223652438908596 81.69
9.246023961427412 81.3686
9.26841328802173 80.5982
9.290785518039224 80.3491
9.313175554425882 80.8571
9.335565947154315 80.6402
9.357939245086508 80.88
9.380330352834827 80.8575
9.40270436697103 81.2504
9.425096193225055 80.7616
9.447488380180165 82.1334
9.469863475295412 82.3628
9.492256385987508 82.72399999999999
9.514632206018318 83.4645
9.537025843935714 84.1926
9.559402392368193 84.3493
9.581796761000229 85.3541
9.604191496441521 86.5123
9.626569144158516 90.2222
9.648964615551032 96.7626
9.671343000390081 99.4132
9.693739211225699 96.1406
9.716135793237463 92.2757
9.738515290448102 91.1887
9.760912617143402 92.1033
9.783292860202891 92.6485
9.805690935076182 94.0228
9.828089385495742 95.0804
9.850470754023561 97.6726
9.872869957865444 106.49799999999999
9.89525208097539 125.463
9.917652041736662 143.168
9.940052382417589 140.454
9.962435644102392 134.217
9.984836746950979 152.005
10.007220771957746 202.25900000000001
10.029622640473708 286.056
10.052007432299963 442.181
10.074410069984072 710.654
10.096813093716005 1162.68
10.119199042482517 1724.63
10.141602840636468 2035.77
10.163989564971628 1678.9
10.186394141051062 979.798
10.208799107559706 435.476
10.231187001965623 193.417
10.253592751657669 126.39299999999999
10.275981430388155 112.20299999999999
10.298387966769793 112.38600000000001
10.320794897965431 116.804
10.343184759907361 116.45100000000001
10.36559248305461 109.42
10.387983138083852 102.931
10.410391656691655 102.56200000000001
10.432800574501677 109.914
10.455192425893369 122.853
10.47760214443012 143.83
10.499994797678786 181.78400000000002
10.522405320453982 255.28
10.54479877906917 377.159
10.567210109595656 501.47900000000004
10.5896218454736 578.7080000000001
10.612016518879773 516.849
10.634429067781074 349.27099999999996
10.656824555333241 207.29
10.679237920773568 128.143
10.701651695961992 96.0021
10.724048411481384 87.8707
10.746463008485165 85.0782
10.768860546937125 83.4736
10.791275969274796 81.6754
10.81369180576079 80.9329
10.836090585366925 79.6123
10.858507252467449 78.4116
10.88090686379991 77.6453
10.903324365036394 77.2572
10.925724811614439 77.1389
10.948143150509463 79.2744
10.970561909719066 78.7982
10.992963615930844 76.6815
11.015383218085756 73.9378
11.037785768347074 72.6914
11.06020621697282 71.9639
11.082627090322113 71.3711
11.105030913430326 70.8354
11.12745263854165 71.4694
11.149857314510728 76.2044
11.172279894912576 84.9153
11.194702904450653 87.1808
11.217108866490921 82.0518
11.239532736615194 75.9088
11.26193956033512 72.5045
11.284364294577085 70.4305
11.306789462371718 67.9138
11.329197585398376 66.3044
11.351623622610898 66.0563
11.37403261614354 65.3718
11.396459526308487 64.8939
11.418869393879497 64.6467
11.441297180532617 64.2064
11.463725406927658 63.7689
11.486136592353875 63.6283
11.508565700543707 64.6683
11.530977768845315 67.0042
11.553407762368774 68.5964
11.575838200059769 68.2061
11.598251599479612 65.1751
11.620682927815501 63.3029
11.64309721895548 62.5996
11.665529441478206 62.1995
11.687962112597958 61.8791
11.710377748130886 61.8511
11.732811318753434 61.9434
11.755227854859067 61.8615
11.777662328529495 61.895
11.800079768750786 61.6681
11.822515149015453 61.3713
11.844950984084935 61.8075
11.867369787303163 61.4265
11.889806534289491 61.494
11.912226250487029 61.7359
11.934663912939751 61.7662
11.9571020346363 61.5962
11.979523127133968 61.7146
12.001962169624331 62.2775
12.024384183972964 62.7738
12.046824150809913 65.0328
12.069264581333726 69.1675
12.091687985297767 74.7471
12.11412934550045 82.6805
12.136553680195208 95.7567
12.158995973632788 118.46
12.181438735204349 149.335
12.20386447284199 186.38299999999998
12.226308172985636 211.044
12.24873485024193 208.55599999999998
12.271179492516982 173.172
12.293607112949127 132.11
12.316052700916226 99.2143
12.338498763250042 81.1853
12.360927805303868 71.5617
12.383374818673879 66.5921
12.405804812803074 64.1576
12.428252780773262 63.4123
12.45070122756722 63.1889
12.473132656675375 63.0628
12.49558206341869 63.3036
12.518014453510101 63.373999999999995
12.540464823770117 63.6563
12.562915677315177 63.5817
12.58534951575545 64.3267
12.607801338171472 66.9728
12.630236146511358 74.0099
12.652688941369085 81.054
12.675124723177234 81.8772
12.697578494048786 76.6393
12.720032754458185 70.1273
12.742470003354093 67.3397
12.764925245138771 66.5953
12.787363476431278 66.8242
12.809819703166806 66.9707
12.83227642391173 67.7129
12.854716135692716 68.277
12.877173846755147 69.4341
12.899614549869717 69.4981
12.9220732548287 69.7622
12.94453245827299 70.4032
12.966974655289818 71.6727
12.989434858002571 72.042
13.011878055298721 72.9448
13.034339260862497 73.816
13.056800969391883 74.8783
13.079245674017244 76.6362
13.101708390774869 77.8988
13.12415410463411 82.9759
13.146617833206086 92.6528
13.169064559883248 102.684
13.191529303857127 115.96600000000001
13.213994557076367 134.92600000000002
13.236442809902437 167.669
13.258909083908291 217.271
13.28135835851934 283.29
13.30382565690295 364.11800000000005
13.326293469022952 425.836
13.348744283242008 436.267
13.371213125129904 376.394
13.39366497011003 273.257
13.416134845360597 180.82299999999998
13.438605238843131 126.101
13.46105863690397 102.89299999999999
13.483530069144786 99.8142
13.505984506951902 103.024
13.528456981549432 111.02600000000001
13.550929978879088 124.154
13.573385983253365 144.822
13.595860028340867 181.42
13.618317081455832 234.56099999999998
13.64079217790333 296.57599999999996
13.663250283359057 348.167
13.685726434770173 387.972
13.708203115221277 355.95099999999996
13.730662806148091 275.389
13.75314054697177 191.685
13.775601299246777 130.961
13.798080104050406 97.2037
13.820559442405358 84.1792
13.843021793671388 80.4035
13.865502201420897 78.7612
13.887965623051947 78.0274
13.910447103807167 77.0478
13.932929122629764 75.6064
13.955394156785959 75.4724
13.977877254034569 74.4548
14.000343367582113 73.2563
14.022827546871707 72.5155
14.045294743423524 72.1859
14.06778000837062 71.559
14.090265817715476 71.5228
14.112734645763819 71.1987
14.13522154619454 71.0492
14.157691466286913 71.3726
14.180179461423874 71.2042
14.202668005486178 70.5064
14.22513957064374 69.7652
14.247629214846473 69.2383
14.270101881097517 69.0535
14.29259262906496 69.2287
14.315083930490205 70.4506
14.337558255389705 71.1547
14.360050666019726 70.9242
14.382526101071944 69.3924
14.405019624534942 68.0108
14.427513705993134 67.3447
14.449990813291825 67.4564
14.47248601302899 67.1527
14.49496423954951 67.2722
14.517460561197822 67.779
14.539939910570322 67.3574
14.562437357763558 67.6806
14.58493536931253 68.7525
14.607416409993311 70.0
14.62991555254159 71.2347
14.652397725157423 71.3265
14.674898002342799 70.1996
14.697398848433282 69.1174
14.719882725991326 69.6314
14.74238471217934 69.7246
14.764869730765593 71.7679
14.787372860692983 74.3892
14.809876564079925 78.765
14.83236330125751 83.1787
14.854868153850365 90.5781
14.877356041159485 102.887
14.899862046604186 119.836
14.922351087688757 144.89
14.944858249632887 176.175
14.967365991421232 208.89700000000002
14.989856770231246 226.805
15.012365673994204 222.331
15.03485761569738 193.86700000000002
15.05736768508665 153.245
15.07987833888692 114.96
15.102372032001655 91.2397
15.124883856909658 76.756
15.14737872204565 71.3654
15.169891721717274 69.6221
15.192405310371893 69.27199999999999
15.214901940621196 69.9241
15.237416709527137 70.6858
15.259914520936249 71.0637
15.282430473753607 69.8149
15.304947020131227 68.3407
15.327446610371178 67.4005
15.349964346154254 66.1681
15.372465126703139 65.8434
15.394984055556009 65.3768
15.417486030076159 65.2919
15.44000615566487 64.7205
15.462526881230803 64.6634
15.485030653812652 65.2287
15.507552581617434 65.2119
15.530057557334603 65.4428
15.55258069104857 65.0934
15.575104429329837 64.9726
15.597611216864632 64.4184
15.620136166564563 64.4241
15.6426441664095 64.8564
15.665170331202765 66.2703
15.687697105158826 68.6744
15.710206930593545 71.7165
15.732734925158933 75.2104
15.755245972089478 80.4288
15.77777519094324 88.6447
15.800287463046663 100.361
15.822817909869592 118.814
15.84534897229804 141.037
15.867863089299354 165.835
15.890395385222186 186.942
15.912910736597423 196.5
15.935444269699861 186.81099999999998
15.957978423016485 160.509
15.980495633101265 125.882
16.003031029129367 97.6051
16.02554948280019 77.0813
16.048086125229432 67.8484
16.070623392487107 64.9814
16.09314371869582 64.3186
16.11568223789321 63.6281
16.13820381691126 62.45399999999999
16.160743591742527 60.9497
16.183283996022084 60.0001
16.205807461423195 58.6517
16.228349126881973 58.06100000000001
16.25087385432698 58.1172
16.27341678466365 57.5208
16.29594277784926 57.378
16.31848697676433 57.9786
16.341031811604868 58.6395
16.36355971058487 59.253
16.3861058195587 58.8683
16.40863499352978 57.4477
16.431182380342005 56.3824
16.453730407713202 55.3015
16.476261501364792 54.868
16.498810812136167 54.4539
16.52134319004079 54.6671
16.54389378792203 54.7202
16.566445031001553 54.4353
16.588979342490088 54.1707
16.61153187824822 54.294
16.634067483263312 53.8643
16.656621315414416 53.8017
16.679175797408888 53.6306
16.701713349928728 53.5725
16.72426913389191 53.9352
16.74680798922351 54.0523
16.76936507887444 54.1463
16.791905240734874 54.2493
16.814463639794468 53.9074
16.837022695210294 53.9377
16.859564824093756 54.3984
16.882125194503903 55.36600000000001
16.904668639217885 56.4138
16.927230328348003 56.6805
16.949792678493612 56.7876
16.972338104193863 55.8209
16.994901778652235 54.9929
17.017448529496576 54.765
17.040013531998152 54.6922
17.06257920018044 54.9569
17.0851279459922 55.662
17.107694947817667 56.199
17.130245028099072 56.9126
17.15281336730298 58.1703
17.17536478578733 59.5535
17.19793446610687 61.8379
17.220504818648422 64.2199
17.243058251703697 67.2631
17.265629950971032 72.1345
17.288184731571736 77.5905
17.310757781306908 82.2132
17.33333150794385 83.0891
17.355888317140174 81.7189
17.37846339986244 77.2241
17.401021565958885 70.3534
17.42359800851343 64.6945
17.44617513265564 60.8877
17.468735341390783 59.0536
17.491261035594565 58.1827
17.51396340099364 57.6863
17.536490463869136 57.981
17.559018209820174 57.9628
17.58154663977963 58.1279
17.604251766089718 58.376000000000005
17.626781572227713 58.2855
17.64931206518155 58.5676
17.671843245885103 59.5289
17.69455114821572 59.6554
17.717083712612634 59.8102
17.739616967569667 59.9145
17.762150914021706 60.2061
17.78486160749854 59.9028
17.807396945166804 60.4554
17.829932977143503 60.8487
17.85246970436452 62.0443
17.875183204129467 63.5848
17.897721330097664 65.579
17.920260154126645 67.5568
17.942799677153296 70.4015
17.9655159983646 73.4703
17.988056927677544 77.9672
18.010598558807683 85.15100000000001
18.033140892692916 94.97200000000001
18.05586005052525 106.20100000000001
18.07840379824407 118.538
18.10094825154059 129.365
18.12366954819864 138.0
18.146215420998306 139.005
18.16876200220057 131.091
18.191309292745153 116.507
18.214033452627167 103.35799999999999
18.236582170236648 91.0568
18.259131600016456 84.6237
18.281681742907335 83.6279
18.304408781233683 87.7468
18.32696035875955 93.2324
18.349512652227624 98.7196
18.372065662579683 104.147
18.394795594587553 105.72399999999999
18.41735004715306 103.368
18.43990521943684 96.6199
18.46246111238171 87.28399999999999
18.485193953325208 77.2012
18.507751296070428 69.6646
18.530309362314178 65.1896
18.552868153000343 62.7114
18.57560391815056 61.3205
18.59816416623245 60.7727
18.620725141597372 60.3338
18.643286845190268 59.6934
18.666025549835414 59.3233
18.688588718427933 58.9716
18.711152618092243 58.6202
18.73389353884365 58.3468
18.75645890921984 57.8646
18.77902501351406 57.4589
18.801591852673102 57.6754
18.824335739722738 57.1012
18.846904057212626 57.013000000000005
18.8694731124168 56.6411
18.89204290628315 56.783
18.914789774966803 56.4378
18.937361054791623 56.3719
18.959933076131318 56.1644
18.982505839934877 56.1149
19.00525570560582 56.1436
19.027829963004184 56.0712
19.05040496572238 56.0623
19.072980714710468 56.0062
19.095733592739563 56.0541
19.11831084296757 56.381
19.140888842324735 56.9044
19.16346759176222 57.1927
19.18622349753803 57.6553
19.208803755869358 58.1648
19.231384767143577 59.1166
19.253966532312948 60.3659
19.276725481241822 62.2387
19.29930876296784 64.8733
19.3218928014549 68.0005
19.34465404436217 71.743
19.36723960516257 74.8878
19.389825925592426 76.5992
19.412413006605938 75.7991
19.43517731967805 72.3466
19.457765930683355 67.7601
19.48035530514408 62.9591
19.50294544401556 59.0476
19.525712842708348 56.1821
19.54830451925909 54.3745
19.570896963095727 53.4233
19.593490175174704 53.071999999999996
19.616260674962184 53.0241
19.638855432416964 52.668
19.661450960992624 52.7386
19.68404726164677 52.5233
19.706820878021247 52.3196
19.729418731756834 52.648999999999994
19.752017360452857 52.3983
19.77461676506804 52.7408
19.797393513540218 52.5487
19.819994478951667 52.7042
19.84259622316767 53.2702
19.8651987471481 53.8078
19.887978643247177 53.9045
19.91058273574792 54.1483
19.933187610901943 54.9349
19.955969879466828 55.9715
19.97857632894404 57.3165
20.00118356396599 58.6336
20.023791585494575 60.5882
20.046577028914875 63.5112
20.069186632506966 65.9815
20.091797025500632 68.1422
20.114408208858933 69.3851
20.137196842715273 69.0853
20.159809615886765 67.6985
20.18242318232135 65.1271
20.20503754298326 62.7251
20.227829382875154 61.1638
20.250445341109344 61.0394
20.27306209647285 61.6965
20.29567964993108 63.0096
20.31847471147704 64.2155
20.34109387027612 65.2572
20.363713830075454 65.3352
20.386334591841646 64.0193
20.409132890679302 61.5265
20.431755265564437 58.2625
20.454378445325528 55.4147
20.477002430930366 53.2843
20.499803982716553 51.8654
20.522429589228004 51.1807
20.54505600449589 50.5093
20.567683229489194 50.4471
20.590488049900088 50.131
20.61311690359731 49.6086
20.63574656993626 49.3782
20.658553853717297 48.9
20.681185154618298 48.6963
20.703817271080066 48.5983
20.72645020407368 48.4707
20.749260783967177 48.4491
20.771895359337133 48.3545
20.794530754161617 48.1988
20.817166969412938 48.1631
20.83998086114876 48.129
20.86261872660049 47.8274
20.885257415405402 47.9178
20.90789692853701 47.7791
20.930714147864748 47.5895
20.953355319030678 47.7476
20.97599731745334 47.9511
20.99864014410749 47.6198
21.021460706796564 47.7653
21.044105199328826 48.0254
21.06675052302631 48.1642
21.089396678865015 48.2107
21.112220600704806 48.5507
21.134868430275347 48.8703
21.15751709492456 49.3393
21.180166595629693 49.4663
21.202993892429635 50.0858
21.22564507473034 50.4592
21.24829709602816 50.6295
21.27112693608965 50.6327
21.293780644891275 50.5526
21.316435195634053 49.9729
21.339090589297417 49.3243
21.361923832041875 48.858999999999995
21.384580921090404 48.1598
21.407238856007325 47.785
21.429897637773326 47.5279
21.45273429906592 47.5814
21.475394784108598 47.5012
21.498056118951983 47.3612
21.520718304578022 47.7321
21.543558400304388 47.8752
21.566222297108816 47.8779
21.58888704765135 47.7804
21.61155265291521 48.1213
21.63439619898156 48.5418
21.657063523335786 48.7206
21.67973170537063 49.255
21.7024007460706 49.5963
21.72524775840385 50.1666
21.747918526116475 51.2047
21.770590155457388 52.1517
21.79326264741238 53.6948
21.816113141960237 55.5711
21.838787368860547 57.6611
21.861462461341976 59.6728
21.884315579735777 61.8457
21.90699241312273 63.4011
21.92967011506078 64.1535
21.95234868653799 63.9275
21.9752053151131 62.9514
21.997885635446785 60.7735
22.020566828293532 58.9832
22.04324889464272 57.1621
22.066109049404666 55.8545
22.088792872571794 55.3621
22.111477572219204 55.4538
22.1341631493376 55.5883
22.157026846313123 55.4535
22.179714188221507 54.7116
22.202402410582668 53.685
22.22509151438863 52.2099
22.24795876962584 50.718
22.270649646204486 49.9322
22.293341407213727 49.1913
22.316034053646906 48.5639
22.338904883215342 48.2299
22.36159931041458 48.2285
22.38429462602756 48.4822
22.40699083104897 48.1911
22.429865251039757 48.3602
22.452563244831367 48.4101
22.47526213102522 48.303999999999995
22.49813925616515 48.1052
22.520839937143307 47.8442
22.543541513520587 47.6405
22.56624398629403 47.6564
22.589124730075895 47.6631
22.611829005656723 47.8419
22.63453418063466 47.8337
22.657240256008077 47.7911
22.680124634582935 47.9947
22.70283252079775 48.3429
22.725541310413075 48.3674
22.74825100442868 48.592
22.771139033969575 49.0459
22.79385054687155 49.1695
22.81656296718292 49.8523
22.83927629590484 50.6325
22.862167992606945 51.8707
22.88488314827121 53.0328
22.907599215359284 53.8649
22.93031619487366 55.2436
22.953211574954405 56.2928
22.975930389478226 57.1046
22.998650119445763 57.5433
23.02137076586092 57.0972
23.044269845560063 56.0429
23.06699233506288 54.1743
23.089715744034912 52.2235
23.112617610931565 50.702
23.135342869061212 49.3768
23.158069049684816 48.4838
23.1807961538087 48.0966
23.20370174880544 47.9645
23.226430710184808 48.0633
23.249160598093425 48.0013
23.271891413539002 47.9128
23.294800752937697 47.9244
23.31753343374794 48.0459
23.340267045128353 48.0796
23.36300158808808 48.365
23.38591468821339 48.5959
23.408651104658304 49.0028
23.431388455719986 49.5799
23.454126742409 50.3454
23.4770436196085 51.4426
23.499783787914662 52.8365
23.522524894889884 53.7627
23.54526694154616 54.9709
23.56818761219047 56.2501
23.59093154860734 56.9188
23.613676427751283 57.6987
23.636422250635754 56.9645
23.659346731118656 55.4457
23.68209445191868 53.5074
23.704843119509587 51.1929
23.72759273490623 49.1677
23.750521041644767 47.8769
23.77327256312355 46.6663
23.796025035462787 45.9348
23.818956224555475 45.4987
23.841710609113413 45.3626
23.86446594758979 45.2115
23.887222241002014 45.00899999999999
23.910157285144578 44.5903
23.932915498962537 44.5136
23.955674670778713 44.3613
23.978434801611975 44.2718
24.001373717286125 44.0886
24.024135776723917 44.0141
24.046898798245582 43.9226
24.06966278287146 43.9597
24.092605586582614 43.6174
24.115371508023642 43.4132
24.1381383956401 43.3083
24.16090625045381 43.3214
24.183852958731244 43.3749
24.206622758582608 43.2672
24.229393528706886 43.0427
24.252165270127392 43.2404
24.27511589952438 43.0088
24.297889594216997 42.7579
24.32066426328598 42.6057
24.34343990775613 42.626000000000005
24.36639447485003 42.5258
24.38917208083877 42.597
24.41195066531332 42.266000000000005
24.43490819850244 42.4191
24.457688750692377 42.3133
24.48047028445616 42.3484
24.503252800821233 42.3854
24.526214300784112 42.5362
24.548998793132213 42.5041
24.57178427117417 42.3899
24.59457073593893 42.2801
24.617536219319863 42.2923
24.64032466834748 42.3427
24.663114107195035 42.2262
24.685904536893013 41.9703
24.708874020360852 41.9699
24.731666442613744 41.9706
24.754459858818787 41.7903
24.777254270007962 41.7086
24.80022777025625 41.5727
24.82302418230472 41.6031
24.845821592443674 41.7054
24.86862000170663 41.4836
24.891597535453727 41.4431
24.914397953892728 41.7382
24.93719937456671 41.5715
24.96000179851076 41.6355
24.98298338249997 41.7566
25.00578782394922 41.9496
25.028593271784167 42.1502
25.05157790644186 42.3382
25.07438537804115 42.5592
25.097193859145293 42.7707
25.120003350792075 43.0085
25.142992065061257 43.4159
25.165803588823465 43.6341
25.18861612625217 43.7862
25.211429678386736 44.0798
25.234422489079968 44.1473
25.257238081693636 44.1686
25.280054692141732 44.1948
25.3028723214652 44.2868
25.325869245420463 44.4423
25.348688923599397 44.3254
25.371509623787006 44.4243
25.394331347025812 44.0444
25.41733240110666 43.6731
25.440156181590016 43.0132
25.46298098826268 42.4708
25.48580682216873 42.0541
25.50881202326435 41.4325
25.53163992281684 40.8565
25.55446885274561 40.6669
25.577298814096377 40.3353
25.600308179121807 40.2687
25.623140214533745 40.1731
25.64597328451537 40.0819
25.66898578564376 39.9477
25.691820936010206 39.9807
25.714657124097695 39.919000000000004
25.737494350954734 40.0135
25.760511045684957 39.8275
25.783350361364224 39.9917
25.806190718969255 40.0232
25.82903211955018 40.02
25.852053024868923 40.0529
25.874896522722523 39.9848
25.897741066713106 39.9285
25.920586657892454 40.0894
25.943611790812668 40.2041
25.966459487728237 40.2218
25.989308234998564 40.1916
26.01215803367705 40.624
26.03518741123814 40.8655
26.05803932412957 40.951
26.080892291600094 40.9409
26.10374631470478 40.9854
26.12677995397268 41.1139
26.14963609978026 41.1804
26.172493304397875 40.7813
26.19535156888223 40.7218
26.218389486949604 40.3415
26.241249882640123 39.8409
26.26411134137826 39.594
26.28715248187403 39.6667
26.31001607820869 39.4588
26.3328807407756 39.3743
26.35574647063438 39.4655
26.37879191991473 39.4493
26.401659795896734 39.5754
26.424528742360263 39.5852
26.447398760366614 39.8042
26.470448535598294 39.8615
26.49332070826805 40.2068
26.516193955675355 40.5016
26.53906827888316 40.5615
26.562122397260108 40.7468
26.584998883685063 41.0825
26.607876449110325 41.2068
26.63075509460056 41.4639
26.65381357334404 41.7523
26.67669439061878 41.7825
26.699576291163382 41.5717
26.722459276044212 41.5351
26.745522132402975 41.151
26.768407297649354 40.8931
26.791293550442003 40.6436
26.814180891848974 40.4011
26.837248143099337 39.900999999999996
26.860137673466657 39.884
26.88302829566349 39.5871
26.90592001075963 39.5
26.92899167420566 39.3809
26.951885586870763 38.9037
26.974780595655517 38.7709
26.99785558178161 38.6232
27.020752794605112 38.4279
27.043651106772522 38.3055
27.06655051935668 38.2379
27.089629948036183 38.1943
27.112531573292053 38.1825
27.135434302194138 38.196
27.158338135817015 37.9179
27.181422024430987 38.0129
27.204328079372566 37.7824
27.22723524226965 37.8337
27.250143514198573 37.9696
27.273231880156334 37.9311
27.296142382065014 37.8909
27.319053996245536 37.7559
27.341966723775965 37.826
27.365059584515222 37.8832
27.38797455070062 37.9835
27.410890633481237 37.8273
27.433807833936918 37.7444
27.456905206923906 37.9136
27.47982465472398 37.8857
27.502745223449743 37.9726
27.525666914182825 38.2091
27.548768816912457 38.1096
27.571692763693633 37.9856
27.59461783573812 37.8601
27.617723149491244 37.7272
27.640650484125285 37.6245
27.66357894728264 37.5506
27.686508540048052 37.585
27.709618414237887 37.4857
27.732550278321757 37.3346
27.755483275279115 37.2918
27.778417406196485 37.2329
27.801531858397514 37.3757
27.824468269376716 37.1725
27.847405817586786 37.2339
27.870344504116094 37.3965
27.893463551932008 37.4231
27.916404527281053 37.7526
27.93934664422563 37.8208
27.962289903855886 37.9218
27.98541356491974 38.1282
28.00835912214229 38.2624
28.03130582533231 38.3933
28.054253675581805 38.648
28.077381967556104 38.618
28.100332124185126 38.5244
28.123283431160893 38.4634
28.146235889577238 38.2977
28.169368830154156 38.2135
28.192323603752033 37.9476
28.215279532083304 37.6497
28.238415973016764 37.4963
28.261374223145094 37.3929
28.284333631303806 37.1238
28.307294198589954 36.9224
28.330435319167677 36.7241
28.353398217078915 36.52
28.376362277420153 36.2279
28.39932750129032 36.0515
28.422473319286713 35.9478
28.44544088262495 35.9001
28.468409612800283 35.8258
28.491379510913497 35.5145
28.51453004413313 35.4447
28.53750229057244 35.4143
28.56047570826344 35.3899
28.583450298308804 35.3245
28.606605564586562 35.2187
28.629582511831156 35.2617
28.65256063474956 35.095
28.675539934446338 35.0445
28.698699951647605 35.0697
28.72168161743193 34.9838
28.74466446331978 35.0113
28.767648490417624 34.9505
28.790813276438353 35.0846
28.813799678527303 35.0297
28.836787265157085 34.9699
28.859955641890075 34.9312
28.882945610203045 34.9406
28.905936766392035 34.9772
28.928929111566863 35.0205
28.952102288520145 34.7679
28.975097024308607 34.6697
28.998092952423807 34.5021
29.021090073977508 34.531
29.04426806913204 34.4365
29.067267590245258 34.1583
29.090268308143695 34.2013
29.11327022394099 33.9698
29.13645305530891 33.8927
29.159457379627167 33.8708
29.18246290519685 33.8194
29.20546963313352 33.8713
29.22865731875826 33.9498
29.25166646419296 33.8923
29.27467681535305 33.7054
29.29768837335608 33.8055
29.320880931312562 33.8168
29.34389491580634 33.8706
29.366910110507334 33.7641
29.38992651653503 33.811
29.41312396492981 33.7553
29.436142806456754 33.6331
29.45916286268059 33.6275
29.48236399319994 33.4938
29.50538649169417 33.3106
29.528410208259935 33.3163
29.55143514402014 33.0784
29.574641196749695 32.8807
29.597668583816574 32.9071
29.6206971934585 32.6015
29.64372702680042 32.6473
29.666938019934474 32.5276
29.689970313635285 32.6158
29.713003834422636 32.5927
29.73603858342347 32.4082
29.759254535188578 32.3536
29.78229175361658 32.3309
29.80533020365064 32.4869
29.82836988641968 32.4681
29.85159081507472 32.3224
29.874632976355343 32.2252
29.89767637376955 32.2032
29.920721008448314 32.1348
29.9439469322847 32.1157
29.96699405457564 32.0414
29.9900424175358 32.0249
30.013092022298157 32.0774
30.03632295963995 32.0549
30.059375061131373 32.0046
30.08242840783577 32.0636
30.105483000888153 31.9236
30.128718970092244 31.9012
30.151776069006917 31.9212
30.17483441768648 32.01
30.198074175317235 31.9047
30.221135036724256 31.9631
30.24419715131772 31.9207
30.267260520236203 31.8188
30.290505341942243 31.9187
30.313571232750228 32.022
30.336638381310948 31.8414
30.35970678876503 31.6914
30.38295669299435 31.7418
30.40602763151657 31.6961
30.429099832366074 31.6969
30.452173296685572 31.5968
30.47542830191959 31.5171
30.498504306502497 31.5466
30.521581577995562 31.6874
30.544660117543582 31.7377
30.56792024229725 31.6609
30.59100133132069 31.6368
30.614083691845494 31.7006
30.637167325018545 31.7512
30.660432587840603 31.7485
30.683518779717886 31.772
30.70660624769615 31.7702
30.729694992924372 31.7909
30.75296541239743 31.7883
30.77605672557558 31.6724
30.799149319462742 31.7111
30.8224236211637 31.5612
30.845518789950724 31.3463
30.868615242910597 31.3964
30.891712981195973 31.2215
30.91499247215866 31.1152
30.938092794619365 31.1146
30.96119440587579 31.0995
30.984297307082752 30.9031
31.00758200598383 30.774
31.030687500658694 30.7107
31.053794288760695 30.6349
31.076902371446767 30.5706
31.100192296997445 30.6217
31.12330298246119 30.6226
31.14641496599209 30.5104
31.169528248749216 30.5488
31.19282341969534 30.589000000000002
31.215939314557186 30.5806
31.239056512134788 30.4861
31.262175013589378 30.5266
31.28547544871168 30.4488
31.30859657161541 30.3955
31.331719001892175 30.4433
31.35484274070538 30.5229
31.378148458819545 30.5899
31.401274828443725 30.5607
31.424402510106933 30.4956
31.447712205419993 30.5384
31.470842524931633 30.398000000000003
31.493974159989783 30.4339
31.51710711176168 30.3517
31.54042212308802 30.3669
31.563557722100917 30.3793
31.586694641341655 30.1431
31.609832881979628 30.0507
31.63315322823208 29.9207
31.656294125521327 29.9181
31.679436347728515 29.8737
31.70257989602529 29.8035
31.725905596152327 29.7525
31.74905181052835 29.6575
31.772199354521323 29.7942
31.79534822930507 29.7057
31.818679302290967 29.7432
31.84183085259981 29.6549
31.864983737233473 29.7682
31.88813795736804 29.7371
31.911474422233013 29.5499
31.934631327356435 29.706999999999997
31.9577895715215 29.6206
31.980949155906522 29.7892
32.004291031706956 29.6365
32.027453310562606 29.5719
32.05061693318573 29.511
32.07396288236386 29.4346
32.09712920658542 29.379
32.12029687812702 29.2528
32.14346589817093 29.2601
32.166817291729984 29.2241
32.18998902288583 29.1054
32.21316210610336 29.0491
32.23633654256711 28.8483
32.259693399663725 28.8624
32.282870556771144 28.7232
32.30604907069099 28.7854
32.329228942610065 28.8278
32.35259128243769 28.6058
32.375773884550505 28.5607
32.398957848235646 28.4472
32.422143174682176 28.5243
32.445511016471215 28.4523
32.468699082679954 28.3347
32.49188851523011 28.3014
32.51507931531304 28.206999999999997
32.538452678331 28.2722
32.56164622776311 28.1258
32.58484114831493 28.0611
32.60803744118015 28.1586
32.631416344731896 28.1033
32.654615396551876 28.0514
32.67781582427913 28.0572
32.701198898634416 27.9287
32.72440209253756 27.8219
32.747606665947124 27.8427
32.77081262006088 27.7834
32.79420126883317 27.7648
32.81740999876112 27.7255
32.840620112999424 27.6581
32.86383161274818 27.58
32.88722585534586 27.5553
32.91044014056596 27.6872
32.933655814909734 27.6363
32.95687287957963 27.6068
32.98027273544904 27.5399
33.00349259526636 27.5242
33.026713849030116 27.5449
33.04993649794511 27.5165
33.073341986570746 27.4482
33.09656744032826 27.47
33.11979429286444 27.4178
33.14302254538647 27.4474
33.166433686291185 27.3797
33.18966475336992 27.3094
33.212897224069096 27.2333
33.23613109959831 27.1381
33.259547912343415 27.123
33.2827846121627 27.2767
33.306022720453775 27.1114
33.32926223842861 27.0508
33.352684742614166 27.0726
33.37592709463173 27.070999999999998
33.399170859982064 26.9485
33.422597648419426 26.7836
33.44584425514446 26.7054
33.46909227885668 26.7526
33.4923417207723 26.6839
33.51577423505344 26.6714
33.539026528130385 26.5609
33.56228024307245 26.6369
33.585535381098246 26.373
33.60897364093058 26.4272
33.63223163992385 26.3663
33.6554910656699 26.2495
33.678751919389796 26.3826
33.702195944520106 26.2361
33.72545966903325 26.28
33.74872482519663 26.2255
33.771991414233746 26.2452
33.79544122444841 26.1369
33.81871069412428 25.9579
33.84198160035767 26.0167
33.86525394437455 26.0308
33.88870955949969 25.9976
33.911984794020626 25.9683
33.93526147001624 25.9745
33.958539588715006 25.9341
33.98200102861669 25.7824
34.0052820477047 25.6255
34.02856451319451 25.7519
34.05203033759056 25.6386
34.07531571090147 25.5864
34.09860253431845 25.6278
34.121890809074316 25.5669
34.145362493118924 25.6231
34.16865368561615 25.5286
34.191946333164054 25.4562
34.21524043699793 25.4777
34.23871800066799 25.4388
34.26201503218366 25.3351
34.28531352370466 25.3322
34.30861347646881 25.2277
34.33209693978188 25.2137
34.3553998301885 25.1403
34.378704185565205 25.1173
34.402010007152356 25.0867
34.42549939016683 25.1374
34.44880815937748 24.9601
34.472118398533134 24.9392
34.49543010887669 24.8968
34.51892543169198 24.8081
34.54224009966052 24.8833
34.56555624255917 24.8419
34.58887386163339 24.6908
34.61237514439016 24.6901
34.6356957311114 24.6396
34.65901779775809 24.6204
34.68252356662995 24.570999999999998
34.705848608458616 24.6309
34.72917513396849 24.47
34.75250314440949 24.5082
34.77601490857862 24.3957
34.799345904259795 24.3742
34.82267838863559 24.3782
34.846012362958525 24.2924
34.869530142679984 24.3147
34.89286711232212 24.2995
34.91620557568269 24.2906
34.93954553401677 24.2086
34.9630693495876 24.166999999999998
34.986412313340814 24.1343
35.00975677584668 24.1335
35.033102738362956 24.1245
35.05663261012228 24.0718
35.0799815881786 24.0419
35.10333207003229 23.9489
35.12668405694369 23.958000000000002
35.150220005273056 24.0108
35.17357501786656 23.9845
35.19693153931268 23.88
35.220289570874385 23.829
35.24383161619786 23.8682
35.267192683604904 23.883000000000003
35.290555264930376 23.7602
35.314101899412165 23.7394
35.33746752422433 23.7903
35.36083466676374 23.768
35.38420332829803 23.6861
35.407756095629054 23.6777
35.43112781085063 23.6918
35.45450104888391 23.6084
35.477875810999194 23.674
35.50143473172161 23.5856
35.52481255774625 23.5579
35.54819191167777 23.5166
35.57157279478914 23.5158
35.595137889488406 23.4789
35.61852184675279 23.3978
35.641907337029984 23.3296
35.665294361595684 23.3231
35.68886565090076 23.2847
35.7122557598848 23.2313
35.73564740699838 23.1613
35.759040593519934 23.1785
35.78261809810353 23.2041
35.80601437933051 23.072
35.829412203814705 23.0348
35.85281157283719 22.8978
35.876395313415884 22.9416
35.8997977874528 22.932
35.92320180988546 22.9382
35.946790244133936 22.8111
35.97019737933222 22.8382
35.993606066789866 22.7507
36.01701630779276 22.7811
36.04061101440684 22.6978
36.06402437852291 22.7156
36.08743930005611 22.7172
36.1108557802951 22.5712
36.13445678011326 22.6497
36.15787639383515 22.5528
36.18129757014299 22.5059
36.20472031032821 22.482
36.22832762423364 22.4462
36.25175350829375 22.3701
36.275180960119776 22.3847
36.298609981005924 22.3665
36.32222362992669 22.3653
36.34565580510207 22.3606
36.36908955323448 22.3238
36.39252487562093 22.2715
36.416144880530226 22.1899
36.43958336764275 22.1478
36.463023432914625 22.1803
36.486465077645676 22.0824
36.51009145956204 22.1461
36.53353627947859 22.1103
36.55698268276811 22.0796
36.58043067073321 22.0298
36.60406345072071 21.8827
36.62751462435344 21.8868
36.65096738658405 21.9478
36.67460498210655 21.9061
36.69806093788647 21.7611
36.72151848619297 21.7358
36.744977628333636 21.7811
36.76862165890998 21.6347
36.79208400512205 21.6676
36.81554794910557 21.6908
36.83901349217101 21.5943
36.862663978991606 21.581
36.88613273667352 21.5336
36.90960309738324 21.5058
36.933075062434064 21.5035
36.95673202673572 21.4526
36.98020721697122 21.4101
37.003684015502365 21.3675
37.027162423645365 21.3184
37.050825886711465 21.3218
37.07430753063053 21.2124
37.09779078812467 21.2089
37.121275660513014 21.1717
37.144945643673694 21.096
37.16843376245278 21.1026
37.19192350009803 21.153000000000002
37.215414857931435 21.0714
37.239091382563885 21.0324
37.262585997426164 21.0371
37.28608223645736 21.0294
37.309763684451696 20.9567
37.33326318851098 20.8809
37.356764320726555 20.89
37.380267082425526 20.9103
37.40395510942588 20.8165
37.42746114683234 20.7536
37.45096881771841 20.7199
37.474478123414166 20.701999999999998
37.49817275092816 20.7177
37.52168534303452 20.6804
37.54519957395567 20.5751
37.568715445024665 20.5461
37.592416694607714 20.5375
37.61593586281424 20.5546
37.63945667518264 20.5258
37.66297913304891 20.4232
37.68668702630454 20.4751
37.710212792059274 20.3478
37.733740207334854 20.3118
37.757269273470364 20.2886
37.780983832050374 20.2803
37.80451621684926 20.3146
37.82805025654007 20.2263
37.851585952464795 20.2799
37.8753071980695 20.1772
37.89884622345676 20.1253
37.92238690911902 20.1461
37.94611318753442 20.117
37.969657210779765 20.067
37.99320289834801 19.9886
38.016750251586465 19.8995
38.04048325513017 19.9084
38.06403395679343 19.9124
38.087586328183946 19.8312
38.11114037065203 19.799
38.13488012115898 19.8438
38.1584375229181 19.7799
38.181996599821 19.7584
38.205557353221124 19.6906
38.229303872575656 19.7166
38.2528679961576 19.7196
38.27643380031219 19.6638
38.30000128639589 19.5834
38.32375459653193 19.5361
38.34732546371299 19.5501
38.37089801690786 19.4373
38.39447225747609 19.4407
38.418232380377425 19.4074
38.441810012983396 19.4554
38.46538933705673 19.3735
38.488970353960084 19.3463
38.51273731166058 19.3609
38.536321731567014 19.2728
38.55990784840681 19.2325
38.58367995004091 19.2008
38.60726947812959 19.1343
38.63086070726198 19.1483
38.654453638806274 19.1906
38.678232613930824 19.0868
38.70182896773327 19.0297
38.72542702806741 18.9977
38.7490267963045 19.0079
38.77281266709232 19.0572
38.79641586862214 18.9434
38.8200207821842 18.913
38.843627409152944 18.9185
38.86742019782782 18.8371
38.891030269149255 18.7988
38.914642058016156 18.8084
38.938255565806124 18.7515
38.96205529464307 18.7594
38.98567225787121 18.703
39.00929094417078 18.6355
39.03291135492255 18.6756
39.05671804624804 18.6088
39.080341923549106 18.5909
39.103967529460334 18.5402
39.127594865365744 18.4654
39.15140854155791 18.4997
39.17503935514948 18.4916
39.19867190290282 18.4334
39.22249083587951 18.4155
39.24612686969409 18.3844
39.269764641845306 18.3645
39.293404153722804 18.3886
39.317230110864074 18.2795
39.34087311998506 18.2368
39.36451787301696 18.2036
39.388164371352595 18.1135
39.41199737518003 18.1212
39.43564738196752 18.1657
39.45929913825317 18.1073
39.48295264543308 18.0857
39.506792718520884 18.0547
39.530449745387216 17.9882
39.55410852735203 18.0001
39.57776906581474 18.0318
39.60161623079 17.9307
39.625280300200025 17.863
39.64894613032202 17.8032
39.67261372255866 17.8731
39.6964680021016 17.9315
39.72013913657293 17.833
39.74381203738292 17.7525
39.76748670593756 17.7363
39.79134812278169 17.7169
39.81502634488497 17.7512
39.83870633896685 17.6753
39.862388106436654 17.6248
39.88625668336918 17.5502
39.90994201572829 17.6265
39.933629125719285 17.5641
39.957503091207826 17.5346
39.9811937746168 17.5103
40.00488623990914 17.486
40.02858048850006 17.4962
40.05246165409549 17.4299
40.076159487492085 17.3479
40.099859108448875 17.3962
40.123560518384345 17.3155
40.1474489070226 17.3461
40.171153913178564 17.2597
40.194860712584955 17.2425
40.2185693066637 17.2466
40.242464941335314 17.2041
40.26617714307655 17.2106
40.289891143772046 17.1122
40.3136069448471 17.0792
40.33750984859743 17.0847
40.3612292688043 16.9924
40.3849504936829 17.0167
40.40867352466194 17.1062
40.43258372059144 17.0159
40.45631038219906 16.9618
40.48003885420956 16.8833
40.503769138055105 16.9463
40.52768664931955 16.9084
40.55142057531802 16.9281
40.57515631746428 16.776
40.599079334038514 16.7832
40.62281872700477 16.7817
40.64655994043941 16.6856
40.67030297578061 16.6965
40.69423334835778 16.7037
40.71798004609188 16.6645
40.74172857006355 16.6182
40.76547892171441 16.6259
40.7894166736039 16.5867
40.813170699248566 16.5385
40.83692655691388 16.5422
40.86068424804498 16.5248
40.884629402612525 16.4255
40.908390779366385 16.4554
40.932153993938 16.461
40.95591904777605 16.405
40.979871628443995 16.4107
41.003640379561936 16.372
41.02741097430883 16.3098
41.05118341413683 16.3109
41.075143444384416 16.2645
41.098919593177826 16.2513
41.1226975914255 16.2444
41.14647744058318 16.2118
41.170444943946755 16.2154
41.19422851378379 16.2154
41.218013938914645 16.1047
41.24198706625173 16.0944
41.26577622087193 16.0415
41.289567235177785 16.0245
41.31336011063129 15.967
41.337340752422875 15.9396
41.361137369129835 15.9989
41.38493585138705 15.985
41.40873620066004 15.8883
41.43272438060107 15.8414
41.45652848292052 15.8547
41.48033445666918 15.7932
41.50414230331616 15.8214
41.528138045159764 15.7831
41.551949656675205 15.6925
41.575763145513235 15.7427
41.59957851314666 15.6845
41.62358184070442 15.6293
41.64740098505737 15.6679
41.6712220126409 15.6017
41.69504492493139 15.5442
41.71905586207357 15.5091
41.74288256296395 15.5207
41.766711153007456 15.5126
41.79054163368412 15.4996
41.814560204340054 15.4936
41.838394485526365 15.4866
41.86223066180303 15.4055
41.88625497706819 15.4163
41.910094962812 15.4089
41.93393684811168 15.3442
41.95778063445365 15.2963
41.981812625263366 15.2267
42.00566023303407 15.263
42.029509746323676 15.2045
42.05336116662236 15.1659
42.077400857069705 15.1613
42.10125611078846 15.1753
42.12511327600405 15.1085
42.14897235421036 15.1079
42.173019768448455 15.036
42.19688269209613 15.0185
42.22074753323349 15.0469
42.24461429335818 15.0217
42.268669455600495 14.9839
42.292540073217886 14.9847
42.31641261433284 14.946
42.34028708044675 14.8998
42.36435001496739 14.8866
42.38822835065557 14.8433
42.41210861586426 14.774000000000001
42.4359908120986 14.7656
42.46006154323262 14.77
42.48394762115317 14.739
42.507835634632315 14.6942
42.531912233047436 14.7372
42.55580413732265 14.725
42.579697981698 14.6355
42.60359376768525 14.6056
42.62767820545945 14.6151
42.65157789440821 14.6089
42.67547952952185 14.5619
42.699383112316 14.5519
42.72347541395347 14.4939
42.74738291190531 14.4215
42.771292362102166 14.447000000000001
42.795203766063516 14.4267
42.819303956130405 14.392000000000001
42.843219287476536 14.3782
42.86713657716324 14.3574
42.89105582671383 14.2781
42.91516392983864 14.2936
42.939087119032166 14.2596
42.963012272677304 14.2378
42.98693939230129 14.1803
43.01105543317513 14.1706
43.034986504731386 14.1637
43.05891954686589 14.1461
43.08285456110972 14.1987
43.10697856448665 14.0878
43.130917542983475 14.0627
43.15485849820081 14.1091
43.17880143167367 14.0413
43.20293342237094 13.9889
43.226880332449 13.94
43.25082922540554 13.9604
43.27496722682525 13.9622
43.29892010567796 13.9224
43.32287497204102 13.9045
43.34683182745632 13.8432
43.370977859791836 13.7983
43.39493871351105 13.7964
43.41890156092628 13.8285
43.44286640358341 13.7749
43.46702049182749 13.7419
43.49098934522816 13.7165
43.51496019852649 13.6658
43.5389330532723 13.6709
43.56309522248204 13.669
43.58707210044314 13.5739
43.61105098451946 13.569
43.63503187626491 13.5962
43.659202151562134 13.5192
43.68318707902681 13.5478
43.70717401884041 13.532
43.731162972560874 13.4775
43.75534137913236 13.472000000000001
43.779334381108384 13.4421
43.803329401683186 13.4376
43.82732644241872 13.3966
43.8515130055166 13.3909
43.87551410707659 13.312999999999999
43.89951723350145 13.3147
43.923709934595614 13.2956
43.94771713129917 13.34
43.97172635758096 13.2469
43.99573761501002 13.2224
44.0199385169922 13.2093
44.04395385732619 13.1223
44.067971233533086 13.1627
44.09199064718605 13.1637
44.11619977548961 13.0588
44.14022328470671 13.0926
44.16424883610785 13.1077
44.18827643127035 13.0588
44.21249381139513 13.0124
44.236525514814076 13.0181
44.26055926674478 13.037
44.28459506876863 12.9569
44.3088207262813 12.9106
44.33286064928722 12.8593
44.35690262714919 12.8632
44.38094666145278 12.8945
44.4051806219871 12.8392
44.42922879003185 12.7997
44.45327901929361 12.7983
44.477331311362136 12.7766
44.501573600619416 12.747
44.525630039221795 12.7064
44.54968854541895 12.6362
44.573937102200176 12.6598
44.5979997645541 12.6519
44.622064499300315 12.6247
44.64613130803592 12.6143
44.67038823869318 12.6336
44.69445921643748 12.5673
44.718532272981385 12.5151
44.742607409926194 12.5572
44.76687274034801 12.5185
44.79095205918753 12.4561
44.81503346325094 12.4461
44.839116954143876 12.4542
44.86339071028742 12.4576
44.88747839599524 12.3808
44.91156817336837 12.3871
44.93566004401666 12.3807
44.959942251908146 12.3554
44.984038330325966 12.2796
45.00813650686762 12.2524
45.03223678314731 12.2957
45.05652746888232 12.2576
45.08063196592069 12.2053
45.104738567558705 12.1703
45.128847275414856 12.2044
45.15314646515866 12.1574
45.17725940679741 12.1575
45.20137445952892 12.1452
45.22568004865265 12.1185
45.24979934496396 12.0676
45.27392075725247 12.0757
45.29804428714431 12.0506
45.322358426247604 11.9703
45.346486212804315 11.9473
45.370616121861914 11.9747
45.39474815505086 11.9919
45.41907087049246 11.9297
45.4432071734666 11.8843
45.46734560548283 11.9371
45.49148616817604 11.9073
45.51581748638564 11.8539
45.5399623320197 11.8501
45.56410931325473 11.7935
45.58825843173002 11.8022
45.61259837920865 11.7693
45.636751793816 11.7156
45.66090735060093 11.7046
45.68506505120716 11.7223
45.7094136545275 11.6952
45.73357566449271 11.6551
45.75773982322992 11.6494
45.78190613238733 11.6176
45.806263418194064 11.5945
45.83043404997326 11.6039
45.85460683713677 11.527000000000001
45.87897065658495 11.504000000000001
45.90314777634752 11.4764
45.92732705646868 11.4668
45.9515084986045 11.4958
45.97588104735473 11.4375
46.00006683541565 11.4455
46.02425479047904 11.3935
46.04844491420549 11.4163
46.0728262191024 11.3931
46.09702070211635 11.324000000000002
46.12121735879483 11.350999999999999
46.14541619080294 11.3081
46.169806278764455 11.2937
46.194009483459034 11.258
46.21821486849841 11.2402
46.24242243555223 11.2051
46.266821333570014 11.1813
46.29103328674601 11.181
46.31524742696538 11.1863
46.33946375590237 11.1502
46.36387149104216 11.1114
46.38809221957392 11.0837
46.41231514186606 11.0885
46.436540259597464 11.084000000000001
46.460956858999374 11.0347
46.48518638983522 11.0067
46.509418121166966 10.9909
46.533652054678114 10.9553
46.55807754555709 10.9901
46.58231590571962 10.9406
46.60655647313217 10.9107
46.630988654873654 10.8798
46.655233659129024 10.873
46.67948087571551 10.8538
46.70373030632484 10.8369
46.72817142736393 10.8319
46.752425308428684 10.7894
46.77668140861147 10.7634
46.80093972960865 10.7437
46.82538981736788 10.684000000000001
46.849652602470904 10.7223
46.87391761349769 10.6856
46.8981848521493 10.7089
46.9226439341274 10.6868
46.946915650573224 10.6655
46.97118959976749 10.6237
46.99546578341598 10.5964
47.019933887188216 10.5629
47.04421456235744 10.5621
47.06849747711879 10.5655
47.09278263318286 10.5526
47.11725978640143 10.5106
47.14154944775105 10.4329
47.165841355555656 10.4463
47.1901355115306 10.4245
47.214621741924994 10.4445
47.23892041698887 10.4099
47.26322134538975 10.417
47.28771440635075 10.425
47.31201986422527 10.4002
47.33632758061436 10.3382
47.360637557241866 10.2972
47.38513974410611 10.305
47.40945426407847 10.2295
47.43377104948137 10.2477
47.45809010204344 10.2844
47.48260144275502 10.2148
47.506925052572285 10.1785
47.53125093475548 10.1481
47.55557909103813 10.1438
47.58009961361992 10.1114
47.60443234110732 10.135
47.62876734791564 10.0743
47.65310463578333 10.0721
47.6776343683373 10.0185
47.7019762413987 10.0236
47.72632040075572 10.0127
47.75066684815169 10.0404
47.77520581885936 10.0034
47.799556865477655 9.97512
47.823910205386 9.965119999999999
47.84826584033272 9.95026
47.87281407745551 9.905439999999999
47.89717432569297 9.90276
47.92153687423484 9.90053
47.94609208429692 9.869060000000001
47.97045925671401 9.835339999999999
47.99482873471275 9.78398
48.01920052005013 9.806519999999999
48.04376504619224 9.76872
48.068141469543484 9.80374
48.09252020552573 9.77223
48.11690125590099 9.76908
48.1414751266064 9.745289999999999
48.16586082917454 9.74434
48.19024885144316 9.70247
48.2146391951793 9.72965
48.239222439012764 9.63901
48.26361744916137 9.60869
48.28801478610016 9.65179
48.31241445160131 9.61092
48.337007097209366 9.60148
48.36141144338331 9.57899
48.38581812345755 9.509160000000001
48.41022713920929 9.56162
48.434829215320704 9.54367
48.45924292604658 9.48241
48.48365897780325 9.48422
48.50807737237308 9.45382
48.532688907799276 9.45532
48.55711201168574 9.4414
48.581537463754074 9.40923
48.60615611725119 9.42119
48.63058628942721 9.394110000000001
48.65501881516546 9.36617
48.6794536962573 9.33863
48.70408185970339 9.35322
48.72852147531801 9.314919999999999
48.75296345168211 9.26118
48.77740779059232 9.30769
48.80204549302823 9.28733
48.82649458091802 9.25919
48.85094603676547 9.23172
48.87539986237231 9.21957
48.90004713292306 9.159880000000001
48.92450572200832 9.18164
48.94896668628025 9.145539999999999
48.97343002754588 9.11768
48.99808689542115 9.11921
49.02255501470614 9.1139
49.04702551642794 9.09565
49.0714984023988 9.08437
49.096164896893235 9.048160000000001
49.120642575466796 9.04018
49.145122643748394 9.04252
49.16960510355558 8.9659
49.19428125404938 8.965
49.2187685210852 8.991389999999999
49.243258185121555 8.92343
49.26794160167084 8.91555
49.2924360839405 8.92706
49.31693296869764 8.90094
49.34143225776915 8.88831
49.36612538195438 8.849839999999999
49.39062950396021 8.869580000000001
49.41513603578346 8.84605
49.4396449792564 8.80831
49.46434784069503 8.81655
49.488861631846454 8.77051
49.513377840166804 8.79579
49.537896467493745 8.7441
49.56260909589029 8.72823
49.587132585683285 8.753810000000001
49.611658500018365 8.700330000000001
49.636186840738596 8.7047
49.66090926588511 8.672
49.685442483902584 8.65449
49.70997813385706 8.626489999999999
49.734516217597076 8.6075
49.75924846937352 8.57735
49.7837914452858 8.57854
49.80833686055187 8.57944
49.83288471702571 8.54739
49.85762682540054 8.549489999999999
49.882179588965734 8.527619999999999
49.9067347993235 8.503639999999999
49.93129245833333 8.46688
49.95604445336378 8.45429
49.98060703442832 8.44011
50.005172069746266 8.424760000000001
50.02993150438364 8.44869
50.05450147301533 8.43871
50.07907390151433 8.40927
50.10364879174981 8.32421
50.12841816587289 8.33411
50.1529980044635 8.33704
50.17758031042124 8.28607
50.20216508562089 8.29176
50.22694442953363 8.2661
50.25153416817468 8.26585
50.27612638170508 8.245610000000001
50.300721072005196 8.19638
50.325510416102105 8.22814
50.350110084975064 8.187439999999999
50.37471223628208 8.208910000000001
50.39931687190919 8.17103
50.424116246675766 8.15868
50.44872587605249 8.16865
50.47333799543065 8.12476
50.49795260670191 8.121139999999999
50.52276204271512 8.08263
50.54738166295838 8.10656
50.57200378079314 8.10229
50.596628398116835 8.03894
50.62144792604559 8.01034
50.646077567609396 8.01004
50.670709714377715 8.01045
50.69553683636198 7.9565
50.72017401885922 7.99759
50.7448137122895 7.98235
50.76945591856022 7.93915
50.79429318636823 7.9394800000000005
50.818940443716784 7.919630000000001
50.84359021965163 7.880160000000001
50.868242516085964 7.908939999999999
50.893089960641895 7.86212
50.917747323549435 7.85533
50.94240721271973 7.822960000000001
50.96706963007175 7.78903
50.99192728239342 7.79712
51.01659478166073 7.78883
51.04126481489051 7.80437
51.06593738400761 7.784389999999999
51.090805275207074 7.756589999999999
51.11548294172845 7.73033
51.14016314993547 7.69948
51.164845901758845 7.70065
51.18972406304274 7.6680600000000005
51.21441192780656 7.642580000000001
51.23910234200271 7.65959
51.2637953075678 7.6612100000000005
51.288683770237945 7.6263
51.31338186432707 7.60647
51.33808251561888 7.57362
51.362978729967345 7.6005899999999995
51.387684521509755 7.56014
51.41239287610203 7.5274
51.437103795691165 7.514689999999999
51.46201036644977 7.50974
51.486726441956634 7.4877
51.51144508832545 7.51813
51.536166307509156 7.455310000000001
51.56108326624387 7.4593
51.58580965706056 7.45113
51.61053862657523 7.459239999999999
51.635270176746864 7.42428
51.66019755512065 7.42037
51.68493429268881 7.35775
51.70967361681515 7.38283
51.73441552946465 7.3699
51.759353359237934 7.35704
51.7841004750961 7.31995
51.80885018539685 7.30858
51.833602492111254 7.3093699999999995
51.8585508051424 7.244619999999999
51.883308330926425 7.242960000000001
51.90806845906181 7.236000000000001
51.932831191525715 7.246230000000001
51.95779001977161 7.20662
51.98255798721516 7.15636
52.00732856494335 7.1447199999999995
52.03229530577543 7.1616800000000005
52.057071130455945 7.14655
52.081849571391054 7.157780000000001
52.106630630568695 7.117189999999999
52.13160794279417 7.092389999999999
52.15639426492067 7.10752
52.18118321127822 7.09335
52.205974783860896 7.040260000000001
52.23096269971011 7.029669999999999
52.255759551287994 7.035760000000001
52.280559035098186 7.04075
52.30536115314103 7.0091600000000005
52.33035970494467 6.97623
52.35516711807904 6.97756
52.37997717147198 6.9859100000000005
52.40478986713005 6.95448
52.42979908731974 6.937360000000001
52.454617094216 6.87396
52.47943774942214 6.8536600000000005
52.50426105495102 6.844469999999999
52.529280976059844 6.86839
52.554109609024096 6.84168
52.57894089837482 6.8478699999999995
52.60377484613117 6.814889999999999
52.62880550079408 6.82563
52.65364479223379 6.8236300000000005
52.67848674816189 6.79708
52.70352547971946 6.73928
52.72837279155837 6.732639999999999
52.753222773982785 6.728110000000001
52.778075429022984 6.738860000000001
52.80312495150885 6.7628699999999995
52.827982978797436 6.68756
52.85284368481815 6.6552
52.87770707160767 6.658460000000001
52.90276741793998 6.67317
52.92763619336701 6.636760000000001
52.952507655698504 6.665260000000001
52.977381806977576 6.625769999999999
53.00245301017842 6.60752
53.02733256653592 6.585389999999999
53.052214817996074 6.57102
53.077099766608484 6.556769999999999
53.102181859804446 6.605339999999999
53.127072229988265 6.56605
53.15196530349892 6.51317
53.17686108239249 6.504519999999999
53.20195409881522 6.4933
53.22685531582556 6.47503
53.25175924441303 6.457269999999999
53.27666588664027 6.45276
53.30176985962693 6.417269999999999
53.3266819565689 6.44984
53.35159677336455 6.43136
53.376514312083096 6.42433
53.40162927507703 6.39304
53.42655228516116 6.39055
53.45147802340193 6.3472
53.47660125628886 6.35042
53.50153247842639 6.32452
53.52646643496923 6.30196
53.55140312799818 6.28266
53.576537409691696 6.2779300000000005
53.60147960336152 6.27259
53.626424539786164 6.26026
53.65137222105307 6.27405
53.67651758529126 6.26231
53.70147078399681 6.2006
53.72642673383343 6.17744
53.75138543689533 6.18375
53.776541917524526 6.17791
53.801506154876755 6.1843900000000005
53.826473151763246 6.13869
53.851442910284916 6.11425
53.87661054126026 6.12312
53.9015858509782 6.09469
53.92656392866066 6.062819999999999
53.95154477641532 6.08153
53.976723591801296 6.06963
54.00171000771266 6.00776
54.02669920004598 6.02861
54.051691170915745 6.01089
54.076881204886796 6.0160599999999995
54.101878760928514 6.05509
54.12687910187696 5.96306
54.152077577768296 5.93441
54.1770835166946 5.9042699999999995
54.20209224691339 5.93468
54.22710377055121 5.92556
54.25231352511594 5.94177
54.27733066384342 5.87881
54.30235060239643 5.93087
54.32737334290836 5.891719999999999
54.35259441062629 5.83073
54.377622783395324 5.804530000000001
54.40265396455061 5.829969999999999
54.42768795623251 5.804819999999999
54.45292037169559 5.7820800000000006
54.477960012857906 5.76412
54.50300247099511 5.7544
54.52804774825457 5.75622
54.55329154616743 5.70435
54.57834249018678 5.7020800000000005
54.6033962597977 5.68881
54.6284528571545 5.6664900000000005
54.653708072335164 5.65789
54.67877035378786 5.62375
54.70383546947698 5.60957
54.72890342156389 5.575830000000001
54.7541700889442 5.580080000000001
54.77924374251975 5.555619999999999
54.8043202390049 5.51285
54.82959552413022 5.45357
54.8546777351945 5.47847
54.87976279569621 5.491169999999999
54.90485070780914 5.44319
54.930137506558005 5.38845
54.95523115074295 5.43317
54.98032765308844 5.40795
55.005427015775496 5.3739
55.03072536339621 5.312880000000001
55.05583047570572 5.32565
55.080938454927676 5.30965
55.10604930325027 5.2839
55.131359235107396 5.28874
55.15647585066083 5.223330000000001
55.181595341907496 5.21761
55.20671771104285 5.18536
55.232039262617704 5.16129
55.25716741665048 5.19011
55.28229845518636 5.13694
55.30743238042802 5.11139
55.33276558731939 5.07437
55.357905315183636 5.0429
55.383047936390035 5.08191
55.40819345314859 5.00208
55.433538351073295 5.06083
55.458689688238415 5.0111300000000005
55.483843927614096 4.9830000000000005
55.509197623043605 4.91735
55.53435769621134 4.89329
55.55952067826466 4.86185
55.5846865714265 4.847980000000001
55.61005202069737 4.84181
55.63522376553902 4.8080099999999995
55.66039842818645 4.78714
55.68557601087004 4.83374
55.7109532500271 4.73756
55.73613670233794 4.72695
