TT I
1.2716486653135266 7.393039999999999
1.2939594142134223 7.20869
1.3162702121660406 6.82481
1.3385810600174564 5.99996
1.3608919586137629 7.02721
1.383202908801069 6.631010000000001
1.405513911425503 6.30319
1.4278249673332093 6.16251
1.4501343378461518 5.913069999999999
1.4724455028545926 5.71215
1.4947567236847858 5.415690000000001
1.517068001182951 5.97353
1.5393793361953272 5.64101
1.5616907295681737 5.87288
1.5840021821477681 6.04129
1.60631369478041 5.8282099999999994
1.6286252683124185 5.46539
1.6509369035901333 4.521669999999999
1.6732468618895553 5.10179
1.695558623192809 4.48424
1.7178704487808514 4.846019999999999
1.7401823395001077 4.59175
1.7625012545597203 4.67696
1.7848028405262486 4.72384
1.8071218901122095 4.805
1.8294236121921872 4.4529
1.8517427996910911 4.7598199999999995
1.8740620574440425 5.07132
1.8963639900671978 4.7870099999999995
1.9186833908139995 4.86794
1.9409854680117449 4.42208
1.9633050151394713 5.36731
1.9856246367570705 4.92476
2.0079269371922672 4.41747
2.03024671027244 5.33552
2.0525491637446027 5.11055
2.074869091674931 4.82061
2.097171701569106 5.20085
2.1194917877373847 4.9225900000000005
2.141811954326636 4.43194
2.164114805233074 4.69474
2.186435135143035 5.009469999999999
2.208738150935709 7.35255
2.231058647554722 11.9536
2.2533792288321184 10.5569
2.275682498336085 7.03569
2.298003251406138 5.7182
2.3203066942619714 6.18425
2.3426276225136022 5.07986
2.3649486396617507 5.83821
2.387252348930071 6.1675699999999996
2.4095735463442893 6.60728
2.4318774374315884 6.14389
2.4541988185014043 6.0784199999999995
2.476502894794693 7.30727
2.498824462909887 7.80191
2.521146125856138 7.74875
2.5434504863470337 7.912719999999999
2.5657723414244717 8.316880000000001
2.588076895590662 8.62083
2.610398946189713 8.46032
2.6327210958598384 8.6837
2.6550259469304716 8.43179
2.6773482972090137 8.68622
2.6996533504259 8.691410000000001
2.7219759047039602 8.96692
2.744298562293959 8.5129
2.7666039251246595 8.362
2.7889267918020164 8.6489
2.8112323652516555 8.50419
2.833555444408179 8.57132
2.8558786311183852 8.94401
2.8781845268938557 9.60172
2.9005079311721484 9.83835
2.9228140460410397 9.42346
2.9451376712799635 9.10862
2.967444008632326 9.325439999999999
2.9897678582247247 9.81824
3.0120918213106695 10.5584
3.0343984987899373 11.0196
3.0567226913198637 11.2062
3.079029599759726 11.8251
3.101354025127254 12.9096
3.123678568232338 13.2536
3.145985829517914 12.9671
3.16831061055229 13.3638
3.1906181112775593 14.5645
3.212943133635653 15.4969
3.2352682779763207 15.405
3.2575761442691227 15.5223
3.2799015350264273 16.0343
3.302209649240067 16.4307
3.3245352898092655 16.5676
3.3468436553365257 17.3184
3.369169549113219 17.6504
3.3914955708171384 18.4116
3.413804319727358 18.7916
3.4361305997334863 18.7431
3.4584396084414553 19.43
3.4807661501462652 20.4394
3.503092824025881 20.5076
3.5254022288463154 20.9904
3.5477291695206588 21.3888
3.5700388426251948 21.9712
3.5923660534916446 22.9572
3.6146934007816114 27.6485
3.637003482731501 41.4762
3.6593311053109985 43.655
3.681641464033634 33.0259
3.7039693653009733 25.9722
3.726297407241705 25.2149
3.7486081875460804 25.4161
3.7709365132734978 25.6422
3.793247578841633 26.1503
3.8155761917550093 26.4052
3.8378875459837216 26.8032
3.8602164494827234 27.2069
3.882545499606844 27.8837
3.9048572932539183 28.373
3.9271866390645718 28.8651
3.9494987298666713 29.3341
3.971828374764527 29.8199
3.9941581705403255 30.1909
4.016470713506008 31.0145
4.038800813471445 31.6672
4.061113662089144 32.5937
4.0834440696459176 33.2228
4.105774632334751 32.9378
4.128087945865126 34.2142
4.150418821249301 34.5218
4.172732448931298 35.6626
4.195063640413578 36.6415
4.2173775856475215 38.99
4.239709096631102 50.6168
4.262040768704612 98.4036
4.284355196706267 119.36399999999999
4.306687193387355 84.71799999999999
4.329001947444346 52.4994
4.35133427213731 44.318000000000005
4.373666762177566 43.4147
4.395982011761091 43.6549
4.418314834921175 44.0534
4.44063041906622 47.3855
4.4629635787515625 51.0833
4.4852969080429785 51.8125
4.5076130004776225 52.2823
4.529946671403969 58.8867
4.552263106909177 63.5767
4.574597122877047 59.3285
4.596931312711224 54.9862
4.619248269273446 53.5999
4.6415828092605835 54.0964
4.663900117405352 55.4912
4.686235010953232 56.7293
4.708552674085913 57.49
4.730887924602802 59.3693
4.753223354952695 61.6877
4.775541557023902 65.2098
4.797877349456786 69.2939
4.820195915032126 68.8976
4.842532072957498 68.1495
4.864868414979744 71.0055
4.88718753227192 75.9182
4.909524244902505 77.9398
4.931843734218147 76.8622
4.954180820867835 77.8019
4.976518095879839 80.4141
4.998838149695359 83.2213
5.021175803844231 87.4176
5.043496238205739 90.3287
5.065834274903528 94.2472
5.088172504230693 98.9244
5.1104935158799565 105.117
5.132832132875765 123.366
5.155153533596801 152.263
5.1774925416746225 182.63
5.199814334878411 339.954
5.2221537374521505 901.091
5.244493338631803 2762.93
5.266815727034316 8018.71
5.289155727832427 13347.1
5.311478517248165 8920.67
5.333818921080011 2726.74
5.356159527788849 512.602
5.3784829252032536 197.576
5.400823940070432 155.586
5.423147747031976 130.321
5.445489173474152 119.852
5.467830807066149 120.624
5.490155234831516 121.398
5.512497285125229 113.854
5.534822130975162 105.553
5.557164601388673 101.539
5.579489868738879 98.5775
5.601832762690846 96.8741
5.6241758697774475 95.9071
5.646501775867269 95.2645
5.668845311622074 94.2385
5.691171647754637 93.4065
5.713515615597765 92.7078
5.735859800852677 92.2737
5.758186788542988 94.5517
5.780531411018185 99.5684
5.802858837297399 99.8645
5.825203900414495 99.6809
5.8475491852224 104.025
5.869877275883075 103.07799999999999
5.892223006467101 97.264
5.914551544266608 93.7504
5.936897724049891 95.419
5.959244129804903 100.85700000000001
5.981573344815301 121.75299999999999
6.0039202049061 213.09099999999998
6.026249875609095 432.94199999999995
6.04859719346037 916.816
6.070927323278297 2237.14
6.093275102315365 4602.46
6.115623113320588 5178.61
6.137953938319995 3011.25
6.160302415650845 836.837
6.182633708324452 199.895
6.2049826554078376 106.021
6.227331838745022 88.3084
6.249663839443684 81.8389
6.27201349767565 78.5549
6.294345974611799 79.0578
6.316696111167083 80.6624
6.339046488263839 77.9048
6.361379686074702 72.6265
6.383730546639482 69.9158
6.406064229255215 69.5934
6.428415576718203 71.4654
6.450749747566656 69.8241
6.47310158535871 66.6201
6.495453669698332 64.667
6.517788579421056 63.7553
6.540141159237969 62.6829
6.562476565766648 62.2512
6.5848296444934045 62.2431
6.607182974060425 62.3902
6.6295191323281015 62.5497
6.651872965955752 62.5592
6.6742096296068985 69.4397
6.6965639707294615 81.9407
6.71891856698715 80.3542
6.741255995248479 67.8909
6.763611104154477 60.5151
6.785949046381137 58.6204
6.808304671371482 59.4058
6.8306605557940046 61.0692
6.852999275508618 59.9984
6.875355681171544 57.6347
6.897694923437771 56.1488
6.92005185377892 55.6625
6.9423916220322655 55.3991
6.964749080490181 54.5964
6.987106804399774 55.1188
7.009447368180821 55.6944
7.031805625367033 55.6474
7.054146723727803 54.8371
7.076505517631004 54.4888
7.098864581288365 54.3991
7.121206488070854 54.6548
7.143566093607822 55.2154
7.165908543567245 56.4221
7.188268694426048 56.7991
7.2106291193438095 55.4174
7.232972390625943 54.9094
7.255333366030969 58.713
7.277677189091925 73.9248
7.300038718428332 87.4697
7.322400526130865 77.9602
7.344745183422596 63.0775
7.367107550224791 55.6987
7.389452767901992 54.3371
7.411815697249891 53.722
7.434161478756298 53.1748
7.456524974096713 53.2512
7.478888753837185 53.0289
7.501235387657368 53.7852
7.523599738562711 53.4408
7.545946944825532 53.6551
7.568311870344528 54.0737
7.5906770845765665 54.1621
7.613025156078678 54.6139
7.635390950099687 55.4024
7.657739602662809 55.4813
7.680105979923558 55.8226
7.702472650212829 56.4145
7.724822180948224 56.3761
7.747189439655568 55.9026
7.769539560075357 55.4483
7.791907410653562 55.732
7.81425812420825 56.0227
7.836626570110925 56.0187
7.858995315087906 56.5473
7.881346924933401 56.9797
7.903716270417482 57.0983
7.926068482028405 57.458999999999996
7.948438431475253 58.3657
7.9708086843180235 58.7237
7.993161805171116 59.7741
8.015532667162402 60.4831
8.037886398416653 61.7709
8.060257873014221 62.1643
8.082629655331942 62.6681
8.104984308787587 63.8066
8.127356708900503 66.2126
8.149711981398308 70.2491
8.172085002766314 72.3989
8.194458336181368 69.9881
8.216814543847752 68.6097
8.23918850371002 68.5442
8.26154533906492 69.3704
8.283919928836452 70.955
8.306277395339652 72.0715
8.328652618483376 73.2515
8.351028159736202 75.3803
8.373386579575245 77.7659
8.395762759396959 79.4801
8.418121819038275 82.5818
8.440498640894003 88.4134
8.462875785192262 97.1439
8.485235811156207 116.273
8.507613602688501 160.039
8.529974277114228 238.605
8.552352719347912 366.416
8.574731488360351 636.836
8.59709314210385 1205.02
8.619472567021075 1934.96
8.64183487789147 2227.26
8.664214962183097 1721.32
8.686577933647762 867.418
8.708958680784317 327.543
8.731339760774953 148.775
8.753703729764451 105.988
8.77608547780821 96.3886
8.798450116065078 93.6
8.820832535634787 91.3971
8.843215292401656 91.9136
8.865580941199045 92.9192
8.887964374703538 92.1978
8.910330701447199 92.4426
8.932714815164482 91.9374
8.955099270424924 89.0532
8.977466620733543 86.0924
8.999851761421976 84.8276
9.022219798361645 83.381
9.04460562795561 83.1805
9.066991803441677 83.5572
9.089360876979615 84.10600000000001
9.111747746589993 83.6141
9.13411751544971 82.3277
9.156505082664324 81.6097
9.178875550323522 81.3957
9.20126381862328 81.6209
9.223652438908596 81.3568
9.246023961427412 81.458
9.26841328802173 81.6028
9.290785518039224 82.1387
9.313175554425882 84.9538
9.335565947154315 87.0815
9.357939245086508 87.5451
9.380330352834827 86.6613
9.40270436697103 86.079
9.425096193225055 85.6621
9.447488380180165 85.1017
9.469863475295412 83.8492
9.492256385987508 83.8505
9.514632206018318 84.6455
9.537025843935714 85.0288
9.559402392368193 86.4233
9.581796761000229 89.3632
9.604191496441521 92.2379
9.626569144158516 94.9063
9.648964615551032 95.6833
9.671343000390081 94.6111
9.693739211225699 92.9009
9.716135793237463 91.8497
9.738515290448102 92.8958
9.760912617143402 94.5117
9.783292860202891 96.8541
9.805690935076182 99.3017
9.828089385495742 100.45100000000001
9.850470754023561 101.227
9.872869957865444 103.91
9.89525208097539 109.079
9.917652041736662 114.19200000000001
9.940052382417589 120.244
9.962435644102392 140.601
9.984836746950979 176.14700000000002
10.007220771957746 233.86
10.029622640473708 332.673
10.052007432299963 516.21
10.074410069984072 837.669
10.096813093716005 1302.38
10.119199042482517 1802.76
10.141602840636468 1962.94
10.163989564971628 1476.59
10.186394141051062 794.4110000000001
10.208799107559706 345.545
10.231187001965623 169.227
10.253592751657669 120.06200000000001
10.275981430388155 109.684
10.298387966769793 107.57799999999999
10.320794897965431 107.536
10.343184759907361 105.899
10.36559248305461 103.288
10.387983138083852 103.259
10.410391656691655 108.03399999999999
10.432800574501677 117.206
10.455192425893369 131.167
10.47760214443012 157.987
10.499994797678786 205.37
10.522405320453982 292.112
10.54479877906917 410.82
10.567210109595656 545.061
10.5896218454736 581.304
10.612016518879773 482.68
10.634429067781074 322.783
10.656824555333241 182.59900000000002
10.679237920773568 115.241
10.701651695961992 92.8672
10.724048411481384 87.5333
10.746463008485165 85.1944
10.768860546937125 84.068
10.791275969274796 82.2358
10.81369180576079 80.8604
10.836090585366925 80.1905
10.858507252467449 79.146
10.88090686379991 77.9559
10.903324365036394 77.904
10.925724811614439 77.14399999999999
10.948143150509463 77.8165
10.970561909719066 77.3638
10.992963615930844 76.3423
11.015383218085756 75.1147
11.037785768347074 73.3892
11.06020621697282 72.0962
11.082627090322113 71.1297
11.105030913430326 70.6209
11.12745263854165 70.2889
11.149857314510728 70.9302
11.172279894912576 72.0886
11.194702904450653 71.8846
11.217108866490921 70.1798
11.239532736615194 68.74600000000001
11.26193956033512 67.9372
11.284364294577085 67.148
11.306789462371718 66.4321
11.329197585398376 65.9361
11.351623622610898 66.1511
11.37403261614354 65.2585
11.396459526308487 65.2575
11.418869393879497 64.9316
11.441297180532617 64.2919
11.463725406927658 63.9186
11.486136592353875 63.7703
11.508565700543707 63.7186
11.530977768845315 64.4165
11.553407762368774 64.3823
11.575838200059769 63.7485
11.598251599479612 63.0239
11.620682927815501 62.5284
11.64309721895548 62.5937
11.665529441478206 62.1
11.687962112597958 61.7589
11.710377748130886 62.2043
11.732811318753434 62.1001
11.755227854859067 61.9046
11.777662328529495 61.6821
11.800079768750786 61.8601
11.822515149015453 62.036
11.844950984084935 62.1129
11.867369787303163 61.9212
11.889806534289491 61.6753
11.912226250487029 61.8867
11.934663912939751 61.605
11.9571020346363 61.8571
11.979523127133968 62.3604
12.001962169624331 63.3798
12.024384183972964 64.3679
12.046824150809913 67.2747
12.069264581333726 71.4219
12.091687985297767 77.2133
12.11412934550045 86.6335
12.136553680195208 102.93799999999999
12.158995973632788 127.865
12.181438735204349 158.54399999999998
12.20386447284199 187.993
12.226308172985636 208.051
12.24873485024193 199.433
12.271179492516982 155.058
12.293607112949127 114.91
12.316052700916226 86.5844
12.338498763250042 71.2862
12.360927805303868 65.4415
12.383374818673879 63.9101
12.405804812803074 63.0008
12.428252780773262 63.0074
12.45070122756722 63.1223
12.473132656675375 63.3173
12.49558206341869 64.0353
12.518014453510101 64.4063
12.540464823770117 64.2741
12.562915677315177 64.2487
12.58534951575545 64.2975
12.607801338171472 64.6809
12.630236146511358 66.5797
12.652688941369085 68.4697
12.675124723177234 68.5873
12.697578494048786 67.9669
12.720032754458185 66.8693
12.742470003354093 66.4435
12.764925245138771 66.7573
12.787363476431278 67.1177
12.809819703166806 67.665
12.83227642391173 68.3658
12.854716135692716 69.2231
12.877173846755147 70.4947
12.899614549869717 70.8227
12.9220732548287 71.8993
12.94453245827299 72.5882
12.966974655289818 73.2779
12.989434858002571 73.9732
13.011878055298721 74.3597
13.034339260862497 75.1537
13.056800969391883 76.3334
13.079245674017244 78.9861
13.101708390774869 82.2232
13.12415410463411 89.3511
13.146617833206086 98.5628
13.169064559883248 108.47399999999999
13.191529303857127 123.417
13.213994557076367 147.213
13.236442809902437 186.354
13.258909083908291 246.215
13.28135835851934 314.347
13.30382565690295 385.621
13.326293469022952 437.24699999999996
13.348744283242008 417.06199999999995
13.371213125129904 338.086
13.39366497011003 234.50099999999998
13.416134845360597 156.53799999999998
13.438605238843131 115.801
13.46105863690397 103.133
13.483530069144786 103.111
13.505984506951902 107.78
13.528456981549432 118.272
13.550929978879088 133.846
13.573385983253365 159.386
13.595860028340867 202.012
13.618317081455832 258.41900000000004
13.64079217790333 321.30400000000003
13.663250283359057 367.608
13.685726434770173 380.077
13.708203115221277 324.33099999999996
13.730662806148091 246.727
13.75314054697177 170.98
13.775601299246777 118.712
13.798080104050406 93.1741
13.820559442405358 83.9041
13.843021793671388 80.3941
13.865502201420897 78.8977
13.887965623051947 78.6672
13.910447103807167 77.5874
13.932929122629764 76.2955
13.955394156785959 75.6591
13.977877254034569 74.8731
14.000343367582113 74.0594
14.022827546871707 73.4156
14.045294743423524 72.6729
14.06778000837062 72.0972
14.090265817715476 71.8905
14.112734645763819 71.3099
14.13522154619454 71.0953
14.157691466286913 70.8059
14.180179461423874 70.7799
14.202668005486178 70.3874
14.22513957064374 69.8805
14.247629214846473 69.2382
14.270101881097517 69.0962
14.29259262906496 68.9636
14.315083930490205 69.5434
14.337558255389705 69.2715
14.360050666019726 69.1954
14.382526101071944 68.8191
14.405019624534942 68.5523
14.427513705993134 68.0937
14.449990813291825 68.1502
14.47248601302899 67.8623
14.49496423954951 67.8152
14.517460561197822 67.8792
14.539939910570322 67.8318
14.562437357763558 67.8955
14.58493536931253 68.5589
14.607416409993311 68.8467
14.62991555254159 69.0862
14.652397725157423 69.1537
14.674898002342799 69.1466
14.697398848433282 69.5345
14.719882725991326 70.7408
14.74238471217934 72.2744
14.764869730765593 75.2143
14.787372860692983 77.6756
14.809876564079925 81.918
14.83236330125751 87.7121
14.854868153850365 96.2918
14.877356041159485 111.135
14.899862046604186 130.731
14.922351087688757 158.16
14.944858249632887 188.863
14.967365991421232 213.453
14.989856770231246 223.43400000000003
15.012365673994204 211.023
15.03485761569738 177.93099999999998
15.05736768508665 138.863
15.07987833888692 105.751
15.102372032001655 86.0652
15.124883856909658 74.8641
15.14737872204565 71.3052
15.169891721717274 69.9659
15.192405310371893 69.4245
15.214901940621196 69.0759
15.237416709527137 68.527
15.259914520936249 68.3039
15.282430473753607 67.4767
15.304947020131227 66.7235
15.327446610371178 66.4465
15.349964346154254 65.8689
15.372465126703139 65.6813
15.394984055556009 65.6106
15.417486030076159 65.5083
15.44000615566487 65.0953
15.462526881230803 64.8879
15.485030653812652 64.8954
15.507552581617434 64.8121
15.530057557334603 64.7369
15.55258069104857 64.6861
15.575104429329837 64.9549
15.597611216864632 64.7665
15.620136166564563 65.2957
15.6426441664095 66.7278
15.665170331202765 68.6067
15.687697105158826 71.2784
15.710206930593545 74.4872
15.732734925158933 78.431
15.755245972089478 85.1529
15.77777519094324 94.7912
15.800287463046663 108.6
15.822817909869592 128.89700000000002
15.84534897229804 151.745
15.867863089299354 175.887
15.890395385222186 192.481
15.912910736597423 193.247
15.935444269699861 176.78099999999998
15.957978423016485 145.674
15.980495633101265 113.76899999999999
16.003031029129367 89.1206
16.02554948280019 72.607
16.048086125229432 65.0875
16.070623392487107 62.8284
16.09314371869582 61.9786
16.11568223789321 61.0503
16.13820381691126 60.3786
16.160743591742527 59.9051
16.183283996022084 59.3108
16.205807461423195 58.4058
16.228349126881973 57.958999999999996
16.25087385432698 57.8867
16.27341678466365 57.1645
16.29594277784926 57.1015
16.31848697676433 56.8916
16.341031811604868 56.5865
16.36355971058487 56.7327
16.3861058195587 56.573
16.40863499352978 55.5811
16.431182380342005 55.2804
16.453730407713202 55.1205
16.476261501364792 54.8769
16.498810812136167 54.5668
16.52134319004079 54.71
16.54389378792203 54.3815
16.566445031001553 54.4014
16.588979342490088 54.4931
16.61153187824822 54.3073
16.634067483263312 54.0542
16.656621315414416 54.1385
16.679175797408888 53.8085
16.701713349928728 53.7039
16.72426913389191 53.9429
16.74680798922351 53.8415
16.76936507887444 53.9836
16.791905240734874 53.7546
16.814463639794468 53.5938
16.837022695210294 53.9247
16.859564824093756 53.9934
16.882125194503903 54.1978
16.904668639217885 54.6335
16.927230328348003 54.4448
16.949792678493612 54.6688
16.972338104193863 54.6697
16.994901778652235 54.4697
17.017448529496576 54.7829
17.040013531998152 55.0462
17.06257920018044 55.4559
17.0851279459922 56.2313
17.107694947817667 56.8731
17.130245028099072 57.6548
17.15281336730298 59.0397
17.17536478578733 60.7148
17.19793446610687 62.9936
17.220504818648422 66.1272
17.243058251703697 69.6438
17.265629950971032 74.3224
17.288184731571736 78.9373
17.310757781306908 82.0723
17.33333150794385 82.0422
17.355888317140174 79.9082
17.37846339986244 74.4523
17.401021565958885 68.4853
17.42359800851343 63.8353
17.44617513265564 60.6401
17.468735341390783 59.0693
17.491261035594565 58.3217
17.51396340099364 58.1181
17.536490463869136 58.2612
17.559018209820174 57.965
17.58154663977963 58.3793
17.604251766089718 58.5768
17.626781572227713 58.8914
17.64931206518155 58.8032
17.671843245885103 59.4504
17.69455114821572 59.2845
17.717083712612634 59.5948
17.739616967569667 59.7425
17.762150914021706 60.0783
17.78486160749854 60.5931
17.807396945166804 61.4594
17.829932977143503 62.3225
17.85246970436452 63.9269
17.875183204129467 65.3363
17.897721330097664 67.0902
17.920260154126645 69.3876
17.942799677153296 72.4561
17.9655159983646 76.4104
17.988056927677544 82.2382
18.010598558807683 90.4146
18.033140892692916 101.238
18.05586005052525 112.98200000000001
18.07840379824407 123.855
18.10094825154059 133.226
18.12366954819864 137.503
18.146215420998306 134.181
18.16876200220057 124.801
18.191309292745153 111.025
18.214033452627167 98.6212
18.236582170236648 88.5161
18.259131600016456 84.7468
18.281681742907335 85.9464
18.304408781233683 90.7781
18.32696035875955 96.5459
18.349512652227624 100.84899999999999
18.372065662579683 105.48299999999999
18.394795594587553 104.583
18.41735004715306 99.1701
18.43990521943684 91.4371
18.46246111238171 82.1374
18.485193953325208 73.73
18.507751296070428 67.7053
18.530309362314178 64.0431
18.552868153000343 62.2729
18.57560391815056 61.0702
18.59816416623245 60.8069
18.620725141597372 60.1513
18.643286845190268 59.5112
18.666025549835414 59.3971
18.688588718427933 58.6919
18.711152618092243 58.5955
18.73389353884365 58.3944
18.75645890921984 58.0094
18.77902501351406 57.81
18.801591852673102 57.7661
18.824335739722738 57.1446
18.846904057212626 57.1941
18.8694731124168 56.8505
18.89204290628315 56.7415
18.914789774966803 56.6373
18.937361054791623 56.4372
18.959933076131318 56.06100000000001
18.982505839934877 56.1466
19.00525570560582 56.0233
19.027829963004184 55.7092
19.05040496572238 55.8855
19.072980714710468 55.8768
19.095733592739563 56.2635
19.11831084296757 56.2272
19.140888842324735 56.6881
19.16346759176222 56.8476
19.18622349753803 57.3418
19.208803755869358 58.2677
19.231384767143577 59.6977
19.253966532312948 61.3195
19.276725481241822 63.3981
19.29930876296784 66.1969
19.3218928014549 69.1229
19.34465404436217 71.8035
19.36723960516257 73.8462
19.389825925592426 74.3514
19.412413006605938 72.8265
19.43517731967805 69.527
19.457765930683355 65.1226
19.48035530514408 60.745
19.50294544401556 57.3979
19.525712842708348 55.1584
19.54830451925909 54.0789
19.570896963095727 53.0827
19.593490175174704 53.0033
19.616260674962184 53.0034
19.638855432416964 52.7633
19.661450960992624 53.1083
19.68404726164677 52.8507
19.706820878021247 52.4297
19.729418731756834 52.623999999999995
19.752017360452857 52.2819
19.77461676506804 52.6201
19.797393513540218 52.9147
19.819994478951667 53.2102
19.84259622316767 53.4811
19.8651987471481 53.6939
19.887978643247177 54.0496
19.91058273574792 54.5722
19.933187610901943 55.1642
19.955969879466828 56.6385
19.97857632894404 58.3871
20.00118356396599 60.0354
20.023791585494575 62.3405
20.046577028914875 64.9319
20.069186632506966 67.2466
20.091797025500632 69.0053
20.114408208858933 69.3213
20.137196842715273 67.9601
20.159809615886765 66.4857
20.18242318232135 63.8842
20.20503754298326 62.1433
20.227829382875154 61.2713
20.250445341109344 61.5801
20.27306209647285 62.4203
20.29567964993108 63.8362
20.31847471147704 64.6369
20.34109387027612 64.9736
20.363713830075454 63.888000000000005
20.386334591841646 62.4687
20.409132890679302 59.3517
20.431755265564437 56.357
20.454378445325528 53.7198
20.477002430930366 51.9761
20.499803982716553 51.0281
20.522429589228004 50.0871
20.54505600449589 49.9077
20.567683229489194 49.9428
20.590488049900088 49.5689
20.61311690359731 49.2306
20.63574656993626 49.2068
20.658553853717297 48.8767
20.681185154618298 48.903999999999996
20.703817271080066 48.7196
20.72645020407368 48.5172
20.749260783967177 48.2884
20.771895359337133 48.2329
20.794530754161617 48.0419
20.817166969412938 47.9779
20.83998086114876 48.1647
20.86261872660049 47.9618
20.885257415405402 47.8532
20.90789692853701 48.0239
20.930714147864748 47.8231
20.953355319030678 47.7773
20.97599731745334 47.8704
20.99864014410749 47.6673
21.021460706796564 47.8816
21.044105199328826 48.0731
21.06675052302631 48.2228
21.089396678865015 48.2712
21.112220600704806 48.667
21.134868430275347 49.2019
21.15751709492456 49.4464
21.180166595629693 49.7499
21.202993892429635 50.2606
21.22564507473034 50.4553
21.24829709602816 50.6028
21.27112693608965 50.6069
21.293780644891275 50.585
21.316435195634053 49.867
21.339090589297417 49.1446
21.361923832041875 48.6758
21.384580921090404 48.1124
21.407238856007325 47.5814
21.429897637773326 47.5312
21.45273429906592 47.5829
21.475394784108598 47.6353
21.498056118951983 47.5999
21.520718304578022 47.6944
21.543558400304388 48.0531
21.566222297108816 48.1859
21.58888704765135 48.2894
21.61155265291521 48.5483
21.63439619898156 48.8619
21.657063523335786 49.0075
21.67973170537063 49.5772
21.7024007460706 50.0781
21.72524775840385 50.8171
21.747918526116475 52.0122
21.770590155457388 53.1369
21.79326264741238 54.9201
21.816113141960237 56.9237
21.838787368860547 58.9481
21.861462461341976 60.8642
21.884315579735777 62.7368
21.90699241312273 63.5072
21.92967011506078 63.5023
21.95234868653799 63.0542
21.9752053151131 61.4001
21.997885635446785 59.593
22.020566828293532 57.5779
22.04324889464272 56.3111
22.066109049404666 55.4356
22.088792872571794 55.2942
22.111477572219204 55.3046
22.1341631493376 55.4366
22.157026846313123 54.7077
22.179714188221507 54.0255
22.202402410582668 52.9307
22.22509151438863 51.4637
22.24795876962584 50.3545
22.270649646204486 49.3403
22.293341407213727 48.7192
22.316034053646906 48.3611
22.338904883215342 48.2226
22.36159931041458 48.2514
22.38429462602756 48.0574
22.40699083104897 47.8854
22.429865251039757 47.7728
22.452563244831367 47.8458
22.47526213102522 47.8456
22.49813925616515 47.7892
22.520839937143307 47.6974
22.543541513520587 47.9292
22.56624398629403 47.7089
22.589124730075895 47.6848
22.611829005656723 47.9891
22.63453418063466 47.9867
22.657240256008077 47.9874
22.680124634582935 48.1226
22.70283252079775 48.3725
22.725541310413075 48.6519
22.74825100442868 48.7881
22.771139033969575 49.3376
22.79385054687155 49.657
22.81656296718292 50.3736
22.83927629590484 51.2014
22.862167992606945 52.3147
22.88488314827121 53.4148
22.907599215359284 54.549
22.93031619487366 55.6463
22.953211574954405 56.4843
22.975930389478226 56.9455
22.998650119445763 56.8927
23.02137076586092 56.0175
23.044269845560063 54.4341
23.06699233506288 52.7764
23.089715744034912 51.3619
23.112617610931565 49.8221
23.135342869061212 48.6753
23.158069049684816 48.048
23.1807961538087 47.9893
23.20370174880544 47.9981
23.226430710184808 48.0297
23.249160598093425 48.1042
23.271891413539002 47.9824
23.294800752937697 48.0444
23.31753343374794 48.2477
23.340267045128353 48.2139
23.36300158808808 48.5074
23.38591468821339 49.003
23.408651104658304 49.5426
23.431388455719986 50.0885
23.454126742409 50.8459
23.4770436196085 51.9907
23.499783787914662 53.4015
23.522524894889884 54.5633
23.54526694154616 55.6085
23.56818761219047 56.5495
23.59093154860734 56.7493
23.613676427751283 56.9032
23.636422250635754 55.8624
23.659346731118656 53.9942
23.68209445191868 52.099
23.704843119509587 50.1675
23.72759273490623 48.2539
23.750521041644767 47.1427
23.77327256312355 46.1932
23.796025035462787 45.7059
23.818956224555475 45.3521
23.841710609113413 45.4145
23.86446594758979 45.141999999999996
23.887222241002014 44.8543
23.910157285144578 44.3176
23.932915498962537 44.4253
23.955674670778713 44.1994
23.978434801611975 44.2391
24.001373717286125 43.8101
24.024135776723917 43.9238
24.046898798245582 43.7924
24.06966278287146 43.7393
24.092605586582614 43.4389
24.115371508023642 43.508
24.1381383956401 43.162
24.16090625045381 43.1884
24.183852958731244 43.0463
24.206622758582608 42.9567
24.229393528706886 42.843
24.252165270127392 42.986000000000004
24.27511589952438 42.8544
24.297889594216997 42.8003
24.32066426328598 42.5015
24.34343990775613 42.6334
24.36639447485003 42.5737
24.38917208083877 42.4641
24.41195066531332 42.3774
24.43490819850244 42.5718
24.457688750692377 42.3636
24.48047028445616 42.2597
24.503252800821233 42.2945
24.526214300784112 42.5214
24.548998793132213 42.5441
24.57178427117417 42.3522
24.59457073593893 42.34
24.617536219319863 42.2661
24.64032466834748 42.2976
24.663114107195035 42.1886
24.685904536893013 41.7708
24.708874020360852 41.7926
24.731666442613744 41.8666
24.754459858818787 41.5105
24.777254270007962 41.5531
24.80022777025625 41.6248
24.82302418230472 41.4289
24.845821592443674 41.4101
24.86862000170663 41.4544
24.891597535453727 41.4177
24.914397953892728 41.5857
24.93719937456671 41.5157
24.96000179851076 41.5891
24.98298338249997 41.8091
25.00578782394922 41.9848
25.028593271784167 42.2237
25.05157790644186 42.4504
25.07438537804115 42.6574
25.097193859145293 42.9043
25.120003350792075 43.2164
25.142992065061257 43.51
25.165803588823465 43.6353
25.18861612625217 43.7838
25.211429678386736 43.8441
25.234422489079968 43.9426
25.257238081693636 44.0478
25.280054692141732 44.2588
25.3028723214652 44.211999999999996
25.325869245420463 44.4454
25.348688923599397 44.2864
25.371509623787006 43.9738
25.394331347025812 43.6694
25.41733240110666 43.0853
25.440156181590016 42.4952
25.46298098826268 42.037
25.48580682216873 41.6161
25.50881202326435 40.9707
25.53163992281684 40.4921
25.55446885274561 40.465
25.577298814096377 40.2812
25.600308179121807 40.2137
25.623140214533745 40.2907
25.64597328451537 40.0828
25.66898578564376 39.7231
25.691820936010206 39.8268
25.714657124097695 39.6822
25.737494350954734 39.8774
25.760511045684957 39.6744
25.783350361364224 39.8165
25.806190718969255 39.8779
25.82903211955018 39.9764
25.852053024868923 39.9517
25.874896522722523 39.8609
25.897741066713106 39.7894
25.920586657892454 40.0067
25.943611790812668 40.2413
25.966459487728237 40.3822
25.989308234998564 40.404
26.01215803367705 40.7541
26.03518741123814 40.9251
26.05803932412957 40.931999999999995
26.080892291600094 40.9602
26.10374631470478 41.0191
26.12677995397268 41.0632
26.14963609978026 40.9254
26.172493304397875 40.6028
26.19535156888223 40.2909
26.218389486949604 39.9554
26.241249882640123 39.8622
26.26411134137826 39.5718
26.28715248187403 39.5479
26.31001607820869 39.4318
26.3328807407756 39.2336
26.35574647063438 39.4394
26.37879191991473 39.4664
26.401659795896734 39.4335
26.424528742360263 39.5753
26.447398760366614 39.7556
26.470448535598294 39.9927
26.49332070826805 40.0381
26.516193955675355 40.3534
26.53906827888316 40.5728
26.562122397260108 40.6867
26.584998883685063 41.1688
26.607876449110325 41.3478
26.63075509460056 41.5007
26.65381357334404 41.5257
26.67669439061878 41.5117
26.699576291163382 41.31100000000001
26.722459276044212 41.215
26.745522132402975 41.0295
26.768407297649354 40.6378
26.791293550442003 40.319
26.814180891848974 40.1139
26.837248143099337 39.9156
26.860137673466657 39.7697
26.88302829566349 39.5341
26.90592001075963 39.3798
26.92899167420566 39.1178
26.951885586870763 38.7849
26.974780595655517 38.5929
26.99785558178161 38.4645
27.020752794605112 38.2909
27.043651106772522 38.2925
27.06655051935668 38.1367
27.089629948036183 38.0494
27.112531573292053 38.1261
27.135434302194138 38.1099
27.158338135817015 37.9522
27.181422024430987 37.9492
27.204328079372566 37.8386
27.22723524226965 37.9961
27.250143514198573 37.8479
27.273231880156334 37.8661
27.296142382065014 37.6894
27.319053996245536 37.7376
27.341966723775965 37.7849
27.365059584515222 37.8646
27.38797455070062 37.9254
27.410890633481237 37.8324
27.433807833936918 37.8048
27.456905206923906 37.9156
27.47982465472398 37.8609
27.502745223449743 37.8904
27.525666914182825 37.9468
27.548768816912457 37.8778
27.571692763693633 37.9041
27.59461783573812 37.7372
27.617723149491244 37.6106
27.640650484125285 37.4457
27.66357894728264 37.4426
27.686508540048052 37.5275
27.709618414237887 37.3269
27.732550278321757 37.1993
27.755483275279115 37.2213
27.778417406196485 37.2728
27.801531858397514 37.3379
27.824468269376716 37.1155
27.847405817586786 37.1198
27.870344504116094 37.4195
27.893463551932008 37.5026
27.916404527281053 37.6787
27.93934664422563 37.7989
27.962289903855886 37.8064
27.98541356491974 38.1361
28.00835912214229 38.2728
28.03130582533231 38.4032
28.054253675581805 38.4926
28.077381967556104 38.3159
28.100332124185126 38.3055
28.123283431160893 38.2788
28.146235889577238 38.1319
28.169368830154156 37.8845
28.192323603752033 37.6957
28.215279532083304 37.3275
28.238415973016764 37.2151
28.261374223145094 37.1881
28.284333631303806 37.0202
28.307294198589954 36.8325
28.330435319167677 36.4811
28.353398217078915 36.3405
28.376362277420153 36.069
28.39932750129032 35.9686
28.422473319286713 35.782
28.44544088262495 35.7482
28.468409612800283 35.5149
28.491379510913497 35.3788
28.51453004413313 35.3504
28.53750229057244 35.2853
28.56047570826344 35.2652
28.583450298308804 35.3344
28.606605564586562 35.121
28.629582511831156 35.0862
28.65256063474956 34.9796
28.675539934446338 34.9066
28.698699951647605 34.9852
28.72168161743193 34.9134
28.74466446331978 34.9156
28.767648490417624 34.8389
28.790813276438353 34.8465
28.813799678527303 34.8498
28.836787265157085 34.8261
28.859955641890075 34.8878
28.882945610203045 34.8638
28.905936766392035 34.8105
28.928929111566863 34.8052
28.952102288520145 34.7113
28.975097024308607 34.5476
28.998092952423807 34.3455
29.021090073977508 34.3586
29.04426806913204 34.2973
29.067267590245258 34.1941
29.090268308143695 33.9688
29.11327022394099 33.97
29.13645305530891 33.893
29.159457379627167 33.8315
29.18246290519685 33.8035
29.20546963313352 33.7729
29.22865731875826 33.7035
29.25166646419296 33.8756
29.27467681535305 33.5709
29.29768837335608 33.7935
29.320880931312562 33.7766
29.34389491580634 33.6627
29.366910110507334 33.8083
29.38992651653503 33.7474
29.41312396492981 33.6036
29.436142806456754 33.5831
29.45916286268059 33.5024
29.48236399319994 33.4183
29.50538649169417 33.2966
29.528410208259935 33.1265
29.55143514402014 32.8951
29.574641196749695 32.8975
29.597668583816574 32.8018
29.6206971934585 32.5443
29.64372702680042 32.5356
29.666938019934474 32.4872
29.689970313635285 32.399
29.713003834422636 32.4366
29.73603858342347 32.3711
29.759254535188578 32.296
29.78229175361658 32.3176
29.80533020365064 32.304
29.82836988641968 32.2306
29.85159081507472 32.1705
29.874632976355343 32.2313
29.89767637376955 32.2595
29.920721008448314 32.1119
29.9439469322847 32.1076
29.96699405457564 32.1567
29.9900424175358 32.0249
30.013092022298157 31.9051
30.03632295963995 31.9114
30.059375061131373 31.9931
30.08242840783577 31.8675
30.105483000888153 31.9727
30.128718970092244 31.8863
30.151776069006917 31.9435
30.17483441768648 31.9134
30.198074175317235 31.81
30.221135036724256 31.8652
30.24419715131772 31.7745
30.267260520236203 31.7508
30.290505341942243 31.8517
30.313571232750228 31.8348
30.336638381310948 31.6684
30.35970678876503 31.8047
30.38295669299435 31.6928
30.40602763151657 31.6729
30.429099832366074 31.5999
30.452173296685572 31.5369
30.47542830191959 31.5142
30.498504306502497 31.379
30.521581577995562 31.5735
30.544660117543582 31.5931
30.56792024229725 31.8212
30.59100133132069 31.6406
30.614083691845494 31.6198
30.637167325018545 31.7283
30.660432587840603 31.8256
30.683518779717886 31.6848
30.70660624769615 31.7793
30.729694992924372 31.6034
30.75296541239743 31.5727
30.77605672557558 31.6599
30.799149319462742 31.6339
30.8224236211637 31.453000000000003
30.845518789950724 31.4432
30.868615242910597 31.2635
30.891712981195973 31.1401
30.91499247215866 31.0808
30.938092794619365 31.0036
30.96119440587579 30.956
30.984297307082752 30.9006
31.00758200598383 30.7674
31.030687500658694 30.6819
31.053794288760695 30.6109
31.076902371446767 30.586
31.100192296997445 30.6937
31.12330298246119 30.6066
31.14641496599209 30.4974
31.169528248749216 30.4305
31.19282341969534 30.4021
31.215939314557186 30.4499
31.239056512134788 30.4573
31.262175013589378 30.4086
31.28547544871168 30.4163
31.30859657161541 30.4438
31.331719001892175 30.3841
31.35484274070538 30.3751
31.378148458819545 30.3726
31.401274828443725 30.3905
31.424402510106933 30.5383
31.447712205419993 30.5441
31.470842524931633 30.3202
31.493974159989783 30.3607
31.51710711176168 30.3153
31.54042212308802 30.3448
31.563557722100917 30.2251
31.586694641341655 30.1174
31.609832881979628 30.0079
31.63315322823208 29.9686
31.656294125521327 29.7618
31.679436347728515 29.7998
31.70257989602529 29.6629
31.725905596152327 29.6572
31.74905181052835 29.6492
31.772199354521323 29.7494
31.79534822930507 29.6894
31.818679302290967 29.6049
31.84183085259981 29.5477
31.864983737233473 29.585
31.88813795736804 29.622
31.911474422233013 29.6009
31.934631327356435 29.5504
31.9577895715215 29.511999999999997
31.980949155906522 29.5235
32.004291031706956 29.5488
32.027453310562606 29.4027
32.05061693318573 29.3357
32.07396288236386 29.1975
32.09712920658542 29.221
32.12029687812702 29.0104
32.14346589817093 29.0081
32.166817291729984 28.9994
32.18998902288583 28.9506
32.21316210610336 28.8767
32.23633654256711 28.7343
32.259693399663725 28.7401
32.282870556771144 28.6177
32.30604907069099 28.7087
32.329228942610065 28.6011
32.35259128243769 28.4604
32.375773884550505 28.4537
32.398957848235646 28.4104
32.422143174682176 28.3735
32.445511016471215 28.2844
32.468699082679954 28.238000000000003
32.49188851523011 28.2085
32.51507931531304 28.1474
32.538452678331 28.1148
32.56164622776311 28.0287
32.58484114831493 28.0077
32.60803744118015 28.0885
32.631416344731896 27.9594
32.654615396551876 28.035
32.67781582427913 28.0217
32.701198898634416 27.8465
32.72440209253756 27.855999999999998
32.747606665947124 27.8592
32.77081262006088 27.7482
32.79420126883317 27.6709
32.81740999876112 27.6264
32.840620112999424 27.5388
32.86383161274818 27.5674
32.88722585534586 27.5634
32.91044014056596 27.6652
32.933655814909734 27.4736
32.95687287957963 27.5483
32.98027273544904 27.4463
33.00349259526636 27.3152
33.026713849030116 27.4835
33.04993649794511 27.4737
33.073341986570746 27.403000000000002
33.09656744032826 27.4052
33.11979429286444 27.3934
33.14302254538647 27.3504
33.166433686291185 27.1898
33.18966475336992 27.2334
33.212897224069096 27.1401
33.23613109959831 27.1317
33.259547912343415 27.1524
33.2827846121627 27.1516
33.306022720453775 27.0152
33.32926223842861 26.9594
33.352684742614166 26.997
33.37592709463173 26.9044
33.399170859982064 26.8377
33.422597648419426 26.7428
33.44584425514446 26.6478
33.46909227885668 26.6163
33.4923417207723 26.5454
33.51577423505344 26.5749
33.539026528130385 26.5279
33.56228024307245 26.5167
33.585535381098246 26.3763
33.60897364093058 26.2788
33.63223163992385 26.3218
33.6554910656699 26.275
33.678751919389796 26.2465
33.702195944520106 26.1666
33.72545966903325 26.1379
33.74872482519663 26.0905
33.771991414233746 26.1115
33.79544122444841 26.0709
33.81871069412428 26.0005
33.84198160035767 25.9533
33.86525394437455 25.9623
33.88870955949969 25.9156
33.911984794020626 25.8963
33.93526147001624 25.8427
33.958539588715006 25.7667
33.98200102861669 25.7303
34.0052820477047 25.6575
34.02856451319451 25.6293
34.05203033759056 25.5558
34.07531571090147 25.5361
34.09860253431845 25.5417
34.121890809074316 25.4682
34.145362493118924 25.4703
34.16865368561615 25.4805
34.191946333164054 25.3377
34.21524043699793 25.3275
34.23871800066799 25.3745
34.26201503218366 25.2543
34.28531352370466 25.2667
34.30861347646881 25.1803
34.33209693978188 25.13
34.3553998301885 25.0226
34.378704185565205 25.0238
34.402010007152356 24.968000000000004
34.42549939016683 24.9744
34.44880815937748 24.9527
34.472118398533134 24.8769
34.49543010887669 24.8331
34.51892543169198 24.6739
34.54224009966052 24.7306
34.56555624255917 24.7277
34.58887386163339 24.6183
34.61237514439016 24.5603
34.6356957311114 24.5554
34.65901779775809 24.5417
34.68252356662995 24.5943
34.705848608458616 24.4819
34.72917513396849 24.3954
34.75250314440949 24.3796
34.77601490857862 24.3759
34.799345904259795 24.3281
34.82267838863559 24.3
34.846012362958525 24.2025
34.869530142679984 24.264
34.89286711232212 24.1772
34.91620557568269 24.1814
34.93954553401677 24.1296
34.9630693495876 24.041999999999998
34.986412313340814 24.0955
35.00975677584668 24.1715
35.033102738362956 24.1062
35.05663261012228 23.9885
35.0799815881786 23.985
35.10333207003229 23.9359
35.12668405694369 23.9254
35.150220005273056 23.8479
35.17357501786656 23.8581
35.19693153931268 23.8384
35.220289570874385 23.6882
35.24383161619786 23.7327
35.267192683604904 23.779
35.290555264930376 23.7285
35.314101899412165 23.7205
35.33746752422433 23.6559
35.36083466676374 23.6451
35.38420332829803 23.6135
35.407756095629054 23.7251
35.43112781085063 23.5708
35.45450104888391 23.5633
35.477875810999194 23.5681
35.50143473172161 23.4937
35.52481255774625 23.4951
35.54819191167777 23.3886
35.57157279478914 23.3379
35.595137889488406 23.3357
35.61852184675279 23.3307
35.641907337029984 23.2736
35.665294361595684 23.1668
35.68886565090076 23.1827
35.7122557598848 23.1666
35.73564740699838 23.0698
35.759040593519934 23.0177
35.78261809810353 22.973000000000003
35.80601437933051 22.9449
35.829412203814705 22.9524
35.85281157283719 22.8689
35.876395313415884 22.9438
35.8997977874528 22.7913
35.92320180988546 22.7594
35.946790244133936 22.7734
35.97019737933222 22.7724
35.993606066789866 22.7291
36.01701630779276 22.6761
36.04061101440684 22.583000000000002
36.06402437852291 22.6781
36.08743930005611 22.5963
36.1108557802951 22.5251
36.13445678011326 22.5311
36.15787639383515 22.4863
36.18129757014299 22.3835
36.20472031032821 22.3862
36.22832762423364 22.3483
36.25175350829375 22.3336
36.275180960119776 22.2472
36.298609981005924 22.2709
36.32222362992669 22.3068
36.34565580510207 22.2462
36.36908955323448 22.1441
36.39252487562093 22.0515
36.416144880530226 22.1197
36.43958336764275 22.0583
36.463023432914625 22.1217
36.486465077645676 22.0138
36.51009145956204 22.028000000000002
36.53353627947859 21.9875
36.55698268276811 21.9115
36.58043067073321 21.8814
36.60406345072071 21.8104
36.62751462435344 21.8402
36.65096738658405 21.8576
36.67460498210655 21.7583
36.69806093788647 21.7164
36.72151848619297 21.6168
36.744977628333636 21.7276
36.76862165890998 21.5851
36.79208400512205 21.5585
36.81554794910557 21.6237
36.83901349217101 21.519000000000002
36.862663978991606 21.4839
36.88613273667352 21.4193
36.90960309738324 21.4914
36.933075062434064 21.3632
36.95673202673572 21.3571
36.98020721697122 21.3045
37.003684015502365 21.2746
37.027162423645365 21.2224
37.050825886711465 21.2024
37.07430753063053 21.1343
37.09779078812467 21.0793
37.121275660513014 21.1224
37.144945643673694 21.1139
37.16843376245278 21.0378
37.19192350009803 21.0134
37.215414857931435 20.944000000000003
37.239091382563885 20.899
37.262585997426164 20.8982
37.28608223645736 20.8889
37.309763684451696 20.8612
37.33326318851098 20.781999999999996
37.356764320726555 20.7564
37.380267082425526 20.729
37.40395510942588 20.7515
37.42746114683234 20.6922
37.45096881771841 20.5994
37.474478123414166 20.6888
37.49817275092816 20.6323
37.52168534303452 20.57
37.54519957395567 20.4491
37.568715445024665 20.4943
37.592416694607714 20.4422
37.61593586281424 20.4629
37.63945667518264 20.4667
37.66297913304891 20.4042
37.68668702630454 20.4023
37.710212792059274 20.2492
37.733740207334854 20.198
37.757269273470364 20.1901
37.780983832050374 20.2228
37.80451621684926 20.1568
37.82805025654007 20.117
37.851585952464795 20.1075
37.8753071980695 19.9812
37.89884622345676 19.9515
37.92238690911902 20.007
37.94611318753442 19.9902
37.969657210779765 19.9493
37.99320289834801 19.936
38.016750251586465 19.8216
38.04048325513017 19.8159
38.06403395679343 19.8168
38.087586328183946 19.7627
38.11114037065203 19.7519
38.13488012115898 19.7583
38.1584375229181 19.6944
38.181996599821 19.5935
38.205557353221124 19.5959
38.229303872575656 19.5703
38.2528679961576 19.5482
38.27643380031219 19.5086
38.30000128639589 19.4721
38.32375459653193 19.4886
38.34732546371299 19.4643
38.37089801690786 19.4029
38.39447225747609 19.3295
38.418232380377425 19.3707
38.441810012983396 19.3362
38.46538933705673 19.3021
38.488970353960084 19.2404
38.51273731166058 19.1212
38.536321731567014 19.155
38.55990784840681 19.1551
38.58367995004091 19.0865
38.60726947812959 19.0419
38.63086070726198 19.0371
38.654453638806274 19.0568
38.678232613930824 18.9991
38.70182896773327 18.967
38.72542702806741 18.9779
38.7490267963045 18.9453
38.77281266709232 18.8262
38.79641586862214 18.8328
38.8200207821842 18.8387
38.843627409152944 18.8808
38.86742019782782 18.7781
38.891030269149255 18.7044
38.914642058016156 18.6996
38.938255565806124 18.6629
38.96205529464307 18.6211
38.98567225787121 18.6057
39.00929094417078 18.629
39.03291135492255 18.6302
39.05671804624804 18.5755
39.080341923549106 18.5042
39.103967529460334 18.4704
39.127594865365744 18.4735
39.15140854155791 18.3604
39.17503935514948 18.3768
39.19867190290282 18.3323
39.22249083587951 18.3039
39.24612686969409 18.3413
39.269764641845306 18.2996
39.293404153722804 18.2932
39.317230110864074 18.0954
39.34087311998506 18.0535
39.36451787301696 18.1798
39.388164371352595 18.1216
39.41199737518003 18.1277
39.43564738196752 18.0249
39.45929913825317 17.9363
39.48295264543308 18.0102
39.506792718520884 17.9345
39.530449745387216 17.9247
39.55410852735203 17.9228
39.57776906581474 17.9127
39.60161623079 17.8717
39.625280300200025 17.8812
39.64894613032202 17.8161
39.67261372255866 17.8426
39.6964680021016 17.7966
39.72013913657293 17.7467
39.74381203738292 17.7271
39.76748670593756 17.7125
39.79134812278169 17.6483
39.81502634488497 17.6181
39.83870633896685 17.5543
39.862388106436654 17.5763
39.88625668336918 17.4958
39.90994201572829 17.4767
39.933629125719285 17.4533
39.957503091207826 17.4291
39.9811937746168 17.4855
40.00488623990914 17.3813
40.02858048850006 17.355
40.05246165409549 17.2751
40.076159487492085 17.2546
40.099859108448875 17.2832
40.123560518384345 17.1924
40.1474489070226 17.2202
40.171153913178564 17.1684
40.194860712584955 17.1772
40.2185693066637 17.1641
40.242464941335314 17.0573
40.26617714307655 17.1062
40.289891143772046 17.0217
40.3136069448471 17.0019
40.33750984859743 16.9866
40.3612292688043 16.9593
40.3849504936829 16.944000000000003
40.40867352466194 16.9477
40.43258372059144 16.9389
40.45631038219906 16.9507
40.48003885420956 16.852999999999998
40.503769138055105 16.8527
40.52768664931955 16.8039
40.55142057531802 16.8154
40.57515631746428 16.7236
40.599079334038514 16.6791
40.62281872700477 16.6723
40.64655994043941 16.6723
40.67030297578061 16.637
40.69423334835778 16.5893
40.71798004609188 16.5834
40.74172857006355 16.5048
40.76547892171441 16.5256
40.7894166736039 16.5313
40.813170699248566 16.4657
40.83692655691388 16.4273
40.86068424804498 16.4609
40.884629402612525 16.404
40.908390779366385 16.3697
40.932153993938 16.3305
40.95591904777605 16.3206
40.979871628443995 16.326
41.003640379561936 16.3188
41.02741097430883 16.2453
41.05118341413683 16.2392
41.075143444384416 16.2357
41.098919593177826 16.1798
41.1226975914255 16.1367
41.14647744058318 16.1417
41.170444943946755 16.0578
41.19422851378379 16.0154
41.218013938914645 15.9981
41.24198706625173 15.9801
41.26577622087193 15.9849
41.289567235177785 15.9225
41.31336011063129 15.9661
41.337340752422875 15.9101
41.361137369129835 15.8986
41.38493585138705 15.7841
41.40873620066004 15.7586
41.43272438060107 15.7981
41.45652848292052 15.7987
41.48033445666918 15.7299
41.50414230331616 15.7413
41.528138045159764 15.6962
41.551949656675205 15.6585
41.575763145513235 15.6035
41.59957851314666 15.5886
41.62358184070442 15.5501
41.64740098505737 15.5369
41.6712220126409 15.5126
41.69504492493139 15.5417
41.71905586207357 15.4289
41.74288256296395 15.4003
41.766711153007456 15.4594
41.79054163368412 15.4254
41.814560204340054 15.3576
41.838394485526365 15.3437
41.86223066180303 15.2853
41.88625497706819 15.2686
41.910094962812 15.2949
41.93393684811168 15.2319
41.95778063445365 15.1747
41.981812625263366 15.1723
42.00566023303407 15.1377
42.029509746323676 15.1144
42.05336116662236 15.1247
42.077400857069705 15.1187
42.10125611078846 15.0797
42.12511327600405 15.0435
42.14897235421036 14.994000000000002
42.173019768448455 15.0347
42.19688269209613 14.9586
42.22074753323349 14.9489
42.24461429335818 14.8777
42.268669455600495 14.8886
42.292540073217886 14.91
42.31641261433284 14.8416
42.34028708044675 14.8158
42.36435001496739 14.7983
42.38822835065557 14.8359
42.41210861586426 14.757
42.4359908120986 14.7541
42.46006154323262 14.695
42.48394762115317 14.6178
42.507835634632315 14.6241
42.531912233047436 14.5928
42.55580413732265 14.514000000000001
42.579697981698 14.5197
42.60359376768525 14.525
42.62767820545945 14.5384
42.65157789440821 14.550999999999998
42.67547952952185 14.4637
42.699383112316 14.4693
42.72347541395347 14.4322
42.74738291190531 14.3575
42.771292362102166 14.3991
42.795203766063516 14.342
42.819303956130405 14.3239
42.843219287476536 14.2954
42.86713657716324 14.2505
42.89105582671383 14.2447
42.91516392983864 14.1767
42.939087119032166 14.1772
42.963012272677304 14.1544
42.98693939230129 14.1164
43.01105543317513 14.1433
43.034986504731386 14.0726
43.05891954686589 14.0728
43.08285456110972 14.0296
43.10697856448665 14.0252
43.130917542983475 13.9358
43.15485849820081 13.949000000000002
43.17880143167367 13.9383
43.20293342237094 13.894
43.226880332449 13.886
43.25082922540554 13.9167
43.27496722682525 13.872
43.29892010567796 13.8093
43.32287497204102 13.7867
43.34683182745632 13.7656
43.370977859791836 13.7498
43.39493871351105 13.7416
43.41890156092628 13.7347
43.44286640358341 13.7179
43.46702049182749 13.681
43.49098934522816 13.6405
43.51496019852649 13.669
43.5389330532723 13.6389
43.56309522248204 13.5924
43.58707210044314 13.4977
43.61105098451946 13.4778
43.63503187626491 13.4898
43.659202151562134 13.4345
43.68318707902681 13.477
43.70717401884041 13.475999999999999
43.731162972560874 13.4459
43.75534137913236 13.3395
43.779334381108384 13.3382
43.803329401683186 13.3315
43.82732644241872 13.3624
43.8515130055166 13.3231
43.87551410707659 13.2713
43.89951723350145 13.2573
43.923709934595614 13.2175
43.94771713129917 13.229000000000001
43.97172635758096 13.2017
43.99573761501002 13.1737
44.0199385169922 13.1692
44.04395385732619 13.1228
44.067971233533086 13.1184
44.09199064718605 13.049000000000001
44.11619977548961 13.0659
44.14022328470671 13.0314
44.16424883610785 13.0352
44.18827643127035 12.9997
44.21249381139513 12.9982
44.236525514814076 12.9537
44.26055926674478 12.9024
44.28459506876863 12.892000000000001
44.3088207262813 12.872
44.33286064928722 12.8857
44.35690262714919 12.8274
44.38094666145278 12.8335
44.4051806219871 12.7928
44.42922879003185 12.7711
44.45327901929361 12.7619
44.477331311362136 12.7451
44.501573600619416 12.6712
44.525630039221795 12.6235
44.54968854541895 12.6302
44.573937102200176 12.595
44.5979997645541 12.5894
44.622064499300315 12.5852
44.64613130803592 12.5805
44.67038823869318 12.5758
44.69445921643748 12.4994
44.718532272981385 12.4359
44.742607409926194 12.4173
44.76687274034801 12.402999999999999
44.79095205918753 12.4249
44.81503346325094 12.3459
44.839116954143876 12.4001
44.86339071028742 12.3956
44.88747839599524 12.3642
44.91156817336837 12.3054
44.93566004401666 12.2677
44.959942251908146 12.2377
44.984038330325966 12.2442
45.00813650686762 12.1875
45.03223678314731 12.2282
45.05652746888232 12.2406
45.08063196592069 12.1641
45.104738567558705 12.1592
45.128847275414856 12.0891
45.15314646515866 12.026
45.17725940679741 12.0411
45.20137445952892 12.0623
45.22568004865265 12.0625
45.24979934496396 12.0098
45.27392075725247 11.9767
45.29804428714431 11.9526
45.322358426247604 11.9813
45.346486212804315 11.9039
45.370616121861914 11.866
45.39474815505086 11.8909
45.41907087049246 11.8708
45.4432071734666 11.8305
45.46734560548283 11.8278
45.49148616817604 11.8332
45.51581748638564 11.7846
45.5399623320197 11.7737
45.56410931325473 11.6868
45.58825843173002 11.694
45.61259837920865 11.7144
45.636751793816 11.6665
45.66090735060093 11.6209
45.68506505120716 11.6058
45.7094136545275 11.6336
45.73357566449271 11.5776
45.75773982322992 11.6073
45.78190613238733 11.5843
45.806263418194064 11.5217
45.83043404997326 11.502
45.85460683713677 11.5026
45.87897065658495 11.4498
45.90314777634752 11.4515
45.92732705646868 11.4322
45.9515084986045 11.4067
45.97588104735473 11.3795
46.00006683541565 11.3416
46.02425479047904 11.315
46.04844491420549 11.3347
46.0728262191024 11.2864
46.09702070211635 11.2582
46.12121735879483 11.25
46.14541619080294 11.2482
46.169806278764455 11.2544
46.194009483459034 11.2189
46.21821486849841 11.1642
46.24242243555223 11.1673
46.266821333570014 11.155
46.29103328674601 11.089
46.31524742696538 11.1362
46.33946375590237 11.0831
46.36387149104216 11.0573
46.38809221957392 11.0242
46.41231514186606 11.0045
46.436540259597464 10.991
46.460956858999374 10.9904
46.48518638983522 10.9849
46.509418121166966 10.9513
46.533652054678114 10.9171
46.55807754555709 10.8906
46.58231590571962 10.9435
46.60655647313217 10.8333
46.630988654873654 10.8246
46.655233659129024 10.812999999999999
46.67948087571551 10.783
46.70373030632484 10.7598
46.72817142736393 10.7809
46.752425308428684 10.7676
46.77668140861147 10.732999999999999
46.80093972960865 10.6903
46.82538981736788 10.6714
46.849652602470904 10.6625
46.87391761349769 10.6009
46.8981848521493 10.6108
46.9226439341274 10.6169
46.946915650573224 10.5378
46.97118959976749 10.5521
46.99546578341598 10.5625
47.019933887188216 10.5723
47.04421456235744 10.4997
47.06849747711879 10.5128
47.09278263318286 10.4398
47.11725978640143 10.4608
47.14154944775105 10.4652
47.165841355555656 10.4372
47.1901355115306 10.4007
47.214621741924994 10.3859
47.23892041698887 10.3683
47.26322134538975 10.3425
47.28771440635075 10.3109
47.31201986422527 10.3474
47.33632758061436 10.2886
47.360637557241866 10.2518
47.38513974410611 10.2324
47.40945426407847 10.2166
47.43377104948137 10.2029
47.45809010204344 10.1852
47.48260144275502 10.1733
47.506925052572285 10.1825
47.53125093475548 10.1033
47.55557909103813 10.1175
47.58009961361992 10.0713
47.60443234110732 10.0882
47.62876734791564 10.0607
47.65310463578333 10.0249
47.6776343683373 9.99956
47.7019762413987 9.97574
47.72632040075572 9.96275
47.75066684815169 9.97815
47.77520581885936 9.902460000000001
47.799556865477655 9.93372
47.823910205386 9.926110000000001
47.84826584033272 9.908
47.87281407745551 9.87205
47.89717432569297 9.86828
47.92153687423484 9.86031
47.94609208429692 9.814039999999999
47.97045925671401 9.80875
47.99482873471275 9.75785
48.01920052005013 9.75131
48.04376504619224 9.736089999999999
48.068141469543484 9.73961
48.09252020552573 9.68768
48.11690125590099 9.718869999999999
48.1414751266064 9.70185
48.16586082917454 9.66656
48.19024885144316 9.624239999999999
48.2146391951793 9.61693
48.239222439012764 9.587819999999999
48.26361744916137 9.59003
48.28801478610016 9.58206
48.31241445160131 9.57815
48.337007097209366 9.59335
48.36141144338331 9.549439999999999
48.38581812345755 9.48679
48.41022713920929 9.49041
48.434829215320704 9.4874
48.45924292604658 9.466289999999999
48.48365897780325 9.44823
48.50807737237308 9.4162
48.532688907799276 9.40833
48.55711201168574 9.40897
48.581537463754074 9.364289999999999
48.60615611725119 9.34379
48.63058628942721 9.33733
48.65501881516546 9.32588
48.6794536962573 9.30659
48.70408185970339 9.26876
48.72852147531801 9.237210000000001
48.75296345168211 9.23361
48.77740779059232 9.19555
48.80204549302823 9.20619
48.82649458091802 9.1897
48.85094603676547 9.171
48.87539986237231 9.146980000000001
48.90004713292306 9.13846
48.92450572200832 9.10922
48.94896668628025 9.105319999999999
48.97343002754588 9.06473
48.99808689542115 9.07313
49.02255501470614 9.06953
49.04702551642794 9.04764
49.0714984023988 9.04684
49.096164896893235 8.98353
49.120642575466796 8.98745
49.145122643748394 8.98222
49.16960510355558 8.95717
49.19428125404938 8.95838
49.2187685210852 8.93915
49.243258185121555 8.91423
49.26794160167084 8.8812
49.2924360839405 8.84353
49.31693296869764 8.84141
49.34143225776915 8.8694
49.36612538195438 8.81332
49.39062950396021 8.810939999999999
49.41513603578346 8.81241
49.4396449792564 8.783439999999999
49.46434784069503 8.74292
49.488861631846454 8.69692
49.513377840166804 8.697289999999999
49.537896467493745 8.66821
49.56260909589029 8.65443
49.587132585683285 8.6423
49.611658500018365 8.62802
49.636186840738596 8.61912
49.66090926588511 8.58151
49.685442483902584 8.60788
49.70997813385706 8.560889999999999
49.734516217597076 8.57714
49.75924846937352 8.58334
49.7837914452858 8.55689
49.80833686055187 8.49915
49.83288471702571 8.486310000000001
49.85762682540054 8.48512
49.882179588965734 8.46378
49.9067347993235 8.45174
49.93129245833333 8.44999
49.95604445336378 8.41695
49.98060703442832 8.37895
50.005172069746266 8.40804
50.02993150438364 8.39211
50.05450147301533 8.36082
50.07907390151433 8.36635
50.10364879174981 8.333169999999999
50.12841816587289 8.33818
50.1529980044635 8.2786
50.17758031042124 8.26919
50.20216508562089 8.253169999999999
50.22694442953363 8.22505
50.25153416817468 8.24274
50.27612638170508 8.18954
50.300721072005196 8.17157
50.325510416102105 8.18422
50.350110084975064 8.17995
50.37471223628208 8.15805
50.39931687190919 8.13301
50.424116246675766 8.12093
50.44872587605249 8.07209
50.47333799543065 8.07957
50.49795260670191 8.05892
50.52276204271512 8.01946
50.54738166295838 8.00191
50.57200378079314 8.02877
50.596628398116835 8.00895
50.62144792604559 8.00704
50.646077567609396 7.98525
50.670709714377715 7.98385
50.69553683636198 7.94292
50.72017401885922 7.9199
50.7448137122895 7.907719999999999
50.76945591856022 7.89549
50.79429318636823 7.8716800000000005
50.818940443716784 7.871739999999999
50.84359021965163 7.86388
50.868242516085964 7.836180000000001
50.893089960641895 7.79968
50.917747323549435 7.78605
50.94240721271973 7.79409
50.96706963007175 7.74741
50.99192728239342 7.76841
51.01659478166073 7.801660000000001
51.04126481489051 7.7333300000000005
51.06593738400761 7.7361
51.090805275207074 7.71475
51.11548294172845 7.689019999999999
51.14016314993547 7.67157
51.164845901758845 7.66984
51.18972406304274 7.62943
51.21441192780656 7.58045
51.23910234200271 7.63325
51.2637953075678 7.60128
51.288683770237945 7.563460000000001
51.31338186432707 7.56941
51.33808251561888 7.5406699999999995
51.362978729967345 7.533110000000001
51.387684521509755 7.52185
51.41239287610203 7.53125
51.437103795691165 7.443169999999999
51.46201036644977 7.464180000000001
51.486726441956634 7.46807
51.51144508832545 7.45477
51.536166307509156 7.445130000000001
51.56108326624387 7.4149899999999995
51.58580965706056 7.38501
51.61053862657523 7.397639999999999
51.635270176746864 7.3860399999999995
51.66019755512065 7.38155
51.68493429268881 7.30998
51.70967361681515 7.316910000000001
51.73441552946465 7.297160000000001
51.759353359237934 7.30245
51.7841004750961 7.304869999999999
51.80885018539685 7.259239999999999
51.833602492111254 7.22198
51.8585508051424 7.221989999999999
51.883308330926425 7.237539999999999
51.90806845906181 7.2191
51.932831191525715 7.1809899999999995
51.95779001977161 7.13647
51.98255798721516 7.153410000000001
52.00732856494335 7.10697
52.03229530577543 7.126930000000001
52.057071130455945 7.094860000000001
52.081849571391054 7.08833
52.106630630568695 7.07799
52.13160794279417 7.057230000000001
52.15639426492067 7.05865
52.18118321127822 7.0186399999999995
52.205974783860896 7.0225100000000005
52.23096269971011 7.03043
52.255759551287994 6.96145
52.280559035098186 7.00351
52.30536115314103 6.942360000000001
52.33035970494467 6.95637
52.35516711807904 6.939839999999999
52.37997717147198 6.9111899999999995
52.40478986713005 6.922789999999999
52.42979908731974 6.887510000000001
52.454617094216 6.84735
52.47943774942214 6.84768
52.50426105495102 6.85263
52.529280976059844 6.83247
52.554109609024096 6.834169999999999
52.57894089837482 6.784160000000001
52.60377484613117 6.811610000000001
52.62880550079408 6.790889999999999
52.65364479223379 6.80348
52.67848674816189 6.698910000000001
52.70352547971946 6.74412
52.72837279155837 6.726710000000001
52.753222773982785 6.69473
52.778075429022984 6.69463
52.80312495150885 6.690119999999999
52.827982978797436 6.6999699999999995
52.85284368481815 6.622560000000001
52.87770707160767 6.6413899999999995
52.90276741793998 6.633589999999999
52.92763619336701 6.583089999999999
52.952507655698504 6.5774
52.977381806977576 6.560339999999999
53.00245301017842 6.58113
53.02733256653592 6.55757
53.052214817996074 6.58294
53.077099766608484 6.563960000000001
53.102181859804446 6.5374300000000005
53.127072229988265 6.51264
53.15196530349892 6.49038
53.17686108239249 6.488580000000001
53.20195409881522 6.48651
53.22685531582556 6.46991
53.25175924441303 6.38779
53.27666588664027 6.4124300000000005
53.30176985962693 6.37828
53.3266819565689 6.36645
53.35159677336455 6.38481
53.376514312083096 6.38162
53.40162927507703 6.37562
53.42655228516116 6.31621
53.45147802340193 6.29085
53.47660125628886 6.3243
53.50153247842639 6.30002
53.52646643496923 6.31947
53.55140312799818 6.29779
53.576537409691696 6.2556199999999995
53.60147960336152 6.2160400000000005
53.626424539786164 6.22564
53.65137222105307 6.19145
53.67651758529126 6.23266
53.70147078399681 6.20937
53.72642673383343 6.14124
53.75138543689533 6.13748
53.776541917524526 6.1565199999999995
53.801506154876755 6.129519999999999
53.826473151763246 6.14463
53.851442910284916 6.10726
53.87661054126026 6.072430000000001
53.9015858509782 6.06009
53.92656392866066 6.06463
53.95154477641532 6.03247
53.976723591801296 6.01409
54.00171000771266 6.01049
54.02669920004598 6.04916
54.051691170915745 5.9766
54.076881204886796 5.97254
54.101878760928514 5.98589
54.12687910187696 5.98664
54.152077577768296 5.9282699999999995
54.1770835166946 5.89999
54.20209224691339 5.92075
54.22710377055121 5.8907300000000005
54.25231352511594 5.88259
54.27733066384342 5.88805
54.30235060239643 5.8534
54.32737334290836 5.87326
54.35259441062629 5.82217
54.377622783395324 5.77799
54.40265396455061 5.82449
54.42768795623251 5.79217
54.45292037169559 5.74337
54.477960012857906 5.7516
54.50300247099511 5.71286
54.52804774825457 5.70645
54.55329154616743 5.65726
54.57834249018678 5.644769999999999
54.6033962597977 5.63212
54.6284528571545 5.62387
54.653708072335164 5.61688
54.67877035378786 5.59762
54.70383546947698 5.51928
54.72890342156389 5.55845
54.7541700889442 5.4874
54.77924374251975 5.55227
54.8043202390049 5.4726099999999995
54.82959552413022 5.45728
54.8546777351945 5.47853
54.87976279569621 5.42298
54.90485070780914 5.44965
54.930137506558005 5.38797
54.95523115074295 5.338369999999999
54.98032765308844 5.362019999999999
55.005427015775496 5.35567
55.03072536339621 5.352930000000001
55.05583047570572 5.29058
55.080938454927676 5.26475
55.10604930325027 5.24249
55.131359235107396 5.2451
55.15647585066083 5.20587
55.181595341907496 5.18297
55.20671771104285 5.139130000000001
55.232039262617704 5.14104
55.25716741665048 5.19516
55.28229845518636 5.118130000000001
55.30743238042802 5.07937
55.33276558731939 5.07528
55.357905315183636 5.06267
55.383047936390035 4.995080000000001
55.40819345314859 4.97891
55.433538351073295 4.99316
55.458689688238415 4.9762699999999995
55.483843927614096 4.99642
55.509197623043605 4.88912
55.53435769621134 4.84704
55.55952067826466 4.81381
55.5846865714265 4.808669999999999
55.61005202069737 4.81921
55.63522376553902 4.82637
55.66039842818645 4.77463
55.68557601087004 4.81506
55.7109532500271 4.66436
55.73613670233794 4.70078
