TT I
1.2716486653135266 8.05128
1.2939594142134223 7.47968
1.3162702121660406 7.43772
1.3385810600174564 7.28224
1.3608919586137629 7.23694
1.383202908801069 7.1426
1.405513911425503 7.02968
1.4278249673332093 6.95395
1.4501343378461518 6.75948
1.4724455028545926 7.17524
1.4947567236847858 6.91281
1.517068001182951 6.7796199999999995
1.5393793361953272 5.88101
1.5616907295681737 6.4553400000000005
1.5840021821477681 5.97314
1.60631369478041 5.767930000000001
1.6286252683124185 5.9836800000000006
1.6509369035901333 5.69687
1.6732468618895553 5.53209
1.695558623192809 4.88301
1.7178704487808514 5.24688
1.7401823395001077 5.29955
1.7625012545597203 5.82643
1.7848028405262486 5.51251
1.8071218901122095 5.71192
1.8294236121921872 5.25654
1.8517427996910911 5.18665
1.8740620574440425 5.11875
1.8963639900671978 4.96901
1.9186833908139995 5.1811300000000005
1.9409854680117449 5.32495
1.9633050151394713 5.3242199999999995
1.9856246367570705 4.98977
2.0079269371922672 5.07444
2.03024671027244 5.19358
2.0525491637446027 5.25141
2.074869091674931 4.73848
2.097171701569106 4.371659999999999
2.1194917877373847 4.91094
2.141811954326636 4.72159
2.164114805233074 4.53924
2.186435135143035 4.872319999999999
2.208738150935709 4.89761
2.231058647554722 4.25425
2.2533792288321184 3.7946400000000002
2.275682498336085 4.63387
2.298003251406138 4.31818
2.3203066942619714 4.59351
2.3426276225136022 4.7098
2.3649486396617507 4.65409
2.387252348930071 4.57514
2.4095735463442893 4.463
2.4318774374315884 4.65613
2.4541988185014043 4.5117199999999995
2.476502894794693 5.27614
2.498824462909887 5.227119999999999
2.521146125856138 4.63099
2.5434504863470337 5.0747599999999995
2.5657723414244717 5.4844
2.588076895590662 5.78025
2.610398946189713 5.59596
2.6327210958598384 5.502190000000001
2.6550259469304716 5.7509
2.6773482972090137 5.56387
2.6996533504259 5.90327
2.7219759047039602 6.23988
2.744298562293959 7.083639999999999
2.7666039251246595 5.80609
2.7889267918020164 6.23153
2.8112323652516555 6.87098
2.833555444408179 7.17035
2.8558786311183852 7.40746
2.8781845268938557 8.157919999999999
2.9005079311721484 8.47823
2.9228140460410397 8.39863
2.9451376712799635 9.16489
2.967444008632326 9.550289999999999
2.9897678582247247 9.64945
3.0120918213106695 10.1305
3.0343984987899373 10.321
3.0567226913198637 10.8088
3.079029599759726 11.1395
3.101354025127254 12.4802
3.123678568232338 12.5783
3.145985829517914 13.5312
3.16831061055229 13.6745
3.1906181112775593 13.9701
3.212943133635653 14.815999999999999
3.2352682779763207 14.9706
3.2575761442691227 15.7142
3.2799015350264273 16.1087
3.302209649240067 16.4004
3.3245352898092655 16.848
3.3468436553365257 17.2779
3.369169549113219 17.9339
3.3914955708171384 18.5556
3.413804319727358 18.768
3.4361305997334863 19.2118
3.4584396084414553 19.7003
3.4807661501462652 20.3789
3.503092824025881 21.1398
3.5254022288463154 20.8436
3.5477291695206588 21.4543
3.5700388426251948 21.9863
3.5923660534916446 22.6463
3.6146934007816114 22.6518
3.637003482731501 22.8803
3.6593311053109985 23.3412
3.681641464033634 24.0928
3.7039693653009733 24.7572
3.726297407241705 25.2884
3.7486081875460804 25.1805
3.7709365132734978 25.6989
3.793247578841633 26.6238
3.8155761917550093 26.7927
3.8378875459837216 27.3448
3.8602164494827234 27.6797
3.882545499606844 28.3442
3.9048572932539183 29.0238
3.9271866390645718 29.3104
3.9494987298666713 29.895
3.971828374764527 30.4379
3.9941581705403255 31.116
4.016470713506008 31.8755
4.038800813471445 32.7683
4.061113662089144 32.948
4.0834440696459176 34.1724
4.105774632334751 34.2391
4.128087945865126 35.1494
4.150418821249301 35.8884
4.172732448931298 36.7064
4.195063640413578 37.0347
4.2173775856475215 38.2347
4.239709096631102 39.1098
4.262040768704612 39.1977
4.284355196706267 39.9077
4.306687193387355 39.8536
4.329001947444346 41.8504
4.35133427213731 42.6878
4.373666762177566 43.1514
4.395982011761091 44.162
4.418314834921175 45.3934
4.44063041906622 47.0319
4.4629635787515625 47.4072
4.4852969080429785 48.4386
4.5076130004776225 50.2245
4.529946671403969 52.3301
4.552263106909177 53.4055
4.574597122877047 54.2665
4.596931312711224 54.8547
4.619248269273446 55.63399999999999
4.6415828092605835 57.1908
4.663900117405352 58.2359
4.686235010953232 59.5885
4.708552674085913 61.1014
4.730887924602802 62.9093
4.753223354952695 65.1028
4.775541557023902 66.001
4.797877349456786 67.9109
4.820195915032126 70.3959
4.842532072957498 71.8053
4.864868414979744 73.9226
4.88718753227192 77.0515
4.909524244902505 79.2132
4.931843734218147 81.6613
4.954180820867835 84.9874
4.976518095879839 88.693
4.998838149695359 91.9237
5.021175803844231 96.7467
5.043496238205739 101.135
5.065834274903528 107.706
5.088172504230693 115.14200000000001
5.1104935158799565 124.419
5.132832132875765 141.49
5.155153533596801 169.05900000000003
5.1774925416746225 285.553
5.199814334878411 891.942
5.2221537374521505 2212.53
5.244493338631803 3976.5
5.266815727034316 6657.07
5.289155727832427 10609.7
5.311478517248165 9356.14
5.333818921080011 4263.49
5.356159527788849 1004.81
5.3784829252032536 275.751
5.400823940070432 184.615
5.423147747031976 154.8
5.445489173474152 137.93
5.467830807066149 129.435
5.490155234831516 123.613
5.512497285125229 118.72399999999999
5.534822130975162 115.571
5.557164601388673 112.302
5.579489868738879 109.11
5.601832762690846 107.035
5.6241758697774475 105.585
5.646501775867269 104.36399999999999
5.668845311622074 103.836
5.691171647754637 103.23
5.713515615597765 101.943
5.735859800852677 101.133
5.758186788542988 100.874
5.780531411018185 101.84299999999999
5.802858837297399 101.431
5.825203900414495 102.406
5.8475491852224 103.338
5.869877275883075 104.383
5.892223006467101 107.12299999999999
5.914551544266608 111.02
5.936897724049891 118.18799999999999
5.959244129804903 133.774
5.981573344815301 197.37099999999998
6.0039202049061 447.885
6.026249875609095 901.684
6.04859719346037 1420.99
6.070927323278297 2212.75
6.093275102315365 3586.49
6.115623113320588 4575.14
6.137953938319995 3692.33
6.160302415650845 1464.65
6.182633708324452 381.76300000000003
6.2049826554078376 151.27100000000002
6.227331838745022 110.382
6.249663839443684 96.8023
6.27201349767565 89.4465
6.294345974611799 84.8364
6.316696111167083 81.3438
6.339046488263839 78.8238
6.361379686074702 76.6177
6.383730546639482 74.7402
6.406064229255215 73.2737
6.428415576718203 72.516
6.450749747566656 71.0048
6.47310158535871 69.67
6.495453669698332 68.9906
6.517788579421056 68.3213
6.540141159237969 67.2932
6.562476565766648 66.0046
6.5848296444934045 65.7523
6.607182974060425 65.176
6.6295191323281015 64.0999
6.651872965955752 63.3534
6.6742096296068985 62.6453
6.6965639707294615 62.2884
6.71891856698715 61.7244
6.741255995248479 61.1939
6.763611104154477 60.9261
6.785949046381137 60.2594
6.808304671371482 59.9307
6.8306605557940046 60.0809
6.852999275508618 59.3131
6.875355681171544 58.9087
6.897694923437771 58.6686
6.92005185377892 58.4658
6.9423916220322655 58.125
6.964749080490181 57.3538
6.987106804399774 57.4163
7.009447368180821 57.6527
7.031805625367033 57.2848
7.054146723727803 57.6482
7.076505517631004 57.0788
7.098864581288365 56.8044
7.121206488070854 56.5035
7.143566093607822 56.309
7.165908543567245 56.565
7.188268694426048 56.4586
7.2106291193438095 55.8879
7.232972390625943 56.0154
7.255333366030969 55.8935
7.277677189091925 55.8387
7.300038718428332 55.6833
7.322400526130865 55.5559
7.344745183422596 55.7897
7.367107550224791 55.8794
7.389452767901992 56.0869
7.411815697249891 55.9707
7.434161478756298 55.6539
7.456524974096713 55.8002
7.478888753837185 55.4124
7.501235387657368 56.2474
7.523599738562711 56.3546
7.545946944825532 56.5381
7.568311870344528 56.8299
7.5906770845765665 57.3161
7.613025156078678 57.085
7.635390950099687 57.6267
7.657739602662809 57.2756
7.680105979923558 57.2891
7.702472650212829 58.0617
7.724822180948224 58.0713
7.747189439655568 58.2835
7.769539560075357 58.5533
7.791907410653562 59.1262
7.81425812420825 58.9724
7.836626570110925 59.2838
7.858995315087906 60.2637
7.881346924933401 59.9761
7.903716270417482 61.1033
7.926068482028405 61.5161
7.948438431475253 62.1633
7.9708086843180235 62.6613
7.993161805171116 63.4995
8.015532667162402 63.6277
8.037886398416653 64.8131
8.060257873014221 65.4787
8.082629655331942 66.1806
8.104984308787587 66.6957
8.127356708900503 67.7695
8.149711981398308 68.9113
8.172085002766314 70.0911
8.194458336181368 70.6835
8.216814543847752 71.6178
8.23918850371002 73.2566
8.26154533906492 74.4811
8.283919928836452 76.301
8.306277395339652 77.4513
8.328652618483376 79.1365
8.351028159736202 81.6623
8.373386579575245 84.8234
8.395762759396959 86.7723
8.418121819038275 90.4366
8.440498640894003 96.5955
8.462875785192262 110.507
8.485235811156207 162.403
8.507613602688501 291.345
8.529974277114228 454.468
8.552352719347912 589.192
8.574731488360351 751.6160000000001
8.59709314210385 1057.38
8.619472567021075 1526.79
8.64183487789147 1959.39
8.664214962183097 1961.81
8.686577933647762 1218.88
8.708958680784317 531.932
8.731339760774953 223.062
8.753703729764451 132.06
8.77608547780821 111.265
8.798450116065078 104.785
8.820832535634787 100.285
8.843215292401656 97.9928
8.865580941199045 96.1949
8.887964374703538 94.7073
8.910330701447199 93.5968
8.932714815164482 92.5469
8.955099270424924 90.83
8.977466620733543 90.0369
8.999851761421976 89.5825
9.022219798361645 88.70100000000001
9.04460562795561 88.619
9.066991803441677 88.0342
9.089360876979615 87.9575
9.111747746589993 87.6582
9.13411751544971 87.2909
9.156505082664324 86.9106
9.178875550323522 86.7688
9.20126381862328 86.5547
9.223652438908596 86.7623
9.246023961427412 87.4444
9.26841328802173 87.15700000000001
9.290785518039224 87.0112
9.313175554425882 87.9891
9.335565947154315 88.0536
9.357939245086508 88.0718
9.380330352834827 88.1435
9.40270436697103 88.4649
9.425096193225055 88.3517
9.447488380180165 89.3677
9.469863475295412 89.1404
9.492256385987508 89.7319
9.514632206018318 90.6717
9.537025843935714 90.9106
9.559402392368193 91.7363
9.581796761000229 92.9687
9.604191496441521 93.3804
9.626569144158516 94.4344
9.648964615551032 94.9737
9.671343000390081 95.7945
9.693739211225699 96.8336
9.716135793237463 97.5577
9.738515290448102 98.4129
9.760912617143402 100.385
9.783292860202891 101.932
9.805690935076182 103.18700000000001
9.828089385495742 104.70200000000001
9.850470754023561 106.69200000000001
9.872869957865444 109.464
9.89525208097539 113.09299999999999
9.917652041736662 118.867
9.940052382417589 135.951
9.962435644102392 198.861
9.984836746950979 303.822
10.007220771957746 420.67
10.029622640473708 521.757
10.052007432299963 632.119
10.074410069984072 796.2660000000001
10.096813093716005 1062.51
10.119199042482517 1449.36
10.141602840636468 1794.74
10.163989564971628 1726.61
10.186394141051062 1174.36
10.208799107559706 576.089
10.231187001965623 258.66900000000004
10.253592751657669 151.047
10.275981430388155 125.376
10.298387966769793 118.24
10.320794897965431 115.435
10.343184759907361 113.38799999999999
10.36559248305461 112.01899999999999
10.387983138083852 115.16799999999999
10.410391656691655 131.014
10.432800574501677 159.09799999999998
10.455192425893369 188.71
10.47760214443012 212.84400000000002
10.499994797678786 238.09099999999998
10.522405320453982 280.593
10.54479877906917 349.783
10.567210109595656 436.45099999999996
10.5896218454736 534.24
10.612016518879773 536.222
10.634429067781074 426.68
10.656824555333241 258.4
10.679237920773568 155.773
10.701651695961992 108.822
10.724048411481384 96.6449
10.746463008485165 92.4992
10.768860546937125 90.5971
10.791275969274796 88.198
10.81369180576079 86.8976
10.836090585366925 85.9041
10.858507252467449 84.2982
10.88090686379991 83.4365
10.903324365036394 82.2891
10.925724811614439 81.2564
10.948143150509463 80.8627
10.970561909719066 79.6047
10.992963615930844 78.7758
11.015383218085756 77.5565
11.037785768347074 76.9066
11.06020621697282 76.3737
11.082627090322113 75.8125
11.105030913430326 74.8252
11.12745263854165 74.2701
11.149857314510728 73.3286
11.172279894912576 73.5093
11.194702904450653 72.3757
11.217108866490921 71.5521
11.239532736615194 71.5545
11.26193956033512 71.0223
11.284364294577085 70.5997
11.306789462371718 70.2316
11.329197585398376 69.9701
11.351623622610898 69.9695
11.37403261614354 69.4896
11.396459526308487 69.2637
11.418869393879497 68.6464
11.441297180532617 68.3074
11.463725406927658 67.8663
11.486136592353875 67.3963
11.508565700543707 66.9628
11.530977768845315 67.3992
11.553407762368774 67.0188
11.575838200059769 66.58800000000001
11.598251599479612 66.3394
11.620682927815501 66.4047
11.64309721895548 66.7051
11.665529441478206 66.0949
11.687962112597958 65.6762
11.710377748130886 66.0313
11.732811318753434 65.7526
11.755227854859067 65.7726
11.777662328529495 65.4803
11.800079768750786 65.3832
11.822515149015453 65.2296
11.844950984084935 65.9061
11.867369787303163 65.5962
11.889806534289491 65.6411
11.912226250487029 65.7781
11.934663912939751 66.2838
11.9571020346363 66.274
11.979523127133968 66.7909
12.001962169624331 68.5229
12.024384183972964 72.4252
12.046824150809913 80.0461
12.069264581333726 88.3122
12.091687985297767 94.6531
12.11412934550045 100.22
12.136553680195208 108.835
12.158995973632788 121.697
12.181438735204349 139.863
12.20386447284199 164.547
12.226308172985636 191.213
12.24873485024193 208.472
12.271179492516982 187.44
12.293607112949127 145.618
12.316052700916226 104.073
12.338498763250042 79.586
12.360927805303868 70.5834
12.383374818673879 68.2291
12.405804812803074 67.4209
12.428252780773262 67.4455
12.45070122756722 67.2821
12.473132656675375 67.2043
12.49558206341869 67.5365
12.518014453510101 67.4698
12.540464823770117 67.3762
12.562915677315177 67.7312
12.58534951575545 67.9463
12.607801338171472 67.944
12.630236146511358 68.392
12.652688941369085 68.4933
12.675124723177234 68.808
12.697578494048786 69.622
12.720032754458185 69.7432
12.742470003354093 70.3628
12.764925245138771 70.8493
12.787363476431278 71.4364
12.809819703166806 71.8589
12.83227642391173 72.7183
12.854716135692716 73.1459
12.877173846755147 74.5897
12.899614549869717 75.0533
12.9220732548287 76.113
12.94453245827299 76.5782
12.966974655289818 77.859
12.989434858002571 78.7589
13.011878055298721 79.6482
13.034339260862497 80.7188
13.056800969391883 82.4374
13.079245674017244 86.5192
13.101708390774869 93.6107
13.12415410463411 110.74799999999999
13.146617833206086 131.498
13.169064559883248 147.981
13.191529303857127 161.116
13.213994557076367 174.734
13.236442809902437 195.99900000000002
13.258909083908291 227.858
13.28135835851934 266.846
13.30382565690295 318.168
13.326293469022952 381.12699999999995
13.348744283242008 418.38300000000004
13.371213125129904 391.481
13.39366497011003 310.673
13.416134845360597 212.685
13.438605238843131 150.809
13.46105863690397 129.815
13.483530069144786 134.268
13.505984506951902 144.436
13.528456981549432 153.895
13.550929978879088 161.971
13.573385983253365 174.37099999999998
13.595860028340867 195.458
13.618317081455832 224.74400000000003
13.64079217790333 260.56
13.663250283359057 307.283
13.685726434770173 349.282
13.708203115221277 356.62800000000004
13.730662806148091 306.14799999999997
13.75314054697177 231.765
13.775601299246777 159.877
13.798080104050406 112.565
13.820559442405358 93.6999
13.843021793671388 87.36200000000001
13.865502201420897 84.8212
13.887965623051947 84.2118
13.910447103807167 83.1268
13.932929122629764 81.5826
13.955394156785959 81.1187
13.977877254034569 80.1345
14.000343367582113 79.2762
14.022827546871707 78.9181
14.045294743423524 77.7735
14.06778000837062 77.0735
14.090265817715476 76.9624
14.112734645763819 76.3315
14.13522154619454 75.7028
14.157691466286913 75.3885
14.180179461423874 75.1001
14.202668005486178 74.8276
14.22513957064374 74.4828
14.247629214846473 74.1306
14.270101881097517 73.7631
14.29259262906496 73.4418
14.315083930490205 73.2471
14.337558255389705 73.1923
14.360050666019726 73.1124
14.382526101071944 72.9634
14.405019624534942 72.7896
14.427513705993134 72.4038
14.449990813291825 72.4389
14.47248601302899 72.6303
14.49496423954951 72.7036
14.517460561197822 72.5793
14.539939910570322 72.1217
14.562437357763558 72.5713
14.58493536931253 72.9858
14.607416409993311 72.9621
14.62991555254159 72.8974
14.652397725157423 73.5828
14.674898002342799 74.1151
14.697398848433282 74.5969
14.719882725991326 76.7361
14.74238471217934 80.9145
14.764869730765593 88.82600000000001
14.787372860692983 95.4432
14.809876564079925 101.73
14.83236330125751 106.802
14.854868153850365 111.682
14.877356041159485 119.71
14.899862046604186 130.254
14.922351087688757 144.299
14.944858249632887 162.16
14.967365991421232 185.25799999999998
14.989856770231246 207.28400000000002
15.012365673994204 222.207
15.03485761569738 208.28099999999998
15.05736768508665 173.423
15.07987833888692 135.083
15.102372032001655 103.32
15.124883856909658 84.154
15.14737872204565 77.0862
15.169891721717274 74.6214
15.192405310371893 74.2377
15.214901940621196 73.3803
15.237416709527137 72.5251
15.259914520936249 72.0934
15.282430473753607 71.6126
15.304947020131227 70.8221
15.327446610371178 70.6857
15.349964346154254 70.3567
15.372465126703139 70.404
15.394984055556009 70.041
15.417486030076159 70.005
15.44000615566487 69.6002
15.462526881230803 69.4855
15.485030653812652 69.5927
15.507552581617434 69.3402
15.530057557334603 69.2527
15.55258069104857 69.2792
15.575104429329837 69.78399999999999
15.597611216864632 69.8884
15.620136166564563 71.3361
15.6426441664095 74.9377
15.665170331202765 80.9683
15.687697105158826 86.4672
15.710206930593545 91.7768
15.732734925158933 95.2829
15.755245972089478 98.3257
15.77777519094324 103.478
15.800287463046663 110.811
15.822817909869592 121.492
15.84534897229804 134.941
15.867863089299354 151.60299999999998
15.890395385222186 170.865
15.912910736597423 188.59599999999998
15.935444269699861 192.58700000000002
15.957978423016485 177.804
15.980495633101265 146.54399999999998
16.003031029129367 113.962
16.02554948280019 87.4827
16.048086125229432 73.5646
16.070623392487107 68.1623
16.09314371869582 65.947
16.11568223789321 64.7663
16.13820381691126 63.9654
16.160743591742527 63.5176
16.183283996022084 63.2574
16.205807461423195 62.3496
16.228349126881973 61.7143
16.25087385432698 61.8126
16.27341678466365 61.0038
16.29594277784926 60.618
16.31848697676433 60.3278
16.341031811604868 59.7487
16.36355971058487 59.6127
16.3861058195587 59.5659
16.40863499352978 58.9372
16.431182380342005 58.7611
16.453730407713202 58.3926
16.476261501364792 58.3751
16.498810812136167 58.1332
16.52134319004079 58.2635
16.54389378792203 58.0853
16.566445031001553 57.7205
16.588979342490088 57.6284
16.61153187824822 57.6148
16.634067483263312 57.5934
16.656621315414416 57.4894
16.679175797408888 57.1485
16.701713349928728 57.3534
16.72426913389191 57.3149
16.74680798922351 57.2355
16.76936507887444 57.1342
16.791905240734874 57.2892
16.814463639794468 57.224
16.837022695210294 57.36
16.859564824093756 57.38
16.882125194503903 57.4554
16.904668639217885 57.473
16.927230328348003 57.4769
16.949792678493612 57.9138
16.972338104193863 57.8713
16.994901778652235 58.0102
17.017448529496576 58.5645
17.040013531998152 59.3086
17.06257920018044 60.6944
17.0851279459922 62.1524
17.107694947817667 63.2094
17.130245028099072 63.957
17.15281336730298 64.873
17.17536478578733 65.7861
17.19793446610687 66.9399
17.220504818648422 68.6735
17.243058251703697 70.6518
17.265629950971032 73.8567
17.288184731571736 77.4115
17.310757781306908 81.9161
17.33333150794385 84.8301
17.355888317140174 85.6425
17.37846339986244 82.8478
17.401021565958885 77.5038
17.42359800851343 71.5238
17.44617513265564 66.8453
17.468735341390783 63.9913
17.491261035594565 62.5752
17.51396340099364 62.0293
17.536490463869136 62.2509
17.559018209820174 61.964
17.58154663977963 61.9686
17.604251766089718 62.3502
17.626781572227713 62.7257
17.64931206518155 62.8247
17.671843245885103 63.2041
17.69455114821572 63.2437
17.717083712612634 63.7338
17.739616967569667 64.0346
17.762150914021706 64.5111
17.78486160749854 64.9733
17.807396945166804 66.5042
17.829932977143503 68.7756
17.85246970436452 72.3523
17.875183204129467 75.6065
17.897721330097664 78.3313
17.920260154126645 80.9645
17.942799677153296 82.7806
17.9655159983646 84.6497
17.988056927677544 88.0385
18.010598558807683 93.1771
18.033140892692916 99.1858
18.05586005052525 105.67200000000001
18.07840379824407 114.74799999999999
18.10094825154059 126.927
18.12366954819864 139.251
18.146215420998306 145.889
18.16876200220057 145.036
18.191309292745153 134.52
18.214033452627167 119.45299999999999
18.236582170236648 103.895
18.259131600016456 93.9053
18.281681742907335 89.6976
18.304408781233683 90.3181
18.32696035875955 92.9687
18.349512652227624 96.7308
18.372065662579683 102.585
18.394795594587553 106.566
18.41735004715306 107.26100000000001
18.43990521943684 102.905
18.46246111238171 94.8754
18.485193953325208 84.4431
18.507751296070428 75.9544
18.530309362314178 70.4977
18.552868153000343 67.447
18.57560391815056 65.595
18.59816416623245 64.96
18.620725141597372 64.4603
18.643286845190268 63.8887
18.666025549835414 63.5599
18.688588718427933 62.9191
18.711152618092243 62.8537
18.73389353884365 62.5103
18.75645890921984 62.0297
18.77902501351406 61.7445
18.801591852673102 61.6685
18.824335739722738 61.1849
18.846904057212626 61.1525
18.8694731124168 60.6571
18.89204290628315 60.7186
18.914789774966803 60.5782
18.937361054791623 60.3256
18.959933076131318 59.8615
18.982505839934877 59.8033
19.00525570560582 60.0121
19.027829963004184 59.9267
19.05040496572238 60.0167
19.072980714710468 60.365
19.095733592739563 61.1262
19.11831084296757 61.4767
19.140888842324735 62.0537
19.16346759176222 62.1197
19.18622349753803 62.3362
19.208803755869358 63.0207
19.231384767143577 63.765
19.253966532312948 64.5725
19.276725481241822 65.8566
19.29930876296784 67.5213
19.3218928014549 69.0559
19.34465404436217 71.1581
19.36723960516257 73.967
19.389825925592426 76.1985
19.412413006605938 77.2627
19.43517731967805 76.2787
19.457765930683355 73.1677
19.48035530514408 68.7958
19.50294544401556 64.2849
19.525712842708348 60.6223
19.54830451925909 58.5565
19.570896963095727 57.0496
19.593490175174704 56.6357
19.616260674962184 56.5853
19.638855432416964 56.3755
19.661450960992624 56.5515
19.68404726164677 56.3231
19.706820878021247 55.8894
19.729418731756834 56.2998
19.752017360452857 56.2859
19.77461676506804 56.7322
19.797393513540218 57.1311
19.819994478951667 57.5323
19.84259622316767 58.1885
19.8651987471481 58.6574
19.887978643247177 58.9352
19.91058273574792 59.2091
19.933187610901943 59.6432
19.955969879466828 60.4867
19.97857632894404 61.43600000000001
20.00118356396599 62.5064
20.023791585494575 64.0684
20.046577028914875 66.1767
20.069186632506966 68.4006
20.091797025500632 70.653
20.114408208858933 72.6209
20.137196842715273 73.7343
20.159809615886765 72.9036
20.18242318232135 70.7174
20.20503754298326 67.9817
20.227829382875154 65.9163
20.250445341109344 64.4484
20.27306209647285 63.8684
20.29567964993108 64.3887
20.31847471147704 65.5016
20.34109387027612 66.9349
20.363713830075454 67.8263
20.386334591841646 67.639
20.409132890679302 65.6341
20.431755265564437 62.5975
20.454378445325528 59.6996
20.477002430930366 56.998999999999995
20.499803982716553 54.9497
20.522429589228004 53.9089
20.54505600449589 53.2448
20.567683229489194 53.0618
20.590488049900088 52.8791
20.61311690359731 52.4662
20.63574656993626 52.3739
20.658553853717297 52.0773
20.681185154618298 51.9194
20.703817271080066 51.8849
20.72645020407368 51.5827
20.749260783967177 51.4218
20.771895359337133 51.4354
20.794530754161617 51.3216
20.817166969412938 51.2965
20.83998086114876 51.3323
20.86261872660049 51.0865
20.885257415405402 51.1618
20.90789692853701 51.2793
20.930714147864748 51.0869
20.953355319030678 51.3048
20.97599731745334 51.4131
20.99864014410749 51.2647
21.021460706796564 51.2742
21.044105199328826 51.498999999999995
21.06675052302631 51.4809
21.089396678865015 51.7319
21.112220600704806 51.8687
21.134868430275347 52.2081
21.15751709492456 52.1628
21.180166595629693 52.235
21.202993892429635 52.5826
21.22564507473034 52.9928
21.24829709602816 53.4083
21.27112693608965 53.6979
21.293780644891275 53.9696
21.316435195634053 53.7379
21.339090589297417 52.8528
21.361923832041875 52.5587
21.384580921090404 51.739
21.407238856007325 51.1756
21.429897637773326 50.8696
21.45273429906592 50.9224
21.475394784108598 50.9507
21.498056118951983 50.9029
21.520718304578022 51.2268
21.543558400304388 51.3482
21.566222297108816 51.8687
21.58888704765135 52.3409
21.61155265291521 52.8923
21.63439619898156 53.3405
21.657063523335786 53.6255
21.67973170537063 53.9934
21.7024007460706 54.3784
21.72524775840385 54.9088
21.747918526116475 55.5225
21.770590155457388 56.536
21.79326264741238 57.4818
21.816113141960237 58.756
21.838787368860547 60.0804
21.861462461341976 61.6834
21.884315579735777 63.5427
21.90699241312273 65.1864
21.92967011506078 66.8246
21.95234868653799 67.5318
21.9752053151131 66.9983
21.997885635446785 65.855
22.020566828293532 63.43600000000001
22.04324889464272 60.8661
22.066109049404666 58.9522
22.088792872571794 57.9393
22.111477572219204 57.727
22.1341631493376 58.162
22.157026846313123 58.4253
22.179714188221507 58.231
22.202402410582668 57.5106
22.22509151438863 56.2375
22.24795876962584 54.8968
22.270649646204486 53.6331
22.293341407213727 52.6921
22.316034053646906 51.9522
22.338904883215342 51.5137
22.36159931041458 51.4069
22.38429462602756 51.3135
22.40699083104897 50.906000000000006
22.429865251039757 50.8612
22.452563244831367 50.9304
22.47526213102522 50.9392
22.49813925616515 50.9748
22.520839937143307 50.9264
22.543541513520587 51.0291
22.56624398629403 50.8801
22.589124730075895 50.9934
22.611829005656723 51.5022
22.63453418063466 51.661
22.657240256008077 52.0741
22.680124634582935 52.2087
22.70283252079775 52.5893
22.725541310413075 52.9297
22.74825100442868 52.9283
22.771139033969575 53.1761
22.79385054687155 53.2668
22.81656296718292 53.6879
22.83927629590484 54.2842
22.862167992606945 54.812
22.88488314827121 55.5382
22.907599215359284 56.2157
22.93031619487366 56.9001
22.953211574954405 57.9017
22.975930389478226 59.1714
22.998650119445763 60.0464
23.02137076586092 60.0317
23.044269845560063 59.4336
23.06699233506288 58.1943
23.089715744034912 56.4729
23.112617610931565 54.5959
23.135342869061212 53.102
23.158069049684816 52.088
23.1807961538087 51.6243
23.20370174880544 51.4977
23.226430710184808 51.6737
23.249160598093425 51.8886
23.271891413539002 51.9417
23.294800752937697 52.161
23.31753343374794 52.3495
23.340267045128353 52.4982
23.36300158808808 52.5693
23.38591468821339 52.6529
23.408651104658304 52.8131
23.431388455719986 53.2454
23.454126742409 53.7053
23.4770436196085 54.2341
23.499783787914662 55.0916
23.522524894889884 55.6237
23.54526694154616 56.2853
23.56818761219047 57.6571
23.59093154860734 58.5837
23.613676427751283 59.8014
23.636422250635754 59.854
23.659346731118656 59.0385
23.68209445191868 57.4788
23.704843119509587 55.5036
23.72759273490623 53.2205
23.750521041644767 51.3873
23.77327256312355 50.2063
23.796025035462787 49.2749
23.818956224555475 48.6473
23.841710609113413 48.3968
23.86446594758979 48.1097
23.887222241002014 47.7079
23.910157285144578 47.415
23.932915498962537 47.4184
23.955674670778713 47.3497
23.978434801611975 47.2053
24.001373717286125 47.0447
24.024135776723917 46.7884
24.046898798245582 46.6972
24.06966278287146 46.5778
24.092605586582614 46.2758
24.115371508023642 46.3212
24.1381383956401 46.1317
24.16090625045381 46.1628
24.183852958731244 46.0883
24.206622758582608 45.9742
24.229393528706886 45.8651
24.252165270127392 45.8801
24.27511589952438 45.8115
24.297889594216997 45.5025
24.32066426328598 45.347
24.34343990775613 45.4422
24.36639447485003 45.3207
24.38917208083877 45.0867
24.41195066531332 45.2323
24.43490819850244 45.0592
24.457688750692377 44.8627
24.48047028445616 44.945
24.503252800821233 45.05
24.526214300784112 45.1257
24.548998793132213 45.0718
24.57178427117417 45.0834
24.59457073593893 45.0897
24.617536219319863 44.9924
24.64032466834748 44.934
24.663114107195035 44.8522
24.685904536893013 44.6131
24.708874020360852 44.5093
24.731666442613744 44.5122
24.754459858818787 44.4652
24.777254270007962 44.3636
24.80022777025625 44.3589
24.82302418230472 44.357
24.845821592443674 44.4859
24.86862000170663 44.4473
24.891597535453727 44.3036
24.914397953892728 44.6459
24.93719937456671 44.4403
24.96000179851076 44.6642
24.98298338249997 44.879
25.00578782394922 45.0393
25.028593271784167 45.1273
25.05157790644186 45.2983
25.07438537804115 45.4194
25.097193859145293 45.4578
25.120003350792075 45.6511
25.142992065061257 45.9628
25.165803588823465 46.297
25.18861612625217 46.5853
25.211429678386736 46.5765
25.234422489079968 46.7088
25.257238081693636 46.5586
25.280054692141732 46.5375
25.3028723214652 46.4933
25.325869245420463 46.5668
25.348688923599397 46.6858
25.371509623787006 46.7794
25.394331347025812 46.7892
25.41733240110666 46.5202
25.440156181590016 46.0208
25.46298098826268 45.3951
25.48580682216873 44.8656
25.50881202326435 44.2718
25.53163992281684 43.854
25.55446885274561 43.31
25.577298814096377 42.9474
25.600308179121807 42.7404
25.623140214533745 42.8736
25.64597328451537 42.8535
25.66898578564376 42.6299
25.691820936010206 42.6528
25.714657124097695 42.6256
25.737494350954734 42.513999999999996
25.760511045684957 42.4092
25.783350361364224 42.5619
25.806190718969255 42.5015
25.82903211955018 42.5571
25.852053024868923 42.7115
25.874896522722523 42.7703
25.897741066713106 42.4935
25.920586657892454 42.5727
25.943611790812668 42.8358
25.966459487728237 42.6948
25.989308234998564 42.6872
26.01215803367705 43.0322
26.03518741123814 43.184
26.05803932412957 43.3029
26.080892291600094 43.2033
26.10374631470478 43.407
26.12677995397268 43.6851
26.14963609978026 43.7924
26.172493304397875 43.667
26.19535156888223 43.4488
26.218389486949604 43.1338
26.241249882640123 42.8869
26.26411134137826 42.4329
26.28715248187403 42.4584
26.31001607820869 42.2353
26.3328807407756 42.0632
26.35574647063438 42.2493
26.37879191991473 42.1286
26.401659795896734 42.1064
26.424528742360263 42.2788
26.447398760366614 42.4464
26.470448535598294 42.4866
26.49332070826805 42.5545
26.516193955675355 42.8033
26.53906827888316 42.9319
26.562122397260108 43.0134
26.584998883685063 43.2154
26.607876449110325 43.5395
26.63075509460056 43.6228
26.65381357334404 43.8466
26.67669439061878 43.9285
26.699576291163382 44.0219
26.722459276044212 43.9719
26.745522132402975 43.7102
26.768407297649354 43.4105
26.791293550442003 43.2318
26.814180891848974 42.769
26.837248143099337 42.4208
26.860137673466657 42.2972
26.88302829566349 42.2108
26.90592001075963 42.066
26.92899167420566 41.9204
26.951885586870763 41.5634
26.974780595655517 41.4009
26.99785558178161 41.2092
27.020752794605112 40.9596
27.043651106772522 40.799
27.06655051935668 40.7818
27.089629948036183 40.5468
27.112531573292053 40.5544
27.135434302194138 40.6748
27.158338135817015 40.4523
27.181422024430987 40.6465
27.204328079372566 40.3963
27.22723524226965 40.5246
27.250143514198573 40.5461
27.273231880156334 40.4095
27.296142382065014 40.3442
27.319053996245536 40.2573
27.341966723775965 40.2191
27.365059584515222 40.3053
27.38797455070062 40.369
27.410890633481237 40.1773
27.433807833936918 40.1599
27.456905206923906 40.3526
27.47982465472398 40.2598
27.502745223449743 40.299
27.525666914182825 40.5501
27.548768816912457 40.3858
27.571692763693633 40.4111
27.59461783573812 40.3195
27.617723149491244 40.1006
27.640650484125285 40.1798
27.66357894728264 40.1751
27.686508540048052 40.0463
27.709618414237887 40.0289
27.732550278321757 39.9194
27.755483275279115 39.8031
27.778417406196485 39.8507
27.801531858397514 39.7628
27.824468269376716 39.7699
27.847405817586786 39.7056
27.870344504116094 39.8575
27.893463551932008 39.9261
27.916404527281053 39.928000000000004
27.93934664422563 40.0106
27.962289903855886 39.9681
27.98541356491974 40.1139
28.00835912214229 40.1942
28.03130582533231 40.5083
28.054253675581805 40.6746
28.077381967556104 40.6581
28.100332124185126 40.6279
28.123283431160893 40.5715
28.146235889577238 40.5416
28.169368830154156 40.4552
28.192323603752033 40.3475
28.215279532083304 39.9474
28.238415973016764 39.8302
28.261374223145094 39.6898
28.284333631303806 39.4145
28.307294198589954 39.3019
28.330435319167677 39.0161
28.353398217078915 38.7534
28.376362277420153 38.4671
28.39932750129032 38.3411
28.422473319286713 38.0442
28.44544088262495 38.1104
28.468409612800283 37.9874
28.491379510913497 37.8572
28.51453004413313 37.7471
28.53750229057244 37.6954
28.56047570826344 37.6719
28.583450298308804 37.6342
28.606605564586562 37.4039
28.629582511831156 37.4444
28.65256063474956 37.3808
28.675539934446338 37.3671
28.698699951647605 37.3071
28.72168161743193 37.1704
28.74466446331978 37.2209
28.767648490417624 37.0914
28.790813276438353 36.9439
28.813799678527303 36.9434
28.836787265157085 36.9933
28.859955641890075 36.9463
28.882945610203045 36.9361
28.905936766392035 36.846
28.928929111566863 37.039
28.952102288520145 36.9841
28.975097024308607 36.9691
28.998092952423807 36.7794
29.021090073977508 36.6213
29.04426806913204 36.6561
29.067267590245258 36.3569
29.090268308143695 36.4421
29.11327022394099 36.1683
29.13645305530891 36.0617
29.159457379627167 35.9213
29.18246290519685 35.9612
29.20546963313352 36.0844
29.22865731875826 35.928000000000004
29.25166646419296 35.819
29.27467681535305 35.7511
29.29768837335608 35.821999999999996
29.320880931312562 35.7541
29.34389491580634 35.7478
29.366910110507334 35.7073
29.38992651653503 35.7385
29.41312396492981 35.7671
29.436142806456754 35.5883
29.45916286268059 35.676
29.48236399319994 35.4961
29.50538649169417 35.5475
29.528410208259935 35.4812
29.55143514402014 35.1591
29.574641196749695 35.014
29.597668583816574 34.9142
29.6206971934585 34.6298
29.64372702680042 34.828
29.666938019934474 34.6863
29.689970313635285 34.6537
29.713003834422636 34.6042
29.73603858342347 34.6123
29.759254535188578 34.5179
29.78229175361658 34.3711
29.80533020365064 34.4143
29.82836988641968 34.4439
29.85159081507472 34.4092
29.874632976355343 34.2383
29.89767637376955 34.3238
29.920721008448314 34.1685
29.9439469322847 34.1571
29.96699405457564 34.0985
29.9900424175358 34.0456
30.013092022298157 34.0074
30.03632295963995 34.0379
30.059375061131373 34.1055
30.08242840783577 34.092
30.105483000888153 34.0012
30.128718970092244 33.9074
30.151776069006917 33.9342
30.17483441768648 33.9225
30.198074175317235 33.9736
30.221135036724256 33.9282
30.24419715131772 33.9154
30.267260520236203 33.9288
30.290505341942243 33.8775
30.313571232750228 33.9481
30.336638381310948 34.0175
30.35970678876503 33.8681
30.38295669299435 33.7446
30.40602763151657 33.7981
30.429099832366074 33.7399
30.452173296685572 33.5438
30.47542830191959 33.5952
30.498504306502497 33.586999999999996
30.521581577995562 33.6193
30.544660117543582 33.6555
30.56792024229725 33.585
30.59100133132069 33.6286
30.614083691845494 33.6085
30.637167325018545 33.6542
30.660432587840603 33.5218
30.683518779717886 33.5928
30.70660624769615 33.7188
30.729694992924372 33.5701
30.75296541239743 33.6939
30.77605672557558 33.5772
30.799149319462742 33.6301
30.8224236211637 33.5191
30.845518789950724 33.4852
30.868615242910597 33.4417
30.891712981195973 33.2021
30.91499247215866 33.0997
30.938092794619365 33.1033
30.96119440587579 33.029
30.984297307082752 32.9293
31.00758200598383 32.7747
31.030687500658694 32.739000000000004
31.053794288760695 32.5948
31.076902371446767 32.6415
31.100192296997445 32.6533
31.12330298246119 32.5549
31.14641496599209 32.4619
31.169528248749216 32.4466
31.19282341969534 32.3504
31.215939314557186 32.45
31.239056512134788 32.4426
31.262175013589378 32.3763
31.28547544871168 32.3195
31.30859657161541 32.2487
31.331719001892175 32.2497
31.35484274070538 32.3189
31.378148458819545 32.3494
31.401274828443725 32.2847
31.424402510106933 32.3414
31.447712205419993 32.461999999999996
31.470842524931633 32.2945
31.493974159989783 32.3419
31.51710711176168 32.2208
31.54042212308802 32.3316
31.563557722100917 32.2177
31.586694641341655 31.9993
31.609832881979628 31.9163
31.63315322823208 31.8847
31.656294125521327 31.7775
31.679436347728515 31.7792
31.70257989602529 31.6748
31.725905596152327 31.6053
31.74905181052835 31.5598
31.772199354521323 31.48
31.79534822930507 31.5557
31.818679302290967 31.5527
31.84183085259981 31.533
31.864983737233473 31.4892
31.88813795736804 31.4648
31.911474422233013 31.4061
31.934631327356435 31.4969
31.9577895715215 31.4615
31.980949155906522 31.4059
32.004291031706956 31.2893
32.027453310562606 31.3008
32.05061693318573 31.1869
32.07396288236386 31.2736
32.09712920658542 31.221999999999998
32.12029687812702 31.0711
32.14346589817093 30.9039
32.166817291729984 30.9219
32.18998902288583 30.7365
32.21316210610336 30.7628
32.23633654256711 30.683000000000003
32.259693399663725 30.6609
32.282870556771144 30.5879
32.30604907069099 30.6402
32.329228942610065 30.5263
32.35259128243769 30.3733
32.375773884550505 30.3696
32.398957848235646 30.301
32.422143174682176 30.2767
32.445511016471215 30.1689
32.468699082679954 30.1376
32.49188851523011 30.039
32.51507931531304 29.9763
32.538452678331 29.9909
32.56164622776311 29.934
32.58484114831493 29.8661
32.60803744118015 29.9368
32.631416344731896 29.8601
32.654615396551876 29.774
32.67781582427913 29.761999999999997
32.701198898634416 29.7144
32.72440209253756 29.6523
32.747606665947124 29.5715
32.77081262006088 29.5784
32.79420126883317 29.5357
32.81740999876112 29.5629
32.840620112999424 29.4329
32.86383161274818 29.2927
32.88722585534586 29.3508
32.91044014056596 29.459
32.933655814909734 29.3144
32.95687287957963 29.3989
32.98027273544904 29.2203
33.00349259526636 29.2143
33.026713849030116 29.1802
33.04993649794511 29.0579
33.073341986570746 29.1524
33.09656744032826 29.1527
33.11979429286444 29.1104
33.14302254538647 29.0528
33.166433686291185 29.024
33.18966475336992 29.0101
33.212897224069096 28.9106
33.23613109959831 28.8342
33.259547912343415 28.9052
33.2827846121627 28.8957
33.306022720453775 28.7244
33.32926223842861 28.6544
33.352684742614166 28.7186
33.37592709463173 28.6412
33.399170859982064 28.5981
33.422597648419426 28.5734
33.44584425514446 28.4108
33.46909227885668 28.4254
33.4923417207723 28.2916
33.51577423505344 28.2285
33.539026528130385 28.1775
33.56228024307245 28.2139
33.585535381098246 28.0387
33.60897364093058 27.9265
33.63223163992385 27.9318
33.6554910656699 27.9626
33.678751919389796 27.9026
33.702195944520106 27.837
33.72545966903325 27.9246
33.74872482519663 27.7231
33.771991414233746 27.7709
33.79544122444841 27.767
33.81871069412428 27.6205
33.84198160035767 27.6693
33.86525394437455 27.6689
33.88870955949969 27.5167
33.911984794020626 27.4418
33.93526147001624 27.4568
33.958539588715006 27.4484
33.98200102861669 27.39
34.0052820477047 27.2406
34.02856451319451 27.359
34.05203033759056 27.1008
34.07531571090147 27.1666
34.09860253431845 27.2011
34.121890809074316 27.058000000000003
34.145362493118924 27.133000000000003
34.16865368561615 27.121
34.191946333164054 26.9302
34.21524043699793 26.9901
34.23871800066799 27.0131
34.26201503218366 26.9644
34.28531352370466 26.8944
34.30861347646881 26.8742
34.33209693978188 26.7308
34.3553998301885 26.6987
34.378704185565205 26.5615
34.402010007152356 26.5907
34.42549939016683 26.7392
34.44880815937748 26.4932
34.472118398533134 26.4446
34.49543010887669 26.4445
34.51892543169198 26.3882
34.54224009966052 26.3857
34.56555624255917 26.3411
34.58887386163339 26.2387
34.61237514439016 26.2109
34.6356957311114 26.1773
34.65901779775809 26.1737
34.68252356662995 26.1241
34.705848608458616 26.0905
34.72917513396849 25.9847
34.75250314440949 25.9766
34.77601490857862 25.833000000000002
34.799345904259795 25.8219
34.82267838863559 25.8543
34.846012362958525 25.8164
34.869530142679984 25.8476
34.89286711232212 25.8547
34.91620557568269 25.7913
34.93954553401677 25.7805
34.9630693495876 25.6414
34.986412313340814 25.6248
35.00975677584668 25.655
35.033102738362956 25.57
35.05663261012228 25.5008
35.0799815881786 25.5295
35.10333207003229 25.388
35.12668405694369 25.5274
35.150220005273056 25.423000000000002
35.17357501786656 25.3673
35.19693153931268 25.3193
35.220289570874385 25.2828
35.24383161619786 25.2958
35.267192683604904 25.2619
35.290555264930376 25.1938
35.314101899412165 25.2347
35.33746752422433 25.1239
35.36083466676374 25.156
35.38420332829803 25.025
35.407756095629054 25.1272
35.43112781085063 25.0571
35.45450104888391 24.9987
35.477875810999194 25.0071
35.50143473172161 24.9224
35.52481255774625 25.0361
35.54819191167777 24.9549
35.57157279478914 24.8535
35.595137889488406 24.8377
35.61852184675279 24.8571
35.641907337029984 24.7308
35.665294361595684 24.6737
35.68886565090076 24.6967
35.7122557598848 24.5778
35.73564740699838 24.5871
35.759040593519934 24.6189
35.78261809810353 24.5695
35.80601437933051 24.4319
35.829412203814705 24.4074
35.85281157283719 24.2851
35.876395313415884 24.4064
35.8997977874528 24.3278
35.92320180988546 24.2707
35.946790244133936 24.2651
35.97019737933222 24.2451
35.993606066789866 24.1617
36.01701630779276 24.1734
36.04061101440684 24.1174
36.06402437852291 24.1134
36.08743930005611 24.0846
36.1108557802951 23.9637
36.13445678011326 23.9442
36.15787639383515 23.9712
36.18129757014299 23.9072
36.20472031032821 23.8664
36.22832762423364 23.8146
36.25175350829375 23.7878
36.275180960119776 23.6838
36.298609981005924 23.7595
36.32222362992669 23.7004
36.34565580510207 23.6919
36.36908955323448 23.6066
36.39252487562093 23.5302
36.416144880530226 23.4992
36.43958336764275 23.496
36.463023432914625 23.5088
36.486465077645676 23.3654
36.51009145956204 23.4679
36.53353627947859 23.3734
36.55698268276811 23.3656
36.58043067073321 23.3274
36.60406345072071 23.2094
36.62751462435344 23.2826
36.65096738658405 23.2388
36.67460498210655 23.2208
36.69806093788647 23.1482
36.72151848619297 23.0897
36.744977628333636 23.078000000000003
36.76862165890998 22.9977
36.79208400512205 23.073
36.81554794910557 23.0168
36.83901349217101 22.988000000000003
36.862663978991606 22.9283
36.88613273667352 22.8969
36.90960309738324 22.8409
36.933075062434064 22.8074
36.95673202673572 22.6849
36.98020721697122 22.6652
37.003684015502365 22.7275
37.027162423645365 22.5265
37.050825886711465 22.5638
37.07430753063053 22.5011
37.09779078812467 22.4445
37.121275660513014 22.4999
37.144945643673694 22.4608
37.16843376245278 22.3794
37.19192350009803 22.3882
37.215414857931435 22.3256
37.239091382563885 22.2816
37.262585997426164 22.2803
37.28608223645736 22.2484
37.309763684451696 22.1967
37.33326318851098 22.188000000000002
37.356764320726555 22.1326
37.380267082425526 22.1439
37.40395510942588 22.0845
37.42746114683234 21.9895
37.45096881771841 21.9682
37.474478123414166 22.0036
37.49817275092816 21.9609
37.52168534303452 21.9719
37.54519957395567 21.8055
37.568715445024665 21.8251
37.592416694607714 21.7321
37.61593586281424 21.6943
37.63945667518264 21.7055
37.66297913304891 21.6767
37.68668702630454 21.6634
37.710212792059274 21.6396
37.733740207334854 21.594
37.757269273470364 21.4997
37.780983832050374 21.4568
37.80451621684926 21.4581
37.82805025654007 21.4289
37.851585952464795 21.3676
37.8753071980695 21.3687
37.89884622345676 21.3283
37.92238690911902 21.2847
37.94611318753442 21.2326
37.969657210779765 21.2667
37.99320289834801 21.2281
38.016750251586465 21.1606
38.04048325513017 21.111
38.06403395679343 21.1159
38.087586328183946 21.0664
38.11114037065203 21.0581
38.13488012115898 21.0836
38.1584375229181 20.926
38.181996599821 20.8629
38.205557353221124 20.8804
38.229303872575656 20.8705
38.2528679961576 20.8663
38.27643380031219 20.8007
38.30000128639589 20.7226
38.32375459653193 20.7409
38.34732546371299 20.7099
38.37089801690786 20.6532
38.39447225747609 20.5739
38.418232380377425 20.6446
38.441810012983396 20.6119
38.46538933705673 20.6063
38.488970353960084 20.583000000000002
38.51273731166058 20.4874
38.536321731567014 20.4487
38.55990784840681 20.3591
38.58367995004091 20.3045
38.60726947812959 20.3447
38.63086070726198 20.3231
38.654453638806274 20.410999999999998
38.678232613930824 20.2845
38.70182896773327 20.1594
38.72542702806741 20.2087
38.7490267963045 20.1799
38.77281266709232 20.1278
38.79641586862214 20.0825
38.8200207821842 20.0607
38.843627409152944 20.0236
38.86742019782782 19.9609
38.891030269149255 19.9334
38.914642058016156 19.8805
38.938255565806124 19.8933
38.96205529464307 19.8061
38.98567225787121 19.8311
39.00929094417078 19.8052
39.03291135492255 19.8449
39.05671804624804 19.7043
39.080341923549106 19.6488
39.103967529460334 19.6959
39.127594865365744 19.5963
39.15140854155791 19.5738
39.17503935514948 19.6086
39.19867190290282 19.5857
39.22249083587951 19.5797
39.24612686969409 19.4772
39.269764641845306 19.4828
39.293404153722804 19.4844
39.317230110864074 19.4173
39.34087311998506 19.4215
39.36451787301696 19.3046
39.388164371352595 19.2736
39.41199737518003 19.2356
39.43564738196752 19.2508
39.45929913825317 19.1506
39.48295264543308 19.1114
39.506792718520884 19.099
39.530449745387216 19.1185
39.55410852735203 19.0708
39.57776906581474 19.0995
39.60161623079 18.9286
39.625280300200025 18.9245
39.64894613032202 18.9472
39.67261372255866 18.9844
39.6964680021016 18.8929
39.72013913657293 18.8723
39.74381203738292 18.8144
39.76748670593756 18.7882
39.79134812278169 18.7684
39.81502634488497 18.785999999999998
39.83870633896685 18.7288
39.862388106436654 18.6553
39.88625668336918 18.6922
39.90994201572829 18.653
39.933629125719285 18.6473
39.957503091207826 18.5144
39.9811937746168 18.6197
40.00488623990914 18.5457
40.02858048850006 18.4529
40.05246165409549 18.3869
40.076159487492085 18.4688
40.099859108448875 18.4052
40.123560518384345 18.3769
40.1474489070226 18.3471
40.171153913178564 18.2704
40.194860712584955 18.2627
40.2185693066637 18.2449
40.242464941335314 18.2372
40.26617714307655 18.2058
40.289891143772046 18.1962
40.3136069448471 18.1634
40.33750984859743 18.1591
40.3612292688043 18.1255
40.3849504936829 18.0489
40.40867352466194 18.023
40.43258372059144 18.0032
40.45631038219906 18.0093
40.48003885420956 17.9739
40.503769138055105 17.9295
40.52768664931955 17.9253
40.55142057531802 17.8594
40.57515631746428 17.8473
40.599079334038514 17.8089
40.62281872700477 17.7497
40.64655994043941 17.6903
40.67030297578061 17.6969
40.69423334835778 17.6579
40.71798004609188 17.6338
40.74172857006355 17.6139
40.76547892171441 17.6327
40.7894166736039 17.574
40.813170699248566 17.5353
40.83692655691388 17.5303
40.86068424804498 17.5273
40.884629402612525 17.4791
40.908390779366385 17.456
40.932153993938 17.4552
40.95591904777605 17.4147
40.979871628443995 17.418
41.003640379561936 17.3513
41.02741097430883 17.2605
41.05118341413683 17.2776
41.075143444384416 17.2393
41.098919593177826 17.2168
41.1226975914255 17.2307
41.14647744058318 17.1874
41.170444943946755 17.0823
41.19422851378379 17.0936
41.218013938914645 17.0314
41.24198706625173 16.9593
41.26577622087193 16.9316
41.289567235177785 16.9727
41.31336011063129 16.9512
41.337340752422875 16.8569
41.361137369129835 16.8999
41.38493585138705 16.9309
41.40873620066004 16.8162
41.43272438060107 16.8107
41.45652848292052 16.7578
41.48033445666918 16.7271
41.50414230331616 16.7221
41.528138045159764 16.704
41.551949656675205 16.667
41.575763145513235 16.6236
41.59957851314666 16.6364
41.62358184070442 16.5686
41.64740098505737 16.5298
41.6712220126409 16.4835
41.69504492493139 16.4641
41.71905586207357 16.4631
41.74288256296395 16.4754
41.766711153007456 16.4402
41.79054163368412 16.3375
41.814560204340054 16.3698
41.838394485526365 16.3501
41.86223066180303 16.283
41.88625497706819 16.2899
41.910094962812 16.2865
41.93393684811168 16.2297
41.95778063445365 16.1655
41.981812625263366 16.177
42.00566023303407 16.1389
42.029509746323676 16.0901
42.05336116662236 16.1134
42.077400857069705 16.1226
42.10125611078846 16.0858
42.12511327600405 16.0294
42.14897235421036 15.9464
42.173019768448455 15.942
42.19688269209613 15.8656
42.22074753323349 15.8501
42.24461429335818 15.9014
42.268669455600495 15.882
42.292540073217886 15.8767
42.31641261433284 15.8362
42.34028708044675 15.8182
42.36435001496739 15.7851
42.38822835065557 15.7465
42.41210861586426 15.6483
42.4359908120986 15.6664
42.46006154323262 15.6745
42.48394762115317 15.6427
42.507835634632315 15.6147
42.531912233047436 15.6054
42.55580413732265 15.5453
42.579697981698 15.4594
42.60359376768525 15.4439
42.62767820545945 15.4601
42.65157789440821 15.4156
42.67547952952185 15.3815
42.699383112316 15.369000000000002
42.72347541395347 15.3448
42.74738291190531 15.3524
42.771292362102166 15.2911
42.795203766063516 15.202
42.819303956130405 15.2432
42.843219287476536 15.1841
42.86713657716324 15.2243
42.89105582671383 15.1689
42.91516392983864 15.1386
42.939087119032166 15.1041
42.963012272677304 15.0655
42.98693939230129 15.0607
43.01105543317513 15.0544
43.034986504731386 15.0159
43.05891954686589 14.9843
43.08285456110972 14.9484
43.10697856448665 14.9406
43.130917542983475 14.8667
43.15485849820081 14.8726
43.17880143167367 14.8169
43.20293342237094 14.8231
43.226880332449 14.777999999999999
43.25082922540554 14.7536
43.27496722682525 14.7578
43.29892010567796 14.7497
43.32287497204102 14.7258
43.34683182745632 14.674000000000001
43.370977859791836 14.6136
43.39493871351105 14.6076
43.41890156092628 14.6312
43.44286640358341 14.5669
43.46702049182749 14.5669
43.49098934522816 14.5521
43.51496019852649 14.5394
43.5389330532723 14.4842
43.56309522248204 14.4497
43.58707210044314 14.4679
43.61105098451946 14.3726
43.63503187626491 14.3209
43.659202151562134 14.3563
43.68318707902681 14.3444
43.70717401884041 14.2971
43.731162972560874 14.2076
43.75534137913236 14.1915
43.779334381108384 14.2329
43.803329401683186 14.2206
43.82732644241872 14.1987
43.8515130055166 14.1798
43.87551410707659 14.1589
43.89951723350145 14.0861
43.923709934595614 14.0464
43.94771713129917 14.0262
43.97172635758096 14.0634
43.99573761501002 13.9968
44.0199385169922 13.9673
44.04395385732619 13.9324
44.067971233533086 13.9128
44.09199064718605 13.8829
44.11619977548961 13.8697
44.14022328470671 13.853
44.16424883610785 13.8278
44.18827643127035 13.8226
44.21249381139513 13.8212
44.236525514814076 13.7943
44.26055926674478 13.7926
44.28459506876863 13.7328
44.3088207262813 13.6644
44.33286064928722 13.6382
44.35690262714919 13.6249
44.38094666145278 13.568
44.4051806219871 13.5632
44.42922879003185 13.5667
44.45327901929361 13.5344
44.477331311362136 13.5569
44.501573600619416 13.4786
44.525630039221795 13.445
44.54968854541895 13.4491
44.573937102200176 13.4343
44.5979997645541 13.4039
44.622064499300315 13.3827
44.64613130803592 13.3515
44.67038823869318 13.3574
44.69445921643748 13.3272
44.718532272981385 13.286
44.742607409926194 13.2298
44.76687274034801 13.2372
44.79095205918753 13.1855
44.81503346325094 13.1934
44.839116954143876 13.2299
44.86339071028742 13.1793
44.88747839599524 13.12
44.91156817336837 13.0958
44.93566004401666 13.0978
44.959942251908146 13.0923
44.984038330325966 13.025
45.00813650686762 12.9695
45.03223678314731 12.9816
45.05652746888232 12.9502
45.08063196592069 12.9293
45.104738567558705 12.924000000000001
45.128847275414856 12.8746
45.15314646515866 12.8727
45.17725940679741 12.8522
45.20137445952892 12.8034
45.22568004865265 12.8002
45.24979934496396 12.7664
45.27392075725247 12.7569
45.29804428714431 12.7632
45.322358426247604 12.7479
45.346486212804315 12.6891
45.370616121861914 12.6559
45.39474815505086 12.6522
45.41907087049246 12.6242
45.4432071734666 12.5735
45.46734560548283 12.5876
45.49148616817604 12.5358
45.51581748638564 12.515999999999998
45.5399623320197 12.4855
45.56410931325473 12.4878
45.58825843173002 12.5022
45.61259837920865 12.443
45.636751793816 12.436
45.66090735060093 12.3917
45.68506505120716 12.3682
45.7094136545275 12.3472
45.73357566449271 12.3095
45.75773982322992 12.3045
45.78190613238733 12.2918
45.806263418194064 12.2581
45.83043404997326 12.2131
45.85460683713677 12.2433
45.87897065658495 12.2141
45.90314777634752 12.1702
45.92732705646868 12.1433
45.9515084986045 12.1193
45.97588104735473 12.1564
46.00006683541565 12.0966
46.02425479047904 12.0793
46.04844491420549 12.0705
46.0728262191024 12.065999999999999
46.09702070211635 11.9722
46.12121735879483 11.9919
46.14541619080294 11.9926
46.169806278764455 11.9621
46.194009483459034 11.9148
46.21821486849841 11.8977
46.24242243555223 11.8855
46.266821333570014 11.8254
46.29103328674601 11.8448
46.31524742696538 11.821
46.33946375590237 11.789000000000001
46.36387149104216 11.7615
46.38809221957392 11.7368
46.41231514186606 11.7111
46.436540259597464 11.7144
46.460956858999374 11.6966
46.48518638983522 11.6659
46.509418121166966 11.6036
46.533652054678114 11.6532
46.55807754555709 11.606
46.58231590571962 11.5555
46.60655647313217 11.5289
46.630988654873654 11.4836
46.655233659129024 11.4799
46.67948087571551 11.4998
46.70373030632484 11.508
46.72817142736393 11.4686
46.752425308428684 11.4335
46.77668140861147 11.4343
46.80093972960865 11.3377
46.82538981736788 11.3117
46.849652602470904 11.3756
46.87391761349769 11.3476
46.8981848521493 11.2855
46.9226439341274 11.2704
46.946915650573224 11.2214
46.97118959976749 11.1907
46.99546578341598 11.1696
47.019933887188216 11.1628
47.04421456235744 11.1965
47.06849747711879 11.1473
47.09278263318286 11.1181
47.11725978640143 11.1179
47.14154944775105 11.0945
47.165841355555656 11.0908
47.1901355115306 11.040999999999999
47.214621741924994 11.0212
47.23892041698887 11.0199
47.26322134538975 10.987
47.28771440635075 10.9966
47.31201986422527 10.9841
47.33632758061436 10.9517
47.360637557241866 10.877
47.38513974410611 10.8361
47.40945426407847 10.8665
47.43377104948137 10.8854
47.45809010204344 10.8159
47.48260144275502 10.7975
47.506925052572285 10.7679
47.53125093475548 10.7392
47.55557909103813 10.7047
47.58009961361992 10.6991
47.60443234110732 10.7222
47.62876734791564 10.6711
47.65310463578333 10.715
47.6776343683373 10.6868
47.7019762413987 10.6213
47.72632040075572 10.5972
47.75066684815169 10.5485
47.77520581885936 10.5483
47.799556865477655 10.5734
47.823910205386 10.5387
47.84826584033272 10.5061
47.87281407745551 10.4471
47.89717432569297 10.463
47.92153687423484 10.4717
47.94609208429692 10.4404
47.97045925671401 10.3927
47.99482873471275 10.4057
48.01920052005013 10.382
48.04376504619224 10.3512
48.068141469543484 10.380999999999998
48.09252020552573 10.3046
48.11690125590099 10.314
48.1414751266064 10.2895
48.16586082917454 10.2576
48.19024885144316 10.2479
48.2146391951793 10.221
48.239222439012764 10.2314
48.26361744916137 10.2142
48.28801478610016 10.1602
48.31241445160131 10.1762
48.337007097209366 10.1331
48.36141144338331 10.1304
48.38581812345755 10.1043
48.41022713920929 10.1193
48.434829215320704 10.0629
48.45924292604658 10.0354
48.48365897780325 10.047
48.50807737237308 10.0273
48.532688907799276 9.97912
48.55711201168574 9.97996
48.581537463754074 9.9451
48.60615611725119 9.944139999999999
48.63058628942721 9.90366
48.65501881516546 9.903360000000001
48.6794536962573 9.90271
48.70408185970339 9.888869999999999
48.72852147531801 9.87142
48.75296345168211 9.786610000000001
48.77740779059232 9.811860000000001
48.80204549302823 9.83479
48.82649458091802 9.781360000000001
48.85094603676547 9.7564
48.87539986237231 9.7512
48.90004713292306 9.71039
48.92450572200832 9.70808
48.94896668628025 9.681460000000001
48.97343002754588 9.67407
48.99808689542115 9.66066
49.02255501470614 9.64061
49.04702551642794 9.61082
49.0714984023988 9.5769
49.096164896893235 9.59159
49.120642575466796 9.525960000000001
49.145122643748394 9.50615
49.16960510355558 9.50783
49.19428125404938 9.495289999999999
49.2187685210852 9.51227
49.243258185121555 9.47528
49.26794160167084 9.44288
49.2924360839405 9.4243
49.31693296869764 9.4024
49.34143225776915 9.35949
49.36612538195438 9.34192
49.39062950396021 9.33905
49.41513603578346 9.33441
49.4396449792564 9.2975
49.46434784069503 9.302760000000001
49.488861631846454 9.283719999999999
49.513377840166804 9.24359
49.537896467493745 9.22303
49.56260909589029 9.19305
49.587132585683285 9.2044
49.611658500018365 9.16538
49.636186840738596 9.16153
49.66090926588511 9.1409
49.685442483902584 9.127289999999999
49.70997813385706 9.08962
49.734516217597076 9.04208
49.75924846937352 9.06959
49.7837914452858 9.05723
49.80833686055187 9.022039999999999
49.83288471702571 9.012939999999999
49.85762682540054 9.02298
49.882179588965734 9.01902
49.9067347993235 8.97151
49.93129245833333 8.97277
49.95604445336378 8.91532
49.98060703442832 8.90992
50.005172069746266 8.91985
50.02993150438364 8.87601
50.05450147301533 8.868210000000001
50.07907390151433 8.84411
50.10364879174981 8.825460000000001
50.12841816587289 8.80147
50.1529980044635 8.7868
50.17758031042124 8.763819999999999
50.20216508562089 8.77339
50.22694442953363 8.746139999999999
50.25153416817468 8.7367
50.27612638170508 8.75283
50.300721072005196 8.711889999999999
50.325510416102105 8.68816
50.350110084975064 8.665560000000001
50.37471223628208 8.6885
50.39931687190919 8.651580000000001
50.424116246675766 8.63677
50.44872587605249 8.6095
50.47333799543065 8.61306
50.49795260670191 8.59812
50.52276204271512 8.553469999999999
50.54738166295838 8.54284
50.57200378079314 8.535639999999999
50.596628398116835 8.52257
50.62144792604559 8.50434
50.646077567609396 8.52398
50.670709714377715 8.482660000000001
50.69553683636198 8.46751
50.72017401885922 8.455210000000001
50.7448137122895 8.41605
50.76945591856022 8.39519
50.79429318636823 8.37403
50.818940443716784 8.37425
50.84359021965163 8.33267
50.868242516085964 8.30969
50.893089960641895 8.32575
50.917747323549435 8.28978
50.94240721271973 8.25789
50.96706963007175 8.24569
50.99192728239342 8.225430000000001
51.01659478166073 8.230839999999999
51.04126481489051 8.22017
51.06593738400761 8.208730000000001
51.090805275207074 8.19788
51.11548294172845 8.1529
51.14016314993547 8.15316
51.164845901758845 8.15457
51.18972406304274 8.096260000000001
51.21441192780656 8.08192
51.23910234200271 8.07628
51.2637953075678 8.05372
51.288683770237945 8.01557
51.31338186432707 8.00328
51.33808251561888 7.96215
51.362978729967345 7.98941
51.387684521509755 7.99693
51.41239287610203 7.9783100000000005
51.437103795691165 7.914339999999999
51.46201036644977 7.91373
51.486726441956634 7.908180000000001
51.51144508832545 7.933860000000001
51.536166307509156 7.914160000000001
51.56108326624387 7.861610000000001
51.58580965706056 7.83507
51.61053862657523 7.802219999999999
51.635270176746864 7.80925
51.66019755512065 7.80225
51.68493429268881 7.7989
51.70967361681515 7.7716199999999995
51.73441552946465 7.7557100000000005
51.759353359237934 7.73539
51.7841004750961 7.72907
51.80885018539685 7.73458
51.833602492111254 7.68797
51.8585508051424 7.67307
51.883308330926425 7.64838
51.90806845906181 7.629589999999999
51.932831191525715 7.61631
51.95779001977161 7.59507
51.98255798721516 7.56025
52.00732856494335 7.5694300000000005
52.03229530577543 7.51803
52.057071130455945 7.523639999999999
52.081849571391054 7.52435
52.106630630568695 7.523160000000001
52.13160794279417 7.497089999999999
52.15639426492067 7.4588600000000005
52.18118321127822 7.4851600000000005
52.205974783860896 7.44615
52.23096269971011 7.43617
52.255759551287994 7.44373
52.280559035098186 7.347230000000001
52.30536115314103 7.38025
52.33035970494467 7.367889999999999
52.35516711807904 7.3575
52.37997717147198 7.34663
52.40478986713005 7.313
52.42979908731974 7.2945899999999995
52.454617094216 7.26003
52.47943774942214 7.2432300000000005
52.50426105495102 7.2335899999999995
52.529280976059844 7.215510000000001
52.554109609024096 7.22773
52.57894089837482 7.22227
52.60377484613117 7.2062800000000005
52.62880550079408 7.20943
52.65364479223379 7.196510000000001
52.67848674816189 7.1512
52.70352547971946 7.131419999999999
52.72837279155837 7.111960000000001
52.753222773982785 7.12379
52.778075429022984 7.11367
52.80312495150885 7.094360000000001
52.827982978797436 7.06918
52.85284368481815 7.03985
52.87770707160767 7.0338199999999995
52.90276741793998 7.02579
52.92763619336701 6.99745
52.952507655698504 7.00961
52.977381806977576 7.03183
53.00245301017842 6.94298
53.02733256653592 6.9701699999999995
53.052214817996074 6.9416199999999995
53.077099766608484 6.943410000000001
53.102181859804446 6.926139999999999
53.127072229988265 6.92345
53.15196530349892 6.90181
53.17686108239249 6.863060000000001
53.20195409881522 6.8218
53.22685531582556 6.8356699999999995
53.25175924441303 6.82338
53.27666588664027 6.77982
53.30176985962693 6.7505
53.3266819565689 6.7499
53.35159677336455 6.75115
53.376514312083096 6.7475
53.40162927507703 6.726139999999999
53.42655228516116 6.7065399999999995
53.45147802340193 6.692939999999999
53.47660125628886 6.70867
53.50153247842639 6.65457
53.52646643496923 6.6671
53.55140312799818 6.63647
53.576537409691696 6.61137
53.60147960336152 6.55324
53.626424539786164 6.61025
53.65137222105307 6.65717
53.67651758529126 6.575639999999999
53.70147078399681 6.55065
53.72642673383343 6.54855
53.75138543689533 6.51716
53.776541917524526 6.51399
53.801506154876755 6.5118
53.826473151763246 6.519430000000001
53.851442910284916 6.48119
53.87661054126026 6.48728
53.9015858509782 6.4722599999999995
53.92656392866066 6.44575
53.95154477641532 6.45501
53.976723591801296 6.418419999999999
54.00171000771266 6.40549
54.02669920004598 6.40722
54.051691170915745 6.36303
54.076881204886796 6.34821
54.101878760928514 6.3281
54.12687910187696 6.31799
54.152077577768296 6.280930000000001
54.1770835166946 6.24947
54.20209224691339 6.22063
54.22710377055121 6.23234
54.25231352511594 6.23484
54.27733066384342 6.16496
54.30235060239643 6.17281
54.32737334290836 6.16255
54.35259441062629 6.0846800000000005
54.377622783395324 6.11375
54.40265396455061 6.133830000000001
54.42768795623251 6.07526
54.45292037169559 6.04736
54.477960012857906 6.08251
54.50300247099511 6.046869999999999
54.52804774825457 6.003019999999999
54.55329154616743 6.01275
54.57834249018678 5.95935
54.6033962597977 5.94647
54.6284528571545 5.93642
54.653708072335164 5.8586
54.67877035378786 5.86638
54.70383546947698 5.825419999999999
54.72890342156389 5.81292
54.7541700889442 5.7985
54.77924374251975 5.82505
54.8043202390049 5.806830000000001
54.82959552413022 5.72589
54.8546777351945 5.75105
54.87976279569621 5.70059
54.90485070780914 5.7354
54.930137506558005 5.71087
54.95523115074295 5.71111
54.98032765308844 5.61834
55.005427015775496 5.6122
55.03072536339621 5.6397900000000005
55.05583047570572 5.58755
55.080938454927676 5.57504
55.10604930325027 5.53355
55.131359235107396 5.52671
55.15647585066083 5.4378400000000005
55.181595341907496 5.47722
55.20671771104285 5.475140000000001
55.232039262617704 5.4532300000000005
55.25716741665048 5.41324
55.28229845518636 5.34134
55.30743238042802 5.33369
55.33276558731939 5.29409
55.357905315183636 5.34781
55.383047936390035 5.30831
55.40819345314859 5.23203
55.433538351073295 5.19911
55.458689688238415 5.20884
55.483843927614096 5.15509
55.509197623043605 5.10145
55.53435769621134 5.10846
55.55952067826466 5.13707
55.5846865714265 5.111000000000001
55.61005202069737 5.07866
55.63522376553902 5.02423
55.66039842818645 5.02484
55.68557601087004 5.04646
55.7109532500271 4.95528
55.73613670233794 5.05035
