TT I
1.2716486653135266 7.36419
1.2939594142134223 6.5763
1.3162702121660406 6.80485
1.3385810600174564 6.794569999999999
1.3608919586137629 6.50001
1.383202908801069 6.10869
1.405513911425503 5.9530400000000006
1.4278249673332093 6.42853
1.4501343378461518 5.95134
1.4724455028545926 5.86407
1.4947567236847858 5.48316
1.517068001182951 5.964840000000001
1.5393793361953272 5.46899
1.5616907295681737 5.1931400000000005
1.5840021821477681 5.00079
1.60631369478041 5.22277
1.6286252683124185 5.39887
1.6509369035901333 5.27571
1.6732468618895553 4.937119999999999
1.695558623192809 4.79743
1.7178704487808514 4.93781
1.7401823395001077 4.93257
1.7625012545597203 5.04467
1.7848028405262486 4.88633
1.8071218901122095 4.65454
1.8294236121921872 4.84575
1.8517427996910911 4.87343
1.8740620574440425 5.3914
1.8963639900671978 4.83552
1.9186833908139995 5.00822
1.9409854680117449 4.94757
1.9633050151394713 4.408919999999999
1.9856246367570705 4.682919999999999
2.0079269371922672 4.44958
2.03024671027244 3.9936599999999998
2.0525491637446027 4.45361
2.074869091674931 4.62712
2.097171701569106 4.39308
2.1194917877373847 5.0935
2.141811954326636 4.62648
2.164114805233074 5.07991
2.186435135143035 5.15643
2.208738150935709 7.558889999999999
2.231058647554722 13.2104
2.2533792288321184 10.6152
2.275682498336085 6.83316
2.298003251406138 5.32839
2.3203066942619714 4.98749
2.3426276225136022 5.04258
2.3649486396617507 6.11362
2.387252348930071 6.35787
2.4095735463442893 5.77961
2.4318774374315884 6.5111
2.4541988185014043 6.47576
2.476502894794693 7.49927
2.498824462909887 6.57152
2.521146125856138 6.5458
2.5434504863470337 7.40303
2.5657723414244717 7.583989999999999
2.588076895590662 8.18943
2.610398946189713 8.43946
2.6327210958598384 8.4366
2.6550259469304716 8.4141
2.6773482972090137 8.579039999999999
2.6996533504259 7.8377
2.7219759047039602 8.18781
2.744298562293959 8.38705
2.7666039251246595 8.23817
2.7889267918020164 8.03466
2.8112323652516555 8.34815
2.833555444408179 8.61743
2.8558786311183852 8.635769999999999
2.8781845268938557 8.5601
2.9005079311721484 9.07329
2.9228140460410397 8.717830000000001
2.9451376712799635 9.0086
2.967444008632326 9.4493
2.9897678582247247 9.73835
3.0120918213106695 10.392999999999999
3.0343984987899373 10.7411
3.0567226913198637 11.3031
3.079029599759726 11.7652
3.101354025127254 12.3138
3.123678568232338 13.0122
3.145985829517914 13.0411
3.16831061055229 13.3099
3.1906181112775593 14.4101
3.212943133635653 14.8616
3.2352682779763207 15.2414
3.2575761442691227 15.4246
3.2799015350264273 16.0469
3.302209649240067 16.092
3.3245352898092655 16.8581
3.3468436553365257 16.774
3.369169549113219 17.2124
3.3914955708171384 18.3192
3.413804319727358 18.4779
3.4361305997334863 18.8515
3.4584396084414553 19.3067
3.4807661501462652 19.8921
3.503092824025881 19.9783
3.5254022288463154 20.7528
3.5477291695206588 21.264
3.5700388426251948 22.2288
3.5923660534916446 22.9126
3.6146934007816114 29.0553
3.637003482731501 46.9377
3.6593311053109985 50.1824
3.681641464033634 35.5407
3.7039693653009733 26.5706
3.726297407241705 25.0319
3.7486081875460804 25.059
3.7709365132734978 25.6335
3.793247578841633 25.8386
3.8155761917550093 26.6106
3.8378875459837216 27.2196
3.8602164494827234 27.318
3.882545499606844 28.2864
3.9048572932539183 28.8132
3.9271866390645718 29.0533
3.9494987298666713 29.9061
3.971828374764527 30.0222
3.9941581705403255 30.6663
4.016470713506008 31.3938
4.038800813471445 31.7367
4.061113662089144 32.28
4.0834440696459176 33.3293
4.105774632334751 33.3672
4.128087945865126 33.5347
4.150418821249301 34.4122
4.172732448931298 36.0098
4.195063640413578 36.714
4.2173775856475215 39.4194
4.239709096631102 54.0949
4.262040768704612 114.152
4.284355196706267 139.556
4.306687193387355 98.2294
4.329001947444346 56.2685
4.35133427213731 45.128
4.373666762177566 44.0602
4.395982011761091 44.3273
4.418314834921175 44.9046
4.44063041906622 48.1233
4.4629635787515625 52.4059
4.4852969080429785 53.1706
4.5076130004776225 52.1117
4.529946671403969 56.9879
4.552263106909177 61.0109
4.574597122877047 57.6163
4.596931312711224 53.7569
4.619248269273446 53.2321
4.6415828092605835 53.7734
4.663900117405352 54.8991
4.686235010953232 56.0214
4.708552674085913 57.497
4.730887924602802 59.246
4.753223354952695 61.3508
4.775541557023902 64.415
4.797877349456786 68.1294
4.820195915032126 68.7799
4.842532072957498 67.4825
4.864868414979744 70.4264
4.88718753227192 74.0923
4.909524244902505 76.1182
4.931843734218147 75.4396
4.954180820867835 77.215
4.976518095879839 80.255
4.998838149695359 83.1258
5.021175803844231 87.7701
5.043496238205739 91.7165
5.065834274903528 95.7095
5.088172504230693 98.7656
5.1104935158799565 104.339
5.132832132875765 122.46799999999999
5.155153533596801 151.986
5.1774925416746225 179.94400000000002
5.199814334878411 326.54200000000003
5.2221537374521505 893.318
5.244493338631803 2732.27
5.266815727034316 7923.99
5.289155727832427 13360.7
5.311478517248165 8923.58
5.333818921080011 2775.03
5.356159527788849 522.674
5.3784829252032536 192.87900000000002
5.400823940070432 151.894
5.423147747031976 128.989
5.445489173474152 119.42299999999999
5.467830807066149 119.171
5.490155234831516 118.59100000000001
5.512497285125229 111.427
5.534822130975162 105.11399999999999
5.557164601388673 101.539
5.579489868738879 98.0921
5.601832762690846 96.4418
5.6241758697774475 95.93
5.646501775867269 94.8505
5.668845311622074 93.9987
5.691171647754637 93.0196
5.713515615597765 92.0068
5.735859800852677 91.8258
5.758186788542988 94.0878
5.780531411018185 97.4501
5.802858837297399 97.8082
5.825203900414495 97.3003
5.8475491852224 100.941
5.869877275883075 100.495
5.892223006467101 95.7723
5.914551544266608 93.581
5.936897724049891 95.2675
5.959244129804903 100.125
5.981573344815301 118.766
6.0039202049061 206.269
6.026249875609095 428.211
6.04859719346037 916.1239999999999
6.070927323278297 2217.36
6.093275102315365 4541.72
6.115623113320588 5203.37
6.137953938319995 3034.76
6.160302415650845 859.6080000000001
6.182633708324452 206.601
6.2049826554078376 106.791
6.227331838745022 88.1349
6.249663839443684 82.2764
6.27201349767565 79.1999
6.294345974611799 80.2197
6.316696111167083 82.3758
6.339046488263839 79.5287
6.361379686074702 72.9945
6.383730546639482 70.1326
6.406064229255215 69.4535
6.428415576718203 70.9564
6.450749747566656 69.1225
6.47310158535871 66.4984
6.495453669698332 64.3084
6.517788579421056 63.5359
6.540141159237969 62.848
6.562476565766648 62.1715
6.5848296444934045 62.1148
6.607182974060425 62.292
6.6295191323281015 62.2426
6.651872965955752 62.8599
6.6742096296068985 72.0493
6.6965639707294615 87.9206
6.71891856698715 85.9707
6.741255995248479 70.4729
6.763611104154477 61.5598
6.785949046381137 58.6221
6.808304671371482 58.7166
6.8306605557940046 60.4795
6.852999275508618 58.9777
6.875355681171544 57.097
6.897694923437771 56.1323
6.92005185377892 55.4915
6.9423916220322655 55.5807
6.964749080490181 54.8415
6.987106804399774 54.848
7.009447368180821 55.743
7.031805625367033 55.3811
7.054146723727803 54.7716
7.076505517631004 54.4409
7.098864581288365 54.5051
7.121206488070854 55.2002
7.143566093607822 56.0378
7.165908543567245 56.9394
7.188268694426048 56.339
7.2106291193438095 54.8753
7.232972390625943 55.0226
7.255333366030969 60.2255
7.277677189091925 80.3102
7.300038718428332 95.9694
7.322400526130865 84.8068
7.344745183422596 65.6851
7.367107550224791 56.003
7.389452767901992 53.9896
7.411815697249891 53.928999999999995
7.434161478756298 53.0198
7.456524974096713 52.893
7.478888753837185 53.2057
7.501235387657368 53.5126
7.523599738562711 53.5909
7.545946944825532 53.6044
7.568311870344528 54.4064
7.5906770845765665 54.1564
7.613025156078678 54.676
7.635390950099687 55.6891
7.657739602662809 55.4687
7.680105979923558 55.992
7.702472650212829 56.5573
7.724822180948224 56.0849
7.747189439655568 55.6276
7.769539560075357 55.3181
7.791907410653562 55.628
7.81425812420825 55.505
7.836626570110925 55.5354
7.858995315087906 56.5064
7.881346924933401 57.1433
7.903716270417482 57.6837
7.926068482028405 57.5944
7.948438431475253 58.3524
7.9708086843180235 58.6509
7.993161805171116 59.821000000000005
8.015532667162402 60.0619
8.037886398416653 61.2434
8.060257873014221 61.8477
8.082629655331942 62.5634
8.104984308787587 63.4398
8.127356708900503 65.9065
8.149711981398308 70.2298
8.172085002766314 72.1898
8.194458336181368 70.1048
8.216814543847752 68.3524
8.23918850371002 68.4215
8.26154533906492 69.5696
8.283919928836452 70.7989
8.306277395339652 71.5384
8.328652618483376 73.4853
8.351028159736202 75.7085
8.373386579575245 78.1439
8.395762759396959 79.2478
8.418121819038275 82.6127
8.440498640894003 89.0078
8.462875785192262 97.6526
8.485235811156207 114.07700000000001
8.507613602688501 157.929
8.529974277114228 238.748
8.552352719347912 367.564
8.574731488360351 630.149
8.59709314210385 1184.43
8.619472567021075 1876.54
8.64183487789147 2202.07
8.664214962183097 1771.77
8.686577933647762 905.477
8.708958680784317 349.038
8.731339760774953 155.327
8.753703729764451 107.484
8.77608547780821 96.774
8.798450116065078 93.4772
8.820832535634787 90.9942
8.843215292401656 91.8874
8.865580941199045 92.1345
8.887964374703538 91.5229
8.910330701447199 91.60799999999999
8.932714815164482 91.5822
8.955099270424924 88.6887
8.977466620733543 85.5552
8.999851761421976 84.2954
9.022219798361645 83.1494
9.04460562795561 82.9445
9.066991803441677 83.1221
9.089360876979615 83.5221
9.111747746589993 83.419
9.13411751544971 82.2282
9.156505082664324 81.5452
9.178875550323522 81.3854
9.20126381862328 81.3191
9.223652438908596 81.3872
9.246023961427412 81.363
9.26841328802173 81.3396
9.290785518039224 81.4172
9.313175554425882 83.9397
9.335565947154315 85.8845
9.357939245086508 86.7384
9.380330352834827 85.5618
9.40270436697103 85.5501
9.425096193225055 84.2436
9.447488380180165 84.3263
9.469863475295412 83.8643
9.492256385987508 83.9046
9.514632206018318 84.3479
9.537025843935714 84.9382
9.559402392368193 85.9763
9.581796761000229 88.3566
9.604191496441521 91.3581
9.626569144158516 93.6203
9.648964615551032 95.1988
9.671343000390081 94.2616
9.693739211225699 92.8284
9.716135793237463 91.5062
9.738515290448102 92.1276
9.760912617143402 93.8177
9.783292860202891 96.5351
9.805690935076182 98.8014
9.828089385495742 99.2257
9.850470754023561 100.209
9.872869957865444 103.26700000000001
9.89525208097539 110.064
9.917652041736662 115.868
9.940052382417589 119.954
9.962435644102392 137.458
9.984836746950979 173.649
10.007220771957746 233.372
10.029622640473708 330.89
10.052007432299963 513.7080000000001
10.074410069984072 828.423
10.096813093716005 1271.22
10.119199042482517 1768.34
10.141602840636468 1946.13
10.163989564971628 1484.44
10.186394141051062 815.997
10.208799107559706 361.76199999999994
10.231187001965623 175.707
10.253592751657669 121.65899999999999
10.275981430388155 110.31700000000001
10.298387966769793 108.145
10.320794897965431 108.211
10.343184759907361 106.509
10.36559248305461 103.669
10.387983138083852 102.708
10.410391656691655 106.656
10.432800574501677 116.925
10.455192425893369 131.123
10.47760214443012 157.975
10.499994797678786 205.007
10.522405320453982 289.547
10.54479877906917 406.33
10.567210109595656 532.1569999999999
10.5896218454736 571.238
10.612016518879773 478.27099999999996
10.634429067781074 327.111
10.656824555333241 187.07299999999998
10.679237920773568 117.07700000000001
10.701651695961992 93.3207
10.724048411481384 87.3976
10.746463008485165 85.1301
10.768860546937125 83.5532
10.791275969274796 82.0712
10.81369180576079 81.1031
10.836090585366925 79.8906
10.858507252467449 78.834
10.88090686379991 77.7599
10.903324365036394 77.6238
10.925724811614439 77.1492
10.948143150509463 77.484
10.970561909719066 77.3738
10.992963615930844 76.4825
11.015383218085756 74.8318
11.037785768347074 73.1031
11.06020621697282 71.93
11.082627090322113 71.1114
11.105030913430326 70.5842
11.12745263854165 70.3165
11.149857314510728 71.2852
11.172279894912576 73.3329
11.194702904450653 72.8392
11.217108866490921 70.8696
11.239532736615194 69.324
11.26193956033512 68.4654
11.284364294577085 67.5359
11.306789462371718 66.8087
11.329197585398376 66.0854
11.351623622610898 66.1167
11.37403261614354 65.459
11.396459526308487 65.1485
11.418869393879497 64.5151
11.441297180532617 64.4725
11.463725406927658 64.2236
11.486136592353875 63.7485
11.508565700543707 63.7614
11.530977768845315 64.4045
11.553407762368774 64.321
11.575838200059769 63.867
11.598251599479612 63.0321
11.620682927815501 62.5241
11.64309721895548 62.5937
11.665529441478206 61.9359
11.687962112597958 61.8732
11.710377748130886 61.7875
11.732811318753434 61.9408
11.755227854859067 62.263000000000005
11.777662328529495 61.935
11.800079768750786 61.8042
11.822515149015453 61.8192
11.844950984084935 62.136
11.867369787303163 61.5796
11.889806534289491 61.321000000000005
11.912226250487029 61.821000000000005
11.934663912939751 62.1404
11.9571020346363 62.2286
11.979523127133968 62.3513
12.001962169624331 63.0932
12.024384183972964 63.9178
12.046824150809913 66.9551
12.069264581333726 71.2589
12.091687985297767 77.422
12.11412934550045 86.6043
12.136553680195208 102.898
12.158995973632788 127.12700000000001
12.181438735204349 157.84799999999998
12.20386447284199 186.834
12.226308172985636 204.71
12.24873485024193 197.548
12.271179492516982 155.95600000000002
12.293607112949127 117.855
12.316052700916226 88.7922
12.338498763250042 72.3896
12.360927805303868 66.0151
12.383374818673879 63.7862
12.405804812803074 63.1141
12.428252780773262 63.0801
12.45070122756722 63.0138
12.473132656675375 63.3445
12.49558206341869 63.958999999999996
12.518014453510101 64.041
12.540464823770117 64.2277
12.562915677315177 64.102
12.58534951575545 64.1525
12.607801338171472 64.9707
12.630236146511358 66.9981
12.652688941369085 68.9812
12.675124723177234 69.2627
12.697578494048786 68.2361
12.720032754458185 66.89699999999999
12.742470003354093 66.4215
12.764925245138771 66.6594
12.787363476431278 67.0526
12.809819703166806 67.2928
12.83227642391173 68.2944
12.854716135692716 69.0889
12.877173846755147 69.9922
12.899614549869717 70.4987
12.9220732548287 71.3827
12.94453245827299 71.8291
12.966974655289818 73.0982
12.989434858002571 73.5272
13.011878055298721 74.02
13.034339260862497 75.048
13.056800969391883 76.032
13.079245674017244 78.5145
13.101708390774869 81.439
13.12415410463411 88.4499
13.146617833206086 98.0295
13.169064559883248 108.12299999999999
13.191529303857127 122.839
13.213994557076367 146.776
13.236442809902437 185.668
13.258909083908291 244.43
13.28135835851934 311.597
13.30382565690295 382.11699999999996
13.326293469022952 430.635
13.348744283242008 416.525
13.371213125129904 342.81800000000004
13.39366497011003 240.88400000000001
13.416134845360597 161.974
13.438605238843131 118.00299999999999
13.46105863690397 102.899
13.483530069144786 102.94200000000001
13.505984506951902 107.81200000000001
13.528456981549432 117.771
13.550929978879088 133.121
13.573385983253365 158.859
13.595860028340867 201.11900000000003
13.618317081455832 256.611
13.64079217790333 316.113
13.663250283359057 361.7
13.685726434770173 373.95300000000003
13.708203115221277 323.3
13.730662806148091 250.287
13.75314054697177 175.68400000000003
13.775601299246777 121.759
13.798080104050406 94.2082
13.820559442405358 84.0314
13.843021793671388 80.6041
13.865502201420897 78.9562
13.887965623051947 78.3591
13.910447103807167 77.3155
13.932929122629764 76.0437
13.955394156785959 75.8068
13.977877254034569 74.6784
14.000343367582113 73.7706
14.022827546871707 73.3466
14.045294743423524 72.5794
14.06778000837062 71.9569
14.090265817715476 71.9873
14.112734645763819 71.5288
14.13522154619454 71.1002
14.157691466286913 70.7537
14.180179461423874 70.6211
14.202668005486178 70.4987
14.22513957064374 69.7587
14.247629214846473 69.3108
14.270101881097517 69.2014
14.29259262906496 68.982
14.315083930490205 69.4594
14.337558255389705 69.3043
14.360050666019726 68.9743
14.382526101071944 68.7343
14.405019624534942 68.3728
14.427513705993134 67.9655
14.449990813291825 67.9285
14.47248601302899 67.7104
14.49496423954951 67.9445
14.517460561197822 67.8622
14.539939910570322 67.7115
14.562437357763558 67.9499
14.58493536931253 68.6635
14.607416409993311 68.9592
14.62991555254159 69.3461
14.652397725157423 69.4703
14.674898002342799 69.6071
14.697398848433282 69.293
14.719882725991326 70.2556
14.74238471217934 71.7079
14.764869730765593 74.715
14.787372860692983 77.4724
14.809876564079925 81.7055
14.83236330125751 87.6413
14.854868153850365 96.4671
14.877356041159485 110.759
14.899862046604186 130.644
14.922351087688757 158.015
14.944858249632887 188.297
14.967365991421232 213.048
14.989856770231246 223.351
15.012365673994204 212.554
15.03485761569738 180.523
15.05736768508665 141.972
15.07987833888692 108.59700000000001
15.102372032001655 87.6348
15.124883856909658 75.3408
15.14737872204565 71.0961
15.169891721717274 69.7784
15.192405310371893 69.2214
15.214901940621196 68.9402
15.237416709527137 68.3353
15.259914520936249 68.5253
15.282430473753607 67.6375
15.304947020131227 67.0196
15.327446610371178 66.4303
15.349964346154254 66.0792
15.372465126703139 65.7905
15.394984055556009 65.6829
15.417486030076159 65.3783
15.44000615566487 65.0455
15.462526881230803 64.8323
15.485030653812652 64.8093
15.507552581617434 64.8926
15.530057557334603 64.9253
15.55258069104857 64.6879
15.575104429329837 64.8305
15.597611216864632 64.7191
15.620136166564563 65.2113
15.6426441664095 66.4966
15.665170331202765 68.4393
15.687697105158826 71.1011
15.710206930593545 74.3083
15.732734925158933 78.6192
15.755245972089478 85.3337
15.77777519094324 94.3396
15.800287463046663 108.48
15.822817909869592 128.62
15.84534897229804 151.483
15.867863089299354 174.957
15.890395385222186 191.05700000000002
15.912910736597423 191.83700000000002
15.935444269699861 178.072
15.957978423016485 147.535
15.980495633101265 116.18299999999999
16.003031029129367 91.071
16.02554948280019 73.7636
16.048086125229432 65.8674
16.070623392487107 63.2389
16.09314371869582 62.2678
16.11568223789321 61.2145
16.13820381691126 60.3527
16.160743591742527 59.8087
16.183283996022084 59.2282
16.205807461423195 58.3075
16.228349126881973 57.7465
16.25087385432698 57.7856
16.27341678466365 57.3005
16.29594277784926 57.1647
16.31848697676433 56.988
16.341031811604868 56.6919
16.36355971058487 56.7991
16.3861058195587 56.5771
16.40863499352978 55.8719
16.431182380342005 55.3228
16.453730407713202 55.0032
16.476261501364792 54.8063
16.498810812136167 54.5249
16.52134319004079 54.5254
16.54389378792203 54.4637
16.566445031001553 54.4839
16.588979342490088 54.2817
16.61153187824822 54.2617
16.634067483263312 53.9528
16.656621315414416 54.0028
16.679175797408888 53.4466
16.701713349928728 53.4654
16.72426913389191 53.7353
16.74680798922351 53.7596
16.76936507887444 53.7699
16.791905240734874 53.8287
16.814463639794468 53.7451
16.837022695210294 53.9135
16.859564824093756 54.0074
16.882125194503903 54.1907
16.904668639217885 54.5606
16.927230328348003 54.5966
16.949792678493612 54.8082
16.972338104193863 54.5699
16.994901778652235 54.2454
17.017448529496576 54.631
17.040013531998152 55.0388
17.06257920018044 55.4342
17.0851279459922 55.9851
17.107694947817667 56.9838
17.130245028099072 57.6426
17.15281336730298 59.2189
17.17536478578733 60.6938
17.19793446610687 63.1819
17.220504818648422 66.3984
17.243058251703697 70.0597
17.265629950971032 74.4982
17.288184731571736 79.3349
17.310757781306908 82.1421
17.33333150794385 82.3733
17.355888317140174 79.89
17.37846339986244 74.5945
17.401021565958885 68.9801
17.42359800851343 64.21
17.44617513265564 60.8841
17.468735341390783 59.2013
17.491261035594565 58.5982
17.51396340099364 58.2086
17.536490463869136 58.3117
17.559018209820174 58.1325
17.58154663977963 58.443000000000005
17.604251766089718 58.5662
17.626781572227713 58.8618
17.64931206518155 58.891999999999996
17.671843245885103 59.2427
17.69455114821572 59.3416
17.717083712612634 59.6326
17.739616967569667 59.8265
17.762150914021706 60.0396
17.78486160749854 60.3429
17.807396945166804 61.265
17.829932977143503 62.1227
17.85246970436452 63.6051
17.875183204129467 65.3311
17.897721330097664 67.0949
17.920260154126645 69.1707
17.942799677153296 72.1579
17.9655159983646 76.2914
17.988056927677544 81.9298
18.010598558807683 90.1225
18.033140892692916 101.007
18.05586005052525 112.434
18.07840379824407 123.32799999999999
18.10094825154059 132.404
18.12366954819864 136.541
18.146215420998306 133.906
18.16876200220057 125.212
18.191309292745153 111.766
18.214033452627167 99.7394
18.236582170236648 89.1709
18.259131600016456 84.9591
18.281681742907335 85.72200000000001
18.304408781233683 90.3029
18.32696035875955 95.9545
18.349512652227624 100.1
18.372065662579683 104.259
18.394795594587553 103.99
18.41735004715306 99.448
18.43990521943684 92.0516
18.46246111238171 82.9755
18.485193953325208 74.4623
18.507751296070428 68.0478
18.530309362314178 64.4644
18.552868153000343 62.412
18.57560391815056 61.1084
18.59816416623245 60.8437
18.620725141597372 60.2535
18.643286845190268 59.7683
18.666025549835414 59.3024
18.688588718427933 58.8367
18.711152618092243 58.7936
18.73389353884365 58.341
18.75645890921984 57.9136
18.77902501351406 57.9511
18.801591852673102 57.6725
18.824335739722738 57.075
18.846904057212626 57.1556
18.8694731124168 56.8915
18.89204290628315 56.6932
18.914789774966803 56.4739
18.937361054791623 56.3751
18.959933076131318 56.0496
18.982505839934877 56.0685
19.00525570560582 56.0456
19.027829963004184 55.8134
19.05040496572238 55.8581
19.072980714710468 55.7293
19.095733592739563 55.9734
19.11831084296757 56.3643
19.140888842324735 56.6613
19.16346759176222 56.8469
19.18622349753803 57.2686
19.208803755869358 58.1725
19.231384767143577 59.6314
19.253966532312948 61.2611
19.276725481241822 63.4137
19.29930876296784 66.1469
19.3218928014549 68.9656
19.34465404436217 71.4315
19.36723960516257 73.5487
19.389825925592426 74.0473
19.412413006605938 72.7255
19.43517731967805 69.567
19.457765930683355 65.4653
19.48035530514408 61.3041
19.50294544401556 57.6873
19.525712842708348 55.3647
19.54830451925909 54.2107
19.570896963095727 53.2625
19.593490175174704 52.9104
19.616260674962184 52.9357
19.638855432416964 52.7393
19.661450960992624 52.9102
19.68404726164677 52.7252
19.706820878021247 52.4754
19.729418731756834 52.6588
19.752017360452857 52.5503
19.77461676506804 52.681999999999995
19.797393513540218 52.7082
19.819994478951667 52.9738
19.84259622316767 53.3648
19.8651987471481 53.7911
19.887978643247177 54.0029
19.91058273574792 54.4244
19.933187610901943 55.2064
19.955969879466828 56.5907
19.97857632894404 58.1268
20.00118356396599 59.9016
20.023791585494575 62.0732
20.046577028914875 64.8215
20.069186632506966 66.8058
20.091797025500632 68.363
20.114408208858933 69.0053
20.137196842715273 67.9692
20.159809615886765 66.6489
20.18242318232135 64.1635
20.20503754298326 62.5174
20.227829382875154 61.4521
20.250445341109344 61.6827
20.27306209647285 62.3552
20.29567964993108 63.7549
20.31847471147704 64.4233
20.34109387027612 64.6083
20.363713830075454 63.7596
20.386334591841646 62.3245
20.409132890679302 59.5996
20.431755265564437 56.5964
20.454378445325528 53.8686
20.477002430930366 52.2444
20.499803982716553 51.148
20.522429589228004 50.2994
20.54505600449589 50.0448
20.567683229489194 49.7951
20.590488049900088 49.5315
20.61311690359731 49.4329
20.63574656993626 49.1375
20.658553853717297 48.9721
20.681185154618298 48.8722
20.703817271080066 48.7266
20.72645020407368 48.225
20.749260783967177 48.2679
20.771895359337133 48.3513
20.794530754161617 48.1891
20.817166969412938 48.0416
20.83998086114876 48.0528
20.86261872660049 47.9234
20.885257415405402 47.8461
20.90789692853701 47.8765
20.930714147864748 47.8533
20.953355319030678 47.7749
20.97599731745334 47.8562
20.99864014410749 47.7963
21.021460706796564 47.7343
21.044105199328826 48.1043
21.06675052302631 48.1388
21.089396678865015 48.4252
21.112220600704806 48.6381
21.134868430275347 48.9594
21.15751709492456 49.3363
21.180166595629693 49.678999999999995
21.202993892429635 50.2771
21.22564507473034 50.4851
21.24829709602816 50.6999
21.27112693608965 50.4539
21.293780644891275 50.6146
21.316435195634053 49.7713
21.339090589297417 48.9348
21.361923832041875 48.6078
21.384580921090404 48.0962
21.407238856007325 47.637
21.429897637773326 47.633
21.45273429906592 47.7748
21.475394784108598 47.5443
21.498056118951983 47.6518
21.520718304578022 47.7641
21.543558400304388 47.9047
21.566222297108816 48.2528
21.58888704765135 48.11600000000001
21.61155265291521 48.5504
21.63439619898156 48.8973
21.657063523335786 49.081
21.67973170537063 49.5655
21.7024007460706 50.1598
21.72524775840385 50.8594
21.747918526116475 51.7865
21.770590155457388 53.1579
21.79326264741238 54.9163
21.816113141960237 56.7921
21.838787368860547 58.5244
21.861462461341976 60.3504
21.884315579735777 62.3795
21.90699241312273 63.2591
21.92967011506078 63.4938
21.95234868653799 62.8996
21.9752053151131 61.7002
21.997885635446785 59.6173
22.020566828293532 58.0411
22.04324889464272 56.6768
22.066109049404666 55.4907
22.088792872571794 55.3759
22.111477572219204 55.3454
22.1341631493376 55.2092
22.157026846313123 54.9408
22.179714188221507 54.102
22.202402410582668 52.8593
22.22509151438863 51.3271
22.24795876962584 50.326
22.270649646204486 49.578
22.293341407213727 48.8493
22.316034053646906 48.3632
22.338904883215342 48.0332
22.36159931041458 48.0301
22.38429462602756 48.0874
22.40699083104897 47.7696
22.429865251039757 47.8769
22.452563244831367 47.7817
22.47526213102522 47.8386
22.49813925616515 47.8013
22.520839937143307 47.7244
22.543541513520587 47.8623
22.56624398629403 47.5848
22.589124730075895 47.5136
22.611829005656723 47.9107
22.63453418063466 47.966
22.657240256008077 48.0111
22.680124634582935 48.1646
22.70283252079775 48.5441
22.725541310413075 48.7617
22.74825100442868 48.8376
22.771139033969575 49.3461
22.79385054687155 49.7048
22.81656296718292 50.2959
22.83927629590484 51.2154
22.862167992606945 52.3161
22.88488314827121 53.3091
22.907599215359284 54.5402
22.93031619487366 55.6337
22.953211574954405 56.4308
22.975930389478226 56.843
22.998650119445763 56.7835
23.02137076586092 55.9357
23.044269845560063 54.5709
23.06699233506288 53.1399
23.089715744034912 51.456
23.112617610931565 50.0502
23.135342869061212 48.9936
23.158069049684816 48.3813
23.1807961538087 48.0698
23.20370174880544 47.9697
23.226430710184808 47.9226
23.249160598093425 47.9266
23.271891413539002 47.9533
23.294800752937697 47.998999999999995
23.31753343374794 48.206
23.340267045128353 48.4049
23.36300158808808 48.7496
23.38591468821339 48.9157
23.408651104658304 49.4688
23.431388455719986 50.1738
23.454126742409 50.9244
23.4770436196085 52.0504
23.499783787914662 53.3506
23.522524894889884 54.349
23.54526694154616 55.4845
23.56818761219047 56.4745
23.59093154860734 56.8051
23.613676427751283 56.7924
23.636422250635754 55.8644
23.659346731118656 54.1173
23.68209445191868 52.2535
23.704843119509587 50.2354
23.72759273490623 48.4916
23.750521041644767 47.3962
23.77327256312355 46.372
23.796025035462787 45.6768
23.818956224555475 45.3252
23.841710609113413 45.1959
23.86446594758979 44.9366
23.887222241002014 44.8226
23.910157285144578 44.232
23.932915498962537 44.4005
23.955674670778713 44.2045
23.978434801611975 44.0266
24.001373717286125 44.0035
24.024135776723917 43.9154
24.046898798245582 43.7898
24.06966278287146 43.6491
24.092605586582614 43.5666
24.115371508023642 43.3191
24.1381383956401 43.2404
24.16090625045381 43.2548
24.183852958731244 43.0269
24.206622758582608 42.9492
24.229393528706886 42.79
24.252165270127392 42.9629
24.27511589952438 42.9531
24.297889594216997 42.6253
24.32066426328598 42.5514
24.34343990775613 42.3733
24.36639447485003 42.3656
24.38917208083877 42.3607
24.41195066531332 42.3483
24.43490819850244 42.4861
24.457688750692377 42.2453
24.48047028445616 42.2703
24.503252800821233 42.3501
24.526214300784112 42.3858
24.548998793132213 42.3063
24.57178427117417 42.269
24.59457073593893 42.21
24.617536219319863 42.1512
24.64032466834748 42.1227
24.663114107195035 41.9648
24.685904536893013 41.7036
24.708874020360852 41.6256
24.731666442613744 41.5994
24.754459858818787 41.7105
24.777254270007962 41.5786
24.80022777025625 41.4626
24.82302418230472 41.4098
24.845821592443674 41.5241
24.86862000170663 41.4949
24.891597535453727 41.5078
24.914397953892728 41.542
24.93719937456671 41.4773
24.96000179851076 41.6622
24.98298338249997 41.906000000000006
25.00578782394922 42.0488
25.028593271784167 42.0919
25.05157790644186 42.4759
25.07438537804115 42.5139
25.097193859145293 42.7367
25.120003350792075 42.8454
25.142992065061257 43.398
25.165803588823465 43.6199
25.18861612625217 43.9702
25.211429678386736 43.94
25.234422489079968 44.0024
25.257238081693636 44.0635
25.280054692141732 44.2112
25.3028723214652 44.2923
25.325869245420463 44.2026
25.348688923599397 44.2239
25.371509623787006 44.0834
25.394331347025812 43.7123
25.41733240110666 43.3298
25.440156181590016 42.6179
25.46298098826268 42.0145
25.48580682216873 41.4692
25.50881202326435 41.0451
25.53163992281684 40.8365
25.55446885274561 40.5774
25.577298814096377 40.2387
25.600308179121807 40.0761
25.623140214533745 40.1954
25.64597328451537 40.0397
25.66898578564376 39.9956
25.691820936010206 39.872
25.714657124097695 39.818000000000005
25.737494350954734 39.9202
25.760511045684957 39.6684
25.783350361364224 39.7248
25.806190718969255 39.7611
25.82903211955018 39.8678
25.852053024868923 39.9433
25.874896522722523 39.9982
25.897741066713106 39.9574
25.920586657892454 39.9665
25.943611790812668 40.2468
25.966459487728237 40.3224
25.989308234998564 40.3936
26.01215803367705 40.6409
26.03518741123814 40.8492
26.05803932412957 40.8485
26.080892291600094 40.731
26.10374631470478 40.9836
26.12677995397268 41.0715
26.14963609978026 40.9993
26.172493304397875 40.5669
26.19535156888223 40.4245
26.218389486949604 40.0952
26.241249882640123 39.7645
26.26411134137826 39.6472
26.28715248187403 39.5376
26.31001607820869 39.3438
26.3328807407756 39.1731
26.35574647063438 39.3584
26.37879191991473 39.4319
26.401659795896734 39.338
26.424528742360263 39.5194
26.447398760366614 39.8003
26.470448535598294 39.8141
26.49332070826805 40.0357
26.516193955675355 40.3501
26.53906827888316 40.6056
26.562122397260108 40.8082
26.584998883685063 41.1374
26.607876449110325 41.4126
26.63075509460056 41.5374
26.65381357334404 41.5424
26.67669439061878 41.5128
26.699576291163382 41.2629
26.722459276044212 41.2269
26.745522132402975 40.8372
26.768407297649354 40.6824
26.791293550442003 40.3175
26.814180891848974 40.0175
26.837248143099337 39.8237
26.860137673466657 39.7188
26.88302829566349 39.4664
26.90592001075963 39.3631
26.92899167420566 39.3388
26.951885586870763 38.83
26.974780595655517 38.5952
26.99785558178161 38.5723
27.020752794605112 38.4636
27.043651106772522 38.1749
27.06655051935668 38.2974
27.089629948036183 38.0456
27.112531573292053 38.0762
27.135434302194138 38.1078
27.158338135817015 38.0812
27.181422024430987 38.0354
27.204328079372566 37.8269
27.22723524226965 37.8684
27.250143514198573 37.9171
27.273231880156334 37.8646
27.296142382065014 37.8439
27.319053996245536 37.7569
27.341966723775965 37.7718
27.365059584515222 37.8794
27.38797455070062 37.7644
27.410890633481237 37.7506
27.433807833936918 37.8832
27.456905206923906 37.92
27.47982465472398 37.9056
27.502745223449743 38.0515
27.525666914182825 38.0611
27.548768816912457 37.9524
27.571692763693633 37.7822
27.59461783573812 37.7031
27.617723149491244 37.5077
27.640650484125285 37.5064
27.66357894728264 37.4161
27.686508540048052 37.4665
27.709618414237887 37.2821
27.732550278321757 37.1637
27.755483275279115 37.2614
27.778417406196485 37.1508
27.801531858397514 37.1611
27.824468269376716 37.2091
27.847405817586786 37.2351
27.870344504116094 37.468
27.893463551932008 37.481
27.916404527281053 37.738
27.93934664422563 37.7892
27.962289903855886 37.7719
27.98541356491974 38.0957
28.00835912214229 38.0835
28.03130582533231 38.3693
28.054253675581805 38.6165
28.077381967556104 38.4349
28.100332124185126 38.3804
28.123283431160893 38.3292
28.146235889577238 38.1869
28.169368830154156 38.0294
28.192323603752033 37.6965
28.215279532083304 37.4673
28.238415973016764 37.2561
28.261374223145094 37.2695
28.284333631303806 36.8919
28.307294198589954 36.7843
28.330435319167677 36.5521
28.353398217078915 36.2553
28.376362277420153 36.0675
28.39932750129032 35.8718
28.422473319286713 35.6273
28.44544088262495 35.7924
28.468409612800283 35.7244
28.491379510913497 35.454
28.51453004413313 35.4044
28.53750229057244 35.3717
28.56047570826344 35.2864
28.583450298308804 35.2962
28.606605564586562 34.9743
28.629582511831156 35.1065
28.65256063474956 35.0161
28.675539934446338 35.1602
28.698699951647605 35.1025
28.72168161743193 34.82
28.74466446331978 34.9726
28.767648490417624 34.9015
28.790813276438353 34.8331
28.813799678527303 34.8574
28.836787265157085 34.8264
28.859955641890075 34.8862
28.882945610203045 34.7304
28.905936766392035 34.7014
28.928929111566863 34.7247
28.952102288520145 34.5375
28.975097024308607 34.5576
28.998092952423807 34.4445
29.021090073977508 34.4579
29.04426806913204 34.2899
29.067267590245258 34.159
29.090268308143695 34.1484
29.11327022394099 34.0309
29.13645305530891 33.7773
29.159457379627167 33.7986
29.18246290519685 33.7604
29.20546963313352 33.6579
29.22865731875826 33.8008
29.25166646419296 33.8535
29.27467681535305 33.7315
29.29768837335608 33.6899
29.320880931312562 33.7826
29.34389491580634 33.6933
29.366910110507334 33.6797
29.38992651653503 33.6761
29.41312396492981 33.6192
29.436142806456754 33.5197
29.45916286268059 33.4031
29.48236399319994 33.2506
29.50538649169417 33.1554
29.528410208259935 33.1851
29.55143514402014 32.9548
29.574641196749695 32.7414
29.597668583816574 32.738
29.6206971934585 32.5818
29.64372702680042 32.6478
29.666938019934474 32.4811
29.689970313635285 32.4624
29.713003834422636 32.4648
29.73603858342347 32.3333
29.759254535188578 32.2851
29.78229175361658 32.2353
29.80533020365064 32.2813
29.82836988641968 32.2789
29.85159081507472 32.1616
29.874632976355343 32.0566
29.89767637376955 32.1421
29.920721008448314 32.0193
29.9439469322847 32.0871
29.96699405457564 32.0578
29.9900424175358 32.0589
30.013092022298157 31.9848
30.03632295963995 31.9971
30.059375061131373 31.9426
30.08242840783577 31.9705
30.105483000888153 31.8711
30.128718970092244 31.7781
30.151776069006917 31.836
30.17483441768648 31.9672
30.198074175317235 31.8885
30.221135036724256 31.8767
30.24419715131772 31.8134
30.267260520236203 31.7994
30.290505341942243 31.8543
30.313571232750228 31.8966
30.336638381310948 31.729
30.35970678876503 31.713
30.38295669299435 31.5995
30.40602763151657 31.6138
30.429099832366074 31.5683
30.452173296685572 31.5394
30.47542830191959 31.5595
30.498504306502497 31.5687
30.521581577995562 31.6482
30.544660117543582 31.6722
30.56792024229725 31.6348
30.59100133132069 31.5943
30.614083691845494 31.6359
30.637167325018545 31.6605
30.660432587840603 31.7122
30.683518779717886 31.6462
30.70660624769615 31.7612
30.729694992924372 31.6356
30.75296541239743 31.565
30.77605672557558 31.6663
30.799149319462742 31.509
30.8224236211637 31.378
30.845518789950724 31.3273
30.868615242910597 31.2706
30.891712981195973 31.1373
30.91499247215866 31.0079
30.938092794619365 31.0531
30.96119440587579 31.0115
30.984297307082752 30.8745
31.00758200598383 30.6808
31.030687500658694 30.7168
31.053794288760695 30.6526
31.076902371446767 30.5391
31.100192296997445 30.6176
31.12330298246119 30.5177
31.14641496599209 30.4175
31.169528248749216 30.4978
31.19282341969534 30.4461
31.215939314557186 30.4158
31.239056512134788 30.5049
31.262175013589378 30.3174
31.28547544871168 30.2319
31.30859657161541 30.3017
31.331719001892175 30.372
31.35484274070538 30.4519
31.378148458819545 30.3918
31.401274828443725 30.4232
31.424402510106933 30.4576
31.447712205419993 30.5128
31.470842524931633 30.3142
31.493974159989783 30.2463
31.51710711176168 30.2951
31.54042212308802 30.2954
31.563557722100917 30.3036
31.586694641341655 30.1518
31.609832881979628 29.9665
31.63315322823208 29.9563
31.656294125521327 29.9106
31.679436347728515 29.7426
31.70257989602529 29.7913
31.725905596152327 29.6736
31.74905181052835 29.4691
31.772199354521323 29.6212
31.79534822930507 29.6716
31.818679302290967 29.6629
31.84183085259981 29.773000000000003
31.864983737233473 29.6484
31.88813795736804 29.666999999999998
31.911474422233013 29.5182
31.934631327356435 29.5829
31.9577895715215 29.5797
31.980949155906522 29.5437
32.004291031706956 29.4717
32.027453310562606 29.4661
32.05061693318573 29.2754
32.07396288236386 29.2879
32.09712920658542 29.2642
32.12029687812702 29.1239
32.14346589817093 29.0303
32.166817291729984 29.0097
32.18998902288583 28.9021
32.21316210610336 28.8974
32.23633654256711 28.8399
32.259693399663725 28.7598
32.282870556771144 28.6576
32.30604907069099 28.6548
32.329228942610065 28.677
32.35259128243769 28.5736
32.375773884550505 28.4893
32.398957848235646 28.4142
32.422143174682176 28.416
32.445511016471215 28.2685
32.468699082679954 28.261999999999997
32.49188851523011 28.1872
32.51507931531304 28.2252
32.538452678331 28.2633
32.56164622776311 28.0958
32.58484114831493 28.0145
32.60803744118015 28.0413
32.631416344731896 27.9831
32.654615396551876 28.039
32.67781582427913 27.9128
32.701198898634416 27.8579
32.72440209253756 27.8522
32.747606665947124 27.8098
32.77081262006088 27.6872
32.79420126883317 27.615
32.81740999876112 27.6899
32.840620112999424 27.5929
32.86383161274818 27.5693
32.88722585534586 27.5794
32.91044014056596 27.638
32.933655814909734 27.4656
32.95687287957963 27.5173
32.98027273544904 27.4357
33.00349259526636 27.3698
33.026713849030116 27.4908
33.04993649794511 27.4327
33.073341986570746 27.3602
33.09656744032826 27.2817
33.11979429286444 27.3503
33.14302254538647 27.3279
33.166433686291185 27.2578
33.18966475336992 27.2358
33.212897224069096 27.1287
33.23613109959831 27.1597
33.259547912343415 27.1015
33.2827846121627 27.1281
33.306022720453775 27.0967
33.32926223842861 26.9863
33.352684742614166 26.9387
33.37592709463173 26.9354
33.399170859982064 26.8776
33.422597648419426 26.7772
33.44584425514446 26.6824
33.46909227885668 26.5929
33.4923417207723 26.4621
33.51577423505344 26.5657
33.539026528130385 26.494
33.56228024307245 26.4725
33.585535381098246 26.3389
33.60897364093058 26.2703
33.63223163992385 26.2636
33.6554910656699 26.2536
33.678751919389796 26.2223
33.702195944520106 26.1554
33.72545966903325 26.1235
33.74872482519663 26.1075
33.771991414233746 25.987
33.79544122444841 25.9313
33.81871069412428 25.9103
33.84198160035767 25.9272
33.86525394437455 25.9787
33.88870955949969 25.8339
33.911984794020626 25.8625
33.93526147001624 25.8975
33.958539588715006 25.8275
33.98200102861669 25.6894
34.0052820477047 25.6191
34.02856451319451 25.5801
34.05203033759056 25.6092
34.07531571090147 25.5492
34.09860253431845 25.5552
34.121890809074316 25.5638
34.145362493118924 25.3804
34.16865368561615 25.4156
34.191946333164054 25.3773
34.21524043699793 25.3977
34.23871800066799 25.4003
34.26201503218366 25.2485
34.28531352370466 25.186
34.30861347646881 25.1687
34.33209693978188 25.1417
34.3553998301885 25.1688
34.378704185565205 24.9767
34.402010007152356 24.8866
34.42549939016683 25.0045
34.44880815937748 24.9163
34.472118398533134 24.8671
34.49543010887669 24.8835
34.51892543169198 24.7713
34.54224009966052 24.7188
34.56555624255917 24.7786
34.58887386163339 24.6192
34.61237514439016 24.5641
34.6356957311114 24.5384
34.65901779775809 24.5608
34.68252356662995 24.4943
34.705848608458616 24.444000000000003
34.72917513396849 24.4769
34.75250314440949 24.4058
34.77601490857862 24.2994
34.799345904259795 24.3309
34.82267838863559 24.2706
34.846012362958525 24.3546
34.869530142679984 24.2382
34.89286711232212 24.1884
34.91620557568269 24.1165
34.93954553401677 24.1739
34.9630693495876 24.0736
34.986412313340814 24.1425
35.00975677584668 24.1089
35.033102738362956 23.9863
35.05663261012228 23.9617
35.0799815881786 23.9299
35.10333207003229 23.929000000000002
35.12668405694369 23.8868
35.150220005273056 23.8832
35.17357501786656 23.8804
35.19693153931268 23.8251
35.220289570874385 23.7384
35.24383161619786 23.6948
35.267192683604904 23.7607
35.290555264930376 23.7237
35.314101899412165 23.6688
35.33746752422433 23.5731
35.36083466676374 23.6081
35.38420332829803 23.4832
35.407756095629054 23.5958
35.43112781085063 23.5803
35.45450104888391 23.4427
35.477875810999194 23.5098
35.50143473172161 23.4839
35.52481255774625 23.480999999999998
35.54819191167777 23.4845
35.57157279478914 23.3677
35.595137889488406 23.3668
35.61852184675279 23.2753
35.641907337029984 23.2883
35.665294361595684 23.1711
35.68886565090076 23.1477
35.7122557598848 23.2232
35.73564740699838 23.1391
35.759040593519934 23.1125
35.78261809810353 23.0515
35.80601437933051 22.9481
35.829412203814705 22.9282
35.85281157283719 22.8526
35.876395313415884 22.9255
35.8997977874528 22.8524
35.92320180988546 22.8298
35.946790244133936 22.7381
35.97019737933222 22.7644
35.993606066789866 22.7252
36.01701630779276 22.6192
36.04061101440684 22.601
36.06402437852291 22.6428
36.08743930005611 22.6941
36.1108557802951 22.5462
36.13445678011326 22.5102
36.15787639383515 22.4447
36.18129757014299 22.4126
36.20472031032821 22.3681
36.22832762423364 22.2824
36.25175350829375 22.2683
36.275180960119776 22.2547
36.298609981005924 22.2488
36.32222362992669 22.2978
36.34565580510207 22.2495
36.36908955323448 22.1916
36.39252487562093 22.1545
36.416144880530226 22.0641
36.43958336764275 22.1129
36.463023432914625 22.0799
36.486465077645676 21.9797
36.51009145956204 22.0405
36.53353627947859 22.0576
36.55698268276811 21.9757
36.58043067073321 21.9518
36.60406345072071 21.8402
36.62751462435344 21.8602
36.65096738658405 21.7992
36.67460498210655 21.7412
36.69806093788647 21.6896
36.72151848619297 21.6771
36.744977628333636 21.7096
36.76862165890998 21.5966
36.79208400512205 21.6559
36.81554794910557 21.5165
36.83901349217101 21.4763
36.862663978991606 21.4375
36.88613273667352 21.3984
36.90960309738324 21.4344
36.933075062434064 21.4288
36.95673202673572 21.3093
36.98020721697122 21.2723
37.003684015502365 21.2335
37.027162423645365 21.2183
37.050825886711465 21.2661
37.07430753063053 21.1626
37.09779078812467 21.168000000000003
37.121275660513014 21.08
37.144945643673694 21.0242
37.16843376245278 21.0146
37.19192350009803 21.01
37.215414857931435 20.9722
37.239091382563885 20.9671
37.262585997426164 20.8587
37.28608223645736 20.851999999999997
37.309763684451696 20.8806
37.33326318851098 20.7808
37.356764320726555 20.7743
37.380267082425526 20.804000000000002
37.40395510942588 20.7365
37.42746114683234 20.6234
37.45096881771841 20.6232
37.474478123414166 20.6564
37.49817275092816 20.5867
37.52168534303452 20.5616
37.54519957395567 20.3874
37.568715445024665 20.4332
37.592416694607714 20.4823
37.61593586281424 20.5015
37.63945667518264 20.4825
37.66297913304891 20.3162
37.68668702630454 20.3703
37.710212792059274 20.2945
37.733740207334854 20.2187
37.757269273470364 20.1598
37.780983832050374 20.2113
37.80451621684926 20.1847
37.82805025654007 20.0982
37.851585952464795 20.0132
37.8753071980695 20.0452
37.89884622345676 19.9245
37.92238690911902 19.9644
37.94611318753442 19.9491
37.969657210779765 19.9445
37.99320289834801 19.8728
38.016750251586465 19.8822
38.04048325513017 19.8806
38.06403395679343 19.8542
38.087586328183946 19.7699
38.11114037065203 19.7856
38.13488012115898 19.7559
38.1584375229181 19.7148
38.181996599821 19.5936
38.205557353221124 19.5756
38.229303872575656 19.5986
38.2528679961576 19.6482
38.27643380031219 19.4944
38.30000128639589 19.4743
38.32375459653193 19.514
38.34732546371299 19.4505
38.37089801690786 19.4146
38.39447225747609 19.292
38.418232380377425 19.2874
38.441810012983396 19.2699
38.46538933705673 19.2739
38.488970353960084 19.2311
38.51273731166058 19.2637
38.536321731567014 19.2327
38.55990784840681 19.2007
38.58367995004091 19.1042
38.60726947812959 19.0124
38.63086070726198 19.0643
38.654453638806274 19.0452
38.678232613930824 18.9919
38.70182896773327 18.9655
38.72542702806741 18.9335
38.7490267963045 18.8553
38.77281266709232 18.8791
38.79641586862214 18.8414
38.8200207821842 18.8532
38.843627409152944 18.8775
38.86742019782782 18.7531
38.891030269149255 18.6894
38.914642058016156 18.6684
38.938255565806124 18.6465
38.96205529464307 18.6805
38.98567225787121 18.6554
39.00929094417078 18.6256
39.03291135492255 18.5498
39.05671804624804 18.4924
39.080341923549106 18.4972
39.103967529460334 18.4903
39.127594865365744 18.3759
39.15140854155791 18.4095
39.17503935514948 18.3595
39.19867190290282 18.3613
39.22249083587951 18.2839
39.24612686969409 18.2932
39.269764641845306 18.2705
39.293404153722804 18.3035
39.317230110864074 18.2026
39.34087311998506 18.1256
39.36451787301696 18.1193
39.388164371352595 18.0817
39.41199737518003 18.133
39.43564738196752 18.0633
39.45929913825317 17.9911
39.48295264543308 17.9618
39.506792718520884 17.9536
39.530449745387216 17.8699
39.55410852735203 17.9365
39.57776906581474 17.9347
39.60161623079 17.8548
39.625280300200025 17.8337
39.64894613032202 17.7906
39.67261372255866 17.7539
39.6964680021016 17.7751
39.72013913657293 17.7388
39.74381203738292 17.6916
39.76748670593756 17.6556
39.79134812278169 17.6607
39.81502634488497 17.6301
39.83870633896685 17.5503
39.862388106436654 17.5537
39.88625668336918 17.5765
39.90994201572829 17.4934
39.933629125719285 17.4594
39.957503091207826 17.4267
39.9811937746168 17.4675
40.00488623990914 17.4372
40.02858048850006 17.3073
40.05246165409549 17.3147
40.076159487492085 17.2484
40.099859108448875 17.3252
40.123560518384345 17.2447
40.1474489070226 17.1939
40.171153913178564 17.1391
40.194860712584955 17.1375
40.2185693066637 17.1565
40.242464941335314 17.0495
40.26617714307655 17.0225
40.289891143772046 17.099
40.3136069448471 17.0174
40.33750984859743 17.0088
40.3612292688043 16.9838
40.3849504936829 16.9325
40.40867352466194 16.893
40.43258372059144 16.9303
40.45631038219906 16.879
40.48003885420956 16.8357
40.503769138055105 16.840999999999998
40.52768664931955 16.7752
40.55142057531802 16.7862
40.57515631746428 16.7408
40.599079334038514 16.7059
40.62281872700477 16.6419
40.64655994043941 16.6798
40.67030297578061 16.667
40.69423334835778 16.6647
40.71798004609188 16.6803
40.74172857006355 16.5714
40.76547892171441 16.5743
40.7894166736039 16.4832
40.813170699248566 16.4819
40.83692655691388 16.3913
40.86068424804498 16.4248
40.884629402612525 16.3972
40.908390779366385 16.4162
40.932153993938 16.3465
40.95591904777605 16.2896
40.979871628443995 16.3047
41.003640379561936 16.3061
41.02741097430883 16.2732
41.05118341413683 16.219
41.075143444384416 16.2061
41.098919593177826 16.1782
41.1226975914255 16.1358
41.14647744058318 16.1368
41.170444943946755 16.1008
41.19422851378379 16.0604
41.218013938914645 16.0034
41.24198706625173 15.9609
41.26577622087193 15.9494
41.289567235177785 15.9236
41.31336011063129 15.9351
41.337340752422875 15.9146
41.361137369129835 15.8436
41.38493585138705 15.8834
41.40873620066004 15.849
41.43272438060107 15.7672
41.45652848292052 15.741
41.48033445666918 15.7411
41.50414230331616 15.725999999999999
41.528138045159764 15.7294
41.551949656675205 15.7015
41.575763145513235 15.6031
41.59957851314666 15.5887
41.62358184070442 15.5183
41.64740098505737 15.5359
41.6712220126409 15.4943
41.69504492493139 15.4631
41.71905586207357 15.4995
41.74288256296395 15.4576
41.766711153007456 15.4539
41.79054163368412 15.4119
41.814560204340054 15.3966
41.838394485526365 15.3497
41.86223066180303 15.3244
41.88625497706819 15.3111
41.910094962812 15.2905
41.93393684811168 15.2715
41.95778063445365 15.2007
41.981812625263366 15.2046
42.00566023303407 15.1593
42.029509746323676 15.1486
42.05336116662236 15.1558
42.077400857069705 15.1128
42.10125611078846 15.0784
42.12511327600405 15.0353
42.14897235421036 14.9569
42.173019768448455 14.9788
42.19688269209613 14.937000000000001
42.22074753323349 14.9022
42.24461429335818 14.9275
42.268669455600495 14.9037
42.292540073217886 14.8765
42.31641261433284 14.8335
42.34028708044675 14.7972
42.36435001496739 14.7454
42.38822835065557 14.8031
42.41210861586426 14.7471
42.4359908120986 14.7099
42.46006154323262 14.6565
42.48394762115317 14.6231
42.507835634632315 14.6802
42.531912233047436 14.6358
42.55580413732265 14.5895
42.579697981698 14.6057
42.60359376768525 14.5476
42.62767820545945 14.509
42.65157789440821 14.4931
42.67547952952185 14.4488
42.699383112316 14.4135
42.72347541395347 14.3934
42.74738291190531 14.3802
42.771292362102166 14.3383
42.795203766063516 14.3281
42.819303956130405 14.2813
42.843219287476536 14.2648
42.86713657716324 14.2273
42.89105582671383 14.2417
42.91516392983864 14.202
42.939087119032166 14.1516
42.963012272677304 14.1715
42.98693939230129 14.1059
43.01105543317513 14.0975
43.034986504731386 14.1056
43.05891954686589 14.1259
43.08285456110972 14.0694
43.10697856448665 14.0085
43.130917542983475 13.9644
43.15485849820081 13.9845
43.17880143167367 13.902999999999999
43.20293342237094 13.908
43.226880332449 13.9194
43.25082922540554 13.873
43.27496722682525 13.8821
43.29892010567796 13.8734
43.32287497204102 13.8294
43.34683182745632 13.7438
43.370977859791836 13.735999999999999
43.39493871351105 13.7024
43.41890156092628 13.7164
43.44286640358341 13.6791
43.46702049182749 13.6748
43.49098934522816 13.6393
43.51496019852649 13.5967
43.5389330532723 13.5901
43.56309522248204 13.5651
43.58707210044314 13.5894
43.61105098451946 13.502
43.63503187626491 13.5223
43.659202151562134 13.4959
43.68318707902681 13.4611
43.70717401884041 13.4294
43.731162972560874 13.3561
43.75534137913236 13.334000000000001
43.779334381108384 13.390999999999998
43.803329401683186 13.3738
43.82732644241872 13.3082
43.8515130055166 13.3325
43.87551410707659 13.293
43.89951723350145 13.2504
43.923709934595614 13.2203
43.94771713129917 13.2094
43.97172635758096 13.1942
43.99573761501002 13.1445
44.0199385169922 13.1104
44.04395385732619 13.0701
44.067971233533086 13.0747
44.09199064718605 13.0831
44.11619977548961 13.0572
44.14022328470671 13.0339
44.16424883610785 13.0461
44.18827643127035 12.9975
44.21249381139513 12.9976
44.236525514814076 12.8877
44.26055926674478 12.9004
44.28459506876863 12.9361
44.3088207262813 12.8858
44.33286064928722 12.8184
44.35690262714919 12.7982
44.38094666145278 12.765
44.4051806219871 12.7856
44.42922879003185 12.7388
44.45327901929361 12.7461
44.477331311362136 12.7155
44.501573600619416 12.6602
44.525630039221795 12.6162
44.54968854541895 12.6596
44.573937102200176 12.6378
44.5979997645541 12.602
44.622064499300315 12.5619
44.64613130803592 12.5832
44.67038823869318 12.5385
44.69445921643748 12.4687
44.718532272981385 12.453
44.742607409926194 12.4203
44.76687274034801 12.4199
44.79095205918753 12.415
44.81503346325094 12.3794
44.839116954143876 12.4037
44.86339071028742 12.3586
44.88747839599524 12.3309
44.91156817336837 12.296
44.93566004401666 12.2778
44.959942251908146 12.2452
44.984038330325966 12.2255
45.00813650686762 12.2115
45.03223678314731 12.232000000000001
45.05652746888232 12.116
45.08063196592069 12.0976
45.104738567558705 12.1145
45.128847275414856 12.115
45.15314646515866 12.0908
45.17725940679741 12.0416
45.20137445952892 12.0362
45.22568004865265 12.040999999999999
45.24979934496396 12.0103
45.27392075725247 11.9495
45.29804428714431 11.9663
45.322358426247604 11.9357
45.346486212804315 11.9048
45.370616121861914 11.921
45.39474815505086 11.8924
45.41907087049246 11.864
45.4432071734666 11.8184
45.46734560548283 11.8547
45.49148616817604 11.7911
45.51581748638564 11.8035
45.5399623320197 11.7847
45.56410931325473 11.7166
45.58825843173002 11.7567
45.61259837920865 11.6892
45.636751793816 11.6818
45.66090735060093 11.627
45.68506505120716 11.6072
45.7094136545275 11.5947
45.73357566449271 11.5474
45.75773982322992 11.5923
45.78190613238733 11.5241
45.806263418194064 11.5058
45.83043404997326 11.4879
45.85460683713677 11.475999999999999
45.87897065658495 11.4769
45.90314777634752 11.4113
45.92732705646868 11.3827
45.9515084986045 11.3607
45.97588104735473 11.3978
46.00006683541565 11.3976
46.02425479047904 11.352
46.04844491420549 11.3161
46.0728262191024 11.3124
46.09702070211635 11.3007
46.12121735879483 11.2688
46.14541619080294 11.2592
46.169806278764455 11.2195
46.194009483459034 11.2457
46.21821486849841 11.172
46.24242243555223 11.1203
46.266821333570014 11.1166
46.29103328674601 11.129000000000001
46.31524742696538 11.1092
46.33946375590237 11.050999999999998
46.36387149104216 11.0694
46.38809221957392 11.0155
46.41231514186606 11.015999999999998
46.436540259597464 11.0158
46.460956858999374 10.9709
46.48518638983522 10.9093
46.509418121166966 10.9199
46.533652054678114 10.8937
46.55807754555709 10.8567
46.58231590571962 10.8677
46.60655647313217 10.8376
46.630988654873654 10.8652
46.655233659129024 10.8333
46.67948087571551 10.8378
46.70373030632484 10.7969
46.72817142736393 10.7664
46.752425308428684 10.757
46.77668140861147 10.6946
46.80093972960865 10.6583
46.82538981736788 10.6884
46.849652602470904 10.6404
46.87391761349769 10.5952
46.8981848521493 10.6317
46.9226439341274 10.6035
46.946915650573224 10.5454
46.97118959976749 10.5527
46.99546578341598 10.5348
47.019933887188216 10.5309
47.04421456235744 10.5095
47.06849747711879 10.4588
47.09278263318286 10.4364
47.11725978640143 10.4433
47.14154944775105 10.4198
47.165841355555656 10.3992
47.1901355115306 10.3733
47.214621741924994 10.37
47.23892041698887 10.3561
47.26322134538975 10.2781
47.28771440635075 10.3032
47.31201986422527 10.2951
47.33632758061436 10.2434
47.360637557241866 10.2288
47.38513974410611 10.2304
47.40945426407847 10.2312
47.43377104948137 10.2092
47.45809010204344 10.2001
47.48260144275502 10.1586
47.506925052572285 10.1297
47.53125093475548 10.1083
47.55557909103813 10.0916
47.58009961361992 10.1119
47.60443234110732 10.0787
47.62876734791564 10.0401
47.65310463578333 10.0263
47.6776343683373 10.0147
47.7019762413987 9.96373
47.72632040075572 9.97449
47.75066684815169 9.94768
47.77520581885936 9.94948
47.799556865477655 9.93158
47.823910205386 9.88107
47.84826584033272 9.886569999999999
47.87281407745551 9.862689999999999
47.89717432569297 9.88333
47.92153687423484 9.85602
47.94609208429692 9.78483
47.97045925671401 9.745330000000001
47.99482873471275 9.74124
48.01920052005013 9.740039999999999
48.04376504619224 9.70815
48.068141469543484 9.77346
48.09252020552573 9.74878
48.11690125590099 9.7154
48.1414751266064 9.67591
48.16586082917454 9.66977
48.19024885144316 9.61753
48.2146391951793 9.62722
48.239222439012764 9.615269999999999
48.26361744916137 9.57361
48.28801478610016 9.57743
48.31241445160131 9.546289999999999
48.337007097209366 9.53352
48.36141144338331 9.51568
48.38581812345755 9.45422
48.41022713920929 9.47835
48.434829215320704 9.46141
48.45924292604658 9.4655
48.48365897780325 9.490269999999999
48.50807737237308 9.43163
48.532688907799276 9.36537
48.55711201168574 9.3561
48.581537463754074 9.35357
48.60615611725119 9.37332
48.63058628942721 9.37791
48.65501881516546 9.30771
48.6794536962573 9.3108
48.70408185970339 9.28642
48.72852147531801 9.268880000000001
48.75296345168211 9.23935
48.77740779059232 9.24013
48.80204549302823 9.204089999999999
48.82649458091802 9.1879
48.85094603676547 9.16457
48.87539986237231 9.17569
48.90004713292306 9.101560000000001
48.92450572200832 9.10716
48.94896668628025 9.13786
48.97343002754588 9.07808
48.99808689542115 9.093010000000001
49.02255501470614 9.06268
49.04702551642794 9.04552
49.0714984023988 9.03233
49.096164896893235 8.99286
49.120642575466796 8.97079
49.145122643748394 8.96291
49.16960510355558 8.96746
49.19428125404938 8.919210000000001
49.2187685210852 8.92774
49.243258185121555 8.90421
49.26794160167084 8.8815
49.2924360839405 8.86209
49.31693296869764 8.81916
49.34143225776915 8.83517
49.36612538195438 8.82441
49.39062950396021 8.82194
49.41513603578346 8.76145
49.4396449792564 8.7454
49.46434784069503 8.76957
49.488861631846454 8.72662
49.513377840166804 8.66905
49.537896467493745 8.68712
49.56260909589029 8.63415
49.587132585683285 8.673
49.611658500018365 8.6424
49.636186840738596 8.615
49.66090926588511 8.60011
49.685442483902584 8.559510000000001
49.70997813385706 8.54215
49.734516217597076 8.58203
49.75924846937352 8.57143
49.7837914452858 8.535630000000001
49.80833686055187 8.46786
49.83288471702571 8.46565
49.85762682540054 8.49005
49.882179588965734 8.44806
49.9067347993235 8.42687
49.93129245833333 8.41804
49.95604445336378 8.40811
49.98060703442832 8.39669
50.005172069746266 8.39125
50.02993150438364 8.345080000000001
50.05450147301533 8.34978
50.07907390151433 8.32795
50.10364879174981 8.29819
50.12841816587289 8.301860000000001
50.1529980044635 8.285739999999999
50.17758031042124 8.24439
50.20216508562089 8.26896
50.22694442953363 8.26323
50.25153416817468 8.24353
50.27612638170508 8.2002
50.300721072005196 8.14132
50.325510416102105 8.14493
50.350110084975064 8.17172
50.37471223628208 8.17576
50.39931687190919 8.12095
50.424116246675766 8.08099
50.44872587605249 8.07906
50.47333799543065 8.08463
50.49795260670191 8.08806
50.52276204271512 8.057360000000001
50.54738166295838 8.015939999999999
50.57200378079314 8.04682
50.596628398116835 7.991280000000001
50.62144792604559 7.96173
50.646077567609396 7.968489999999999
50.670709714377715 7.962689999999999
50.69553683636198 7.93785
50.72017401885922 7.94539
50.7448137122895 7.9217
50.76945591856022 7.91085
50.79429318636823 7.91132
50.818940443716784 7.847689999999999
50.84359021965163 7.832089999999999
50.868242516085964 7.83445
50.893089960641895 7.83805
50.917747323549435 7.80317
50.94240721271973 7.78378
50.96706963007175 7.79316
50.99192728239342 7.77115
51.01659478166073 7.7396199999999995
51.04126481489051 7.72271
51.06593738400761 7.75144
51.090805275207074 7.69821
51.11548294172845 7.67435
51.14016314993547 7.68295
51.164845901758845 7.654889999999999
51.18972406304274 7.64398
51.21441192780656 7.6418
51.23910234200271 7.6157
51.2637953075678 7.61205
51.288683770237945 7.60704
51.31338186432707 7.574889999999999
51.33808251561888 7.5692699999999995
51.362978729967345 7.53023
51.387684521509755 7.515210000000001
51.41239287610203 7.48712
51.437103795691165 7.46865
51.46201036644977 7.46085
51.486726441956634 7.46327
51.51144508832545 7.4378899999999994
51.536166307509156 7.3956100000000005
51.56108326624387 7.39142
51.58580965706056 7.3632
51.61053862657523 7.351430000000001
51.635270176746864 7.374969999999999
51.66019755512065 7.38778
51.68493429268881 7.35588
51.70967361681515 7.30468
51.73441552946465 7.24786
51.759353359237934 7.2817300000000005
51.7841004750961 7.264889999999999
51.80885018539685 7.267460000000001
51.833602492111254 7.215789999999999
51.8585508051424 7.2111
51.883308330926425 7.20898
51.90806845906181 7.166180000000001
51.932831191525715 7.1728
51.95779001977161 7.14705
51.98255798721516 7.14508
52.00732856494335 7.112260000000001
52.03229530577543 7.117780000000001
52.057071130455945 7.064010000000001
52.081849571391054 7.083010000000001
52.106630630568695 7.0506
52.13160794279417 7.0601199999999995
52.15639426492067 7.06871
52.18118321127822 7.039389999999999
52.205974783860896 7.0628
52.23096269971011 6.9902
52.255759551287994 6.987
52.280559035098186 6.9606699999999995
52.30536115314103 6.954160000000001
52.33035970494467 6.9976199999999995
52.35516711807904 6.94097
52.37997717147198 6.9036
52.40478986713005 6.893839999999999
52.42979908731974 6.8839
52.454617094216 6.86217
52.47943774942214 6.8463899999999995
52.50426105495102 6.86527
52.529280976059844 6.8445100000000005
52.554109609024096 6.853389999999999
52.57894089837482 6.82304
52.60377484613117 6.77458
52.62880550079408 6.75881
52.65364479223379 6.7477100000000005
52.67848674816189 6.73234
52.70352547971946 6.72012
52.72837279155837 6.72125
52.753222773982785 6.6952
52.778075429022984 6.7073
52.80312495150885 6.69067
52.827982978797436 6.6250100000000005
52.85284368481815 6.62898
52.87770707160767 6.6184199999999995
52.90276741793998 6.6330800000000005
52.92763619336701 6.61227
52.952507655698504 6.58373
52.977381806977576 6.608619999999999
53.00245301017842 6.5904
53.02733256653592 6.56467
53.052214817996074 6.50044
53.077099766608484 6.53851
53.102181859804446 6.5140400000000005
53.127072229988265 6.5526599999999995
53.15196530349892 6.4885
53.17686108239249 6.48006
53.20195409881522 6.44864
53.22685531582556 6.42788
53.25175924441303 6.40594
53.27666588664027 6.40742
53.30176985962693 6.40636
53.3266819565689 6.38552
53.35159677336455 6.35237
53.376514312083096 6.40337
53.40162927507703 6.33206
53.42655228516116 6.31398
53.45147802340193 6.27776
53.47660125628886 6.31615
53.50153247842639 6.26017
53.52646643496923 6.29164
53.55140312799818 6.2895
53.576537409691696 6.22004
53.60147960336152 6.247730000000001
53.626424539786164 6.23993
53.65137222105307 6.19864
53.67651758529126 6.17339
53.70147078399681 6.1886
53.72642673383343 6.1746099999999995
53.75138543689533 6.15182
53.776541917524526 6.15114
53.801506154876755 6.133719999999999
53.826473151763246 6.13895
53.851442910284916 6.08317
53.87661054126026 6.0604
53.9015858509782 6.06343
53.92656392866066 6.07454
53.95154477641532 6.08752
53.976723591801296 6.05272
54.00171000771266 6.00911
54.02669920004598 6.0237
54.051691170915745 5.98011
54.076881204886796 6.00509
54.101878760928514 5.9730300000000005
54.12687910187696 5.96507
54.152077577768296 5.95386
54.1770835166946 5.92178
54.20209224691339 5.92901
54.22710377055121 5.89795
54.25231352511594 5.88616
54.27733066384342 5.78586
54.30235060239643 5.822019999999999
54.32737334290836 5.83139
54.35259441062629 5.7904800000000005
54.377622783395324 5.80029
54.40265396455061 5.81687
54.42768795623251 5.72852
54.45292037169559 5.74028
54.477960012857906 5.71819
54.50300247099511 5.67472
54.52804774825457 5.70982
54.55329154616743 5.68547
54.57834249018678 5.63966
54.6033962597977 5.62245
54.6284528571545 5.64736
54.653708072335164 5.56919
54.67877035378786 5.57609
54.70383546947698 5.5643400000000005
54.72890342156389 5.49289
54.7541700889442 5.574269999999999
54.77924374251975 5.45544
54.8043202390049 5.49593
54.82959552413022 5.4606900000000005
54.8546777351945 5.45407
54.87976279569621 5.44203
54.90485070780914 5.466069999999999
54.930137506558005 5.40722
54.95523115074295 5.39104
54.98032765308844 5.40198
55.005427015775496 5.361280000000001
55.03072536339621 5.38
55.05583047570572 5.27072
55.080938454927676 5.254519999999999
55.10604930325027 5.2769900000000005
55.131359235107396 5.21195
55.15647585066083 5.187880000000001
55.181595341907496 5.21413
55.20671771104285 5.19749
55.232039262617704 5.155069999999999
55.25716741665048 5.1576699999999995
55.28229845518636 5.13149
55.30743238042802 5.02831
55.33276558731939 5.026669999999999
55.357905315183636 5.0285
55.383047936390035 5.0419
55.40819345314859 5.01887
55.433538351073295 5.00546
55.458689688238415 4.9343
55.483843927614096 4.909269999999999
55.509197623043605 4.92882
55.53435769621134 4.9233199999999995
55.55952067826466 4.8676900000000005
55.5846865714265 4.82413
55.61005202069737 4.8215
55.63522376553902 4.8030800000000005
55.66039842818645 4.800669999999999
55.68557601087004 4.79404
55.7109532500271 4.7435
55.73613670233794 4.74021
