TT I
1.2716486653135266 15.2959
1.2939594142134223 14.5204
1.3162702121660406 13.6942
1.3385810600174564 13.369000000000002
1.3608919586137629 13.6319
1.383202908801069 12.7868
1.405513911425503 11.4438
1.4278249673332093 12.5972
1.4501343378461518 11.6616
1.4724455028545926 11.5657
1.4947567236847858 11.4851
1.517068001182951 11.5689
1.5393793361953272 10.6806
1.5616907295681737 10.155
1.5840021821477681 10.6027
1.60631369478041 9.62615
1.6286252683124185 10.0205
1.6509369035901333 10.2439
1.6732468618895553 10.1355
1.695558623192809 9.17132
1.7178704487808514 10.0356
1.7401823395001077 9.89065
1.7625012545597203 9.33868
1.7848028405262486 8.58058
1.8071218901122095 8.60929
1.8294236121921872 8.780330000000001
1.8517427996910911 9.91585
1.8740620574440425 9.2509
1.8963639900671978 8.9486
1.9186833908139995 9.272219999999999
1.9409854680117449 9.74284
1.9633050151394713 9.62199
1.9856246367570705 9.001439999999999
2.0079269371922672 8.63987
2.03024671027244 8.67561
2.0525491637446027 8.69508
2.074869091674931 8.55344
2.097171701569106 8.88384
2.1194917877373847 8.84195
2.141811954326636 8.5203
2.164114805233074 9.416030000000001
2.186435135143035 8.91111
2.208738150935709 7.75064
2.231058647554722 8.248489999999999
2.2533792288321184 8.12175
2.275682498336085 8.63225
2.298003251406138 8.528410000000001
2.3203066942619714 8.32884
2.3426276225136022 8.65967
2.3649486396617507 8.29648
2.387252348930071 8.2368
2.4095735463442893 7.47587
2.4318774374315884 7.7843
2.4541988185014043 7.67431
2.476502894794693 8.04608
2.498824462909887 7.4728699999999995
2.521146125856138 7.598269999999999
2.5434504863470337 7.48643
2.5657723414244717 7.80081
2.588076895590662 8.41479
2.610398946189713 8.792819999999999
2.6327210958598384 8.36675
2.6550259469304716 8.610330000000001
2.6773482972090137 9.045110000000001
2.6996533504259 9.47737
2.7219759047039602 9.579410000000001
2.744298562293959 9.372069999999999
2.7666039251246595 9.293339999999999
2.7889267918020164 10.0917
2.8112323652516555 11.0467
2.833555444408179 10.7364
2.8558786311183852 11.1988
2.8781845268938557 12.582
2.9005079311721484 12.47
2.9228140460410397 13.1633
2.9451376712799635 14.2169
2.967444008632326 15.26
2.9897678582247247 15.4816
3.0120918213106695 16.2011
3.0343984987899373 18.1737
3.0567226913198637 18.2192
3.079029599759726 19.5522
3.101354025127254 20.315
3.123678568232338 20.5928
3.145985829517914 20.2116
3.16831061055229 20.8471
3.1906181112775593 20.9329
3.212943133635653 20.8563
3.2352682779763207 20.2665
3.2575761442691227 20.3915
3.2799015350264273 19.6855
3.302209649240067 19.2328
3.3245352898092655 19.1243
3.3468436553365257 18.8189
3.369169549113219 18.3741
3.3914955708171384 19.2624
3.413804319727358 19.1323
3.4361305997334863 19.207
3.4584396084414553 19.2601
3.4807661501462652 19.5075
3.503092824025881 20.0486
3.5254022288463154 19.5856
3.5477291695206588 20.1989
3.5700388426251948 19.7196
3.5923660534916446 20.3551
3.6146934007816114 20.5943
3.637003482731501 20.6679
3.6593311053109985 20.7443
3.681641464033634 21.4339
3.7039693653009733 21.480999999999998
3.726297407241705 22.0155
3.7486081875460804 22.009
3.7709365132734978 22.6214
3.793247578841633 23.1525
3.8155761917550093 22.9368
3.8378875459837216 23.4899
3.8602164494827234 23.9742
3.882545499606844 24.6461
3.9048572932539183 24.7272
3.9271866390645718 24.9398
3.9494987298666713 25.706999999999997
3.971828374764527 25.9158
3.9941581705403255 25.9919
4.016470713506008 26.3223
4.038800813471445 27.2258
4.061113662089144 27.1079
4.0834440696459176 28.4212
4.105774632334751 28.4555
4.128087945865126 28.4859
4.150418821249301 29.3787
4.172732448931298 30.0145
4.195063640413578 30.531999999999996
4.2173775856475215 31.6134
4.239709096631102 32.5798
4.262040768704612 33.2225
4.284355196706267 33.6102
4.306687193387355 34.6441
4.329001947444346 36.5045
4.35133427213731 37.1548
4.373666762177566 37.7867
4.395982011761091 37.7855
4.418314834921175 37.8924
4.44063041906622 38.1752
4.4629635787515625 39.11
4.4852969080429785 39.7892
4.5076130004776225 40.8728
4.529946671403969 41.9233
4.552263106909177 42.7274
4.574597122877047 43.8923
4.596931312711224 45.2738
4.619248269273446 45.9399
4.6415828092605835 47.0407
4.663900117405352 47.9675
4.686235010953232 49.1783
4.708552674085913 50.6375
4.730887924602802 52.5815
4.753223354952695 54.0298
4.775541557023902 55.4873
4.797877349456786 57.1235
4.820195915032126 59.1682
4.842532072957498 61.3325
4.864868414979744 63.6088
4.88718753227192 66.7302
4.909524244902505 69.9666
4.931843734218147 73.7223
4.954180820867835 79.012
4.976518095879839 84.0311
4.998838149695359 90.3554
5.021175803844231 99.4654
5.043496238205739 107.77600000000001
5.065834274903528 116.579
5.088172504230693 127.53399999999999
5.1104935158799565 142.19299999999998
5.132832132875765 167.138
5.155153533596801 207.447
5.1774925416746225 296.101
5.199814334878411 600.768
5.2221537374521505 1401.55
5.244493338631803 2066.84
5.266815727034316 2147.37
5.289155727832427 3030.72
5.311478517248165 5779.81
5.333818921080011 6864.39
5.356159527788849 4661.22
5.3784829252032536 2059.23
5.400823940070432 826.178
5.423147747031976 392.191
5.445489173474152 251.417
5.467830807066149 195.105
5.490155234831516 166.377
5.512497285125229 147.485
5.534822130975162 135.62
5.557164601388673 126.3
5.579489868738879 118.054
5.601832762690846 112.436
5.6241758697774475 108.163
5.646501775867269 106.458
5.668845311622074 104.147
5.691171647754637 102.13600000000001
5.713515615597765 100.274
5.735859800852677 99.0994
5.758186788542988 98.92299999999999
5.780531411018185 99.6248
5.802858837297399 99.7551
5.825203900414495 101.39200000000001
5.8475491852224 104.13
5.869877275883075 108.727
5.892223006467101 114.42299999999999
5.914551544266608 122.87799999999999
5.936897724049891 136.217
5.959244129804903 158.95600000000002
5.981573344815301 205.041
6.0039202049061 320.724
6.026249875609095 571.3380000000001
6.04859719346037 813.372
6.070927323278297 880.123
6.093275102315365 957.005
6.115623113320588 1427.39
6.137953938319995 2271.45
6.160302415650845 2215.26
6.182633708324452 1251.45
6.2049826554078376 557.924
6.227331838745022 269.497
6.249663839443684 170.169
6.27201349767565 128.491
6.294345974611799 107.009
6.316696111167083 92.1579
6.339046488263839 82.7697
6.361379686074702 76.112
6.383730546639482 71.0574
6.406064229255215 66.8807
6.428415576718203 64.7498
6.450749747566656 61.858000000000004
6.47310158535871 60.2388
6.495453669698332 58.4259
6.517788579421056 57.1151
6.540141159237969 55.3683
6.562476565766648 54.294
6.5848296444934045 53.2829
6.607182974060425 52.5801
6.6295191323281015 51.8046
6.651872965955752 51.0117
6.6742096296068985 50.4479
6.6965639707294615 49.9024
6.71891856698715 49.191
6.741255995248479 48.643
6.763611104154477 48.4763
6.785949046381137 47.9834
6.808304671371482 47.2105
6.8306605557940046 47.055
6.852999275508618 46.5396
6.875355681171544 46.4025
6.897694923437771 46.1342
6.92005185377892 46.4199
6.9423916220322655 45.9815
6.964749080490181 45.3607
6.987106804399774 45.5401
7.009447368180821 45.6855
7.031805625367033 45.7667
7.054146723727803 45.9903
7.076505517631004 45.7864
7.098864581288365 46.1811
7.121206488070854 46.058
7.143566093607822 45.0315
7.165908543567245 44.9918
7.188268694426048 44.4612
7.2106291193438095 44.1019
7.232972390625943 44.0559
7.255333366030969 43.6332
7.277677189091925 43.8593
7.300038718428332 44.3773
7.322400526130865 44.2078
7.344745183422596 44.4387
7.367107550224791 44.5952
7.389452767901992 44.9274
7.411815697249891 45.6033
7.434161478756298 45.6117
7.456524974096713 46.9183
7.478888753837185 49.2176
7.501235387657368 55.5989
7.523599738562711 81.7906
7.545946944825532 150.826
7.568311870344528 209.2
7.5906770845765665 187.43200000000002
7.613025156078678 117.22200000000001
7.635390950099687 71.9879
7.657739602662809 55.2364
7.680105979923558 49.2773
7.702472650212829 47.5319
7.724822180948224 46.716
7.747189439655568 46.0975
7.769539560075357 45.93600000000001
7.791907410653562 46.1386
7.81425812420825 45.8493
7.836626570110925 45.7508
7.858995315087906 46.7442
7.881346924933401 46.6516
7.903716270417482 46.7747
7.926068482028405 47.0373
7.948438431475253 47.5099
7.9708086843180235 47.9412
7.993161805171116 48.5048
8.015532667162402 48.3106
8.037886398416653 49.3131
8.060257873014221 49.9271
8.082629655331942 50.426
8.104984308787587 51.0792
8.127356708900503 51.7528
8.149711981398308 52.4392
8.172085002766314 53.1897
8.194458336181368 53.8435
8.216814543847752 54.9635
8.23918850371002 56.6722
8.26154533906492 58.0359
8.283919928836452 59.6713
8.306277395339652 60.979
8.328652618483376 62.553999999999995
8.351028159736202 64.8236
8.373386579575245 67.6048
8.395762759396959 70.2018
8.418121819038275 74.3624
8.440498640894003 80.5593
8.462875785192262 90.7496
8.485235811156207 109.539
8.507613602688501 158.744
8.529974277114228 272.385
8.552352719347912 388.483
8.574731488360351 421.426
8.59709314210385 355.098
8.619472567021075 328.881
8.64183487789147 447.645
8.664214962183097 829.419
8.686577933647762 1255.65
8.708958680784317 1198.92
8.731339760774953 775.448
8.753703729764451 365.50800000000004
8.77608547780821 186.102
8.798450116065078 131.37
8.820832535634787 108.12700000000001
8.843215292401656 95.8574
8.865580941199045 88.2881
8.887964374703538 84.0363
8.910330701447199 81.1081
8.932714815164482 78.5839
8.955099270424924 76.4086
8.977466620733543 75.1926
8.999851761421976 74.3235
9.022219798361645 73.4889
9.04460562795561 73.4182
9.066991803441677 72.8401
9.089360876979615 72.8305
9.111747746589993 73.3629
9.13411751544971 73.8638
9.156505082664324 75.2587
9.178875550323522 79.4971
9.20126381862328 90.1696
9.223652438908596 130.55100000000002
9.246023961427412 237.515
9.26841328802173 339.894
9.290785518039224 321.464
9.313175554425882 218.625
9.335565947154315 128.026
9.357939245086508 90.8822
9.380330352834827 79.4101
9.40270436697103 74.9916
9.425096193225055 72.5017
9.447488380180165 72.0418
9.469863475295412 71.1856
9.492256385987508 70.8111
9.514632206018318 71.1832
9.537025843935714 70.6407
9.559402392368193 71.2321
9.581796761000229 71.7815
9.604191496441521 71.4227
9.626569144158516 71.9702
9.648964615551032 72.2684
9.671343000390081 72.9903
9.693739211225699 73.6534
9.716135793237463 74.4425
9.738515290448102 75.417
9.760912617143402 76.4663
9.783292860202891 77.4452
9.805690935076182 79.1411
9.828089385495742 80.2785
9.850470754023561 82.4665
9.872869957865444 85.2719
9.89525208097539 89.3187
9.917652041736662 94.49
9.940052382417589 103.53
9.962435644102392 122.76899999999999
9.984836746950979 164.71599999999998
10.007220771957746 256.246
10.029622640473708 360.48699999999997
10.052007432299963 389.885
10.074410069984072 338.69
10.096813093716005 282.772
10.119199042482517 289.276
10.141602840636468 413.908
10.163989564971628 723.575
10.186394141051062 1135.25
10.208799107559706 1171.71
10.231187001965623 833.477
10.253592751657669 431.574
10.275981430388155 216.269
10.298387966769793 143.589
10.320794897965431 118.91
10.343184759907361 106.495
10.36559248305461 98.7403
10.387983138083852 95.1158
10.410391656691655 96.4078
10.432800574501677 105.26799999999999
10.455192425893369 129.692
10.47760214443012 158.099
10.499994797678786 165.268
10.522405320453982 147.14700000000002
10.54479877906917 127.992
10.567210109595656 125.53399999999999
10.5896218454736 148.843
10.612016518879773 221.752
10.634429067781074 336.06199999999995
10.656824555333241 395.4
10.679237920773568 350.773
10.701651695961992 252.896
10.724048411481384 179.31099999999998
10.746463008485165 132.36
10.768860546937125 99.85700000000001
10.791275969274796 80.8418
10.81369180576079 72.7545
10.836090585366925 69.0625
10.858507252467449 66.7533
10.88090686379991 65.0213
10.903324365036394 63.7283
10.925724811614439 62.2272
10.948143150509463 61.5903
10.970561909719066 60.7194
10.992963615930844 59.7793
11.015383218085756 58.8543
11.037785768347074 58.0313
11.06020621697282 57.7305
11.082627090322113 57.0862
11.105030913430326 56.7104
11.12745263854165 55.8595
11.149857314510728 55.3185
11.172279894912576 55.2512
11.194702904450653 54.4884
11.217108866490921 53.9433
11.239532736615194 53.676
11.26193956033512 53.6031
11.284364294577085 53.3297
11.306789462371718 52.5713
11.329197585398376 52.2542
11.351623622610898 52.3962
11.37403261614354 51.7495
11.396459526308487 51.7286
11.418869393879497 51.4918
11.441297180532617 51.056999999999995
11.463725406927658 50.5888
11.486136592353875 50.4867
11.508565700543707 50.2595
11.530977768845315 50.4312
11.553407762368774 49.8527
11.575838200059769 50.0245
11.598251599479612 49.9356
11.620682927815501 49.7892
11.64309721895548 50.0502
11.665529441478206 49.8469
11.687962112597958 49.6249
11.710377748130886 49.7966
11.732811318753434 49.7008
11.755227854859067 49.8246
11.777662328529495 50.0266
11.800079768750786 50.1571
11.822515149015453 50.4493
11.844950984084935 51.2412
11.867369787303163 51.8836
11.889806534289491 53.7915
11.912226250487029 59.6677
11.934663912939751 76.0446
11.9571020346363 101.494
11.979523127133968 116.92
12.001962169624331 111.167
12.024384183972964 92.2614
12.046824150809913 75.3504
12.069264581333726 69.4932
12.091687985297767 71.3455
12.11412934550045 74.0148
12.136553680195208 72.9429
12.158995973632788 69.1884
12.181438735204349 65.7569
12.20386447284199 65.4975
12.226308172985636 70.0654
12.24873485024193 82.9168
12.271179492516982 107.12200000000001
12.293607112949127 131.97899999999998
12.316052700916226 137.17600000000002
12.338498763250042 115.419
12.360927805303868 86.3868
12.383374818673879 68.071
12.405804812803074 58.9492
12.428252780773262 54.9331
12.45070122756722 53.2868
12.473132656675375 51.8721
12.49558206341869 51.6482
12.518014453510101 50.9738
12.540464823770117 50.7314
12.562915677315177 50.6412
12.58534951575545 50.9263
12.607801338171472 50.3334
12.630236146511358 50.6529
12.652688941369085 50.5729
12.675124723177234 50.7202
12.697578494048786 51.3658
12.720032754458185 51.4964
12.742470003354093 51.5845
12.764925245138771 51.9758
12.787363476431278 52.2341
12.809819703166806 52.566
12.83227642391173 52.9922
12.854716135692716 53.2059
12.877173846755147 54.2764
12.899614549869717 54.6255
12.9220732548287 55.431000000000004
12.94453245827299 55.9918
12.966974655289818 56.64
12.989434858002571 57.5205
13.011878055298721 58.5014
13.034339260862497 59.7493
13.056800969391883 62.278999999999996
13.079245674017244 67.6375
13.101708390774869 74.7796
13.12415410463411 83.3088
13.146617833206086 93.2041
13.169064559883248 106.641
13.191529303857127 119.91
13.213994557076367 126.084
13.236442809902437 118.73200000000001
13.258909083908291 106.191
13.28135835851934 97.8671
13.30382565690295 97.7013
13.326293469022952 107.333
13.348744283242008 132.953
13.371213125129904 188.87
13.39366497011003 260.469
13.416134845360597 300.275
13.438605238843131 269.5
13.46105863690397 198.43599999999998
13.483530069144786 142.40200000000002
13.505984506951902 121.58
13.528456981549432 124.596
13.550929978879088 127.42399999999999
13.573385983253365 122.345
13.595860028340867 109.572
13.618317081455832 98.5557
13.64079217790333 93.7788
13.663250283359057 95.8057
13.685726434770173 108.477
13.708203115221277 143.72799999999998
13.730662806148091 204.02900000000002
13.75314054697177 258.04200000000003
13.775601299246777 264.32599999999996
13.798080104050406 210.12599999999998
13.820559442405358 139.611
13.843021793671388 97.42
13.865502201420897 78.3679
13.887965623051947 71.0555
13.910447103807167 67.4179
13.932929122629764 64.8607
13.955394156785959 63.9362
13.977877254034569 62.9211
14.000343367582113 61.8359
14.022827546871707 61.424
14.045294743423524 61.0403
14.06778000837062 60.9068
14.090265817715476 62.4333
14.112734645763819 66.2321
14.13522154619454 78.0729
14.157691466286913 96.212
14.180179461423874 107.17299999999999
14.202668005486178 103.57
14.22513957064374 90.5432
14.247629214846473 75.1979
14.270101881097517 64.3978
14.29259262906496 59.5478
14.315083930490205 57.8702
14.337558255389705 56.5238
14.360050666019726 56.0542
14.382526101071944 55.5237
14.405019624534942 54.9569
14.427513705993134 54.7287
14.449990813291825 54.5404
14.47248601302899 54.479
14.49496423954951 54.5634
14.517460561197822 54.1908
14.539939910570322 53.9671
14.562437357763558 53.9592
14.58493536931253 54.1162
14.607416409993311 54.0926
14.62991555254159 54.228
14.652397725157423 54.4727
14.674898002342799 54.8097
14.697398848433282 55.0832
14.719882725991326 55.9517
14.74238471217934 56.816
14.764869730765593 59.0918
14.787372860692983 63.3883
14.809876564079925 70.634
14.83236330125751 78.3557
14.854868153850365 81.5091
14.877356041159485 79.6322
14.899862046604186 74.9979
14.922351087688757 70.1556
14.944858249632887 68.0322
14.967365991421232 69.2264
14.989856770231246 73.2726
15.012365673994204 85.0531
15.03485761569738 108.27
15.05736768508665 138.89
15.07987833888692 159.844
15.102372032001655 155.661
15.124883856909658 126.10600000000001
15.14737872204565 95.6591
15.169891721717274 76.3403
15.192405310371893 66.7749
15.214901940621196 61.5491
15.237416709527137 58.3449
15.259914520936249 56.3142
15.282430473753607 55.0246
15.304947020131227 54.0533
15.327446610371178 53.3909
15.349964346154254 52.7839
15.372465126703139 52.638000000000005
15.394984055556009 52.3775
15.417486030076159 52.2345
15.44000615566487 51.7655
15.462526881230803 51.6237
15.485030653812652 51.5232
15.507552581617434 51.419
15.530057557334603 51.5468
15.55258069104857 51.7456
15.575104429329837 52.0189
15.597611216864632 51.7728
15.620136166564563 52.2946
15.6426441664095 53.2246
15.665170331202765 54.9147
15.687697105158826 58.0869
15.710206930593545 63.8154
15.732734925158933 70.1318
15.755245972089478 73.4985
15.77777519094324 73.0933
15.800287463046663 69.306
15.822817909869592 64.7387
15.84534897229804 61.7101
15.867863089299354 61.9781
15.890395385222186 63.9432
15.912910736597423 68.9548
15.935444269699861 81.5467
15.957978423016485 103.965
15.980495633101265 129.09799999999998
16.003031029129367 144.842
16.02554948280019 138.026
16.048086125229432 116.27
16.070623392487107 95.2327
16.09314371869582 80.829
16.11568223789321 71.1612
16.13820381691126 63.4871
16.160743591742527 57.2285
16.183283996022084 53.0862
16.205807461423195 50.2293
16.228349126881973 48.604
16.25087385432698 47.9568
16.27341678466365 47.0565
16.29594277784926 46.4655
16.31848697676433 46.0147
16.341031811604868 45.4593
16.36355971058487 45.1272
16.3861058195587 44.868
16.40863499352978 44.4368
16.431182380342005 44.4533
16.453730407713202 44.2993
16.476261501364792 43.9373
16.498810812136167 43.7195
16.52134319004079 43.7467
16.54389378792203 43.5608
16.566445031001553 43.4641
16.588979342490088 43.3008
16.61153187824822 43.3779
16.634067483263312 43.1019
16.656621315414416 42.8868
16.679175797408888 42.678999999999995
16.701713349928728 42.743
16.72426913389191 43.0014
16.74680798922351 42.8967
16.76936507887444 42.937
16.791905240734874 42.8438
16.814463639794468 42.9842
16.837022695210294 43.0468
16.859564824093756 43.3505
16.882125194503903 43.9285
16.904668639217885 44.981
16.927230328348003 46.9697
16.949792678493612 49.12
16.972338104193863 49.9693
16.994901778652235 49.3667
17.017448529496576 47.8327
17.040013531998152 46.2988
17.06257920018044 45.3891
17.0851279459922 45.2088
17.107694947817667 45.9758
17.130245028099072 47.1507
17.15281336730298 48.1703
17.17536478578733 48.4671
17.19793446610687 47.7239
17.220504818648422 47.1416
17.243058251703697 46.1097
17.265629950971032 46.1585
17.288184731571736 46.1556
17.310757781306908 46.8818
17.33333150794385 47.9705
17.355888317140174 49.958999999999996
17.37846339986244 54.1524
17.401021565958885 59.3633
17.42359800851343 63.5229
17.44617513265564 63.5304
17.468735341390783 59.7763
17.491261035594565 54.1916
17.51396340099364 49.8748
17.536490463869136 47.8946
17.559018209820174 46.9524
17.58154663977963 46.3337
17.604251766089718 46.2627
17.626781572227713 46.3825
17.64931206518155 46.5449
17.671843245885103 46.5674
17.69455114821572 46.8395
17.717083712612634 47.4839
17.739616967569667 48.55
17.762150914021706 50.826
17.78486160749854 52.6231
17.807396945166804 53.6038
17.829932977143503 53.6264
17.85246970436452 53.3351
17.875183204129467 53.6097
17.897721330097664 55.9049
17.920260154126645 58.9908
17.942799677153296 61.935
17.9655159983646 62.47
17.988056927677544 61.3048
18.010598558807683 59.0814
18.033140892692916 57.0591
18.05586005052525 55.8148
18.07840379824407 55.6989
18.10094825154059 56.9701
18.12366954819864 59.9861
18.146215420998306 65.6389
18.16876200220057 75.9747
18.191309292745153 91.0664
18.214033452627167 107.095
18.236582170236648 114.145
18.259131600016456 108.194
18.281681742907335 92.2998
18.304408781233683 75.8574
18.32696035875955 65.0666
18.349512652227624 59.5562
18.372065662579683 57.7568
18.394795594587553 57.8997
18.41735004715306 60.3792
18.43990521943684 65.5831
18.46246111238171 73.3912
18.485193953325208 80.3527
18.507751296070428 81.0477
18.530309362314178 75.8003
18.552868153000343 67.9527
18.57560391815056 61.1801
18.59816416623245 57.1338
18.620725141597372 54.4872
18.643286845190268 52.1752
18.666025549835414 50.6079
18.688588718427933 48.7828
18.711152618092243 48.0057
18.73389353884365 47.4694
18.75645890921984 47.0368
18.77902501351406 46.6927
18.801591852673102 46.471000000000004
18.824335739722738 46.1155
18.846904057212626 45.994
18.8694731124168 45.5849
18.89204290628315 45.6071
18.914789774966803 45.2958
18.937361054791623 45.2107
18.959933076131318 44.9884
18.982505839934877 45.0478
19.00525570560582 44.9519
19.027829963004184 44.8515
19.05040496572238 44.9467
19.072980714710468 44.7166
19.095733592739563 45.0324
19.11831084296757 45.3357
19.140888842324735 45.9033
19.16346759176222 46.5582
19.18622349753803 47.0815
19.208803755869358 47.4015
19.231384767143577 47.3956
19.253966532312948 47.1629
19.276725481241822 47.2231
19.29930876296784 48.2968
19.3218928014549 50.3878
19.34465404436217 52.6127
19.36723960516257 53.7534
19.389825925592426 53.7596
19.412413006605938 53.2554
19.43517731967805 53.0722
19.457765930683355 54.4267
19.48035530514408 56.8136
19.50294544401556 58.3222
19.525712842708348 57.2441
19.54830451925909 54.1285
19.570896963095727 49.6954
19.593490175174704 46.576
19.616260674962184 44.7523
19.638855432416964 43.4084
19.661450960992624 42.9068
19.68404726164677 42.6138
19.706820878021247 42.3545
19.729418731756834 42.4667
19.752017360452857 42.1308
19.77461676506804 42.1057
19.797393513540218 42.1052
19.819994478951667 42.278999999999996
19.84259622316767 42.7459
19.8651987471481 43.2972
19.887978643247177 43.8643
19.91058273574792 44.2074
19.933187610901943 44.2143
19.955969879466828 43.9764
19.97857632894404 43.5737
20.00118356396599 42.9248
20.023791585494575 42.7031
20.046577028914875 42.9144
20.069186632506966 43.3111
20.091797025500632 44.0951
20.114408208858933 45.0416
20.137196842715273 46.5239
20.159809615886765 48.4685
20.18242318232135 50.5864
20.20503754298326 53.1148
20.227829382875154 54.5466
20.250445341109344 53.6723
20.27306209647285 51.0708
20.29567964993108 47.731
20.31847471147704 45.2605
20.34109387027612 43.9847
20.363713830075454 43.7784
20.386334591841646 44.5295
20.409132890679302 46.3379
20.431755265564437 48.6026
20.454378445325528 50.6663
20.477002430930366 50.9163
20.499803982716553 49.1045
20.522429589228004 46.2556
20.54505600449589 43.4619
20.567683229489194 41.8255
20.590488049900088 40.8803
20.61311690359731 40.0389
20.63574656993626 39.7821
20.658553853717297 39.4999
20.681185154618298 39.36
20.703817271080066 39.3167
20.72645020407368 39.1737
20.749260783967177 39.6577
20.771895359337133 40.4192
20.794530754161617 41.2433
20.817166969412938 41.449
20.83998086114876 41.1495
20.86261872660049 40.4589
20.885257415405402 39.7402
20.90789692853701 39.1922
20.930714147864748 38.5664
20.953355319030678 38.4337
20.97599731745334 38.4073
20.99864014410749 38.3437
21.021460706796564 38.2678
21.044105199328826 38.4187
21.06675052302631 38.5113
21.089396678865015 38.3222
21.112220600704806 38.1831
21.134868430275347 38.0979
21.15751709492456 37.9945
21.180166595629693 37.7643
21.202993892429635 37.8942
21.22564507473034 37.7714
21.24829709602816 37.8168
21.27112693608965 37.9701
21.293780644891275 38.3201
21.316435195634053 38.7042
21.339090589297417 39.236999999999995
21.361923832041875 39.8955
21.384580921090404 40.2101
21.407238856007325 40.0267
21.429897637773326 39.6426
21.45273429906592 39.3063
21.475394784108598 39.0834
21.498056118951983 38.6835
21.520718304578022 38.655
21.543558400304388 38.5266
21.566222297108816 38.6126
21.58888704765135 38.5172
21.61155265291521 38.6539
21.63439619898156 38.8961
21.657063523335786 39.5644
21.67973170537063 40.1481
21.7024007460706 40.3686
21.72524775840385 40.4603
21.747918526116475 40.5893
21.770590155457388 40.2589
21.79326264741238 39.830999999999996
21.816113141960237 39.5744
21.838787368860547 39.8664
21.861462461341976 40.0179
21.884315579735777 40.4575
21.90699241312273 40.8465
21.92967011506078 41.3892
21.95234868653799 42.3071
21.9752053151131 43.7505
21.997885635446785 46.0032
22.020566828293532 48.5443
22.04324889464272 50.3828
22.066109049404666 50.575
22.088792872571794 48.9018
22.111477572219204 46.7952
22.1341631493376 44.9893
22.157026846313123 43.7995
22.179714188221507 43.4551
22.202402410582668 43.586999999999996
22.22509151438863 43.9031
22.24795876962584 44.465
22.270649646204486 44.5089
22.293341407213727 43.8493
22.316034053646906 42.766000000000005
22.338904883215342 41.0483
22.36159931041458 39.9026
22.38429462602756 39.2721
22.40699083104897 38.5737
22.429865251039757 38.4885
22.452563244831367 38.3017
22.47526213102522 38.2349
22.49813925616515 38.1387
22.520839937143307 38.0282
22.543541513520587 38.0841
22.56624398629403 38.0083
22.589124730075895 37.9048
22.611829005656723 38.1279
22.63453418063466 38.0241
22.657240256008077 38.2171
22.680124634582935 38.4767
22.70283252079775 38.9665
22.725541310413075 39.5205
22.74825100442868 39.8989
22.771139033969575 40.187
22.79385054687155 40.1102
22.81656296718292 40.1367
22.83927629590484 39.8283
22.862167992606945 39.4399
22.88488314827121 39.2055
22.907599215359284 38.9019
22.93031619487366 38.8219
22.953211574954405 38.7251
22.975930389478226 38.857
22.998650119445763 39.2002
23.02137076586092 39.7623
23.044269845560063 40.9813
23.06699233506288 42.558
23.089715744034912 44.286
23.112617610931565 45.4769
23.135342869061212 45.6228
23.158069049684816 44.4868
23.1807961538087 42.7575
23.20370174880544 41.1597
23.226430710184808 39.9035
23.249160598093425 39.2088
23.271891413539002 38.9219
23.294800752937697 39.0266
23.31753343374794 39.2909
23.340267045128353 39.5214
23.36300158808808 40.1009
23.38591468821339 40.2737
23.408651104658304 40.3398
23.431388455719986 40.1799
23.454126742409 40.1056
23.4770436196085 39.8715
23.499783787914662 39.6046
23.522524894889884 39.0524
23.54526694154616 38.5192
23.56818761219047 38.4696
23.59093154860734 38.4051
23.613676427751283 38.7983
23.636422250635754 39.2665
23.659346731118656 40.1728
23.68209445191868 41.7984
23.704843119509587 43.6574
23.72759273490623 45.16
23.750521041644767 45.3139
23.77327256312355 44.3392
23.796025035462787 42.3266
23.818956224555475 40.0476
23.841710609113413 38.5836
23.86446594758979 37.3659
23.887222241002014 36.8414
23.910157285144578 36.2201
23.932915498962537 36.1634
23.955674670778713 36.0512
23.978434801611975 35.7911
24.001373717286125 35.721
24.024135776723917 35.6462
24.046898798245582 35.654
24.06966278287146 35.4452
24.092605586582614 35.3225
24.115371508023642 35.2973
24.1381383956401 35.1082
24.16090625045381 34.9047
24.183852958731244 34.689
24.206622758582608 34.571999999999996
24.229393528706886 34.407
24.252165270127392 34.5057
24.27511589952438 34.5689
24.297889594216997 34.3246
24.32066426328598 34.1622
24.34343990775613 34.156
24.36639447485003 34.0193
24.38917208083877 33.9083
24.41195066531332 33.8119
24.43490819850244 33.7876
24.457688750692377 33.7046
24.48047028445616 33.6556
24.503252800821233 33.8031
24.526214300784112 33.6694
24.548998793132213 33.7006
24.57178427117417 33.5077
24.59457073593893 33.8178
24.617536219319863 33.8281
24.64032466834748 34.1202
24.663114107195035 34.1868
24.685904536893013 34.2186
24.708874020360852 34.2517
24.731666442613744 34.2352
24.754459858818787 34.0591
24.777254270007962 33.8325
24.80022777025625 33.5683
24.82302418230472 33.4709
24.845821592443674 33.4271
24.86862000170663 33.4034
24.891597535453727 33.2038
24.914397953892728 33.3285
24.93719937456671 33.2665
24.96000179851076 33.1985
24.98298338249997 33.2577
25.00578782394922 33.3371
25.028593271784167 33.2967
25.05157790644186 33.4126
25.07438537804115 33.4785
25.097193859145293 33.4441
25.120003350792075 33.4233
25.142992065061257 33.5037
25.165803588823465 33.4844
25.18861612625217 33.4896
25.211429678386736 33.2635
25.234422489079968 33.6151
25.257238081693636 33.9032
25.280054692141732 34.2943
25.3028723214652 34.405
25.325869245420463 34.5942
25.348688923599397 34.4843
25.371509623787006 34.1231
25.394331347025812 33.9419
25.41733240110666 33.821999999999996
25.440156181590016 33.9921
25.46298098826268 34.5325
25.48580682216873 35.0218
25.50881202326435 35.1565
25.53163992281684 35.1508
25.55446885274561 34.7776
25.577298814096377 33.9483
25.600308179121807 33.3167
25.623140214533745 32.9265
25.64597328451537 32.4745
25.66898578564376 32.2709
25.691820936010206 32.2156
25.714657124097695 32.232
25.737494350954734 32.0914
25.760511045684957 31.8972
25.783350361364224 32.1894
25.806190718969255 32.2778
25.82903211955018 32.3966
25.852053024868923 32.4037
25.874896522722523 32.391999999999996
25.897741066713106 32.1329
25.920586657892454 31.9842
25.943611790812668 31.8656
25.966459487728237 31.7553
25.989308234998564 31.5132
26.01215803367705 31.6772
26.03518741123814 31.6365
26.05803932412957 31.6074
26.080892291600094 31.4896
26.10374631470478 31.4333
26.12677995397268 31.5018
26.14963609978026 31.7263
26.172493304397875 31.7694
26.19535156888223 32.1283
26.218389486949604 32.4095
26.241249882640123 32.6686
26.26411134137826 32.8816
26.28715248187403 32.9094
26.31001607820869 32.7009
26.3328807407756 32.2669
26.35574647063438 32.1976
26.37879191991473 32.0146
26.401659795896734 31.7717
26.424528742360263 31.7765
26.447398760366614 31.7671
26.470448535598294 31.6174
26.49332070826805 31.5673
26.516193955675355 31.6187
26.53906827888316 31.5391
26.562122397260108 31.4457
26.584998883685063 31.5263
26.607876449110325 31.5654
26.63075509460056 31.4506
26.65381357334404 31.4386
26.67669439061878 31.4874
26.699576291163382 31.5844
26.722459276044212 31.8509
26.745522132402975 32.2445
26.768407297649354 32.662
26.791293550442003 32.9776
26.814180891848974 33.0901
26.837248143099337 33.0165
26.860137673466657 32.7221
26.88302829566349 32.3989
26.90592001075963 32.2823
26.92899167420566 32.2186
26.951885586870763 32.2181
26.974780595655517 32.2737
26.99785558178161 32.2253
27.020752794605112 32.0144
27.043651106772522 31.6531
27.06655051935668 31.2955
27.089629948036183 31.1063
27.112531573292053 30.7851
27.135434302194138 30.8149
27.158338135817015 30.6466
27.181422024430987 30.5409
27.204328079372566 30.491
27.22723524226965 30.4803
27.250143514198573 30.3689
27.273231880156334 30.4425
27.296142382065014 30.4216
27.319053996245536 30.2709
27.341966723775965 30.3013
27.365059584515222 30.2661
27.38797455070062 30.2629
27.410890633481237 30.0634
27.433807833936918 30.1768
27.456905206923906 30.1793
27.47982465472398 30.1305
27.502745223449743 30.0848
27.525666914182825 30.2971
27.548768816912457 30.1935
27.571692763693633 30.1015
27.59461783573812 30.0083
27.617723149491244 30.0281
27.640650484125285 30.1151
27.66357894728264 30.2577
27.686508540048052 30.43
27.709618414237887 30.5302
27.732550278321757 30.473000000000003
27.755483275279115 30.3432
27.778417406196485 30.2483
27.801531858397514 30.0728
27.824468269376716 29.8894
27.847405817586786 29.8348
27.870344504116094 29.8216
27.893463551932008 29.7305
27.916404527281053 29.7016
27.93934664422563 29.7099
27.962289903855886 29.7452
27.98541356491974 29.8216
28.00835912214229 29.8725
28.03130582533231 29.8973
28.054253675581805 29.9922
28.077381967556104 29.8778
28.100332124185126 29.8366
28.123283431160893 29.865
28.146235889577238 29.9076
28.169368830154156 30.0606
28.192323603752033 30.2886
28.215279532083304 30.4938
28.238415973016764 30.5516
28.261374223145094 30.4829
28.284333631303806 30.2404
28.307294198589954 30.1064
28.330435319167677 29.8649
28.353398217078915 29.6297
28.376362277420153 29.7458
28.39932750129032 29.7364
28.422473319286713 29.6584
28.44544088262495 29.5742
28.468409612800283 29.3361
28.491379510913497 28.9234
28.51453004413313 28.7579
28.53750229057244 28.5904
28.56047570826344 28.5616
28.583450298308804 28.5806
28.606605564586562 28.434
28.629582511831156 28.4591
28.65256063474956 28.4148
28.675539934446338 28.2904
28.698699951647605 28.1649
28.72168161743193 28.1143
28.74466446331978 27.973000000000003
28.767648490417624 27.7977
28.790813276438353 27.8271
28.813799678527303 27.8073
28.836787265157085 27.7917
28.859955641890075 27.7897
28.882945610203045 27.7131
28.905936766392035 27.6505
28.928929111566863 27.7055
28.952102288520145 27.6429
28.975097024308607 27.5529
28.998092952423807 27.5994
29.021090073977508 27.6749
29.04426806913204 27.6848
29.067267590245258 27.6837
29.090268308143695 27.7368
29.11327022394099 27.6492
29.13645305530891 27.4914
29.159457379627167 27.4805
29.18246290519685 27.2302
29.20546963313352 27.1308
29.22865731875826 27.0891
29.25166646419296 27.0483
29.27467681535305 26.8976
29.29768837335608 26.8947
29.320880931312562 26.8067
29.34389491580634 26.7884
29.366910110507334 26.7345
29.38992651653503 26.7097
29.41312396492981 26.6463
29.436142806456754 26.5554
29.45916286268059 26.6049
29.48236399319994 26.5572
29.50538649169417 26.5995
29.528410208259935 26.6597
29.55143514402014 26.7639
29.574641196749695 26.7521
29.597668583816574 26.7353
29.6206971934585 26.5468
29.64372702680042 26.5015
29.666938019934474 26.3201
29.689970313635285 26.256
29.713003834422636 26.2097
29.73603858342347 26.1153
29.759254535188578 26.0929
29.78229175361658 25.9314
29.80533020365064 25.8991
29.82836988641968 25.967
29.85159081507472 25.9098
29.874632976355343 25.8555
29.89767637376955 25.8731
29.920721008448314 25.7987
29.9439469322847 25.7853
29.96699405457564 25.7368
29.9900424175358 25.721999999999998
30.013092022298157 25.733
30.03632295963995 25.6255
30.059375061131373 25.7165
30.08242840783577 25.7276
30.105483000888153 25.7345
30.128718970092244 25.5505
30.151776069006917 25.4966
30.17483441768648 25.4986
30.198074175317235 25.4133
30.221135036724256 25.4788
30.24419715131772 25.3849
30.267260520236203 25.3241
30.290505341942243 25.4361
30.313571232750228 25.4902
30.336638381310948 25.5661
30.35970678876503 25.4275
30.38295669299435 25.3976
30.40602763151657 25.4594
30.429099832366074 25.4763
30.452173296685572 25.4169
30.47542830191959 25.3324
30.498504306502497 25.1747
30.521581577995562 25.2209
30.544660117543582 25.3156
30.56792024229725 25.2641
30.59100133132069 25.0867
30.614083691845494 25.079
30.637167325018545 25.0262
30.660432587840603 25.0016
30.683518779717886 24.923000000000002
30.70660624769615 24.9928
30.729694992924372 24.9215
30.75296541239743 24.9266
30.77605672557558 25.0429
30.799149319462742 25.1272
30.8224236211637 25.1598
30.845518789950724 25.2034
30.868615242910597 25.2133
30.891712981195973 25.2498
30.91499247215866 25.2614
30.938092794619365 25.2631
30.96119440587579 25.147
30.984297307082752 25.045
31.00758200598383 24.8587
31.030687500658694 24.9564
31.053794288760695 24.8212
31.076902371446767 24.7508
31.100192296997445 24.7655
31.12330298246119 24.8299
31.14641496599209 24.5961
31.169528248749216 24.4662
31.19282341969534 24.4602
31.215939314557186 24.489
31.239056512134788 24.500999999999998
31.262175013589378 24.445
31.28547544871168 24.3539
31.30859657161541 24.2503
31.331719001892175 24.3045
31.35484274070538 24.3369
31.378148458819545 24.2171
31.401274828443725 24.1743
31.424402510106933 24.134
31.447712205419993 24.1781
31.470842524931633 24.0643
31.493974159989783 24.0255
31.51710711176168 24.0653
31.54042212308802 24.0533
31.563557722100917 24.1753
31.586694641341655 24.1262
31.609832881979628 24.0582
31.63315322823208 24.1765
31.656294125521327 24.0815
31.679436347728515 24.1543
31.70257989602529 24.2019
31.725905596152327 24.0275
31.74905181052835 23.9889
31.772199354521323 23.9952
31.79534822930507 23.8441
31.818679302290967 23.8248
31.84183085259981 23.7076
31.864983737233473 23.6849
31.88813795736804 23.636999999999997
31.911474422233013 23.4829
31.934631327356435 23.5584
31.9577895715215 23.5571
31.980949155906522 23.5225
32.004291031706956 23.5413
32.027453310562606 23.4255
32.05061693318573 23.4319
32.07396288236386 23.4879
32.09712920658542 23.4764
32.12029687812702 23.4953
32.14346589817093 23.5446
32.166817291729984 23.5284
32.18998902288583 23.3617
32.21316210610336 23.339000000000002
32.23633654256711 23.2371
32.259693399663725 23.2874
32.282870556771144 23.1086
32.30604907069099 23.2213
32.329228942610065 23.0454
32.35259128243769 22.991
32.375773884550505 22.8626
32.398957848235646 22.8485
32.422143174682176 22.8552
32.445511016471215 22.7184
32.468699082679954 22.6229
32.49188851523011 22.6991
32.51507931531304 22.6201
32.538452678331 22.546999999999997
32.56164622776311 22.6795
32.58484114831493 22.4205
32.60803744118015 22.4552
32.631416344731896 22.4529
32.654615396551876 22.4918
32.67781582427913 22.4702
32.701198898634416 22.4089
32.72440209253756 22.3645
32.747606665947124 22.3963
32.77081262006088 22.2792
32.79420126883317 22.2528
32.81740999876112 22.2225
32.840620112999424 22.1923
32.86383161274818 22.1689
32.88722585534586 22.2427
32.91044014056596 22.1537
32.933655814909734 22.0303
32.95687287957963 22.11
32.98027273544904 22.0479
33.00349259526636 21.9518
33.026713849030116 21.9765
33.04993649794511 21.9207
33.073341986570746 21.886999999999997
33.09656744032826 21.8518
33.11979429286444 21.8238
33.14302254538647 21.7954
33.166433686291185 21.721
33.18966475336992 21.6944
33.212897224069096 21.5989
33.23613109959831 21.6746
33.259547912343415 21.5926
33.2827846121627 21.6576
33.306022720453775 21.6218
33.32926223842861 21.5186
33.352684742614166 21.5834
33.37592709463173 21.5743
33.399170859982064 21.6145
33.422597648419426 21.4835
33.44584425514446 21.4597
33.46909227885668 21.5703
33.4923417207723 21.4773
33.51577423505344 21.4604
33.539026528130385 21.3881
33.56228024307245 21.3995
33.585535381098246 21.2477
33.60897364093058 21.1726
33.63223163992385 21.1168
33.6554910656699 21.0934
33.678751919389796 21.0179
33.702195944520106 20.9457
33.72545966903325 21.008000000000003
33.74872482519663 20.9189
33.771991414233746 20.8575
33.79544122444841 20.8022
33.81871069412428 20.7
33.84198160035767 20.7664
33.86525394437455 20.8689
33.88870955949969 20.7322
33.911984794020626 20.6689
33.93526147001624 20.6433
33.958539588715006 20.5861
33.98200102861669 20.5582
34.0052820477047 20.5402
34.02856451319451 20.5121
34.05203033759056 20.566999999999997
34.07531571090147 20.5334
34.09860253431845 20.5277
34.121890809074316 20.4712
34.145362493118924 20.4695
34.16865368561615 20.3888
34.191946333164054 20.3002
34.21524043699793 20.2946
34.23871800066799 20.2899
34.26201503218366 20.1837
34.28531352370466 20.1479
34.30861347646881 20.0925
34.33209693978188 20.0407
34.3553998301885 20.070999999999998
34.378704185565205 20.0188
34.402010007152356 19.9327
34.42549939016683 20.0002
34.44880815937748 19.9359
34.472118398533134 19.8979
34.49543010887669 19.8363
34.51892543169198 19.8169
34.54224009966052 19.9014
34.56555624255917 19.8079
34.58887386163339 19.7739
34.61237514439016 19.7135
34.6356957311114 19.6972
34.65901779775809 19.5986
34.68252356662995 19.5713
34.705848608458616 19.6018
34.72917513396849 19.5015
34.75250314440949 19.5116
34.77601490857862 19.4348
34.799345904259795 19.3629
34.82267838863559 19.375999999999998
34.846012362958525 19.4094
34.869530142679984 19.4349
34.89286711232212 19.41
34.91620557568269 19.3098
34.93954553401677 19.2363
34.9630693495876 19.1318
34.986412313340814 19.2118
35.00975677584668 19.2093
35.033102738362956 19.1131
35.05663261012228 19.1159
35.0799815881786 19.1167
35.10333207003229 19.037
35.12668405694369 19.102
35.150220005273056 19.0035
35.17357501786656 19.0525
35.19693153931268 18.9608
35.220289570874385 18.9731
35.24383161619786 18.9381
35.267192683604904 18.9324
35.290555264930376 18.8817
35.314101899412165 18.8649
35.33746752422433 18.7698
35.36083466676374 18.7557
35.38420332829803 18.7529
35.407756095629054 18.7753
35.43112781085063 18.6818
35.45450104888391 18.668
35.477875810999194 18.6778
35.50143473172161 18.5404
35.52481255774625 18.6455
35.54819191167777 18.6195
35.57157279478914 18.6164
35.595137889488406 18.5993
35.61852184675279 18.6318
35.641907337029984 18.5766
35.665294361595684 18.6443
35.68886565090076 18.5979
35.7122557598848 18.522000000000002
35.73564740699838 18.4667
35.759040593519934 18.3948
35.78261809810353 18.3843
35.80601437933051 18.3902
35.829412203814705 18.2999
35.85281157283719 18.2176
35.876395313415884 18.275
35.8997977874528 18.2687
35.92320180988546 18.2137
35.946790244133936 18.0961
35.97019737933222 18.1712
35.993606066789866 18.0783
36.01701630779276 18.067999999999998
36.04061101440684 18.0549
36.06402437852291 18.06
36.08743930005611 18.0381
36.1108557802951 17.8873
36.13445678011326 17.9328
36.15787639383515 17.9574
36.18129757014299 17.8584
36.20472031032821 17.8512
36.22832762423364 17.8421
36.25175350829375 17.8189
36.275180960119776 17.7423
36.298609981005924 17.776
36.32222362992669 17.785999999999998
36.34565580510207 17.7516
36.36908955323448 17.7089
36.39252487562093 17.6651
36.416144880530226 17.5794
36.43958336764275 17.5471
36.463023432914625 17.5815
36.486465077645676 17.5403
36.51009145956204 17.586
36.53353627947859 17.5767
36.55698268276811 17.5133
36.58043067073321 17.4571
36.60406345072071 17.3269
36.62751462435344 17.3746
36.65096738658405 17.418
36.67460498210655 17.3881
36.69806093788647 17.3216
36.72151848619297 17.2951
36.744977628333636 17.2165
36.76862165890998 17.2173
36.79208400512205 17.1867
36.81554794910557 17.2028
36.83901349217101 17.2055
36.862663978991606 17.0488
36.88613273667352 17.11
36.90960309738324 17.1496
36.933075062434064 17.0706
36.95673202673572 17.0424
36.98020721697122 16.9671
37.003684015502365 16.9884
37.027162423645365 16.9294
37.050825886711465 16.9375
37.07430753063053 16.9073
37.09779078812467 16.8412
37.121275660513014 16.8203
37.144945643673694 16.7473
37.16843376245278 16.7882
37.19192350009803 16.6929
37.215414857931435 16.7215
37.239091382563885 16.6252
37.262585997426164 16.6685
37.28608223645736 16.6433
37.309763684451696 16.6486
37.33326318851098 16.5935
37.356764320726555 16.5738
37.380267082425526 16.5293
37.40395510942588 16.5121
37.42746114683234 16.4843
37.45096881771841 16.4277
37.474478123414166 16.4597
37.49817275092816 16.4157
37.52168534303452 16.4046
37.54519957395567 16.311
37.568715445024665 16.2809
37.592416694607714 16.2657
37.61593586281424 16.3098
37.63945667518264 16.3048
37.66297913304891 16.1771
37.68668702630454 16.1946
37.710212792059274 16.1382
37.733740207334854 16.1065
37.757269273470364 16.0946
37.780983832050374 16.1093
37.80451621684926 16.0696
37.82805025654007 16.0316
37.851585952464795 16.0175
37.8753071980695 15.9699
37.89884622345676 15.9631
37.92238690911902 15.9438
37.94611318753442 15.9134
37.969657210779765 15.9023
37.99320289834801 15.8572
38.016750251586465 15.8003
38.04048325513017 15.7842
38.06403395679343 15.7869
38.087586328183946 15.7437
38.11114037065203 15.7708
38.13488012115898 15.6926
38.1584375229181 15.6214
38.181996599821 15.6017
38.205557353221124 15.6643
38.229303872575656 15.6044
38.2528679961576 15.5252
38.27643380031219 15.5211
38.30000128639589 15.4489
38.32375459653193 15.5387
38.34732546371299 15.5262
38.37089801690786 15.41
38.39447225747609 15.4446
38.418232380377425 15.3427
38.441810012983396 15.3814
38.46538933705673 15.3292
38.488970353960084 15.3403
38.51273731166058 15.3015
38.536321731567014 15.2833
38.55990784840681 15.3242
38.58367995004091 15.2138
38.60726947812959 15.1409
38.63086070726198 15.1672
38.654453638806274 15.1296
38.678232613930824 15.1493
38.70182896773327 15.0911
38.72542702806741 15.0408
38.7490267963045 15.0699
38.77281266709232 15.0274
38.79641586862214 14.9572
38.8200207821842 14.9465
38.843627409152944 14.9777
38.86742019782782 14.9777
38.891030269149255 14.9058
38.914642058016156 14.9181
38.938255565806124 14.8482
38.96205529464307 14.847000000000001
38.98567225787121 14.854000000000001
39.00929094417078 14.8396
39.03291135492255 14.8307
39.05671804624804 14.7755
39.080341923549106 14.7355
39.103967529460334 14.7353
39.127594865365744 14.7029
39.15140854155791 14.6345
39.17503935514948 14.6309
39.19867190290282 14.5784
39.22249083587951 14.6056
39.24612686969409 14.5321
39.269764641845306 14.6043
39.293404153722804 14.558
39.317230110864074 14.4788
39.34087311998506 14.4558
39.36451787301696 14.5118
39.388164371352595 14.3906
39.41199737518003 14.3603
39.43564738196752 14.3526
39.45929913825317 14.3482
39.48295264543308 14.3749
39.506792718520884 14.2882
39.530449745387216 14.2502
39.55410852735203 14.1944
39.57776906581474 14.2147
39.60161623079 14.2211
39.625280300200025 14.1929
39.64894613032202 14.1414
39.67261372255866 14.1317
39.6964680021016 14.0397
39.72013913657293 14.0823
39.74381203738292 14.0842
39.76748670593756 14.0422
39.79134812278169 14.048
39.81502634488497 14.0404
39.83870633896685 13.9867
39.862388106436654 13.9474
39.88625668336918 13.9182
39.90994201572829 13.9374
39.933629125719285 13.8934
39.957503091207826 13.8857
39.9811937746168 13.8825
40.00488623990914 13.8745
40.02858048850006 13.7976
40.05246165409549 13.7684
40.076159487492085 13.7485
40.099859108448875 13.7328
40.123560518384345 13.6768
40.1474489070226 13.6972
40.171153913178564 13.6845
40.194860712584955 13.6743
40.2185693066637 13.6871
40.242464941335314 13.6456
40.26617714307655 13.5977
40.289891143772046 13.6004
40.3136069448471 13.5786
40.33750984859743 13.5473
40.3612292688043 13.5313
40.3849504936829 13.5275
40.40867352466194 13.4483
40.43258372059144 13.4535
40.45631038219906 13.4272
40.48003885420956 13.3721
40.503769138055105 13.4276
40.52768664931955 13.3745
40.55142057531802 13.315999999999999
40.57515631746428 13.3052
40.599079334038514 13.3208
40.62281872700477 13.2461
40.64655994043941 13.2377
40.67030297578061 13.2738
40.69423334835778 13.2314
40.71798004609188 13.1871
40.74172857006355 13.2049
40.76547892171441 13.1974
40.7894166736039 13.1212
40.813170699248566 13.0671
40.83692655691388 13.0864
40.86068424804498 13.0624
40.884629402612525 13.0591
40.908390779366385 13.0838
40.932153993938 13.0498
40.95591904777605 13.0092
40.979871628443995 13.0124
41.003640379561936 12.9517
41.02741097430883 12.9479
41.05118341413683 12.9402
41.075143444384416 12.9111
41.098919593177826 12.9079
41.1226975914255 12.8593
41.14647744058318 12.8191
41.170444943946755 12.8157
41.19422851378379 12.8206
41.218013938914645 12.7849
41.24198706625173 12.7585
41.26577622087193 12.7098
41.289567235177785 12.6984
41.31336011063129 12.6796
41.337340752422875 12.6431
41.361137369129835 12.6493
41.38493585138705 12.7139
41.40873620066004 12.6465
41.43272438060107 12.5759
41.45652848292052 12.5628
41.48033445666918 12.5019
41.50414230331616 12.4767
41.528138045159764 12.4753
41.551949656675205 12.4917
41.575763145513235 12.3781
41.59957851314666 12.4211
41.62358184070442 12.3666
41.64740098505737 12.3819
41.6712220126409 12.349
41.69504492493139 12.331
41.71905586207357 12.2806
41.74288256296395 12.286
41.766711153007456 12.258
41.79054163368412 12.2786
41.814560204340054 12.2818
41.838394485526365 12.2474
41.86223066180303 12.171
41.88625497706819 12.1644
41.910094962812 12.1808
41.93393684811168 12.1466
41.95778063445365 12.0594
41.981812625263366 12.0883
42.00566023303407 12.0886
42.029509746323676 12.0575
42.05336116662236 12.0012
42.077400857069705 12.0403
42.10125611078846 12.0197
42.12511327600405 11.9829
42.14897235421036 11.9613
42.173019768448455 11.8757
42.19688269209613 11.9246
42.22074753323349 11.8886
42.24461429335818 11.8666
42.268669455600495 11.8649
42.292540073217886 11.8455
42.31641261433284 11.811
42.34028708044675 11.8008
42.36435001496739 11.8267
42.38822835065557 11.8042
42.41210861586426 11.7505
42.4359908120986 11.7533
42.46006154323262 11.6742
42.48394762115317 11.6578
42.507835634632315 11.7216
42.531912233047436 11.6687
42.55580413732265 11.6369
42.579697981698 11.5811
42.60359376768525 11.5258
42.62767820545945 11.5908
42.65157789440821 11.5801
42.67547952952185 11.5437
42.699383112316 11.5341
42.72347541395347 11.4708
42.74738291190531 11.4318
42.771292362102166 11.4583
42.795203766063516 11.4593
42.819303956130405 11.4276
42.843219287476536 11.3961
42.86713657716324 11.3564
42.89105582671383 11.314
42.91516392983864 11.3166
42.939087119032166 11.3077
42.963012272677304 11.3018
42.98693939230129 11.3018
43.01105543317513 11.2651
43.034986504731386 11.255999999999998
43.05891954686589 11.2056
43.08285456110972 11.214
43.10697856448665 11.2161
43.130917542983475 11.1629
43.15485849820081 11.1482
43.17880143167367 11.1042
43.20293342237094 11.0876
43.226880332449 11.0688
43.25082922540554 11.0881
43.27496722682525 11.047
43.29892010567796 11.0432
43.32287497204102 11.042
43.34683182745632 10.9548
43.370977859791836 10.9524
43.39493871351105 10.9977
43.41890156092628 10.9781
43.44286640358341 10.9153
43.46702049182749 10.9305
43.49098934522816 10.9015
43.51496019852649 10.8442
43.5389330532723 10.8749
43.56309522248204 10.8201
43.58707210044314 10.8262
43.61105098451946 10.8318
43.63503187626491 10.7897
43.659202151562134 10.7248
43.68318707902681 10.7523
43.70717401884041 10.7021
43.731162972560874 10.7026
43.75534137913236 10.6852
43.779334381108384 10.6318
43.803329401683186 10.6459
43.82732644241872 10.6266
43.8515130055166 10.6107
43.87551410707659 10.5687
43.89951723350145 10.5819
43.923709934595614 10.5388
43.94771713129917 10.5179
43.97172635758096 10.5563
43.99573761501002 10.4918
44.0199385169922 10.5106
44.04395385732619 10.446
44.067971233533086 10.482000000000001
44.09199064718605 10.435
44.11619977548961 10.38
44.14022328470671 10.4017
44.16424883610785 10.4076
44.18827643127035 10.3996
44.21249381139513 10.3376
44.236525514814076 10.3256
44.26055926674478 10.3203
44.28459506876863 10.3002
44.3088207262813 10.2594
44.33286064928722 10.2307
44.35690262714919 10.2366
44.38094666145278 10.2196
44.4051806219871 10.2337
44.42922879003185 10.1376
44.45327901929361 10.1857
44.477331311362136 10.1302
44.501573600619416 10.0806
44.525630039221795 10.0523
44.54968854541895 10.0528
44.573937102200176 10.0736
44.5979997645541 10.1017
44.622064499300315 10.0501
44.64613130803592 9.98727
44.67038823869318 9.99279
44.69445921643748 10.0009
44.718532272981385 9.98863
44.742607409926194 9.97638
44.76687274034801 9.944180000000001
44.79095205918753 9.93109
44.81503346325094 9.9061
44.839116954143876 9.88531
44.86339071028742 9.89216
44.88747839599524 9.84078
44.91156817336837 9.834389999999999
44.93566004401666 9.82163
44.959942251908146 9.82317
44.984038330325966 9.81682
45.00813650686762 9.74886
45.03223678314731 9.73799
45.05652746888232 9.69775
45.08063196592069 9.676169999999999
45.104738567558705 9.69309
45.128847275414856 9.72423
45.15314646515866 9.64386
45.17725940679741 9.6435
45.20137445952892 9.68593
45.22568004865265 9.6472
45.24979934496396 9.63866
45.27392075725247 9.59523
45.29804428714431 9.55839
45.322358426247604 9.50922
45.346486212804315 9.51375
45.370616121861914 9.51778
45.39474815505086 9.44925
45.41907087049246 9.449530000000001
45.4432071734666 9.488669999999999
45.46734560548283 9.48316
45.49148616817604 9.46641
45.51581748638564 9.44961
45.5399623320197 9.409989999999999
45.56410931325473 9.39241
45.58825843173002 9.39741
45.61259837920865 9.33212
45.636751793816 9.36048
45.66090735060093 9.305639999999999
45.68506505120716 9.25606
45.7094136545275 9.25024
45.73357566449271 9.2573
45.75773982322992 9.27014
45.78190613238733 9.24847
45.806263418194064 9.19786
45.83043404997326 9.16877
45.85460683713677 9.18878
45.87897065658495 9.18075
45.90314777634752 9.15223
45.92732705646868 9.128919999999999
45.9515084986045 9.10897
45.97588104735473 9.15019
46.00006683541565 9.09543
46.02425479047904 9.126510000000001
46.04844491420549 9.09731
46.0728262191024 9.04064
46.09702070211635 9.0262
46.12121735879483 9.02631
46.14541619080294 9.02723
46.169806278764455 9.01039
46.194009483459034 9.00525
46.21821486849841 8.996080000000001
46.24242243555223 8.95075
46.266821333570014 8.94163
46.29103328674601 8.92141
46.31524742696538 8.9241
46.33946375590237 8.88638
46.36387149104216 8.8519
46.38809221957392 8.81985
46.41231514186606 8.83113
46.436540259597464 8.81515
46.460956858999374 8.77869
46.48518638983522 8.77833
46.509418121166966 8.75959
46.533652054678114 8.75939
46.55807754555709 8.704039999999999
46.58231590571962 8.713519999999999
46.60655647313217 8.68848
46.630988654873654 8.677719999999999
46.655233659129024 8.649469999999999
46.67948087571551 8.63283
46.70373030632484 8.65351
46.72817142736393 8.63224
46.752425308428684 8.63037
46.77668140861147 8.58952
46.80093972960865 8.54683
46.82538981736788 8.528139999999999
46.849652602470904 8.5417
46.87391761349769 8.51561
46.8981848521493 8.49547
46.9226439341274 8.526710000000001
46.946915650573224 8.44867
46.97118959976749 8.45486
46.99546578341598 8.41065
47.019933887188216 8.43078
47.04421456235744 8.39212
47.06849747711879 8.37323
47.09278263318286 8.38308
47.11725978640143 8.37905
47.14154944775105 8.31048
47.165841355555656 8.33545
47.1901355115306 8.27553
47.214621741924994 8.299710000000001
47.23892041698887 8.29922
47.26322134538975 8.26158
47.28771440635075 8.23741
47.31201986422527 8.24124
47.33632758061436 8.21488
47.360637557241866 8.20204
47.38513974410611 8.22011
47.40945426407847 8.18096
47.43377104948137 8.16037
47.45809010204344 8.15611
47.48260144275502 8.13188
47.506925052572285 8.14668
47.53125093475548 8.0611
47.55557909103813 8.08988
47.58009961361992 8.06958
47.60443234110732 8.04425
47.62876734791564 8.06763
47.65310463578333 8.03699
47.6776343683373 8.054039999999999
47.7019762413987 8.027389999999999
47.72632040075572 8.0034
47.75066684815169 8.00258
47.77520581885936 7.994669999999999
47.799556865477655 7.94842
47.823910205386 7.935060000000001
47.84826584033272 7.93542
47.87281407745551 7.871989999999999
47.89717432569297 7.929860000000001
47.92153687423484 7.89902
47.94609208429692 7.8445
47.97045925671401 7.86141
47.99482873471275 7.82878
48.01920052005013 7.81347
48.04376504619224 7.8024
48.068141469543484 7.80435
48.09252020552573 7.817639999999999
48.11690125590099 7.78866
48.1414751266064 7.743539999999999
48.16586082917454 7.7492399999999995
48.19024885144316 7.714360000000001
48.2146391951793 7.69102
48.239222439012764 7.71288
48.26361744916137 7.69215
48.28801478610016 7.6716
48.31241445160131 7.6523699999999995
48.337007097209366 7.62138
48.36141144338331 7.630669999999999
48.38581812345755 7.587389999999999
48.41022713920929 7.58546
48.434829215320704 7.5925
48.45924292604658 7.564610000000001
48.48365897780325 7.57175
48.50807737237308 7.55382
48.532688907799276 7.564210000000001
48.55711201168574 7.52831
48.581537463754074 7.5214
48.60615611725119 7.51928
48.63058628942721 7.48995
48.65501881516546 7.49984
48.6794536962573 7.48245
48.70408185970339 7.453130000000001
48.72852147531801 7.42497
48.75296345168211 7.4104600000000005
48.77740779059232 7.42852
48.80204549302823 7.425039999999999
48.82649458091802 7.38583
48.85094603676547 7.35145
48.87539986237231 7.34536
48.90004713292306 7.3458
48.92450572200832 7.31772
48.94896668628025 7.29025
48.97343002754588 7.29798
48.99808689542115 7.2807
49.02255501470614 7.27008
49.04702551642794 7.2484
49.0714984023988 7.2439100000000005
49.096164896893235 7.229989999999999
49.120642575466796 7.21444
49.145122643748394 7.1849
49.16960510355558 7.169810000000001
49.19428125404938 7.18325
49.2187685210852 7.18737
49.243258185121555 7.19372
49.26794160167084 7.11585
49.2924360839405 7.10089
49.31693296869764 7.09492
49.34143225776915 7.07273
49.36612538195438 7.0917
49.39062950396021 7.08847
49.41513603578346 7.05865
49.4396449792564 7.036989999999999
49.46434784069503 7.0457
49.488861631846454 7.00667
49.513377840166804 7.012160000000001
49.537896467493745 6.973380000000001
49.56260909589029 6.964230000000001
49.587132585683285 6.95878
49.611658500018365 6.95107
49.636186840738596 6.921119999999999
49.66090926588511 6.91971
49.685442483902584 6.9188600000000005
49.70997813385706 6.855110000000001
49.734516217597076 6.9005600000000005
49.75924846937352 6.8886199999999995
49.7837914452858 6.8366
49.80833686055187 6.83628
49.83288471702571 6.85128
49.85762682540054 6.83679
49.882179588965734 6.8337699999999995
49.9067347993235 6.76766
49.93129245833333 6.79293
49.95604445336378 6.776039999999999
49.98060703442832 6.7800199999999995
50.005172069746266 6.74728
50.02993150438364 6.7493300000000005
50.05450147301533 6.73405
50.07907390151433 6.712330000000001
50.10364879174981 6.6835
50.12841816587289 6.67617
50.1529980044635 6.642410000000001
50.17758031042124 6.65008
50.20216508562089 6.69263
50.22694442953363 6.65822
50.25153416817468 6.626989999999999
50.27612638170508 6.59563
50.300721072005196 6.58183
50.325510416102105 6.578360000000001
50.350110084975064 6.53134
50.37471223628208 6.5213
50.39931687190919 6.53861
50.424116246675766 6.5263
50.44872587605249 6.54018
50.47333799543065 6.48782
50.49795260670191 6.49287
50.52276204271512 6.492430000000001
50.54738166295838 6.47963
50.57200378079314 6.4513
50.596628398116835 6.4147300000000005
50.62144792604559 6.43185
50.646077567609396 6.407719999999999
50.670709714377715 6.406540000000001
50.69553683636198 6.41994
50.72017401885922 6.41678
50.7448137122895 6.3998
50.76945591856022 6.38291
50.79429318636823 6.355919999999999
50.818940443716784 6.34483
50.84359021965163 6.3383199999999995
50.868242516085964 6.2992
50.893089960641895 6.28533
50.917747323549435 6.31349
50.94240721271973 6.2867
50.96706963007175 6.246919999999999
50.99192728239342 6.25139
51.01659478166073 6.24147
51.04126481489051 6.20707
51.06593738400761 6.2076
51.090805275207074 6.2397599999999995
51.11548294172845 6.18952
51.14016314993547 6.19386
51.164845901758845 6.16628
51.18972406304274 6.14084
51.21441192780656 6.12936
51.23910234200271 6.1533
51.2637953075678 6.13152
51.288683770237945 6.10036
51.31338186432707 6.0894
51.33808251561888 6.05915
51.362978729967345 6.0831800000000005
51.387684521509755 6.04269
51.41239287610203 6.03817
51.437103795691165 6.00528
51.46201036644977 6.00899
51.486726441956634 5.993519999999999
51.51144508832545 5.97773
51.536166307509156 5.96667
51.56108326624387 5.97066
51.58580965706056 5.952000000000001
51.61053862657523 5.94182
51.635270176746864 5.96697
51.66019755512065 5.934069999999999
51.68493429268881 5.90222
51.70967361681515 5.8968
51.73441552946465 5.871230000000001
51.759353359237934 5.88743
51.7841004750961 5.8714699999999995
51.80885018539685 5.84516
51.833602492111254 5.85266
51.8585508051424 5.86411
51.883308330926425 5.83619
51.90806845906181 5.8200199999999995
51.932831191525715 5.77663
51.95779001977161 5.79371
51.98255798721516 5.73031
52.00732856494335 5.748819999999999
52.03229530577543 5.73966
52.057071130455945 5.71422
52.081849571391054 5.71071
52.106630630568695 5.71183
52.13160794279417 5.6813199999999995
52.15639426492067 5.705080000000001
52.18118321127822 5.67905
52.205974783860896 5.6397900000000005
52.23096269971011 5.62026
52.255759551287994 5.63976
52.280559035098186 5.6260699999999995
52.30536115314103 5.5943
52.33035970494467 5.61372
52.35516711807904 5.57774
52.37997717147198 5.567480000000001
52.40478986713005 5.51133
52.42979908731974 5.51495
52.454617094216 5.55783
52.47943774942214 5.5624400000000005
52.50426105495102 5.55478
52.529280976059844 5.49539
52.554109609024096 5.47831
52.57894089837482 5.50568
52.60377484613117 5.49067
52.62880550079408 5.4766
52.65364479223379 5.44937
52.67848674816189 5.41969
52.70352547971946 5.40713
52.72837279155837 5.4465900000000005
52.753222773982785 5.40289
52.778075429022984 5.40196
52.80312495150885 5.36121
52.827982978797436 5.37725
52.85284368481815 5.39926
52.87770707160767 5.36434
52.90276741793998 5.3304800000000006
52.92763619336701 5.32984
52.952507655698504 5.28505
52.977381806977576 5.30582
53.00245301017842 5.29044
53.02733256653592 5.29451
53.052214817996074 5.27527
53.077099766608484 5.25544
53.102181859804446 5.26925
53.127072229988265 5.26965
53.15196530349892 5.24756
53.17686108239249 5.2275
53.20195409881522 5.20009
53.22685531582556 5.22727
53.25175924441303 5.18569
53.27666588664027 5.1658
53.30176985962693 5.15751
53.3266819565689 5.15925
53.35159677336455 5.13959
53.376514312083096 5.12533
53.40162927507703 5.11961
53.42655228516116 5.12999
53.45147802340193 5.09149
53.47660125628886 5.08403
53.50153247842639 5.06268
53.52646643496923 5.03299
53.55140312799818 5.06635
53.576537409691696 5.04397
53.60147960336152 5.02224
53.626424539786164 5.00188
53.65137222105307 4.9996599999999995
53.67651758529126 4.99434
53.70147078399681 4.94611
53.72642673383343 4.9400699999999995
53.75138543689533 4.91472
53.776541917524526 4.9623800000000005
53.801506154876755 4.94982
53.826473151763246 4.92612
53.851442910284916 4.90826
53.87661054126026 4.89839
53.9015858509782 4.89382
53.92656392866066 4.9063
53.95154477641532 4.92335
53.976723591801296 4.82734
54.00171000771266 4.81861
54.02669920004598 4.86538
54.051691170915745 4.80429
54.076881204886796 4.80586
54.101878760928514 4.73385
54.12687910187696 4.77361
54.152077577768296 4.74374
54.1770835166946 4.73862
54.20209224691339 4.75307
54.22710377055121 4.717169999999999
54.25231352511594 4.70938
54.27733066384342 4.6915
54.30235060239643 4.6409199999999995
54.32737334290836 4.61817
54.35259441062629 4.6201300000000005
54.377622783395324 4.628080000000001
54.40265396455061 4.66892
54.42768795623251 4.59025
54.45292037169559 4.60499
54.477960012857906 4.5732099999999996
54.50300247099511 4.52884
54.52804774825457 4.4701699999999995
54.55329154616743 4.43396
54.57834249018678 4.45367
54.6033962597977 4.43762
54.6284528571545 4.43976
54.653708072335164 4.365069999999999
54.67877035378786 4.4134400000000005
54.70383546947698 4.399369999999999
54.72890342156389 4.38426
54.7541700889442 4.30575
54.77924374251975 4.34972
54.8043202390049 4.27723
54.82959552413022 4.27149
54.8546777351945 4.27094
54.87976279569621 4.25508
54.90485070780914 4.2358
54.930137506558005 4.20578
54.95523115074295 4.2544699999999995
54.98032765308844 4.20602
55.005427015775496 4.17786
55.03072536339621 4.193219999999999
55.05583047570572 4.182580000000001
55.080938454927676 4.1231599999999995
55.10604930325027 4.09576
55.131359235107396 4.08919
55.15647585066083 4.13362
55.181595341907496 4.09225
55.20671771104285 4.03752
55.232039262617704 4.04919
55.25716741665048 4.04135
55.28229845518636 3.97934
55.30743238042802 3.93954
55.33276558731939 3.9424300000000003
55.357905315183636 3.95745
55.383047936390035 3.9235900000000004
55.40819345314859 3.86081
55.433538351073295 3.88635
55.458689688238415 3.9060699999999997
55.483843927614096 3.76461
55.509197623043605 3.82513
55.53435769621134 3.8243300000000002
55.55952067826466 3.76369
55.5846865714265 3.78669
55.61005202069737 3.74385
55.63522376553902 3.7049
55.66039842818645 3.63144
55.68557601087004 3.6793699999999996
55.7109532500271 3.6258800000000004
55.73613670233794 3.64013
