TT I
1.2716486653135266 7.30473
1.2939594142134223 7.090739999999999
1.3162702121660406 6.617430000000001
1.3385810600174564 6.70895
1.3608919586137629 7.082330000000001
1.383202908801069 6.63651
1.405513911425503 6.7934399999999995
1.4278249673332093 6.01018
1.4501343378461518 6.17877
1.4724455028545926 6.11946
1.4947567236847858 6.086130000000001
1.517068001182951 6.09821
1.5393793361953272 5.87921
1.5616907295681737 5.22466
1.5840021821477681 5.09428
1.60631369478041 4.727519999999999
1.6286252683124185 5.11083
1.6509369035901333 4.75608
1.6732468618895553 5.06433
1.695558623192809 5.06652
1.7178704487808514 5.48149
1.7401823395001077 5.102869999999999
1.7625012545597203 4.88242
1.7848028405262486 4.9716
1.8071218901122095 5.42703
1.8294236121921872 4.27074
1.8517427996910911 5.16408
1.8740620574440425 5.015969999999999
1.8963639900671978 4.75706
1.9186833908139995 4.61169
1.9409854680117449 4.76424
1.9633050151394713 5.05526
1.9856246367570705 5.00497
2.0079269371922672 4.89055
2.03024671027244 4.77415
2.0525491637446027 4.9362699999999995
2.074869091674931 4.44683
2.097171701569106 4.54315
2.1194917877373847 5.14931
2.141811954326636 5.40235
2.164114805233074 5.10786
2.186435135143035 6.6506
2.208738150935709 17.2023
2.231058647554722 37.0759
2.2533792288321184 28.9571
2.275682498336085 12.1713
2.298003251406138 6.72797
2.3203066942619714 5.93649
2.3426276225136022 5.8239
2.3649486396617507 5.60843
2.387252348930071 6.01273
2.4095735463442893 5.2072
2.4318774374315884 6.17927
2.4541988185014043 6.30246
2.476502894794693 7.15493
2.498824462909887 6.62206
2.521146125856138 6.703069999999999
2.5434504863470337 7.407360000000001
2.5657723414244717 7.14313
2.588076895590662 8.090160000000001
2.610398946189713 7.81715
2.6327210958598384 7.83414
2.6550259469304716 7.965319999999999
2.6773482972090137 7.64438
2.6996533504259 7.8045
2.7219759047039602 8.141639999999999
2.744298562293959 8.559389999999999
2.7666039251246595 7.707730000000001
2.7889267918020164 7.96479
2.8112323652516555 8.39763
2.833555444408179 8.58082
2.8558786311183852 8.35086
2.8781845268938557 8.22165
2.9005079311721484 9.05097
2.9228140460410397 8.993889999999999
2.9451376712799635 9.49432
2.967444008632326 9.87871
2.9897678582247247 10.0528
3.0120918213106695 10.0576
3.0343984987899373 10.3708
3.0567226913198637 10.9328
3.079029599759726 11.5795
3.101354025127254 11.9751
3.123678568232338 12.6966
3.145985829517914 13.2714
3.16831061055229 13.6056
3.1906181112775593 14.1315
3.212943133635653 14.6878
3.2352682779763207 15.6452
3.2575761442691227 15.6093
3.2799015350264273 16.0102
3.302209649240067 16.3823
3.3245352898092655 16.6878
3.3468436553365257 17.3203
3.369169549113219 17.9159
3.3914955708171384 18.2992
3.413804319727358 19.2132
3.4361305997334863 19.3449
3.4584396084414553 19.3808
3.4807661501462652 20.1806
3.503092824025881 21.5279
3.5254022288463154 21.9772
3.5477291695206588 22.2844
3.5700388426251948 22.6784
3.5923660534916446 24.9762
3.6146934007816114 43.8933
3.637003482731501 113.945
3.6593311053109985 130.733
3.681641464033634 71.1912
3.7039693653009733 33.5757
3.726297407241705 26.7447
3.7486081875460804 26.1213
3.7709365132734978 26.885
3.793247578841633 26.9686
3.8155761917550093 27.1089
3.8378875459837216 27.5613
3.8602164494827234 27.7086
3.882545499606844 28.8747
3.9048572932539183 29.0081
3.9271866390645718 29.5947
3.9494987298666713 30.1826
3.971828374764527 30.7238
3.9941581705403255 31.4284
4.016470713506008 32.0989
4.038800813471445 32.2701
4.061113662089144 33.0581
4.0834440696459176 34.035
4.105774632334751 34.4058
4.128087945865126 35.2422
4.150418821249301 36.3665
4.172732448931298 37.6379
4.195063640413578 40.0788
4.2173775856475215 44.665
4.239709096631102 85.4299
4.262040768704612 313.17
4.284355196706267 437.918
4.306687193387355 279.693
4.329001947444346 99.1809
4.35133427213731 51.1144
4.373666762177566 45.7555
4.395982011761091 45.49100000000001
4.418314834921175 46.4863
4.44063041906622 56.4557
4.4629635787515625 71.9896
4.4852969080429785 71.52199999999999
4.5076130004776225 56.9418
4.529946671403969 50.5923
4.552263106909177 50.0475
4.574597122877047 51.4115
4.596931312711224 52.2202
4.619248269273446 53.0586
4.6415828092605835 54.7344
4.663900117405352 55.4683
4.686235010953232 57.0669
4.708552674085913 58.0567
4.730887924602802 59.3416
4.753223354952695 60.6719
4.775541557023902 61.9597
4.797877349456786 63.4934
4.820195915032126 65.5792
4.842532072957498 66.92699999999999
4.864868414979744 68.7975
4.88718753227192 70.7605
4.909524244902505 73.0588
4.931843734218147 75.0004
4.954180820867835 77.3787
4.976518095879839 80.219
4.998838149695359 82.6101
5.021175803844231 86.2064
5.043496238205739 89.2469
5.065834274903528 93.4858
5.088172504230693 98.5551
5.1104935158799565 104.39
5.132832132875765 130.267
5.155153533596801 186.00900000000001
5.1774925416746225 221.95
5.199814334878411 329.33
5.2221537374521505 910.4810000000001
5.244493338631803 2602.8
5.266815727034316 7137.18
5.289155727832427 12634.3
5.311478517248165 9277.13
5.333818921080011 3186.98
5.356159527788849 635.632
5.3784829252032536 197.105
5.400823940070432 147.931
5.423147747031976 130.471
5.445489173474152 120.025
5.467830807066149 113.52600000000001
5.490155234831516 109.565
5.512497285125229 106.06200000000001
5.534822130975162 104.53399999999999
5.557164601388673 102.04
5.579489868738879 99.3944
5.601832762690846 99.0202
5.6241758697774475 98.1091
5.646501775867269 96.7482
5.668845311622074 95.0395
5.691171647754637 94.4124
5.713515615597765 92.9252
5.735859800852677 91.71
5.758186788542988 91.0645
5.780531411018185 90.8769
5.802858837297399 90.0985
5.825203900414495 90.1649
5.8475491852224 90.85700000000001
5.869877275883075 91.0697
5.892223006467101 92.5908
5.914551544266608 93.4908
5.936897724049891 95.5769
5.959244129804903 100.13600000000001
5.981573344815301 114.024
6.0039202049061 187.946
6.026249875609095 406.651
6.04859719346037 894.5980000000001
6.070927323278297 2023.37
6.093275102315365 4296.23
6.115623113320588 5241.96
6.137953938319995 3505.54
6.160302415650845 1125.23
6.182633708324452 264.595
6.2049826554078376 119.749
6.227331838745022 95.0291
6.249663839443684 86.8721
6.27201349767565 84.4359
6.294345974611799 93.2671
6.316696111167083 111.475
6.339046488263839 104.292
6.361379686074702 83.8485
6.383730546639482 73.2225
6.406064229255215 69.822
6.428415576718203 69.0513
6.450749747566656 67.8216
6.47310158535871 66.5448
6.495453669698332 65.8888
6.517788579421056 65.0406
6.540141159237969 64.2043
6.562476565766648 63.681000000000004
6.5848296444934045 63.5327
6.607182974060425 63.1311
6.6295191323281015 63.8253
6.651872965955752 68.5899
6.6742096296068985 103.195
6.6965639707294615 169.55599999999998
6.71891856698715 173.015
6.741255995248479 111.23
6.763611104154477 72.7018
6.785949046381137 61.651
6.808304671371482 59.2898
6.8306605557940046 58.7824
6.852999275508618 57.7692
6.875355681171544 57.6188
6.897694923437771 57.5058
6.92005185377892 57.5454
6.9423916220322655 57.1443
6.964749080490181 56.5258
6.987106804399774 56.7108
7.009447368180821 56.1638
7.031805625367033 56.1379
7.054146723727803 55.9873
7.076505517631004 55.6296
7.098864581288365 55.4663
7.121206488070854 55.7255
7.143566093607822 55.5083
7.165908543567245 55.9883
7.188268694426048 56.1391
7.2106291193438095 56.3568
7.232972390625943 58.0142
7.255333366030969 74.2135
7.277677189091925 150.245
7.300038718428332 222.886
7.322400526130865 186.197
7.344745183422596 105.524
7.367107550224791 65.7901
7.389452767901992 58.1158
7.411815697249891 56.4815
7.434161478756298 55.2855
7.456524974096713 55.005
7.478888753837185 54.9153
7.501235387657368 55.534
7.523599738562711 55.3205
7.545946944825532 55.4924
7.568311870344528 55.7968
7.5906770845765665 56.1445
7.613025156078678 57.8599
7.635390950099687 59.575
7.657739602662809 58.2644
7.680105979923558 56.8163
7.702472650212829 56.4013
7.724822180948224 56.284
7.747189439655568 56.3344
7.769539560075357 56.4173
7.791907410653562 56.9313
7.81425812420825 56.8978
7.836626570110925 56.9738
7.858995315087906 58.0435
7.881346924933401 57.9946
7.903716270417482 58.5393
7.926068482028405 58.7722
7.948438431475253 59.4066
7.9708086843180235 59.9442
7.993161805171116 60.6706
8.015532667162402 60.9238
8.037886398416653 61.7879
8.060257873014221 62.3277
8.082629655331942 62.9767
8.104984308787587 64.2032
8.127356708900503 67.9567
8.149711981398308 75.8078
8.172085002766314 78.9947
8.194458336181368 74.245
8.216814543847752 70.2447
8.23918850371002 69.5874
8.26154533906492 70.2835
8.283919928836452 71.6663
8.306277395339652 72.7121
8.328652618483376 73.9437
8.351028159736202 76.0168
8.373386579575245 78.1172
8.395762759396959 79.9818
8.418121819038275 85.5915
8.440498640894003 102.26299999999999
8.462875785192262 120.37899999999999
8.485235811156207 127.906
8.507613602688501 156.59799999999998
8.529974277114228 233.041
8.552352719347912 359.412
8.574731488360351 600.686
8.59709314210385 1087.12
8.619472567021075 1760.1
8.64183487789147 2188.56
8.664214962183097 1910.41
8.686577933647762 1041.35
8.708958680784317 413.69
8.731339760774953 180.22799999999998
8.753703729764451 115.275
8.77608547780821 100.227
8.798450116065078 96.1348
8.820832535634787 92.73299999999999
8.843215292401656 91.4164
8.865580941199045 90.0051
8.887964374703538 88.6658
8.910330701447199 90.5153
8.932714815164482 94.2255
8.955099270424924 93.8288
8.977466620733543 89.7064
8.999851761421976 85.8758
9.022219798361645 83.7539
9.04460562795561 83.7649
9.066991803441677 83.1755
9.089360876979615 82.7598
9.111747746589993 82.5888
9.13411751544971 81.9537
9.156505082664324 81.8167
9.178875550323522 82.1282
9.20126381862328 82.7819
9.223652438908596 83.1498
9.246023961427412 82.7474
9.26841328802173 81.8808
9.290785518039224 81.9018
9.313175554425882 82.1703
9.335565947154315 82.3537
9.357939245086508 82.6835
9.380330352834827 82.8222
9.40270436697103 83.0153
9.425096193225055 83.0249
9.447488380180165 83.9043
9.469863475295412 83.9167
9.492256385987508 84.3925
9.514632206018318 85.0663
9.537025843935714 85.5059
9.559402392368193 86.1092
9.581796761000229 87.3777
9.604191496441521 88.1801
9.626569144158516 92.3553
9.648964615551032 98.6869
9.671343000390081 101.506
9.693739211225699 98.1295
9.716135793237463 93.9407
9.738515290448102 93.0039
9.760912617143402 93.927
9.783292860202891 94.4819
9.805690935076182 95.9964
9.828089385495742 97.0345
9.850470754023561 99.7847
9.872869957865444 109.175
9.89525208097539 128.963
9.917652041736662 146.237
9.940052382417589 143.766
9.962435644102392 140.954
9.984836746950979 166.049
10.007220771957746 224.622
10.029622640473708 316.983
10.052007432299963 480.95300000000003
10.074410069984072 747.439
10.096813093716005 1168.75
10.119199042482517 1680.18
10.141602840636468 1961.0
10.163989564971628 1688.27
10.186394141051062 980.285
10.208799107559706 448.87699999999995
10.231187001965623 207.149
10.253592751657669 131.76
10.275981430388155 115.54
10.298387966769793 116.03299999999999
10.320794897965431 120.01700000000001
10.343184759907361 119.19
10.36559248305461 111.853
10.387983138083852 104.90299999999999
10.410391656691655 105.821
10.432800574501677 115.079
10.455192425893369 129.47299999999998
10.47760214443012 153.096
10.499994797678786 191.44299999999998
10.522405320453982 263.397
10.54479877906917 369.028
10.567210109595656 495.32199999999995
10.5896218454736 568.3009999999999
10.612016518879773 521.121
10.634429067781074 372.67
10.656824555333241 217.92
10.679237920773568 134.49
10.701651695961992 99.7073
10.724048411481384 90.4112
10.746463008485165 86.9366
10.768860546937125 85.4414
10.791275969274796 83.5352
10.81369180576079 82.1832
10.836090585366925 81.2043
10.858507252467449 80.0904
10.88090686379991 79.1638
10.903324365036394 78.5241
10.925724811614439 79.2111
10.948143150509463 81.0231
10.970561909719066 80.3531
10.992963615930844 78.0092
11.015383218085756 75.5191
11.037785768347074 73.6317
11.06020621697282 73.0732
11.082627090322113 72.6507
11.105030913430326 72.1704
11.12745263854165 73.0467
11.149857314510728 78.2157
11.172279894912576 86.7632
11.194702904450653 88.5834
11.217108866490921 82.76700000000001
11.239532736615194 76.7104
11.26193956033512 73.9143
11.284364294577085 71.6289
11.306789462371718 69.3236
11.329197585398376 67.3401
11.351623622610898 67.4389
11.37403261614354 66.4769
11.396459526308487 66.4387
11.418869393879497 65.8252
11.441297180532617 65.4744
11.463725406927658 65.1636
11.486136592353875 65.1044
11.508565700543707 65.9365
11.530977768845315 68.7577
11.553407762368774 70.2324
11.575838200059769 69.5017
11.598251599479612 66.5531
11.620682927815501 64.52
11.64309721895548 63.9534
11.665529441478206 63.3346
11.687962112597958 63.0058
11.710377748130886 63.2965
11.732811318753434 63.3438
11.755227854859067 63.376000000000005
11.777662328529495 63.0721
11.800079768750786 62.7993
11.822515149015453 62.6453
11.844950984084935 63.0862
11.867369787303163 62.5686
11.889806534289491 62.4545
11.912226250487029 62.8784
11.934663912939751 62.937
11.9571020346363 62.8735
11.979523127133968 63.1512
12.001962169624331 63.5141
12.024384183972964 64.1327
12.046824150809913 67.3392
12.069264581333726 72.0677
12.091687985297767 78.3467
12.11412934550045 86.6677
12.136553680195208 100.146
12.158995973632788 120.20700000000001
12.181438735204349 146.023
12.20386447284199 174.11700000000002
12.226308172985636 203.21
12.24873485024193 205.247
12.271179492516982 175.78900000000002
12.293607112949127 137.339
12.316052700916226 104.046
12.338498763250042 83.6641
12.360927805303868 73.2722
12.383374818673879 67.8973
12.405804812803074 65.4161
12.428252780773262 64.8723
12.45070122756722 64.7173
12.473132656675375 64.6159
12.49558206341869 64.4924
12.518014453510101 64.4127
12.540464823770117 64.7333
12.562915677315177 65.0635
12.58534951575545 65.8744
12.607801338171472 68.4558
12.630236146511358 76.0926
12.652688941369085 82.8292
12.675124723177234 83.4146
12.697578494048786 78.1448
12.720032754458185 71.6607
12.742470003354093 68.9114
12.764925245138771 67.9717
12.787363476431278 68.3047
12.809819703166806 68.3385
12.83227642391173 69.3978
12.854716135692716 69.7314
12.877173846755147 70.7567
12.899614549869717 71.0149
12.9220732548287 71.8254
12.94453245827299 72.3438
12.966974655289818 72.9937
12.989434858002571 73.7644
13.011878055298721 74.6474
13.034339260862497 75.2886
13.056800969391883 76.4828
13.079245674017244 78.6228
13.101708390774869 80.2707
13.12415410463411 86.2675
13.146617833206086 97.3802
13.169064559883248 109.141
13.191529303857127 122.568
13.213994557076367 143.292
13.236442809902437 176.235
13.258909083908291 224.955
13.28135835851934 285.945
13.30382565690295 355.256
13.326293469022952 420.329
13.348744283242008 434.336
13.371213125129904 379.37800000000004
13.39366497011003 281.312
13.416134845360597 187.581
13.438605238843131 129.686
13.46105863690397 107.16799999999999
13.483530069144786 104.40899999999999
13.505984506951902 108.90899999999999
13.528456981549432 117.384
13.550929978879088 131.308
13.573385983253365 152.72799999999998
13.595860028340867 186.571
13.618317081455832 235.98
13.64079217790333 289.285
13.663250283359057 341.663
13.685726434770173 375.88300000000004
13.708203115221277 350.76300000000003
13.730662806148091 282.228
13.75314054697177 198.095
13.775601299246777 136.024
13.798080104050406 100.65899999999999
13.820559442405358 86.6896
13.843021793671388 82.3565
13.865502201420897 80.6726
13.887965623051947 79.4373
13.910447103807167 78.4559
13.932929122629764 76.9681
13.955394156785959 77.0938
13.977877254034569 76.0258
14.000343367582113 75.314
14.022827546871707 74.6404
14.045294743423524 73.7399
14.06778000837062 73.0048
14.090265817715476 73.0239
14.112734645763819 72.7132
14.13522154619454 72.6046
14.157691466286913 72.9769
14.180179461423874 72.7308
14.202668005486178 71.7068
14.22513957064374 70.9934
14.247629214846473 70.5587
14.270101881097517 70.3597
14.29259262906496 70.8491
14.315083930490205 71.9652
14.337558255389705 72.4258
14.360050666019726 72.0251
14.382526101071944 70.7741
14.405019624534942 69.6037
14.427513705993134 68.8705
14.449990813291825 68.8943
14.47248601302899 68.7245
14.49496423954951 68.5852
14.517460561197822 68.7739
14.539939910570322 68.3901
14.562437357763558 69.0683
14.58493536931253 70.6851
14.607416409993311 71.7932
14.62991555254159 72.9948
14.652397725157423 72.6638
14.674898002342799 71.6149
14.697398848433282 70.703
14.719882725991326 70.8069
14.74238471217934 71.5051
14.764869730765593 74.3401
14.787372860692983 77.4435
14.809876564079925 81.6429
14.83236330125751 86.84700000000001
14.854868153850365 94.4235
14.877356041159485 106.5
14.899862046604186 123.795
14.922351087688757 147.548
14.944858249632887 173.188
14.967365991421232 199.324
14.989856770231246 217.06599999999997
15.012365673994204 218.296
15.03485761569738 193.264
15.05736768508665 155.031
15.07987833888692 120.745
15.102372032001655 93.8021
15.124883856909658 78.5589
15.14737872204565 72.9128
15.169891721717274 70.9262
15.192405310371893 70.8675
15.214901940621196 71.5272
15.237416709527137 71.9228
15.259914520936249 72.3285
15.282430473753607 71.4429
15.304947020131227 69.926
15.327446610371178 68.554
15.349964346154254 67.54
15.372465126703139 66.9728
15.394984055556009 66.8906
15.417486030076159 66.7617
15.44000615566487 66.0793
15.462526881230803 66.2304
15.485030653812652 66.3794
15.507552581617434 66.5389
15.530057557334603 66.6717
15.55258069104857 66.5796
15.575104429329837 66.2632
15.597611216864632 65.7355
15.620136166564563 65.9776
15.6426441664095 66.4995
15.665170331202765 68.3698
15.687697105158826 71.1841
15.710206930593545 74.1433
15.732734925158933 78.058
15.755245972089478 83.5914
15.77777519094324 92.1083
15.800287463046663 104.029
15.822817909869592 120.91799999999999
15.84534897229804 140.42700000000002
15.867863089299354 162.873
15.890395385222186 183.55599999999998
15.912910736597423 194.24599999999998
15.935444269699861 186.468
15.957978423016485 163.94799999999998
15.980495633101265 131.35299999999998
16.003031029129367 102.251
16.02554948280019 80.3837
16.048086125229432 69.4887
16.070623392487107 66.4287
16.09314371869582 65.6177
16.11568223789321 64.947
16.13820381691126 63.8132
16.160743591742527 62.3399
16.183283996022084 61.203
16.205807461423195 59.8645
16.228349126881973 59.2522
16.25087385432698 59.2406
16.27341678466365 58.6578
16.29594277784926 58.706
16.31848697676433 59.3099
16.341031811604868 60.0212
16.36355971058487 60.3787
16.3861058195587 60.1759
16.40863499352978 58.7403
16.431182380342005 57.3723
16.453730407713202 56.6025
16.476261501364792 56.1396
16.498810812136167 55.809
16.52134319004079 55.8518
16.54389378792203 55.606
16.566445031001553 55.5247
16.588979342490088 55.5103
16.61153187824822 55.3514
16.634067483263312 55.0913
16.656621315414416 54.9652
16.679175797408888 54.6804
16.701713349928728 54.8778
16.72426913389191 55.0985
16.74680798922351 55.1483
16.76936507887444 55.1878
16.791905240734874 55.3471
16.814463639794468 55.0542
16.837022695210294 55.229
16.859564824093756 55.7191
16.882125194503903 56.5537
16.904668639217885 57.3724
16.927230328348003 57.6311
16.949792678493612 57.7849
16.972338104193863 56.8153
16.994901778652235 56.0882
17.017448529496576 55.9191
17.040013531998152 55.8721
17.06257920018044 56.1579
17.0851279459922 57.0768
17.107694947817667 57.795
17.130245028099072 58.5293
17.15281336730298 59.7478
17.17536478578733 61.1636
17.19793446610687 63.3802
17.220504818648422 65.9483
17.243058251703697 68.851
17.265629950971032 73.0952
17.288184731571736 77.867
17.310757781306908 82.1066
17.33333150794385 84.1105
17.355888317140174 83.4736
17.37846339986244 78.708
17.401021565958885 72.6345
17.42359800851343 66.9523
17.44617513265564 62.8003
17.468735341390783 60.2667
17.491261035594565 59.1564
17.51396340099364 59.0453
17.536490463869136 59.2601
17.559018209820174 59.2124
17.58154663977963 59.3789
17.604251766089718 59.2859
17.626781572227713 59.6012
17.64931206518155 59.7622
17.671843245885103 60.7007
17.69455114821572 60.9854
17.717083712612634 61.2675
17.739616967569667 61.1445
17.762150914021706 61.3553
17.78486160749854 61.1876
17.807396945166804 61.7198
17.829932977143503 62.4247
17.85246970436452 63.6889
17.875183204129467 65.4887
17.897721330097664 67.4191
17.920260154126645 69.7538
17.942799677153296 72.5745
17.9655159983646 76.2115
17.988056927677544 80.8455
18.010598558807683 87.7696
18.033140892692916 96.49
18.05586005052525 106.69
18.07840379824407 117.719
18.10094825154059 129.47
18.12366954819864 138.015
18.146215420998306 141.149
18.16876200220057 133.929
18.191309292745153 120.926
18.214033452627167 106.191
18.236582170236648 93.693
18.259131600016456 86.8528
18.281681742907335 85.9149
18.304408781233683 89.2805
18.32696035875955 93.9562
18.349512652227624 99.52799999999999
18.372065662579683 104.00299999999999
18.394795594587553 106.52600000000001
18.41735004715306 104.788
18.43990521943684 99.3968
18.46246111238171 90.3237
18.485193953325208 80.0856
18.507751296070428 71.8013
18.530309362314178 67.0693
18.552868153000343 64.3314
18.57560391815056 62.5368
18.59816416623245 61.9922
18.620725141597372 61.622
18.643286845190268 61.0394
18.666025549835414 60.5898
18.688588718427933 60.0896
18.711152618092243 59.8474
18.73389353884365 59.415
18.75645890921984 59.2844
18.77902501351406 58.9485
18.801591852673102 58.638999999999996
18.824335739722738 58.4079
18.846904057212626 58.3356
18.8694731124168 57.934
18.89204290628315 57.8453
18.914789774966803 57.6402
18.937361054791623 57.2599
18.959933076131318 57.0888
18.982505839934877 57.1346
19.00525570560582 57.2796
19.027829963004184 57.1778
19.05040496572238 57.1699
19.072980714710468 57.0519
19.095733592739563 57.0716
19.11831084296757 57.4611
19.140888842324735 58.1059
19.16346759176222 58.4298
19.18622349753803 58.9498
19.208803755869358 59.5949
19.231384767143577 60.4815
19.253966532312948 61.8243
19.276725481241822 63.3879
19.29930876296784 65.8335
19.3218928014549 68.7495
19.34465404436217 72.1438
19.36723960516257 75.3552
19.389825925592426 76.9946
19.412413006605938 76.722
19.43517731967805 73.6587
19.457765930683355 69.1184
19.48035530514408 64.4613
19.50294544401556 60.2522
19.525712842708348 57.2747
19.54830451925909 55.7739
19.570896963095727 54.5286
19.593490175174704 54.0919
19.616260674962184 54.1771
19.638855432416964 53.6284
19.661450960992624 53.8318
19.68404726164677 53.5106
19.706820878021247 53.4063
19.729418731756834 53.8907
19.752017360452857 53.5399
19.77461676506804 53.6128
19.797393513540218 53.6928
19.819994478951667 53.9117
19.84259622316767 54.6171
19.8651987471481 54.958999999999996
19.887978643247177 55.1242
19.91058273574792 55.5214
19.933187610901943 56.091
19.955969879466828 57.18899999999999
19.97857632894404 58.398
20.00118356396599 59.8308
20.023791585494575 61.6116
20.046577028914875 64.3079
20.069186632506966 66.6788
20.091797025500632 68.747
20.114408208858933 69.9272
20.137196842715273 70.0357
20.159809615886765 69.027
20.18242318232135 66.5063
20.20503754298326 63.9133
20.227829382875154 62.6405
20.250445341109344 61.9549
20.27306209647285 62.403999999999996
20.29567964993108 63.6145
20.31847471147704 64.6246
20.34109387027612 65.8809
20.363713830075454 65.9458
20.386334591841646 64.7313
20.409132890679302 62.465
20.431755265564437 59.3663
20.454378445325528 56.316
20.477002430930366 54.3007
20.499803982716553 52.9969
20.522429589228004 52.1927
20.54505600449589 51.5094
20.567683229489194 51.4586
20.590488049900088 50.9695
20.61311690359731 50.4563
20.63574656993626 50.2747
20.658553853717297 49.8908
20.681185154618298 49.7534
20.703817271080066 49.8248
20.72645020407368 49.4595
20.749260783967177 49.3534
20.771895359337133 49.2804
20.794530754161617 49.1313
20.817166969412938 49.1291
20.83998086114876 49.1226
20.86261872660049 48.8355
20.885257415405402 48.8842
20.90789692853701 48.7568
20.930714147864748 48.6931
20.953355319030678 48.6676
20.97599731745334 48.7989
20.99864014410749 48.8043
21.021460706796564 48.8326
21.044105199328826 48.9641
21.06675052302631 49.1253
21.089396678865015 49.2007
21.112220600704806 49.4539
21.134868430275347 49.8325
21.15751709492456 50.2409
21.180166595629693 50.2918
21.202993892429635 50.7293
21.22564507473034 51.1699
21.24829709602816 51.4535
21.27112693608965 51.615
21.293780644891275 51.9508
21.316435195634053 51.1467
21.339090589297417 50.2692
21.361923832041875 49.8401
21.384580921090404 49.1254
21.407238856007325 48.7145
21.429897637773326 48.4172
21.45273429906592 48.5644
21.475394784108598 48.6587
21.498056118951983 48.3982
21.520718304578022 48.4791
21.543558400304388 48.6373
21.566222297108816 48.9162
21.58888704765135 48.9233
21.61155265291521 49.0716
21.63439619898156 49.6284
21.657063523335786 49.9364
21.67973170537063 50.233999999999995
21.7024007460706 50.8941
21.72524775840385 51.4454
21.747918526116475 52.3812
21.770590155457388 53.4917
21.79326264741238 55.0099
21.816113141960237 56.6553
21.838787368860547 58.4193
21.861462461341976 60.1347
21.884315579735777 62.2232
21.90699241312273 63.7689
21.92967011506078 64.5709
21.95234868653799 64.9079
21.9752053151131 64.1393
21.997885635446785 62.4332
22.020566828293532 60.3039
22.04324889464272 58.1976
22.066109049404666 56.8223
22.088792872571794 56.1599
22.111477572219204 56.1202
22.1341631493376 56.266999999999996
22.157026846313123 56.199
22.179714188221507 55.7769
22.202402410582668 54.7677
22.22509151438863 53.335
22.24795876962584 51.8751
22.270649646204486 50.7963
22.293341407213727 50.1346
22.316034053646906 49.7194
22.338904883215342 49.4166
22.36159931041458 49.3117
22.38429462602756 49.1889
22.40699083104897 49.18899999999999
22.429865251039757 49.098
22.452563244831367 49.2278
22.47526213102522 49.2279
22.49813925616515 49.1135
22.520839937143307 48.9476
22.543541513520587 48.7881
22.56624398629403 48.6034
22.589124730075895 48.5133
22.611829005656723 48.781000000000006
22.63453418063466 48.6379
22.657240256008077 48.8271
22.680124634582935 49.0453
22.70283252079775 49.298
22.725541310413075 49.6845
22.74825100442868 49.7677
22.771139033969575 50.2498
22.79385054687155 50.29
22.81656296718292 50.9432
22.83927629590484 51.6753
22.862167992606945 52.6038
22.88488314827121 53.7018
22.907599215359284 54.8462
22.93031619487366 55.8122
22.953211574954405 56.7933
22.975930389478226 57.8513
22.998650119445763 58.3768
23.02137076586092 57.9211
23.044269845560063 56.9485
23.06699233506288 55.3954
23.089715744034912 53.5905
23.112617610931565 51.83
23.135342869061212 50.4243
23.158069049684816 49.5554
23.1807961538087 49.2218
23.20370174880544 49.0069
23.226430710184808 48.8941
23.249160598093425 48.9822
23.271891413539002 48.8954
23.294800752937697 48.8564
23.31753343374794 49.1391
23.340267045128353 49.1434
23.36300158808808 49.4629
23.38591468821339 49.6432
23.408651104658304 50.1242
23.431388455719986 50.6605
23.454126742409 51.3925
23.4770436196085 52.3131
23.499783787914662 53.6138
23.522524894889884 54.4778
23.54526694154616 55.5263
23.56818761219047 56.8592
23.59093154860734 57.7296
23.613676427751283 58.2056
23.636422250635754 57.7122
23.659346731118656 56.4711
23.68209445191868 54.7179
23.704843119509587 52.463
23.72759273490623 50.3226
23.750521041644767 48.6971
23.77327256312355 47.6398
23.796025035462787 46.9101
23.818956224555475 46.4259
23.841710609113413 46.2682
23.86446594758979 45.8986
23.887222241002014 45.6902
23.910157285144578 45.2618
23.932915498962537 45.407
23.955674670778713 45.2154
23.978434801611975 45.1845
24.001373717286125 45.0449
24.024135776723917 44.7229
24.046898798245582 44.783
24.06966278287146 44.6094
24.092605586582614 44.4556
24.115371508023642 44.3303
24.1381383956401 44.2089
24.16090625045381 44.1923
24.183852958731244 44.1999
24.206622758582608 44.1111
24.229393528706886 43.8578
24.252165270127392 43.941
24.27511589952438 43.8244
24.297889594216997 43.6577
24.32066426328598 43.42
24.34343990775613 43.5069
24.36639447485003 43.3959
24.38917208083877 43.3409
24.41195066531332 43.2763
24.43490819850244 43.3329
24.457688750692377 43.1428
24.48047028445616 43.049
24.503252800821233 43.2899
24.526214300784112 43.2922
24.548998793132213 43.2408
24.57178427117417 42.9918
24.59457073593893 43.0572
24.617536219319863 42.9815
24.64032466834748 43.095
24.663114107195035 42.9351
24.685904536893013 42.7812
24.708874020360852 42.7597
24.731666442613744 42.7314
24.754459858818787 42.5883
24.777254270007962 42.425
24.80022777025625 42.2563
24.82302418230472 42.2978
24.845821592443674 42.3871
24.86862000170663 42.3647
24.891597535453727 42.207
24.914397953892728 42.3453
24.93719937456671 42.3414
24.96000179851076 42.5056
24.98298338249997 42.5884
25.00578782394922 42.835
25.028593271784167 42.8308
25.05157790644186 43.1955
25.07438537804115 43.3585
25.097193859145293 43.6402
25.120003350792075 43.707
25.142992065061257 44.1199
25.165803588823465 44.4057
25.18861612625217 44.5532
25.211429678386736 44.7021
25.234422489079968 44.8171
25.257238081693636 44.88
25.280054692141732 44.9376
25.3028723214652 45.0326
25.325869245420463 44.9785
25.348688923599397 45.1827
25.371509623787006 45.1749
25.394331347025812 44.7197
25.41733240110666 44.5178
25.440156181590016 43.9522
25.46298098826268 43.3655
25.48580682216873 42.6916
25.50881202326435 42.0386
25.53163992281684 41.8264
25.55446885274561 41.3761
25.577298814096377 41.0185
25.600308179121807 40.9387
25.623140214533745 41.0554
25.64597328451537 40.9648
25.66898578564376 40.5907
25.691820936010206 40.5623
25.714657124097695 40.666
25.737494350954734 40.6568
25.760511045684957 40.6884
25.783350361364224 40.7594
25.806190718969255 40.5818
25.82903211955018 40.7487
25.852053024868923 40.8818
25.874896522722523 40.8831
25.897741066713106 40.7479
25.920586657892454 40.6985
25.943611790812668 40.89
25.966459487728237 40.9238
25.989308234998564 40.885999999999996
26.01215803367705 41.3106
26.03518741123814 41.5604
26.05803932412957 41.6104
26.080892291600094 41.581
26.10374631470478 41.6985
26.12677995397268 41.8475
26.14963609978026 41.9567
26.172493304397875 41.6279
26.19535156888223 41.4259
26.218389486949604 40.9916
26.241249882640123 40.7944
26.26411134137826 40.4728
26.28715248187403 40.3796
26.31001607820869 40.2699
26.3328807407756 40.0437
26.35574647063438 40.2983
26.37879191991473 40.2088
26.401659795896734 40.1551
26.424528742360263 40.4031
26.447398760366614 40.6415
26.470448535598294 40.6065
26.49332070826805 40.6775
26.516193955675355 41.1473
26.53906827888316 41.1951
26.562122397260108 41.3843
26.584998883685063 41.7954
26.607876449110325 41.9694
26.63075509460056 42.3373
26.65381357334404 42.2317
26.67669439061878 42.3547
26.699576291163382 42.2554
26.722459276044212 42.2535
26.745522132402975 41.9215
26.768407297649354 41.7271
26.791293550442003 41.383
26.814180891848974 41.0787
26.837248143099337 40.7352
26.860137673466657 40.599000000000004
26.88302829566349 40.1995
26.90592001075963 40.2557
26.92899167420566 40.1111
26.951885586870763 39.6932
26.974780595655517 39.5343
26.99785558178161 39.437
27.020752794605112 39.2481
27.043651106772522 39.0952
27.06655051935668 39.0102
27.089629948036183 38.8823
27.112531573292053 38.7483
27.135434302194138 38.847
27.158338135817015 38.6711
27.181422024430987 38.8126
27.204328079372566 38.5696
27.22723524226965 38.6709
27.250143514198573 38.6929
27.273231880156334 38.8244
27.296142382065014 38.5253
27.319053996245536 38.4759
27.341966723775965 38.5522
27.365059584515222 38.5376
27.38797455070062 38.5641
27.410890633481237 38.4568
27.433807833936918 38.5834
27.456905206923906 38.6089
27.47982465472398 38.5718
27.502745223449743 38.5392
27.525666914182825 38.7144
27.548768816912457 38.6563
27.571692763693633 38.6809
27.59461783573812 38.413000000000004
27.617723149491244 38.2892
27.640650484125285 38.3928
27.66357894728264 38.2306
27.686508540048052 38.141
27.709618414237887 38.104
27.732550278321757 37.9333
27.755483275279115 37.7555
27.778417406196485 37.9157
27.801531858397514 37.9723
27.824468269376716 37.9709
27.847405817586786 37.8237
27.870344504116094 38.0075
27.893463551932008 38.1947
27.916404527281053 38.3594
27.93934664422563 38.5112
27.962289903855886 38.5242
27.98541356491974 38.6756
28.00835912214229 38.7517
28.03130582533231 39.0892
28.054253675581805 39.2078
28.077381967556104 39.1532
28.100332124185126 39.1297
28.123283431160893 39.008
28.146235889577238 39.045
28.169368830154156 38.9567
28.192323603752033 38.6173
28.215279532083304 38.3714
28.238415973016764 38.1353
28.261374223145094 38.1003
28.284333631303806 37.9348
28.307294198589954 37.6778
28.330435319167677 37.3148
28.353398217078915 37.1461
28.376362277420153 36.9009
28.39932750129032 36.7502
28.422473319286713 36.542
28.44544088262495 36.516999999999996
28.468409612800283 36.4276
28.491379510913497 36.2224
28.51453004413313 36.1502
28.53750229057244 36.0672
28.56047570826344 35.8447
28.583450298308804 36.0317
28.606605564586562 35.8286
28.629582511831156 35.8427
28.65256063474956 35.7807
28.675539934446338 35.7416
28.698699951647605 35.8594
28.72168161743193 35.684
28.74466446331978 35.6208
28.767648490417624 35.5702
28.790813276438353 35.4878
28.813799678527303 35.5625
28.836787265157085 35.5601
28.859955641890075 35.599000000000004
28.882945610203045 35.6441
28.905936766392035 35.4081
28.928929111566863 35.4516
28.952102288520145 35.4481
28.975097024308607 35.2646
28.998092952423807 35.1999
29.021090073977508 35.092
29.04426806913204 34.937
29.067267590245258 34.7855
29.090268308143695 34.8279
29.11327022394099 34.7134
29.13645305530891 34.5662
29.159457379627167 34.6007
29.18246290519685 34.5148
29.20546963313352 34.5287
29.22865731875826 34.5093
29.25166646419296 34.457
29.27467681535305 34.251
29.29768837335608 34.3991
29.320880931312562 34.5317
29.34389491580634 34.4863
29.366910110507334 34.3306
29.38992651653503 34.4287
29.41312396492981 34.275999999999996
29.436142806456754 34.3741
29.45916286268059 34.309
29.48236399319994 34.0862
29.50538649169417 33.9974
29.528410208259935 33.8573
29.55143514402014 33.728
29.574641196749695 33.5627
29.597668583816574 33.577
29.6206971934585 33.4377
29.64372702680042 33.3309
29.666938019934474 33.2321
29.689970313635285 33.1574
29.713003834422636 33.1451
29.73603858342347 33.1061
29.759254535188578 32.9776
29.78229175361658 32.9023
29.80533020365064 33.0649
29.82836988641968 33.0959
29.85159081507472 32.9476
29.874632976355343 32.8853
29.89767637376955 32.9078
29.920721008448314 32.8049
29.9439469322847 32.729
29.96699405457564 32.6465
29.9900424175358 32.6891
30.013092022298157 32.5668
30.03632295963995 32.5648
30.059375061131373 32.5938
30.08242840783577 32.6028
30.105483000888153 32.5397
30.128718970092244 32.4745
30.151776069006917 32.4822
30.17483441768648 32.5519
30.198074175317235 32.4206
30.221135036724256 32.4649
30.24419715131772 32.4261
30.267260520236203 32.3604
30.290505341942243 32.4724
30.313571232750228 32.5894
30.336638381310948 32.5671
30.35970678876503 32.5013
30.38295669299435 32.2878
30.40602763151657 32.3184
30.429099832366074 32.2676
30.452173296685572 32.2804
30.47542830191959 32.2225
30.498504306502497 32.1748
30.521581577995562 32.2285
30.544660117543582 32.3037
30.56792024229725 32.2672
30.59100133132069 32.2268
30.614083691845494 32.2729
30.637167325018545 32.2429
30.660432587840603 32.3547
30.683518779717886 32.2764
30.70660624769615 32.2547
30.729694992924372 32.2805
30.75296541239743 32.3567
30.77605672557558 32.287
30.799149319462742 32.1956
30.8224236211637 32.1724
30.845518789950724 32.038000000000004
30.868615242910597 31.9895
30.891712981195973 31.8387
30.91499247215866 31.8278
30.938092794619365 31.766
30.96119440587579 31.6442
30.984297307082752 31.5964
31.00758200598383 31.43
31.030687500658694 31.3043
31.053794288760695 31.3388
31.076902371446767 31.2278
31.100192296997445 31.2112
31.12330298246119 31.1675
31.14641496599209 31.0854
31.169528248749216 31.1706
31.19282341969534 31.1626
31.215939314557186 31.0411
31.239056512134788 31.0447
31.262175013589378 31.0165
31.28547544871168 30.963
31.30859657161541 30.8916
31.331719001892175 30.9956
31.35484274070538 31.0234
31.378148458819545 31.0062
31.401274828443725 30.9351
31.424402510106933 30.8833
31.447712205419993 31.0301
31.470842524931633 30.9449
31.493974159989783 30.9602
31.51710711176168 30.9828
31.54042212308802 30.9051
31.563557722100917 30.8082
31.586694641341655 30.6672
31.609832881979628 30.6816
31.63315322823208 30.6552
31.656294125521327 30.586
31.679436347728515 30.4141
31.70257989602529 30.3659
31.725905596152327 30.2952
31.74905181052835 30.269000000000002
31.772199354521323 30.343000000000004
31.79534822930507 30.2577
31.818679302290967 30.3081
31.84183085259981 30.3587
31.864983737233473 30.3141
31.88813795736804 30.250999999999998
31.911474422233013 30.1473
31.934631327356435 30.2412
31.9577895715215 30.04
31.980949155906522 30.1113
32.004291031706956 30.1592
32.027453310562606 30.1236
32.05061693318573 29.9403
32.07396288236386 29.9357
32.09712920658542 29.9051
32.12029687812702 29.7617
32.14346589817093 29.6999
32.166817291729984 29.6915
32.18998902288583 29.5855
32.21316210610336 29.45
32.23633654256711 29.3408
32.259693399663725 29.421999999999997
32.282870556771144 29.2436
32.30604907069099 29.2504
32.329228942610065 29.2019
32.35259128243769 29.1004
32.375773884550505 29.0602
32.398957848235646 28.9801
32.422143174682176 29.0056
32.445511016471215 28.8693
32.468699082679954 28.8704
32.49188851523011 28.845
32.51507931531304 28.743000000000002
32.538452678331 28.7771
32.56164622776311 28.6205
32.58484114831493 28.5981
32.60803744118015 28.6141
32.631416344731896 28.6712
32.654615396551876 28.5938
32.67781582427913 28.5751
32.701198898634416 28.4478
32.72440209253756 28.435
32.747606665947124 28.5015
32.77081262006088 28.2305
32.79420126883317 28.2409
32.81740999876112 28.2806
32.840620112999424 28.1791
32.86383161274818 28.171
32.88722585534586 28.1082
32.91044014056596 28.1782
32.933655814909734 28.1579
32.95687287957963 28.1373
32.98027273544904 28.0498
33.00349259526636 27.96
33.026713849030116 27.9937
33.04993649794511 28.0226
33.073341986570746 27.916
33.09656744032826 27.8815
33.11979429286444 27.9127
33.14302254538647 27.9306
33.166433686291185 27.804000000000002
33.18966475336992 27.8566
33.212897224069096 27.701999999999998
33.23613109959831 27.721999999999998
33.259547912343415 27.7189
33.2827846121627 27.7973
33.306022720453775 27.5876
33.32926223842861 27.5028
33.352684742614166 27.5518
33.37592709463173 27.5246
33.399170859982064 27.416
33.422597648419426 27.3184
33.44584425514446 27.2414
33.46909227885668 27.2009
33.4923417207723 27.1506
33.51577423505344 27.1802
33.539026528130385 27.0668
33.56228024307245 27.0864
33.585535381098246 26.9126
33.60897364093058 26.8301
33.63223163992385 26.8757
33.6554910656699 26.8486
33.678751919389796 26.7304
33.702195944520106 26.6806
33.72545966903325 26.7264
33.74872482519663 26.6269
33.771991414233746 26.674
33.79544122444841 26.5942
33.81871069412428 26.5241
33.84198160035767 26.4957
33.86525394437455 26.4163
33.88870955949969 26.3682
33.911984794020626 26.4102
33.93526147001624 26.340999999999998
33.958539588715006 26.3268
33.98200102861669 26.2785
34.0052820477047 26.185
34.02856451319451 26.1284
34.05203033759056 26.0252
34.07531571090147 26.1185
34.09860253431845 26.092
34.121890809074316 25.9191
34.145362493118924 25.971
34.16865368561615 25.8745
34.191946333164054 25.8632
34.21524043699793 25.9072
34.23871800066799 25.9381
34.26201503218366 25.8018
34.28531352370466 25.7182
34.30861347646881 25.6466
34.33209693978188 25.5896
34.3553998301885 25.663
34.378704185565205 25.5734
34.402010007152356 25.4627
34.42549939016683 25.5477
34.44880815937748 25.3999
34.472118398533134 25.3524
34.49543010887669 25.3564
34.51892543169198 25.2248
34.54224009966052 25.2873
34.56555624255917 25.1909
34.58887386163339 25.1152
34.61237514439016 25.1739
34.6356957311114 25.059
34.65901779775809 24.9992
34.68252356662995 25.0253
34.705848608458616 25.0157
34.72917513396849 24.8828
34.75250314440949 24.8606
34.77601490857862 24.8013
34.799345904259795 24.7864
34.82267838863559 24.7589
34.846012362958525 24.746
34.869530142679984 24.7889
34.89286711232212 24.7034
34.91620557568269 24.6711
34.93954553401677 24.6788
34.9630693495876 24.5681
34.986412313340814 24.5423
35.00975677584668 24.5517
35.033102738362956 24.5032
35.05663261012228 24.4778
35.0799815881786 24.4626
35.10333207003229 24.3748
35.12668405694369 24.429000000000002
35.150220005273056 24.3479
35.17357501786656 24.2399
35.19693153931268 24.237
35.220289570874385 24.2601
35.24383161619786 24.2796
35.267192683604904 24.2019
35.290555264930376 24.1458
35.314101899412165 24.1932
35.33746752422433 24.2118
35.36083466676374 24.1939
35.38420332829803 24.0781
35.407756095629054 24.1175
35.43112781085063 24.0986
35.45450104888391 24.073
35.477875810999194 24.1893
35.50143473172161 23.9272
35.52481255774625 23.9285
35.54819191167777 23.9097
35.57157279478914 23.8598
35.595137889488406 23.8928
35.61852184675279 23.8165
35.641907337029984 23.756
35.665294361595684 23.7496
35.68886565090076 23.6762
35.7122557598848 23.5896
35.73564740699838 23.6974
35.759040593519934 23.5607
35.78261809810353 23.5162
35.80601437933051 23.5202
35.829412203814705 23.4821
35.85281157283719 23.3351
35.876395313415884 23.4413
35.8997977874528 23.3902
35.92320180988546 23.3182
35.946790244133936 23.2535
35.97019737933222 23.1828
35.993606066789866 23.1671
36.01701630779276 23.1175
36.04061101440684 23.0699
36.06402437852291 23.0965
36.08743930005611 23.1068
36.1108557802951 23.0539
36.13445678011326 23.0316
36.15787639383515 22.9499
36.18129757014299 22.9363
36.20472031032821 22.8318
36.22832762423364 22.7529
36.25175350829375 22.8308
36.275180960119776 22.7414
36.298609981005924 22.8128
36.32222362992669 22.7664
36.34565580510207 22.6763
36.36908955323448 22.6093
36.39252487562093 22.5725
36.416144880530226 22.5796
36.43958336764275 22.6181
36.463023432914625 22.6459
36.486465077645676 22.4034
36.51009145956204 22.4564
36.53353627947859 22.4748
36.55698268276811 22.4376
36.58043067073321 22.3804
36.60406345072071 22.3471
36.62751462435344 22.3298
36.65096738658405 22.2795
36.67460498210655 22.2249
36.69806093788647 22.2334
36.72151848619297 22.1217
36.744977628333636 22.1237
36.76862165890998 22.0485
36.79208400512205 22.0463
36.81554794910557 22.046
36.83901349217101 21.9237
36.862663978991606 21.9698
36.88613273667352 21.8489
36.90960309738324 21.8402
36.933075062434064 21.8512
36.95673202673572 21.8571
36.98020721697122 21.802
37.003684015502365 21.7275
37.027162423645365 21.7107
37.050825886711465 21.646
37.07430753063053 21.568
37.09779078812467 21.4894
37.121275660513014 21.4608
37.144945643673694 21.471
37.16843376245278 21.4998
37.19192350009803 21.5168
37.215414857931435 21.3945
37.239091382563885 21.3458
37.262585997426164 21.4006
37.28608223645736 21.3271
37.309763684451696 21.2973
37.33326318851098 21.1661
37.356764320726555 21.1663
37.380267082425526 21.2646
37.40395510942588 21.2303
37.42746114683234 21.1389
37.45096881771841 21.0537
37.474478123414166 21.0495
37.49817275092816 20.9911
37.52168534303452 21.0271
37.54519957395567 20.9014
37.568715445024665 20.9092
37.592416694607714 20.8987
37.61593586281424 20.9425
37.63945667518264 20.9715
37.66297913304891 20.7868
37.68668702630454 20.7823
37.710212792059274 20.7276
37.733740207334854 20.6711
37.757269273470364 20.6139
37.780983832050374 20.5758
37.80451621684926 20.5831
37.82805025654007 20.5974
37.851585952464795 20.5863
37.8753071980695 20.4147
37.89884622345676 20.4067
37.92238690911902 20.3853
37.94611318753442 20.4148
37.969657210779765 20.3521
37.99320289834801 20.3033
38.016750251586465 20.3076
38.04048325513017 20.2662
38.06403395679343 20.2155
38.087586328183946 20.2073
38.11114037065203 20.2252
38.13488012115898 20.2254
38.1584375229181 20.1099
38.181996599821 20.0445
38.205557353221124 20.012999999999998
38.229303872575656 20.0196
38.2528679961576 19.9928
38.27643380031219 19.9509
38.30000128639589 19.9098
38.32375459653193 19.8763
38.34732546371299 19.8567
38.37089801690786 19.8662
38.39447225747609 19.7248
38.418232380377425 19.7646
38.441810012983396 19.7315
38.46538933705673 19.7034
38.488970353960084 19.7065
38.51273731166058 19.6131
38.536321731567014 19.5718
38.55990784840681 19.5381
38.58367995004091 19.5471
38.60726947812959 19.436
38.63086070726198 19.4964
38.654453638806274 19.4521
38.678232613930824 19.378
38.70182896773327 19.3246
38.72542702806741 19.3275
38.7490267963045 19.3637
38.77281266709232 19.324
38.79641586862214 19.3098
38.8200207821842 19.2725
38.843627409152944 19.2499
38.86742019782782 19.2052
38.891030269149255 19.1438
38.914642058016156 19.1053
38.938255565806124 19.0926
38.96205529464307 19.0284
38.98567225787121 19.0205
39.00929094417078 18.9382
39.03291135492255 18.9596
39.05671804624804 18.9475
39.080341923549106 18.8135
39.103967529460334 18.8541
39.127594865365744 18.7989
39.15140854155791 18.7782
39.17503935514948 18.8271
39.19867190290282 18.7638
39.22249083587951 18.7334
39.24612686969409 18.683
39.269764641845306 18.7158
39.293404153722804 18.6356
39.317230110864074 18.5537
39.34087311998506 18.5561
39.36451787301696 18.5931
39.388164371352595 18.4597
39.41199737518003 18.4824
39.43564738196752 18.4705
39.45929913825317 18.4083
39.48295264543308 18.3765
39.506792718520884 18.3804
39.530449745387216 18.2819
39.55410852735203 18.2804
39.57776906581474 18.2779
39.60161623079 18.3238
39.625280300200025 18.2025
39.64894613032202 18.1722
39.67261372255866 18.1647
39.6964680021016 18.1069
39.72013913657293 18.1367
39.74381203738292 18.1307
39.76748670593756 18.0888
39.79134812278169 18.0184
39.81502634488497 18.0592
39.83870633896685 18.007
39.862388106436654 17.9459
39.88625668336918 17.895
39.90994201572829 17.9079
39.933629125719285 17.8669
39.957503091207826 17.8018
39.9811937746168 17.8398
40.00488623990914 17.803
40.02858048850006 17.7274
40.05246165409549 17.7369
40.076159487492085 17.6604
40.099859108448875 17.7253
40.123560518384345 17.5967
40.1474489070226 17.6053
40.171153913178564 17.5902
40.194860712584955 17.563
40.2185693066637 17.5744
40.242464941335314 17.4963
40.26617714307655 17.3917
40.289891143772046 17.3424
40.3136069448471 17.3887
40.33750984859743 17.3863
40.3612292688043 17.3768
40.3849504936829 17.3146
40.40867352466194 17.3291
40.43258372059144 17.2796
40.45631038219906 17.2881
40.48003885420956 17.2181
40.503769138055105 17.1975
40.52768664931955 17.2483
40.55142057531802 17.1991
40.57515631746428 17.0526
40.599079334038514 16.9959
40.62281872700477 17.0135
40.64655994043941 17.0362
40.67030297578061 17.0224
40.69423334835778 16.9953
40.71798004609188 16.9312
40.74172857006355 16.9369
40.76547892171441 16.9613
40.7894166736039 16.848
40.813170699248566 16.8459
40.83692655691388 16.8319
40.86068424804498 16.8306
40.884629402612525 16.7778
40.908390779366385 16.7811
40.932153993938 16.715999999999998
40.95591904777605 16.6846
40.979871628443995 16.7135
41.003640379561936 16.6861
41.02741097430883 16.6344
41.05118341413683 16.589000000000002
41.075143444384416 16.5271
41.098919593177826 16.5337
41.1226975914255 16.5239
41.14647744058318 16.4664
41.170444943946755 16.4256
41.19422851378379 16.4275
41.218013938914645 16.3838
41.24198706625173 16.3117
41.26577622087193 16.3128
41.289567235177785 16.3045
41.31336011063129 16.2897
41.337340752422875 16.2026
41.361137369129835 16.2595
41.38493585138705 16.1727
41.40873620066004 16.1508
41.43272438060107 16.177
41.45652848292052 16.1541
41.48033445666918 16.0861
41.50414230331616 16.0303
41.528138045159764 16.0575
41.551949656675205 15.9638
41.575763145513235 15.9737
41.59957851314666 15.8982
41.62358184070442 15.9081
41.64740098505737 15.8714
41.6712220126409 15.9168
41.69504492493139 15.8367
41.71905586207357 15.762
41.74288256296395 15.7779
41.766711153007456 15.7721
41.79054163368412 15.7298
41.814560204340054 15.7549
41.838394485526365 15.7561
41.86223066180303 15.704
41.88625497706819 15.6262
41.910094962812 15.6164
41.93393684811168 15.5403
41.95778063445365 15.5296
41.981812625263366 15.5035
42.00566023303407 15.4575
42.029509746323676 15.5072
42.05336116662236 15.444
42.077400857069705 15.4643
42.10125611078846 15.409
42.12511327600405 15.3507
42.14897235421036 15.3605
42.173019768448455 15.3488
42.19688269209613 15.2889
42.22074753323349 15.2993
42.24461429335818 15.2396
42.268669455600495 15.2123
42.292540073217886 15.1964
42.31641261433284 15.142999999999999
42.34028708044675 15.1565
42.36435001496739 15.1451
42.38822835065557 15.1268
42.41210861586426 15.0595
42.4359908120986 15.0634
42.46006154323262 15.0029
42.48394762115317 14.9444
42.507835634632315 14.9963
42.531912233047436 14.939
42.55580413732265 14.9571
42.579697981698 14.8585
42.60359376768525 14.8749
42.62767820545945 14.8465
42.65157789440821 14.8458
42.67547952952185 14.8255
42.699383112316 14.7933
42.72347541395347 14.6777
42.74738291190531 14.6596
42.771292362102166 14.6996
42.795203766063516 14.6466
42.819303956130405 14.6783
42.843219287476536 14.6766
42.86713657716324 14.5953
42.89105582671383 14.5604
42.91516392983864 14.552
42.939087119032166 14.5676
42.963012272677304 14.4834
42.98693939230129 14.4526
43.01105543317513 14.352
43.034986504731386 14.4035
43.05891954686589 14.4349
43.08285456110972 14.3399
43.10697856448665 14.3275
43.130917542983475 14.2532
43.15485849820081 14.314
43.17880143167367 14.2688
43.20293342237094 14.2153
43.226880332449 14.1896
43.25082922540554 14.2413
43.27496722682525 14.2045
43.29892010567796 14.1594
43.32287497204102 14.1367
43.34683182745632 14.0736
43.370977859791836 14.0604
43.39493871351105 14.0533
43.41890156092628 14.0053
43.44286640358341 14.0029
43.46702049182749 13.9767
43.49098934522816 13.9307
43.51496019852649 13.9266
43.5389330532723 13.9297
43.56309522248204 13.8921
43.58707210044314 13.89
43.61105098451946 13.8669
43.63503187626491 13.7868
43.659202151562134 13.7849
43.68318707902681 13.7604
43.70717401884041 13.6602
43.731162972560874 13.6924
43.75534137913236 13.6537
43.779334381108384 13.6511
43.803329401683186 13.6258
43.82732644241872 13.5929
43.8515130055166 13.6266
43.87551410707659 13.5723
43.89951723350145 13.5714
43.923709934595614 13.5174
43.94771713129917 13.5266
43.97172635758096 13.5012
43.99573761501002 13.4591
44.0199385169922 13.4181
44.04395385732619 13.3843
44.067971233533086 13.4179
44.09199064718605 13.392999999999999
44.11619977548961 13.3217
44.14022328470671 13.302999999999999
44.16424883610785 13.2515
44.18827643127035 13.2988
44.21249381139513 13.2778
44.236525514814076 13.232999999999999
44.26055926674478 13.1863
44.28459506876863 13.1931
44.3088207262813 13.172
44.33286064928722 13.134
44.35690262714919 13.1098
44.38094666145278 13.0954
44.4051806219871 13.1075
44.42922879003185 13.0443
44.45327901929361 12.9889
44.477331311362136 12.9983
44.501573600619416 12.9237
44.525630039221795 12.905999999999999
44.54968854541895 12.901
44.573937102200176 12.9403
44.5979997645541 12.9364
44.622064499300315 12.8686
44.64613130803592 12.8571
44.67038823869318 12.8141
44.69445921643748 12.7997
44.718532272981385 12.7514
44.742607409926194 12.7555
44.76687274034801 12.6972
44.79095205918753 12.6758
44.81503346325094 12.6713
44.839116954143876 12.6613
44.86339071028742 12.6313
44.88747839599524 12.6293
44.91156817336837 12.575
44.93566004401666 12.5995
44.959942251908146 12.5797
44.984038330325966 12.5305
45.00813650686762 12.4545
45.03223678314731 12.4783
45.05652746888232 12.4696
45.08063196592069 12.4578
45.104738567558705 12.4023
45.128847275414856 12.3858
45.15314646515866 12.3319
45.17725940679741 12.3369
45.20137445952892 12.3093
45.22568004865265 12.2944
45.24979934496396 12.298
45.27392075725247 12.2645
45.29804428714431 12.232000000000001
45.322358426247604 12.2341
45.346486212804315 12.1833
45.370616121861914 12.1915
45.39474815505086 12.1755
45.41907087049246 12.1272
45.4432071734666 12.1168
45.46734560548283 12.0812
45.49148616817604 12.1179
45.51581748638564 12.0784
45.5399623320197 12.0325
45.56410931325473 11.9926
45.58825843173002 11.9825
45.61259837920865 11.9891
45.636751793816 11.9934
45.66090735060093 11.9124
45.68506505120716 11.9045
45.7094136545275 11.8701
45.73357566449271 11.8206
45.75773982322992 11.8397
45.78190613238733 11.8451
45.806263418194064 11.7288
45.83043404997326 11.823
45.85460683713677 11.7249
45.87897065658495 11.7381
45.90314777634752 11.7249
45.92732705646868 11.7194
45.9515084986045 11.6731
45.97588104735473 11.6633
46.00006683541565 11.6316
46.02425479047904 11.6067
46.04844491420549 11.6171
46.0728262191024 11.6
46.09702070211635 11.5517
46.12121735879483 11.525
46.14541619080294 11.5432
46.169806278764455 11.5111
46.194009483459034 11.443
46.21821486849841 11.4114
46.24242243555223 11.4131
46.266821333570014 11.387
46.29103328674601 11.4034
46.31524742696538 11.3399
46.33946375590237 11.3323
46.36387149104216 11.3159
46.38809221957392 11.2569
46.41231514186606 11.293
46.436540259597464 11.245999999999999
46.460956858999374 11.2592
46.48518638983522 11.2122
46.509418121166966 11.1696
46.533652054678114 11.1974
46.55807754555709 11.1357
46.58231590571962 11.1326
46.60655647313217 11.0809
46.630988654873654 11.0795
46.655233659129024 11.0772
46.67948087571551 11.0651
46.70373030632484 11.0499
46.72817142736393 11.0492
46.752425308428684 10.9915
46.77668140861147 10.9937
46.80093972960865 10.9069
46.82538981736788 10.9436
46.849652602470904 10.9327
46.87391761349769 10.8843
46.8981848521493 10.8964
46.9226439341274 10.8274
46.946915650573224 10.8126
46.97118959976749 10.8381
46.99546578341598 10.7624
47.019933887188216 10.763
47.04421456235744 10.752
47.06849747711879 10.7209
47.09278263318286 10.7017
47.11725978640143 10.6633
47.14154944775105 10.6638
47.165841355555656 10.6654
47.1901355115306 10.6431
47.214621741924994 10.6169
47.23892041698887 10.5764
47.26322134538975 10.5735
47.28771440635075 10.5441
47.31201986422527 10.5523
47.33632758061436 10.5212
47.360637557241866 10.5139
47.38513974410611 10.4742
47.40945426407847 10.4914
47.43377104948137 10.439
47.45809010204344 10.4317
47.48260144275502 10.4004
47.506925052572285 10.3475
47.53125093475548 10.3249
47.55557909103813 10.3311
47.58009961361992 10.2471
47.60443234110732 10.2651
47.62876734791564 10.2715
47.65310463578333 10.2398
47.6776343683373 10.2461
47.7019762413987 10.2177
47.72632040075572 10.2029
47.75066684815169 10.1816
47.77520581885936 10.1256
47.799556865477655 10.1437
47.823910205386 10.1311
47.84826584033272 10.1343
47.87281407745551 10.0578
47.89717432569297 10.0614
47.92153687423484 10.0996
47.94609208429692 10.0372
47.97045925671401 10.0189
47.99482873471275 10.0261
48.01920052005013 9.99042
48.04376504619224 9.95618
48.068141469543484 9.96198
48.09252020552573 9.92561
48.11690125590099 9.89413
48.1414751266064 9.91554
48.16586082917454 9.8912
48.19024885144316 9.84956
48.2146391951793 9.83651
48.239222439012764 9.831719999999999
48.26361744916137 9.78957
48.28801478610016 9.79745
48.31241445160131 9.77817
48.337007097209366 9.754560000000001
48.36141144338331 9.7368
48.38581812345755 9.68816
48.41022713920929 9.70753
48.434829215320704 9.67945
48.45924292604658 9.656839999999999
48.48365897780325 9.65714
48.50807737237308 9.61853
48.532688907799276 9.655660000000001
48.55711201168574 9.5857
48.581537463754074 9.5719
48.60615611725119 9.5635
48.63058628942721 9.53158
48.65501881516546 9.5282
48.6794536962573 9.50915
48.70408185970339 9.50112
48.72852147531801 9.47833
48.75296345168211 9.427710000000001
48.77740779059232 9.45122
48.80204549302823 9.44234
48.82649458091802 9.43003
48.85094603676547 9.362110000000001
48.87539986237231 9.35778
48.90004713292306 9.359110000000001
48.92450572200832 9.34056
48.94896668628025 9.31065
48.97343002754588 9.2965
48.99808689542115 9.29394
49.02255501470614 9.30317
49.04702551642794 9.26843
49.0714984023988 9.231589999999999
49.096164896893235 9.21263
49.120642575466796 9.19924
49.145122643748394 9.165410000000001
49.16960510355558 9.146939999999999
49.19428125404938 9.14993
49.2187685210852 9.10308
49.243258185121555 9.10345
49.26794160167084 9.073360000000001
49.2924360839405 9.07605
49.31693296869764 8.99898
49.34143225776915 9.019060000000001
49.36612538195438 9.01441
49.39062950396021 9.01193
49.41513603578346 8.986080000000001
49.4396449792564 8.96272
49.46434784069503 8.9568
49.488861631846454 8.954939999999999
49.513377840166804 8.93679
49.537896467493745 8.867989999999999
49.56260909589029 8.858369999999999
49.587132585683285 8.84405
49.611658500018365 8.85407
49.636186840738596 8.78476
49.66090926588511 8.804110000000001
49.685442483902584 8.8115
49.70997813385706 8.77586
49.734516217597076 8.74347
49.75924846937352 8.71255
49.7837914452858 8.71294
49.80833686055187 8.68414
49.83288471702571 8.68328
49.85762682540054 8.68069
49.882179588965734 8.67746
49.9067347993235 8.62585
49.93129245833333 8.62695
49.95604445336378 8.61105
49.98060703442832 8.59787
50.005172069746266 8.59397
50.02993150438364 8.59382
50.05450147301533 8.55376
50.07907390151433 8.52695
50.10364879174981 8.53012
50.12841816587289 8.47574
50.1529980044635 8.49288
50.17758031042124 8.45867
50.20216508562089 8.46311
50.22694442953363 8.40456
50.25153416817468 8.40565
50.27612638170508 8.40115
50.300721072005196 8.357380000000001
50.325510416102105 8.367360000000001
50.350110084975064 8.3669
50.37471223628208 8.339780000000001
50.39931687190919 8.32197
50.424116246675766 8.30828
50.44872587605249 8.31988
50.47333799543065 8.26014
50.49795260670191 8.21145
50.52276204271512 8.220360000000001
50.54738166295838 8.22364
50.57200378079314 8.23281
50.596628398116835 8.18038
50.62144792604559 8.160110000000001
50.646077567609396 8.12464
50.670709714377715 8.1683
50.69553683636198 8.119810000000001
50.72017401885922 8.1186
50.7448137122895 8.12518
50.76945591856022 8.10695
50.79429318636823 8.05195
50.818940443716784 8.044210000000001
50.84359021965163 8.02721
50.868242516085964 8.05086
50.893089960641895 8.02256
50.917747323549435 7.95472
50.94240721271973 7.99545
50.96706963007175 7.9448
50.99192728239342 7.924919999999999
51.01659478166073 7.92387
51.04126481489051 7.914860000000001
51.06593738400761 7.915760000000001
51.090805275207074 7.87304
51.11548294172845 7.869339999999999
51.14016314993547 7.848889999999999
51.164845901758845 7.8117399999999995
51.18972406304274 7.7820100000000005
51.21441192780656 7.782260000000001
51.23910234200271 7.77614
51.2637953075678 7.77225
51.288683770237945 7.78357
51.31338186432707 7.7432300000000005
51.33808251561888 7.69982
51.362978729967345 7.701560000000001
51.387684521509755 7.71708
51.41239287610203 7.7143
51.437103795691165 7.665760000000001
51.46201036644977 7.62805
51.486726441956634 7.62893
51.51144508832545 7.60911
51.536166307509156 7.60083
51.56108326624387 7.547280000000001
51.58580965706056 7.52376
51.61053862657523 7.53637
51.635270176746864 7.52727
51.66019755512065 7.53155
51.68493429268881 7.48079
51.70967361681515 7.4988600000000005
51.73441552946465 7.46595
51.759353359237934 7.46475
51.7841004750961 7.44763
51.80885018539685 7.4445
51.833602492111254 7.38219
51.8585508051424 7.376939999999999
51.883308330926425 7.39995
51.90806845906181 7.3398699999999995
51.932831191525715 7.33557
51.95779001977161 7.35728
51.98255798721516 7.30082
52.00732856494335 7.294919999999999
52.03229530577543 7.285589999999999
52.057071130455945 7.255160000000001
52.081849571391054 7.2591600000000005
52.106630630568695 7.203689999999999
52.13160794279417 7.1833100000000005
52.15639426492067 7.213089999999999
52.18118321127822 7.187180000000001
52.205974783860896 7.1811
52.23096269971011 7.17037
52.255759551287994 7.140630000000001
52.280559035098186 7.11848
52.30536115314103 7.08902
52.33035970494467 7.09576
52.35516711807904 7.0654
52.37997717147198 7.04858
52.40478986713005 7.06085
52.42979908731974 7.03815
52.454617094216 7.05743
52.47943774942214 7.0220199999999995
52.50426105495102 7.01922
52.529280976059844 6.97375
52.554109609024096 6.9595199999999995
52.57894089837482 6.967339999999999
52.60377484613117 6.9793199999999995
52.62880550079408 6.918660000000001
52.65364479223379 6.89686
52.67848674816189 6.88019
52.70352547971946 6.900289999999999
52.72837279155837 6.837339999999999
52.753222773982785 6.854
52.778075429022984 6.886019999999999
52.80312495150885 6.85464
52.827982978797436 6.82267
52.85284368481815 6.785310000000001
52.87770707160767 6.76355
52.90276741793998 6.818239999999999
52.92763619336701 6.76163
52.952507655698504 6.74413
52.977381806977576 6.73263
53.00245301017842 6.735810000000001
53.02733256653592 6.71639
53.052214817996074 6.6760600000000005
53.077099766608484 6.664460000000001
53.102181859804446 6.65857
53.127072229988265 6.66115
53.15196530349892 6.656110000000001
53.17686108239249 6.6376100000000005
53.20195409881522 6.59611
53.22685531582556 6.636819999999999
53.25175924441303 6.54524
53.27666588664027 6.54761
53.30176985962693 6.54904
53.3266819565689 6.5214
53.35159677336455 6.56192
53.376514312083096 6.5339599999999995
53.40162927507703 6.52153
53.42655228516116 6.479030000000001
53.45147802340193 6.45351
53.47660125628886 6.43262
53.50153247842639 6.40966
53.52646643496923 6.44591
53.55140312799818 6.40322
53.576537409691696 6.40414
53.60147960336152 6.3619699999999995
53.626424539786164 6.33744
53.65137222105307 6.31332
53.67651758529126 6.32875
53.70147078399681 6.36296
53.72642673383343 6.301159999999999
53.75138543689533 6.28552
53.776541917524526 6.28742
53.801506154876755 6.26345
53.826473151763246 6.249230000000001
53.851442910284916 6.23655
53.87661054126026 6.211119999999999
53.9015858509782 6.19763
53.92656392866066 6.18243
53.95154477641532 6.19554
53.976723591801296 6.16324
54.00171000771266 6.18305
54.02669920004598 6.1776
54.051691170915745 6.1557900000000005
54.076881204886796 6.14332
54.101878760928514 6.10026
54.12687910187696 6.0707699999999996
54.152077577768296 6.07515
54.1770835166946 6.10041
54.20209224691339 6.0626
54.22710377055121 6.05866
54.25231352511594 6.06237
54.27733066384342 5.9643
54.30235060239643 5.97311
54.32737334290836 5.9551099999999995
54.35259441062629 5.90378
54.377622783395324 5.91078
54.40265396455061 5.94057
54.42768795623251 5.88816
54.45292037169559 5.87982
54.477960012857906 5.85988
54.50300247099511 5.83053
54.52804774825457 5.815169999999999
54.55329154616743 5.85677
54.57834249018678 5.84903
54.6033962597977 5.81493
54.6284528571545 5.73334
54.653708072335164 5.69715
54.67877035378786 5.71659
54.70383546947698 5.68193
54.72890342156389 5.66142
54.7541700889442 5.63009
54.77924374251975 5.6245400000000005
54.8043202390049 5.61247
54.82959552413022 5.56909
54.8546777351945 5.52158
54.87976279569621 5.53156
54.90485070780914 5.528569999999999
54.930137506558005 5.51468
54.95523115074295 5.50306
54.98032765308844 5.492000000000001
55.005427015775496 5.42408
55.03072536339621 5.49625
55.05583047570572 5.4313
55.080938454927676 5.402830000000001
55.10604930325027 5.34011
55.131359235107396 5.33775
55.15647585066083 5.293019999999999
55.181595341907496 5.29141
55.20671771104285 5.28271
55.232039262617704 5.2396199999999995
55.25716741665048 5.26834
55.28229845518636 5.24214
55.30743238042802 5.1455
55.33276558731939 5.17203
55.357905315183636 5.17178
55.383047936390035 5.12108
55.40819345314859 5.08381
55.433538351073295 5.10876
55.458689688238415 5.09219
55.483843927614096 5.00253
55.509197623043605 4.974
55.53435769621134 4.93318
55.55952067826466 4.94488
55.5846865714265 4.95779
55.61005202069737 4.9671
55.63522376553902 4.96626
55.66039842818645 4.8823300000000005
55.68557601087004 4.92756
55.7109532500271 4.83067
55.73613670233794 4.84016
