TT I
1.2716486653135266 7.1433
1.2939594142134223 6.6172
1.3162702121660406 6.15491
1.3385810600174564 6.51995
1.3608919586137629 6.15034
1.383202908801069 5.59938
1.405513911425503 5.614730000000001
1.4278249673332093 5.96928
1.4501343378461518 5.94311
1.4724455028545926 5.56453
1.4947567236847858 5.515680000000001
1.517068001182951 5.39302
1.5393793361953272 5.270630000000001
1.5616907295681737 5.0601
1.5840021821477681 4.5740099999999995
1.60631369478041 4.56738
1.6286252683124185 4.98721
1.6509369035901333 4.4900400000000005
1.6732468618895553 5.08586
1.695558623192809 5.20723
1.7178704487808514 4.0384199999999995
1.7401823395001077 4.82618
1.7625012545597203 4.40417
1.7848028405262486 4.56618
1.8071218901122095 4.70174
1.8294236121921872 3.81923
1.8517427996910911 4.22811
1.8740620574440425 4.4955099999999995
1.8963639900671978 4.87173
1.9186833908139995 3.98443
1.9409854680117449 4.17171
1.9633050151394713 4.31869
1.9856246367570705 3.98425
2.0079269371922672 3.8877800000000002
2.03024671027244 4.37555
2.0525491637446027 3.8429300000000004
2.074869091674931 3.8615699999999995
2.097171701569106 4.16664
2.1194917877373847 4.58434
2.141811954326636 4.24527
2.164114805233074 4.8168
2.186435135143035 4.35203
2.208738150935709 5.37415
2.231058647554722 7.098269999999999
2.2533792288321184 6.46321
2.275682498336085 5.07266
2.298003251406138 4.92039
2.3203066942619714 5.26445
2.3426276225136022 4.752680000000001
2.3649486396617507 5.21715
2.387252348930071 5.5016099999999994
2.4095735463442893 5.54396
2.4318774374315884 6.20576
2.4541988185014043 6.99216
2.476502894794693 7.305110000000001
2.498824462909887 6.93429
2.521146125856138 7.40189
2.5434504863470337 7.254689999999999
2.5657723414244717 7.306660000000001
2.588076895590662 8.26962
2.610398946189713 8.61927
2.6327210958598384 8.4412
2.6550259469304716 7.886410000000001
2.6773482972090137 8.91488
2.6996533504259 8.64706
2.7219759047039602 8.61233
2.744298562293959 8.21583
2.7666039251246595 7.20965
2.7889267918020164 8.32138
2.8112323652516555 8.87631
2.833555444408179 8.05187
2.8558786311183852 8.441139999999999
2.8781845268938557 8.9038
2.9005079311721484 9.06328
2.9228140460410397 8.88095
2.9451376712799635 9.35895
2.967444008632326 9.89714
2.9897678582247247 9.770719999999999
3.0120918213106695 10.2026
3.0343984987899373 11.0673
3.0567226913198637 10.9253
3.079029599759726 11.487
3.101354025127254 12.1235
3.123678568232338 12.4067
3.145985829517914 12.6034
3.16831061055229 13.8551
3.1906181112775593 14.1027
3.212943133635653 14.6566
3.2352682779763207 14.8197
3.2575761442691227 14.6164
3.2799015350264273 14.9264
3.302209649240067 15.5311
3.3245352898092655 15.9758
3.3468436553365257 16.8478
3.369169549113219 17.2009
3.3914955708171384 17.6774
3.413804319727358 18.2909
3.4361305997334863 18.6395
3.4584396084414553 18.8119
3.4807661501462652 19.4774
3.503092824025881 19.8786
3.5254022288463154 19.9515
3.5477291695206588 20.9056
3.5700388426251948 20.7238
3.5923660534916446 21.3138
3.6146934007816114 22.5027
3.637003482731501 27.9554
3.6593311053109985 30.2875
3.681641464033634 26.7852
3.7039693653009733 24.5557
3.726297407241705 24.1009
3.7486081875460804 23.9366
3.7709365132734978 24.4261
3.793247578841633 24.8921
3.8155761917550093 25.3385
3.8378875459837216 25.8394
3.8602164494827234 26.2983
3.882545499606844 26.6798
3.9048572932539183 27.3549
3.9271866390645718 27.6
3.9494987298666713 28.1167
3.971828374764527 28.695999999999998
3.9941581705403255 29.045
4.016470713506008 29.5683
4.038800813471445 30.575
4.061113662089144 30.7165
4.0834440696459176 31.4831
4.105774632334751 31.7212
4.128087945865126 32.3618
4.150418821249301 32.7307
4.172732448931298 33.5047
4.195063640413578 34.6453
4.2173775856475215 35.4354
4.239709096631102 38.0419
4.262040768704612 52.224
4.284355196706267 63.9716
4.306687193387355 56.1051
4.329001947444346 43.9933
4.35133427213731 40.8389
4.373666762177566 40.7775
4.395982011761091 40.9765
4.418314834921175 41.6129
4.44063041906622 43.3082
4.4629635787515625 45.2071
4.4852969080429785 45.913000000000004
4.5076130004776225 46.3589
4.529946671403969 46.7399
4.552263106909177 47.4881
4.574597122877047 48.401
4.596931312711224 49.5868
4.619248269273446 50.1364
4.6415828092605835 51.2188
4.663900117405352 52.5451
4.686235010953232 53.911
4.708552674085913 54.8302
4.730887924602802 56.7681
4.753223354952695 57.5879
4.775541557023902 59.4354
4.797877349456786 60.7412
4.820195915032126 62.6387
4.842532072957498 63.9635
4.864868414979744 65.8438
4.88718753227192 67.9779
4.909524244902505 69.9922
4.931843734218147 71.3368
4.954180820867835 74.1879
4.976518095879839 76.7356
4.998838149695359 79.266
5.021175803844231 82.51299999999999
5.043496238205739 85.6506
5.065834274903528 89.1262
5.088172504230693 93.04899999999999
5.1104935158799565 97.8863
5.132832132875765 105.287
5.155153533596801 118.56
5.1774925416746225 137.214
5.199814334878411 230.472
5.2221537374521505 791.9680000000001
5.244493338631803 2470.35
5.266815727034316 7133.57
5.289155727832427 13470.4
5.311478517248165 9546.97
5.333818921080011 3284.39
5.356159527788849 689.306
5.3784829252032536 215.475
5.400823940070432 145.945
5.423147747031976 124.119
5.445489173474152 113.557
5.467830807066149 108.029
5.490155234831516 104.44200000000001
5.512497285125229 100.546
5.534822130975162 99.213
5.557164601388673 97.2846
5.579489868738879 94.2292
5.601832762690846 92.7305
5.6241758697774475 91.4608
5.646501775867269 91.2261
5.668845311622074 90.0103
5.691171647754637 89.5587
5.713515615597765 88.6824
5.735859800852677 87.5966
5.758186788542988 86.9478
5.780531411018185 86.4419
5.802858837297399 86.4958
5.825203900414495 86.1055
5.8475491852224 86.3913
5.869877275883075 86.8884
5.892223006467101 87.8551
5.914551544266608 88.3208
5.936897724049891 90.4233
5.959244129804903 94.7349
5.981573344815301 106.434
6.0039202049061 162.168
6.026249875609095 390.686
6.04859719346037 887.1210000000001
6.070927323278297 2050.37
6.093275102315365 4582.9
6.115623113320588 5656.42
6.137953938319995 3567.89
6.160302415650845 1062.84
6.182633708324452 238.91099999999997
6.2049826554078376 109.544
6.227331838745022 87.3079
6.249663839443684 79.6234
6.27201349767565 75.6293
6.294345974611799 73.7096
6.316696111167083 72.9665
6.339046488263839 72.0222
6.361379686074702 68.578
6.383730546639482 66.3878
6.406064229255215 64.9298
6.428415576718203 64.6387
6.450749747566656 63.7399
6.47310158535871 62.2862
6.495453669698332 61.6535
6.517788579421056 60.8576
6.540141159237969 60.0292
6.562476565766648 59.4878
6.5848296444934045 59.2156
6.607182974060425 58.3803
6.6295191323281015 57.9555
6.651872965955752 57.2278
6.6742096296068985 58.4341
6.6965639707294615 63.2739
6.71891856698715 64.26899999999999
6.741255995248479 60.1242
6.763611104154477 56.4856
6.785949046381137 55.2307
6.808304671371482 54.4752
6.8306605557940046 54.2635
6.852999275508618 53.9984
6.875355681171544 53.5501
6.897694923437771 53.4592
6.92005185377892 53.5143
6.9423916220322655 53.3738
6.964749080490181 52.4944
6.987106804399774 52.6644
7.009447368180821 52.3731
7.031805625367033 52.217
7.054146723727803 52.3268
7.076505517631004 52.281000000000006
7.098864581288365 52.1126
7.121206488070854 51.5584
7.143566093607822 51.4576
7.165908543567245 51.2515
7.188268694426048 50.9527
7.2106291193438095 50.7998
7.232972390625943 51.2645
7.255333366030969 51.7084
7.277677189091925 55.6583
7.300038718428332 61.7205
7.322400526130865 61.2944
7.344745183422596 55.974
7.367107550224791 52.2627
7.389452767901992 51.6942
7.411815697249891 51.4345
7.434161478756298 51.0297
7.456524974096713 51.4363
7.478888753837185 51.8375
7.501235387657368 53.1218
7.523599738562711 59.6106
7.545946944825532 70.5984
7.568311870344528 74.9674
7.5906770845765665 66.2912
7.613025156078678 56.8609
7.635390950099687 53.7318
7.657739602662809 52.8475
7.680105979923558 52.8502
7.702472650212829 53.0326
7.724822180948224 52.5862
7.747189439655568 52.9507
7.769539560075357 53.1547
7.791907410653562 53.6763
7.81425812420825 53.608000000000004
7.836626570110925 53.8024
7.858995315087906 54.8999
7.881346924933401 54.9494
7.903716270417482 55.5321
7.926068482028405 55.5387
7.948438431475253 55.891000000000005
7.9708086843180235 56.4741
7.993161805171116 57.0394
8.015532667162402 57.6747
8.037886398416653 58.5618
8.060257873014221 59.0553
8.082629655331942 59.5215
8.104984308787587 59.8398
8.127356708900503 60.9174
8.149711981398308 61.9579
8.172085002766314 63.0484
8.194458336181368 63.537
8.216814543847752 63.9501
8.23918850371002 65.5207
8.26154533906492 66.2949
8.283919928836452 67.9205
8.306277395339652 69.1684
8.328652618483376 70.497
8.351028159736202 71.8582
8.373386579575245 73.8849
8.395762759396959 75.11399999999999
8.418121819038275 77.4741
8.440498640894003 81.1852
8.462875785192262 86.3447
8.485235811156207 94.0515
8.507613602688501 128.115
8.529974277114228 227.145
8.552352719347912 366.194
8.574731488360351 609.086
8.59709314210385 1078.16
8.619472567021075 1819.64
8.64183487789147 2245.87
8.664214962183097 1960.67
8.686577933647762 1090.0
8.708958680784317 410.716
8.731339760774953 175.673
8.753703729764451 109.84
8.77608547780821 94.469
8.798450116065078 90.7281
8.820832535634787 88.1059
8.843215292401656 86.7445
8.865580941199045 85.3934
8.887964374703538 84.037
8.910330701447199 83.3428
8.932714815164482 82.6327
8.955099270424924 82.1879
8.977466620733543 81.5036
8.999851761421976 80.6139
9.022219798361645 79.7899
9.04460562795561 79.8958
9.066991803441677 79.4016
9.089360876979615 79.1266
9.111747746589993 78.9252
9.13411751544971 78.8373
9.156505082664324 78.7023
9.178875550323522 79.436
9.20126381862328 81.8604
9.223652438908596 92.62200000000001
9.246023961427412 110.125
9.26841328802173 117.04
9.290785518039224 105.425
9.313175554425882 89.9762
9.335565947154315 81.8492
9.357939245086508 79.9053
9.380330352834827 79.5188
9.40270436697103 79.733
9.425096193225055 79.465
9.447488380180165 80.1898
9.469863475295412 80.7665
9.492256385987508 81.1685
9.514632206018318 81.4555
9.537025843935714 81.6282
9.559402392368193 82.0437
9.581796761000229 82.7034
9.604191496441521 83.2151
9.626569144158516 84.09100000000001
9.648964615551032 84.8776
9.671343000390081 86.2025
9.693739211225699 87.2174
9.716135793237463 87.5857
9.738515290448102 87.8853
9.760912617143402 88.7934
9.783292860202891 90.2954
9.805690935076182 91.2421
9.828089385495742 92.1529
9.850470754023561 93.7911
9.872869957865444 95.7053
9.89525208097539 98.8857
9.917652041736662 102.376
9.940052382417589 106.04799999999999
9.962435644102392 115.021
9.984836746950979 146.582
10.007220771957746 225.955
10.029622640473708 344.01
10.052007432299963 509.298
10.074410069984072 768.158
10.096813093716005 1193.24
10.119199042482517 1748.39
10.141602840636468 2079.83
10.163989564971628 1673.57
10.186394141051062 997.056
10.208799107559706 439.26
10.231187001965623 200.608
10.253592751657669 125.204
10.275981430388155 107.37899999999999
10.298387966769793 102.615
10.320794897965431 101.631
10.343184759907361 100.626
10.36559248305461 98.705
10.387983138083852 97.6232
10.410391656691655 98.6569
10.432800574501677 107.439
10.455192425893369 129.047
10.47760214443012 159.391
10.499994797678786 200.067
10.522405320453982 267.47700000000003
10.54479877906917 376.62199999999996
10.567210109595656 504.126
10.5896218454736 586.09
10.612016518879773 555.5930000000001
10.634429067781074 383.776
10.656824555333241 226.60299999999998
10.679237920773568 141.35399999999998
10.701651695961992 104.84700000000001
10.724048411481384 93.0544
10.746463008485165 86.4995
10.768860546937125 82.4507
10.791275969274796 79.6978
10.81369180576079 78.5745
10.836090585366925 77.7997
10.858507252467449 76.4537
10.88090686379991 75.4415
10.903324365036394 74.5276
10.925724811614439 73.2405
10.948143150509463 73.1089
10.970561909719066 72.2903
10.992963615930844 71.3633
11.015383218085756 70.748
11.037785768347074 69.4923
11.06020621697282 68.9022
11.082627090322113 68.5231
11.105030913430326 68.4185
11.12745263854165 67.4915
11.149857314510728 66.9446
11.172279894912576 67.5356
11.194702904450653 67.0628
11.217108866490921 66.25399999999999
11.239532736615194 65.627
11.26193956033512 65.0728
11.284364294577085 64.7315
11.306789462371718 63.9353
11.329197585398376 63.3348
11.351623622610898 63.4278
11.37403261614354 63.2533
11.396459526308487 62.8909
11.418869393879497 62.1635
11.441297180532617 61.8781
11.463725406927658 61.9467
11.486136592353875 61.2665
11.508565700543707 61.1724
11.530977768845315 61.5164
11.553407762368774 61.2706
11.575838200059769 60.9818
11.598251599479612 60.6426
11.620682927815501 60.5188
11.64309721895548 60.4709
11.665529441478206 60.0536
11.687962112597958 59.8057
11.710377748130886 59.8771
11.732811318753434 59.7355
11.755227854859067 60.0405
11.777662328529495 59.6488
11.800079768750786 59.5391
11.822515149015453 59.6122
11.844950984084935 59.9093
11.867369787303163 59.6925
11.889806534289491 60.0146
11.912226250487029 61.8846
11.934663912939751 65.6916
11.9571020346363 68.8208
11.979523127133968 69.3619
12.001962169624331 67.0773
12.024384183972964 63.7649
12.046824150809913 64.212
12.069264581333726 69.203
12.091687985297767 76.66
12.11412934550045 85.6454
12.136553680195208 98.4848
12.158995973632788 118.249
12.181438735204349 146.31799999999998
12.20386447284199 178.16400000000002
12.226308172985636 205.88
12.24873485024193 215.361
12.271179492516982 177.92
12.293607112949127 133.491
12.316052700916226 98.7901
12.338498763250042 73.9968
12.360927805303868 64.458
12.383374818673879 61.9685
12.405804812803074 60.9209
12.428252780773262 61.168
12.45070122756722 61.1069
12.473132656675375 61.0225
12.49558206341869 61.1236
12.518014453510101 61.2774
12.540464823770117 61.4005
12.562915677315177 61.3456
12.58534951575545 61.845
12.607801338171472 61.8396
12.630236146511358 62.4957
12.652688941369085 63.6611
12.675124723177234 63.8813
12.697578494048786 64.0189
12.720032754458185 63.757
12.742470003354093 63.6559
12.764925245138771 64.3769
12.787363476431278 64.5968
12.809819703166806 65.1949
12.83227642391173 65.6942
12.854716135692716 66.3525
12.877173846755147 67.4322
12.899614549869717 67.8331
12.9220732548287 68.7807
12.94453245827299 69.1867
12.966974655289818 69.9441
12.989434858002571 70.6235
13.011878055298721 71.3023
13.034339260862497 72.3874
13.056800969391883 74.0264
13.079245674017244 76.5494
13.101708390774869 78.3111
13.12415410463411 82.3143
13.146617833206086 92.4304
13.169064559883248 107.21700000000001
13.191529303857127 124.661
13.213994557076367 146.558
13.236442809902437 178.405
13.258909083908291 225.97299999999998
13.28135835851934 289.026
13.30382565690295 362.93
13.326293469022952 427.349
13.348744283242008 441.31
13.371213125129904 380.51800000000003
13.39366497011003 279.95599999999996
13.416134845360597 184.738
13.438605238843131 127.374
13.46105863690397 102.363
13.483530069144786 99.0521
13.505984506951902 106.84299999999999
13.528456981549432 119.54899999999999
13.550929978879088 134.632
13.573385983253365 155.44
13.595860028340867 187.764
13.618317081455832 235.959
13.64079217790333 294.231
13.663250283359057 354.211
13.685726434770173 390.339
13.708203115221277 360.296
13.730662806148091 288.589
13.75314054697177 205.31
13.775601299246777 138.149
13.798080104050406 100.115
13.820559442405358 84.7161
13.843021793671388 79.3261
13.865502201420897 77.2527
13.887965623051947 76.7122
13.910447103807167 75.6675
13.932929122629764 74.7111
13.955394156785959 74.4436
13.977877254034569 73.4414
14.000343367582113 72.5502
14.022827546871707 71.9597
14.045294743423524 71.1613
14.06778000837062 70.5958
14.090265817715476 70.9615
14.112734645763819 71.8084
14.13522154619454 73.8162
14.157691466286913 75.9447
14.180179461423874 75.9877
14.202668005486178 73.9593
14.22513957064374 70.9938
14.247629214846473 68.6966
14.270101881097517 67.991
14.29259262906496 67.3176
14.315083930490205 67.5587
14.337558255389705 67.2489
14.360050666019726 67.3286
14.382526101071944 66.611
14.405019624534942 66.4304
14.427513705993134 66.0947
14.449990813291825 66.2347
14.47248601302899 66.0926
14.49496423954951 66.2686
14.517460561197822 66.3646
14.539939910570322 65.9112
14.562437357763558 66.1522
14.58493536931253 66.4508
14.607416409993311 66.3156
14.62991555254159 66.8173
14.652397725157423 66.7207
14.674898002342799 67.0431
14.697398848433282 67.3144
14.719882725991326 68.1191
14.74238471217934 68.5096
14.764869730765593 70.3983
14.787372860692983 74.3229
14.809876564079925 80.8042
14.83236330125751 88.4422
14.854868153850365 97.0609
14.877356041159485 109.28299999999999
14.899862046604186 124.77799999999999
14.922351087688757 147.289
14.944858249632887 177.65200000000002
14.967365991421232 207.144
14.989856770231246 226.31900000000002
15.012365673994204 227.78799999999998
15.03485761569738 200.03599999999997
15.05736768508665 161.061
15.07987833888692 122.647
15.102372032001655 93.5201
15.124883856909658 77.3495
15.14737872204565 71.0118
15.169891721717274 68.49600000000001
15.192405310371893 67.6772
15.214901940621196 67.2962
15.237416709527137 66.5917
15.259914520936249 66.4491
15.282430473753607 65.5776
15.304947020131227 65.0859
15.327446610371178 64.7643
15.349964346154254 64.3541
15.372465126703139 64.1366
15.394984055556009 64.1963
15.417486030076159 64.0521
15.44000615566487 63.6474
15.462526881230803 63.4993
15.485030653812652 63.4056
15.507552581617434 63.4045
15.530057557334603 63.2065
15.55258069104857 63.352
15.575104429329837 63.4785
15.597611216864632 63.42
15.620136166564563 63.3534
15.6426441664095 63.7713
15.665170331202765 65.0787
15.687697105158826 68.5578
15.710206930593545 73.5952
15.732734925158933 79.1737
15.755245972089478 86.1598
15.77777519094324 93.4751
15.800287463046663 104.804
15.822817909869592 121.67200000000001
15.84534897229804 142.429
15.867863089299354 168.653
15.890395385222186 189.83
15.912910736597423 201.481
15.935444269699861 191.667
15.957978423016485 168.021
15.980495633101265 132.863
16.003031029129367 102.90299999999999
16.02554948280019 81.0156
16.048086125229432 69.4644
16.070623392487107 64.8739
16.09314371869582 62.8531
16.11568223789321 61.407
16.13820381691126 59.8044
16.160743591742527 59.0114
16.183283996022084 58.2239
16.205807461423195 57.1968
16.228349126881973 56.7786
16.25087385432698 56.7628
16.27341678466365 56.0183
16.29594277784926 55.6286
16.31848697676433 55.3579
16.341031811604868 55.0363
16.36355971058487 54.9166
16.3861058195587 54.9094
16.40863499352978 54.2298
16.431182380342005 54.0666
16.453730407713202 53.9381
16.476261501364792 53.6045
16.498810812136167 53.3808
16.52134319004079 53.5838
16.54389378792203 53.41
16.566445031001553 53.0934
16.588979342490088 53.0793
16.61153187824822 53.0476
16.634067483263312 52.7738
16.656621315414416 52.7552
16.679175797408888 52.3481
16.701713349928728 52.386
16.72426913389191 52.7363
16.74680798922351 52.4851
16.76936507887444 52.6254
16.791905240734874 52.657
16.814463639794468 52.5056
16.837022695210294 52.6099
16.859564824093756 52.7232
16.882125194503903 52.9867
16.904668639217885 53.4218
16.927230328348003 53.6838
16.949792678493612 54.1303
16.972338104193863 54.1431
16.994901778652235 53.7016
17.017448529496576 53.6007
17.040013531998152 53.7108
17.06257920018044 53.9745
17.0851279459922 54.6645
17.107694947817667 55.9018
17.130245028099072 56.9449
17.15281336730298 58.3179
17.17536478578733 59.9588
17.19793446610687 61.9123
17.220504818648422 64.4783
17.243058251703697 67.7968
17.265629950971032 72.1767
17.288184731571736 77.1789
17.310757781306908 81.672
17.33333150794385 82.8108
17.355888317140174 82.4328
17.37846339986244 78.4962
17.401021565958885 71.5479
17.42359800851343 65.4562
17.44617513265564 61.403
17.468735341390783 58.7983
17.491261035594565 57.4284
17.51396340099364 56.8696
17.536490463869136 57.0589
17.559018209820174 57.1121
17.58154663977963 57.193999999999996
17.604251766089718 57.6013
17.626781572227713 57.6345
17.64931206518155 57.7012
17.671843245885103 58.0463
17.69455114821572 58.0513
17.717083712612634 58.5711
17.739616967569667 59.1934
17.762150914021706 59.9147
17.78486160749854 60.0996
17.807396945166804 60.5908
17.829932977143503 60.9267
17.85246970436452 61.6366
17.875183204129467 63.4002
17.897721330097664 66.2154
17.920260154126645 69.4588
17.942799677153296 73.0225
17.9655159983646 76.6807
17.988056927677544 81.4018
18.010598558807683 88.1353
18.033140892692916 97.3142
18.05586005052525 108.84
18.07840379824407 120.875
18.10094825154059 132.914
18.12366954819864 142.111
18.146215420998306 143.38299999999998
18.16876200220057 137.34799999999998
18.191309292745153 123.44200000000001
18.214033452627167 108.71600000000001
18.236582170236648 95.6502
18.259131600016456 87.8013
18.281681742907335 85.65299999999999
18.304408781233683 88.6315
18.32696035875955 93.9069
18.349512652227624 99.2335
18.372065662579683 104.85700000000001
18.394795594587553 106.98
18.41735004715306 104.589
18.43990521943684 98.1503
18.46246111238171 89.2571
18.485193953325208 79.4386
18.507751296070428 71.1105
18.530309362314178 65.6974
18.552868153000343 63.0032
18.57560391815056 61.3689
18.59816416623245 60.6778
18.620725141597372 59.8901
18.643286845190268 59.2774
18.666025549835414 58.9845
18.688588718427933 58.1135
18.711152618092243 57.9572
18.73389353884365 57.6846
18.75645890921984 57.1331
18.77902501351406 56.8384
18.801591852673102 56.7324
18.824335739722738 56.2188
18.846904057212626 56.2969
18.8694731124168 55.9627
18.89204290628315 56.1389
18.914789774966803 55.9043
18.937361054791623 55.5405
18.959933076131318 55.1599
18.982505839934877 55.2505
19.00525570560582 55.2594
19.027829963004184 54.8096
19.05040496572238 55.0799
19.072980714710468 55.1119
19.095733592739563 55.0939
19.11831084296757 55.0697
19.140888842324735 55.6916
19.16346759176222 56.1003
19.18622349753803 56.8509
19.208803755869358 57.8498
19.231384767143577 59.1699
19.253966532312948 60.4648
19.276725481241822 62.5862
19.29930876296784 65.2726
19.3218928014549 68.6587
19.34465404436217 72.0439
19.36723960516257 74.8471
19.389825925592426 76.1028
19.412413006605938 75.206
19.43517731967805 72.3333
19.457765930683355 67.7859
19.48035530514408 63.22
19.50294544401556 59.1479
19.525712842708348 56.1307
19.54830451925909 54.0633
19.570896963095727 52.8849
19.593490175174704 52.4835
19.616260674962184 52.4401
19.638855432416964 51.9243
19.661450960992624 52.2708
19.68404726164677 52.0247
19.706820878021247 51.8342
19.729418731756834 51.7749
19.752017360452857 51.7049
19.77461676506804 51.7262
19.797393513540218 51.8282
19.819994478951667 52.0715
19.84259622316767 52.5935
19.8651987471481 52.9462
19.887978643247177 53.6196
19.91058273574792 54.1687
19.933187610901943 55.0263
19.955969879466828 56.0598
19.97857632894404 57.4659
20.00118356396599 58.6869
20.023791585494575 60.8204
20.046577028914875 63.7586
20.069186632506966 66.1837
20.091797025500632 68.9596
20.114408208858933 70.329
20.137196842715273 70.5237
20.159809615886765 68.9331
20.18242318232135 66.3741
20.20503754298326 64.0454
20.227829382875154 62.3204
20.250445341109344 61.7291
20.27306209647285 62.0187
20.29567964993108 63.278
20.31847471147704 64.5101
20.34109387027612 65.4826
20.363713830075454 65.5002
20.386334591841646 64.0881
20.409132890679302 61.4072
20.431755265564437 57.9625
20.454378445325528 54.9621
20.477002430930366 52.6983
20.499803982716553 50.9875
20.522429589228004 49.868
20.54505600449589 49.2902
20.567683229489194 49.2052
20.590488049900088 48.8958
20.61311690359731 48.7995
20.63574656993626 48.7048
20.658553853717297 48.1501
20.681185154618298 48.3097
20.703817271080066 48.1802
20.72645020407368 47.8919
20.749260783967177 48.1692
20.771895359337133 48.1643
20.794530754161617 48.0018
20.817166969412938 47.9698
20.83998086114876 47.8708
20.86261872660049 47.4752
20.885257415405402 47.3378
20.90789692853701 47.1892
20.930714147864748 47.1553
20.953355319030678 47.0761
20.97599731745334 47.2923
20.99864014410749 47.0363
21.021460706796564 47.2392
21.044105199328826 47.4344
21.06675052302631 47.7021
21.089396678865015 47.8501
21.112220600704806 48.0148
21.134868430275347 48.2362
21.15751709492456 48.5892
21.180166595629693 48.9885
21.202993892429635 49.3426
21.22564507473034 49.9261
21.24829709602816 50.4063
21.27112693608965 50.7962
21.293780644891275 50.3887
21.316435195634053 49.7118
21.339090589297417 49.0074
21.361923832041875 48.645
21.384580921090404 47.753
21.407238856007325 47.3285
21.429897637773326 47.27
21.45273429906592 47.2502
21.475394784108598 47.1308
21.498056118951983 47.2005
21.520718304578022 47.4541
21.543558400304388 47.5157
21.566222297108816 47.5188
21.58888704765135 47.4559
21.61155265291521 47.6582
21.63439619898156 48.3113
21.657063523335786 48.9982
21.67973170537063 49.5043
21.7024007460706 49.6945
21.72524775840385 50.6323
21.747918526116475 51.5575
21.770590155457388 52.4868
21.79326264741238 54.0676
21.816113141960237 55.7468
21.838787368860547 57.8416
21.861462461341976 60.1124
21.884315579735777 62.653
21.90699241312273 64.3126
21.92967011506078 65.0012
21.95234868653799 64.9341
21.9752053151131 63.7637
21.997885635446785 61.903
22.020566828293532 59.7264
22.04324889464272 57.5971
22.066109049404666 56.1708
22.088792872571794 55.7819
22.111477572219204 55.8467
22.1341631493376 56.0421
22.157026846313123 55.861999999999995
22.179714188221507 55.2337
22.202402410582668 54.0606
22.22509151438863 52.4241
22.24795876962584 51.0322
22.270649646204486 49.986999999999995
22.293341407213727 48.9886
22.316034053646906 48.2193
22.338904883215342 47.9498
22.36159931041458 47.8104
22.38429462602756 47.6018
22.40699083104897 47.3361
22.429865251039757 47.3047
22.452563244831367 47.413999999999994
22.47526213102522 47.4119
22.49813925616515 47.3802
22.520839937143307 47.2315
22.543541513520587 47.461000000000006
22.56624398629403 47.2481
22.589124730075895 47.3521
22.611829005656723 47.4484
22.63453418063466 47.3867
22.657240256008077 47.5537
22.680124634582935 47.8021
22.70283252079775 48.1101
22.725541310413075 48.5211
22.74825100442868 48.898
22.771139033969575 49.3824
22.79385054687155 49.5786
22.81656296718292 50.3067
22.83927629590484 51.1855
22.862167992606945 51.8498
22.88488314827121 53.1665
22.907599215359284 54.2149
22.93031619487366 55.4728
22.953211574954405 56.8189
22.975930389478226 57.6875
22.998650119445763 58.0348
23.02137076586092 57.339
23.044269845560063 56.3374
23.06699233506288 54.6582
23.089715744034912 52.6133
23.112617610931565 50.8488
23.135342869061212 49.4163
23.158069049684816 48.5136
23.1807961538087 47.9698
23.20370174880544 47.8296
23.226430710184808 47.6761
23.249160598093425 47.6792
23.271891413539002 47.727
23.294800752937697 47.8016
23.31753343374794 47.9677
23.340267045128353 48.2372
23.36300158808808 48.8091
23.38591468821339 49.2068
23.408651104658304 49.8353
23.431388455719986 50.2227
23.454126742409 51.0097
23.4770436196085 51.8025
23.499783787914662 53.1548
23.522524894889884 54.3154
23.54526694154616 55.6551
23.56818761219047 57.1568
23.59093154860734 57.9635
23.613676427751283 58.5134
23.636422250635754 57.8492
23.659346731118656 56.4001
23.68209445191868 54.3009
23.704843119509587 51.9537
23.72759273490623 49.9048
23.750521041644767 48.2053
23.77327256312355 46.6988
23.796025035462787 46.0065
23.818956224555475 45.3114
23.841710609113413 45.0983
23.86446594758979 44.8902
23.887222241002014 44.5504
23.910157285144578 44.1862
23.932915498962537 44.1364
23.955674670778713 44.003
23.978434801611975 44.0188
24.001373717286125 43.8139
24.024135776723917 43.5316
24.046898798245582 43.4225
24.06966278287146 43.403
24.092605586582614 43.1856
24.115371508023642 43.0848
24.1381383956401 42.8892
24.16090625045381 42.8124
24.183852958731244 42.7167
24.206622758582608 42.6948
24.229393528706886 42.4869
24.252165270127392 42.6062
24.27511589952438 42.468999999999994
24.297889594216997 42.3269
24.32066426328598 42.1638
24.34343990775613 42.239
24.36639447485003 42.0649
24.38917208083877 42.0922
24.41195066531332 41.9721
24.43490819850244 42.0718
24.457688750692377 41.9469
24.48047028445616 41.8761
24.503252800821233 41.9103
24.526214300784112 42.0997
24.548998793132213 42.1074
24.57178427117417 41.9815
24.59457073593893 41.9302
24.617536219319863 42.0734
24.64032466834748 42.0426
24.663114107195035 42.0571
24.685904536893013 41.7586
24.708874020360852 41.6613
24.731666442613744 41.5395
24.754459858818787 41.45399999999999
24.777254270007962 41.2452
24.80022777025625 41.1921
24.82302418230472 41.2899
24.845821592443674 41.2491
24.86862000170663 41.2698
24.891597535453727 41.2314
24.914397953892728 41.2432
24.93719937456671 41.2391
24.96000179851076 41.3306
24.98298338249997 41.5212
25.00578782394922 41.7123
25.028593271784167 41.9361
25.05157790644186 42.3681
25.07438537804115 42.4087
25.097193859145293 42.8747
25.120003350792075 43.0516
25.142992065061257 43.4836
25.165803588823465 43.9107
25.18861612625217 44.086999999999996
25.211429678386736 44.1483
25.234422489079968 44.1963
25.257238081693636 44.4312
25.280054692141732 44.4681
25.3028723214652 44.4751
25.325869245420463 44.6053
25.348688923599397 44.5691
25.371509623787006 44.6054
25.394331347025812 44.3075
25.41733240110666 43.9102
25.440156181590016 43.1799
25.46298098826268 42.6084
25.48580682216873 41.938
25.50881202326435 41.4889
25.53163992281684 40.7631
25.55446885274561 40.4446
25.577298814096377 40.2137
25.600308179121807 39.9397
25.623140214533745 39.9969
25.64597328451537 39.8231
25.66898578564376 39.7049
25.691820936010206 39.5736
25.714657124097695 39.6326
25.737494350954734 39.6265
25.760511045684957 39.5798
25.783350361364224 39.5792
25.806190718969255 39.5741
25.82903211955018 39.6581
25.852053024868923 39.8393
25.874896522722523 39.9067
25.897741066713106 39.799
25.920586657892454 39.8238
25.943611790812668 40.0693
25.966459487728237 40.2047
25.989308234998564 40.1803
26.01215803367705 40.6562
26.03518741123814 40.8476
26.05803932412957 40.8541
26.080892291600094 40.9282
26.10374631470478 41.0379
26.12677995397268 41.1567
26.14963609978026 41.3443
26.172493304397875 40.9099
26.19535156888223 40.6122
26.218389486949604 40.2423
26.241249882640123 39.8181
26.26411134137826 39.5283
26.28715248187403 39.5623
26.31001607820869 39.3576
26.3328807407756 39.2266
26.35574647063438 39.4135
26.37879191991473 39.3927
26.401659795896734 39.3809
26.424528742360263 39.6105
26.447398760366614 39.7172
26.470448535598294 39.7648
26.49332070826805 40.0369
26.516193955675355 40.2492
26.53906827888316 40.5039
26.562122397260108 40.7151
26.584998883685063 41.1284
26.607876449110325 41.3945
26.63075509460056 41.6361
26.65381357334404 41.762
26.67669439061878 41.8459
26.699576291163382 41.6697
26.722459276044212 41.68899999999999
26.745522132402975 41.4157
26.768407297649354 41.1308
26.791293550442003 40.6879
26.814180891848974 40.4773
26.837248143099337 40.1904
26.860137673466657 39.9988
26.88302829566349 39.8385
26.90592001075963 39.6615
26.92899167420566 39.3821
26.951885586870763 39.0074
26.974780595655517 38.8361
26.99785558178161 38.7589
27.020752794605112 38.4885
27.043651106772522 38.3338
27.06655051935668 38.1492
27.089629948036183 37.996
27.112531573292053 37.9142
27.135434302194138 38.0163
27.158338135817015 37.9009
27.181422024430987 37.9079
27.204328079372566 37.7958
27.22723524226965 37.8104
27.250143514198573 37.8835
27.273231880156334 37.8284
27.296142382065014 37.7402
27.319053996245536 37.562
27.341966723775965 37.7571
27.365059584515222 37.6887
27.38797455070062 37.7782
27.410890633481237 37.6367
27.433807833936918 37.7052
27.456905206923906 37.9037
27.47982465472398 37.8574
27.502745223449743 37.9165
27.525666914182825 38.0243
27.548768816912457 38.0077
27.571692763693633 37.9081
27.59461783573812 37.8351
27.617723149491244 37.6174
27.640650484125285 37.4102
27.66357894728264 37.387
27.686508540048052 37.4746
27.709618414237887 37.3498
27.732550278321757 37.236999999999995
27.755483275279115 37.2004
27.778417406196485 37.2199
27.801531858397514 37.2102
27.824468269376716 37.1174
27.847405817586786 37.1746
27.870344504116094 37.2884
27.893463551932008 37.4181
27.916404527281053 37.6931
27.93934664422563 37.7305
27.962289903855886 37.8643
27.98541356491974 38.1985
28.00835912214229 38.2563
28.03130582533231 38.7327
28.054253675581805 38.8519
28.077381967556104 38.7635
28.100332124185126 38.7513
28.123283431160893 38.6923
28.146235889577238 38.5518
28.169368830154156 38.3048
28.192323603752033 38.2419
28.215279532083304 37.9553
28.238415973016764 37.8243
28.261374223145094 37.593
28.284333631303806 37.2714
28.307294198589954 37.11
28.330435319167677 36.7958
28.353398217078915 36.4982
28.376362277420153 36.2096
28.39932750129032 36.003
28.422473319286713 35.835
28.44544088262495 35.7607
28.468409612800283 35.5971
28.491379510913497 35.3922
28.51453004413313 35.3241
28.53750229057244 35.2488
28.56047570826344 35.1202
28.583450298308804 35.177
28.606605564586562 35.0435
28.629582511831156 35.0364
28.65256063474956 34.9569
28.675539934446338 34.9378
28.698699951647605 34.9534
28.72168161743193 34.7614
28.74466446331978 34.7209
28.767648490417624 34.7091
28.790813276438353 34.6914
28.813799678527303 34.7734
28.836787265157085 34.8013
28.859955641890075 34.9033
28.882945610203045 34.7746
28.905936766392035 34.7202
28.928929111566863 34.6571
28.952102288520145 34.5675
28.975097024308607 34.6573
28.998092952423807 34.5232
29.021090073977508 34.3547
29.04426806913204 34.1773
29.067267590245258 34.0352
29.090268308143695 33.9838
29.11327022394099 33.9514
29.13645305530891 33.7627
29.159457379627167 33.6629
29.18246290519685 33.654
29.20546963313352 33.5249
29.22865731875826 33.6984
29.25166646419296 33.6796
29.27467681535305 33.5057
29.29768837335608 33.6627
29.320880931312562 33.741
29.34389491580634 33.6009
29.366910110507334 33.6156
29.38992651653503 33.7742
29.41312396492981 33.7388
29.436142806456754 33.582
29.45916286268059 33.4341
29.48236399319994 33.501
29.50538649169417 33.235
29.528410208259935 33.1153
29.55143514402014 32.9377
29.574641196749695 32.8173
29.597668583816574 32.7412
29.6206971934585 32.6391
29.64372702680042 32.5288
29.666938019934474 32.4463
29.689970313635285 32.3439
29.713003834422636 32.3685
29.73603858342347 32.2867
29.759254535188578 32.1641
29.78229175361658 32.1247
29.80533020365064 32.1659
29.82836988641968 32.1973
29.85159081507472 32.0465
29.874632976355343 32.0485
29.89767637376955 32.0405
29.920721008448314 31.9912
29.9439469322847 31.9036
29.96699405457564 31.840999999999998
29.9900424175358 31.8818
30.013092022298157 31.8202
30.03632295963995 31.8213
30.059375061131373 31.8188
30.08242840783577 31.9252
30.105483000888153 31.916999999999998
30.128718970092244 31.814
30.151776069006917 31.6595
30.17483441768648 31.7647
30.198074175317235 31.7558
30.221135036724256 31.8029
30.24419715131772 31.8029
30.267260520236203 31.6955
30.290505341942243 31.701
30.313571232750228 31.7736
30.336638381310948 31.6661
30.35970678876503 31.6381
30.38295669299435 31.6462
30.40602763151657 31.5597
30.429099832366074 31.5849
30.452173296685572 31.5146
30.47542830191959 31.5527
30.498504306502497 31.5161
30.521581577995562 31.596999999999998
30.544660117543582 31.6534
30.56792024229725 31.5425
30.59100133132069 31.61
30.614083691845494 31.6091
30.637167325018545 31.7811
30.660432587840603 31.849
30.683518779717886 31.6141
30.70660624769615 31.7835
30.729694992924372 31.816
30.75296541239743 31.756999999999998
30.77605672557558 31.6462
30.799149319462742 31.6967
30.8224236211637 31.5596
30.845518789950724 31.4096
30.868615242910597 31.4013
30.891712981195973 31.2243
30.91499247215866 31.1706
30.938092794619365 31.0279
30.96119440587579 31.002
30.984297307082752 30.8639
31.00758200598383 30.7424
31.030687500658694 30.7328
31.053794288760695 30.7035
31.076902371446767 30.4965
31.100192296997445 30.5899
31.12330298246119 30.5262
31.14641496599209 30.3995
31.169528248749216 30.4424
31.19282341969534 30.406
31.215939314557186 30.5425
31.239056512134788 30.4578
31.262175013589378 30.3675
31.28547544871168 30.3796
31.30859657161541 30.2995
31.331719001892175 30.377
31.35484274070538 30.4447
31.378148458819545 30.4549
31.401274828443725 30.479
31.424402510106933 30.4117
31.447712205419993 30.4981
31.470842524931633 30.3352
31.493974159989783 30.4422
31.51710711176168 30.3945
31.54042212308802 30.378
31.563557722100917 30.3974
31.586694641341655 30.1109
31.609832881979628 30.1062
31.63315322823208 29.9663
31.656294125521327 29.9168
31.679436347728515 29.8381
31.70257989602529 29.7768
31.725905596152327 29.7363
31.74905181052835 29.6622
31.772199354521323 29.6974
31.79534822930507 29.6351
31.818679302290967 29.6422
31.84183085259981 29.6872
31.864983737233473 29.6663
31.88813795736804 29.7383
31.911474422233013 29.6027
31.934631327356435 29.711
31.9577895715215 29.631
31.980949155906522 29.5709
32.004291031706956 29.6523
32.027453310562606 29.5098
32.05061693318573 29.309
32.07396288236386 29.2995
32.09712920658542 29.2727
32.12029687812702 29.1943
32.14346589817093 29.1561
32.166817291729984 29.0634
32.18998902288583 28.8919
32.21316210610336 28.865
32.23633654256711 28.8222
32.259693399663725 28.7508
32.282870556771144 28.7143
32.30604907069099 28.6944
32.329228942610065 28.6425
32.35259128243769 28.445
32.375773884550505 28.4519
32.398957848235646 28.3979
32.422143174682176 28.3964
32.445511016471215 28.2483
32.468699082679954 28.1898
32.49188851523011 28.1986
32.51507931531304 28.1804
32.538452678331 28.1165
32.56164622776311 28.0752
32.58484114831493 28.000999999999998
32.60803744118015 27.9942
32.631416344731896 28.0404
32.654615396551876 27.9161
32.67781582427913 27.8296
32.701198898634416 27.8167
32.72440209253756 27.8292
32.747606665947124 27.7527
32.77081262006088 27.5792
32.79420126883317 27.6635
32.81740999876112 27.7028
32.840620112999424 27.6048
32.86383161274818 27.5425
32.88722585534586 27.5691
32.91044014056596 27.5902
32.933655814909734 27.5269
32.95687287957963 27.5289
32.98027273544904 27.4327
33.00349259526636 27.3471
33.026713849030116 27.385
33.04993649794511 27.3424
33.073341986570746 27.3525
33.09656744032826 27.410999999999998
33.11979429286444 27.3653
33.14302254538647 27.3457
33.166433686291185 27.2691
33.18966475336992 27.2658
33.212897224069096 27.1998
33.23613109959831 27.1933
33.259547912343415 27.1497
33.2827846121627 27.2251
33.306022720453775 27.0242
33.32926223842861 26.9979
33.352684742614166 26.9627
33.37592709463173 27.0019
33.399170859982064 26.9078
33.422597648419426 26.8069
33.44584425514446 26.7077
33.46909227885668 26.7392
33.4923417207723 26.5311
33.51577423505344 26.6193
33.539026528130385 26.4873
33.56228024307245 26.4242
33.585535381098246 26.266
33.60897364093058 26.2336
33.63223163992385 26.2359
33.6554910656699 26.2597
33.678751919389796 26.3007
33.702195944520106 26.0613
33.72545966903325 26.0913
33.74872482519663 26.0571
33.771991414233746 26.0718
33.79544122444841 26.0713
33.81871069412428 25.8901
33.84198160035767 25.9484
33.86525394437455 25.9766
33.88870955949969 25.8407
33.911984794020626 25.8082
33.93526147001624 25.8205
33.958539588715006 25.7214
33.98200102861669 25.6507
34.0052820477047 25.6699
34.02856451319451 25.5959
34.05203033759056 25.5371
34.07531571090147 25.5577
34.09860253431845 25.5375
34.121890809074316 25.4424
34.145362493118924 25.4084
34.16865368561615 25.386
34.191946333164054 25.4008
34.21524043699793 25.2714
34.23871800066799 25.2685
34.26201503218366 25.1678
34.28531352370466 25.1649
34.30861347646881 25.1002
34.33209693978188 25.0961
34.3553998301885 25.0859
34.378704185565205 25.1155
34.402010007152356 25.0236
34.42549939016683 24.8975
34.44880815937748 24.8688
34.472118398533134 24.7528
34.49543010887669 24.698
34.51892543169198 24.7076
34.54224009966052 24.6387
34.56555624255917 24.8031
34.58887386163339 24.6109
34.61237514439016 24.513
34.6356957311114 24.4389
34.65901779775809 24.4486
34.68252356662995 24.4421
34.705848608458616 24.430999999999997
34.72917513396849 24.3428
34.75250314440949 24.3529
34.77601490857862 24.3216
34.799345904259795 24.2169
34.82267838863559 24.2514
34.846012362958525 24.2156
34.869530142679984 24.1993
34.89286711232212 24.2257
34.91620557568269 24.183000000000003
34.93954553401677 24.088
34.9630693495876 24.0459
34.986412313340814 24.0926
35.00975677584668 24.0138
35.033102738362956 23.9067
35.05663261012228 23.884
35.0799815881786 23.8796
35.10333207003229 23.836
35.12668405694369 23.8826
35.150220005273056 23.8606
35.17357501786656 23.7962
35.19693153931268 23.7918
35.220289570874385 23.8145
35.24383161619786 23.7612
35.267192683604904 23.7439
35.290555264930376 23.7105
35.314101899412165 23.6403
35.33746752422433 23.6502
35.36083466676374 23.6398
35.38420332829803 23.5638
35.407756095629054 23.6248
35.43112781085063 23.5795
35.45450104888391 23.5228
35.477875810999194 23.5624
35.50143473172161 23.4609
35.52481255774625 23.5334
35.54819191167777 23.3734
35.57157279478914 23.3911
35.595137889488406 23.2934
35.61852184675279 23.3393
35.641907337029984 23.2791
35.665294361595684 23.2231
35.68886565090076 23.1031
35.7122557598848 23.1587
35.73564740699838 23.1663
35.759040593519934 23.0865
35.78261809810353 23.051
35.80601437933051 23.0026
35.829412203814705 22.9181
35.85281157283719 22.8379
35.876395313415884 22.9652
35.8997977874528 22.8449
35.92320180988546 22.7337
35.946790244133936 22.6367
35.97019737933222 22.7424
35.993606066789866 22.6842
36.01701630779276 22.6296
36.04061101440684 22.6326
36.06402437852291 22.6153
36.08743930005611 22.5701
36.1108557802951 22.4598
36.13445678011326 22.5015
36.15787639383515 22.4869
36.18129757014299 22.386
36.20472031032821 22.3477
36.22832762423364 22.302
36.25175350829375 22.324
36.275180960119776 22.2232
36.298609981005924 22.2768
36.32222362992669 22.2785
36.34565580510207 22.209
36.36908955323448 22.1622
36.39252487562093 21.9885
36.416144880530226 22.0785
36.43958336764275 22.0325
36.463023432914625 22.08
36.486465077645676 22.0021
36.51009145956204 22.0792
36.53353627947859 22.053
36.55698268276811 21.9964
36.58043067073321 21.8826
36.60406345072071 21.798000000000002
36.62751462435344 21.8278
36.65096738658405 21.7855
36.67460498210655 21.8221
36.69806093788647 21.7628
36.72151848619297 21.6958
36.744977628333636 21.6998
36.76862165890998 21.5816
36.79208400512205 21.5291
36.81554794910557 21.5595
36.83901349217101 21.4735
36.862663978991606 21.4637
36.88613273667352 21.3932
36.90960309738324 21.5155
36.933075062434064 21.3627
36.95673202673572 21.3623
36.98020721697122 21.3394
37.003684015502365 21.2671
37.027162423645365 21.2292
37.050825886711465 21.1807
37.07430753063053 21.1825
37.09779078812467 21.1375
37.121275660513014 21.0838
37.144945643673694 21.094
37.16843376245278 21.1235
37.19192350009803 21.0144
37.215414857931435 20.975
37.239091382563885 20.8772
37.262585997426164 20.901
37.28608223645736 20.8984
37.309763684451696 20.845
37.33326318851098 20.8808
37.356764320726555 20.7667
37.380267082425526 20.6994
37.40395510942588 20.6881
37.42746114683234 20.7009
37.45096881771841 20.6578
37.474478123414166 20.649
37.49817275092816 20.548000000000002
37.52168534303452 20.5668
37.54519957395567 20.5205
37.568715445024665 20.4528
37.592416694607714 20.4492
37.61593586281424 20.4915
37.63945667518264 20.4767
37.66297913304891 20.4056
37.68668702630454 20.3688
37.710212792059274 20.277
37.733740207334854 20.2607
37.757269273470364 20.1546
37.780983832050374 20.1478
37.80451621684926 20.1573
37.82805025654007 20.1231
37.851585952464795 20.0011
37.8753071980695 20.018
37.89884622345676 19.9936
37.92238690911902 19.938
37.94611318753442 19.9011
37.969657210779765 19.8822
37.99320289834801 19.9424
38.016750251586465 19.8922
38.04048325513017 19.8678
38.06403395679343 19.8274
38.087586328183946 19.7756
38.11114037065203 19.7133
38.13488012115898 19.7289
38.1584375229181 19.632
38.181996599821 19.576
38.205557353221124 19.5458
38.229303872575656 19.5796
38.2528679961576 19.6301
38.27643380031219 19.5101
38.30000128639589 19.4721
38.32375459653193 19.5263
38.34732546371299 19.5304
38.37089801690786 19.4103
38.39447225747609 19.3781
38.418232380377425 19.2695
38.441810012983396 19.3793
38.46538933705673 19.3287
38.488970353960084 19.2811
38.51273731166058 19.2407
38.536321731567014 19.1982
38.55990784840681 19.1478
38.58367995004091 19.0659
38.60726947812959 19.0876
38.63086070726198 19.1021
38.654453638806274 19.1098
38.678232613930824 19.014
38.70182896773327 18.9493
38.72542702806741 18.9058
38.7490267963045 18.9065
38.77281266709232 18.8804
38.79641586862214 18.8666
38.8200207821842 18.7501
38.843627409152944 18.7994
38.86742019782782 18.7788
38.891030269149255 18.7249
38.914642058016156 18.7441
38.938255565806124 18.7187
38.96205529464307 18.5986
38.98567225787121 18.6072
39.00929094417078 18.5944
39.03291135492255 18.5302
39.05671804624804 18.4761
39.080341923549106 18.4236
39.103967529460334 18.447
39.127594865365744 18.3888
39.15140854155791 18.3467
39.17503935514948 18.3503
39.19867190290282 18.3631
39.22249083587951 18.3502
39.24612686969409 18.3336
39.269764641845306 18.2547
39.293404153722804 18.2163
39.317230110864074 18.096
39.34087311998506 18.1175
39.36451787301696 18.164
39.388164371352595 18.0971
39.41199737518003 18.0571
39.43564738196752 18.0281
39.45929913825317 18.0376
39.48295264543308 17.9734
39.506792718520884 17.9576
39.530449745387216 17.8976
39.55410852735203 17.8735
39.57776906581474 17.8979
39.60161623079 17.8777
39.625280300200025 17.8075
39.64894613032202 17.7506
39.67261372255866 17.7488
39.6964680021016 17.7682
39.72013913657293 17.7504
39.74381203738292 17.6553
39.76748670593756 17.6587
39.79134812278169 17.6755
39.81502634488497 17.6385
39.83870633896685 17.5541
39.862388106436654 17.5235
39.88625668336918 17.469
39.90994201572829 17.5099
39.933629125719285 17.4452
39.957503091207826 17.4154
39.9811937746168 17.4623
40.00488623990914 17.3975
40.02858048850006 17.3593
40.05246165409549 17.3743
40.076159487492085 17.2981
40.099859108448875 17.2807
40.123560518384345 17.2615
40.1474489070226 17.2486
40.171153913178564 17.2066
40.194860712584955 17.1463
40.2185693066637 17.1477
40.242464941335314 17.0426
40.26617714307655 17.0249
40.289891143772046 17.018
40.3136069448471 17.0398
40.33750984859743 17.0118
40.3612292688043 16.9976
40.3849504936829 16.9478
40.40867352466194 16.8956
40.43258372059144 16.9231
40.45631038219906 16.9244
40.48003885420956 16.8401
40.503769138055105 16.8383
40.52768664931955 16.8029
40.55142057531802 16.8409
40.57515631746428 16.7122
40.599079334038514 16.6707
40.62281872700477 16.6986
40.64655994043941 16.7039
40.67030297578061 16.6828
40.69423334835778 16.602
40.71798004609188 16.5753
40.74172857006355 16.5216
40.76547892171441 16.5246
40.7894166736039 16.5433
40.813170699248566 16.5115
40.83692655691388 16.4489
40.86068424804498 16.4959
40.884629402612525 16.4106
40.908390779366385 16.4648
40.932153993938 16.405
40.95591904777605 16.3563
40.979871628443995 16.3212
41.003640379561936 16.2888
41.02741097430883 16.2647
41.05118341413683 16.2418
41.075143444384416 16.2074
41.098919593177826 16.1686
41.1226975914255 16.1645
41.14647744058318 16.0492
41.170444943946755 16.0497
41.19422851378379 16.11
41.218013938914645 16.0578
41.24198706625173 15.9784
41.26577622087193 15.9505
41.289567235177785 15.9239
41.31336011063129 15.8597
41.337340752422875 15.9004
41.361137369129835 15.9073
41.38493585138705 15.8661
41.40873620066004 15.835999999999999
41.43272438060107 15.8146
41.45652848292052 15.7298
41.48033445666918 15.7353
41.50414230331616 15.6528
41.528138045159764 15.6759
41.551949656675205 15.6685
41.575763145513235 15.5776
41.59957851314666 15.634
41.62358184070442 15.5002
41.64740098505737 15.5138
41.6712220126409 15.5497
41.69504492493139 15.5159
41.71905586207357 15.498
41.74288256296395 15.4569
41.766711153007456 15.3474
41.79054163368412 15.4121
41.814560204340054 15.4206
41.838394485526365 15.3595
41.86223066180303 15.3405
41.88625497706819 15.3061
41.910094962812 15.275
41.93393684811168 15.2016
41.95778063445365 15.1837
41.981812625263366 15.2022
42.00566023303407 15.1643
42.029509746323676 15.1066
42.05336116662236 15.1043
42.077400857069705 15.1134
42.10125611078846 15.0449
42.12511327600405 15.0214
42.14897235421036 15.034
42.173019768448455 14.9975
42.19688269209613 14.9521
42.22074753323349 14.9524
42.24461429335818 14.9385
42.268669455600495 14.8874
42.292540073217886 14.8621
42.31641261433284 14.8343
42.34028708044675 14.7852
42.36435001496739 14.7777
42.38822835065557 14.8175
42.41210861586426 14.7888
42.4359908120986 14.7214
42.46006154323262 14.7377
42.48394762115317 14.6717
42.507835634632315 14.6813
42.531912233047436 14.6082
42.55580413732265 14.5722
42.579697981698 14.4892
42.60359376768525 14.5242
42.62767820545945 14.4965
42.65157789440821 14.4745
42.67547952952185 14.4398
42.699383112316 14.4461
42.72347541395347 14.4062
42.74738291190531 14.3626
42.771292362102166 14.3568
42.795203766063516 14.3147
42.819303956130405 14.3082
42.843219287476536 14.3026
42.86713657716324 14.3089
42.89105582671383 14.2442
42.91516392983864 14.2411
42.939087119032166 14.2062
42.963012272677304 14.155
42.98693939230129 14.1499
43.01105543317513 14.1552
43.034986504731386 14.1131
43.05891954686589 14.0874
43.08285456110972 14.0521
43.10697856448665 14.0118
43.130917542983475 13.978
43.15485849820081 14.0139
43.17880143167367 14.008
43.20293342237094 13.8968
43.226880332449 13.831
43.25082922540554 13.9123
43.27496722682525 13.8778
43.29892010567796 13.8239
43.32287497204102 13.7989
43.34683182745632 13.7469
43.370977859791836 13.759
43.39493871351105 13.714
43.41890156092628 13.7537
43.44286640358341 13.7457
43.46702049182749 13.6988
43.49098934522816 13.6297
43.51496019852649 13.6207
43.5389330532723 13.6014
43.56309522248204 13.588
43.58707210044314 13.5786
43.61105098451946 13.5095
43.63503187626491 13.4868
43.659202151562134 13.4463
43.68318707902681 13.4663
43.70717401884041 13.443
43.731162972560874 13.3746
43.75534137913236 13.3201
43.779334381108384 13.3066
43.803329401683186 13.3563
43.82732644241872 13.2912
43.8515130055166 13.2635
43.87551410707659 13.2632
43.89951723350145 13.2901
43.923709934595614 13.2557
43.94771713129917 13.2227
43.97172635758096 13.1824
43.99573761501002 13.1905
44.0199385169922 13.1578
44.04395385732619 13.1065
44.067971233533086 13.0744
44.09199064718605 13.0276
44.11619977548961 13.0904
44.14022328470671 13.0386
44.16424883610785 13.0407
44.18827643127035 12.9837
44.21249381139513 12.9423
44.236525514814076 12.9261
44.26055926674478 12.9115
44.28459506876863 12.9164
44.3088207262813 12.8335
44.33286064928722 12.7951
44.35690262714919 12.8186
44.38094666145278 12.7665
44.4051806219871 12.78
44.42922879003185 12.7228
44.45327901929361 12.7013
44.477331311362136 12.6768
44.501573600619416 12.6592
44.525630039221795 12.6717
44.54968854541895 12.6543
44.573937102200176 12.6229
44.5979997645541 12.6198
44.622064499300315 12.5399
44.64613130803592 12.5341
44.67038823869318 12.5675
44.69445921643748 12.5585
44.718532272981385 12.4591
44.742607409926194 12.4482
44.76687274034801 12.447000000000001
44.79095205918753 12.3843
44.81503346325094 12.3695
44.839116954143876 12.3619
44.86339071028742 12.3377
44.88747839599524 12.3589
44.91156817336837 12.3079
44.93566004401666 12.2801
44.959942251908146 12.2493
44.984038330325966 12.2536
45.00813650686762 12.253
45.03223678314731 12.2184
45.05652746888232 12.1587
45.08063196592069 12.1169
45.104738567558705 12.0908
45.128847275414856 12.1039
45.15314646515866 12.0684
45.17725940679741 12.0806
45.20137445952892 12.0333
45.22568004865265 12.0263
45.24979934496396 11.9816
45.27392075725247 12.0305
45.29804428714431 12.0111
45.322358426247604 11.9636
45.346486212804315 11.9703
45.370616121861914 11.9489
45.39474815505086 11.9153
45.41907087049246 11.8315
45.4432071734666 11.8371
45.46734560548283 11.8415
45.49148616817604 11.8282
45.51581748638564 11.7804
45.5399623320197 11.7586
45.56410931325473 11.7494
45.58825843173002 11.7427
45.61259837920865 11.7172
45.636751793816 11.7056
45.66090735060093 11.6812
45.68506505120716 11.6515
45.7094136545275 11.6049
45.73357566449271 11.5771
45.75773982322992 11.562999999999999
45.78190613238733 11.5724
45.806263418194064 11.5134
45.83043404997326 11.5309
45.85460683713677 11.5095
45.87897065658495 11.4646
45.90314777634752 11.4305
45.92732705646868 11.4127
45.9515084986045 11.3974
45.97588104735473 11.3992
46.00006683541565 11.3263
46.02425479047904 11.3472
46.04844491420549 11.3148
46.0728262191024 11.3335
46.09702070211635 11.2502
46.12121735879483 11.2883
46.14541619080294 11.3059
46.169806278764455 11.2231
46.194009483459034 11.2109
46.21821486849841 11.1778
46.24242243555223 11.1694
46.266821333570014 11.1466
46.29103328674601 11.1061
46.31524742696538 11.1137
46.33946375590237 11.0904
46.36387149104216 11.0568
46.38809221957392 11.0101
46.41231514186606 11.0313
46.436540259597464 11.0402
46.460956858999374 11.0027
46.48518638983522 10.9694
46.509418121166966 10.9174
46.533652054678114 10.9302
46.55807754555709 10.9167
46.58231590571962 10.8814
46.60655647313217 10.8703
46.630988654873654 10.8494
46.655233659129024 10.8183
46.67948087571551 10.814
46.70373030632484 10.8023
46.72817142736393 10.804
46.752425308428684 10.7505
46.77668140861147 10.7156
46.80093972960865 10.6815
46.82538981736788 10.668
46.849652602470904 10.6456
46.87391761349769 10.6152
46.8981848521493 10.6242
46.9226439341274 10.595
46.946915650573224 10.5651
46.97118959976749 10.5356
46.99546578341598 10.529000000000002
47.019933887188216 10.5487
47.04421456235744 10.5091
47.06849747711879 10.5113
47.09278263318286 10.4896
47.11725978640143 10.4659
47.14154944775105 10.4472
47.165841355555656 10.4027
47.1901355115306 10.4209
47.214621741924994 10.3696
47.23892041698887 10.3579
47.26322134538975 10.3518
47.28771440635075 10.3438
47.31201986422527 10.299000000000001
47.33632758061436 10.2438
47.360637557241866 10.2571
47.38513974410611 10.2394
47.40945426407847 10.2029
47.43377104948137 10.2002
47.45809010204344 10.1799
47.48260144275502 10.1642
47.506925052572285 10.1386
47.53125093475548 10.1013
47.55557909103813 10.1253
47.58009961361992 10.0931
47.60443234110732 10.1022
47.62876734791564 10.0494
47.65310463578333 10.0464
47.6776343683373 10.0065
47.7019762413987 9.96648
47.72632040075572 9.9657
47.75066684815169 9.958260000000001
47.77520581885936 9.92498
47.799556865477655 9.88895
47.823910205386 9.87175
47.84826584033272 9.867980000000001
47.87281407745551 9.859110000000001
47.89717432569297 9.871269999999999
47.92153687423484 9.83955
47.94609208429692 9.81321
47.97045925671401 9.8369
47.99482873471275 9.75784
48.01920052005013 9.75568
48.04376504619224 9.73735
48.068141469543484 9.74146
48.09252020552573 9.68142
48.11690125590099 9.6737
48.1414751266064 9.66705
48.16586082917454 9.66537
48.19024885144316 9.60394
48.2146391951793 9.6058
48.239222439012764 9.6159
48.26361744916137 9.56213
48.28801478610016 9.56805
48.31241445160131 9.591389999999999
48.337007097209366 9.5407
48.36141144338331 9.509360000000001
48.38581812345755 9.48293
48.41022713920929 9.45773
48.434829215320704 9.460989999999999
48.45924292604658 9.44267
48.48365897780325 9.420919999999999
48.50807737237308 9.40175
48.532688907799276 9.40428
48.55711201168574 9.36332
48.581537463754074 9.34158
48.60615611725119 9.34164
48.63058628942721 9.344
48.65501881516546 9.32841
48.6794536962573 9.28063
48.70408185970339 9.27132
48.72852147531801 9.25191
48.75296345168211 9.22355
48.77740779059232 9.21655
48.80204549302823 9.21368
48.82649458091802 9.1959
48.85094603676547 9.17103
48.87539986237231 9.11507
48.90004713292306 9.13539
48.92450572200832 9.15104
48.94896668628025 9.097669999999999
48.97343002754588 9.06898
48.99808689542115 9.06419
49.02255501470614 9.04674
49.04702551642794 9.06692
49.0714984023988 9.025360000000001
49.096164896893235 8.99535
49.120642575466796 8.95744
49.145122643748394 8.99639
49.16960510355558 8.94929
49.19428125404938 8.916830000000001
49.2187685210852 8.93272
49.243258185121555 8.899280000000001
49.26794160167084 8.85464
49.2924360839405 8.83538
49.31693296869764 8.83078
49.34143225776915 8.78285
49.36612538195438 8.82898
49.39062950396021 8.82848
49.41513603578346 8.78773
49.4396449792564 8.75402
49.46434784069503 8.75233
49.488861631846454 8.71608
49.513377840166804 8.70707
49.537896467493745 8.68741
49.56260909589029 8.670819999999999
49.587132585683285 8.68271
49.611658500018365 8.65472
49.636186840738596 8.63968
49.66090926588511 8.62229
49.685442483902584 8.59008
49.70997813385706 8.563080000000001
49.734516217597076 8.5192
49.75924846937352 8.54975
49.7837914452858 8.53668
49.80833686055187 8.49274
49.83288471702571 8.48312
49.85762682540054 8.52035
49.882179588965734 8.45803
49.9067347993235 8.40462
49.93129245833333 8.432
49.95604445336378 8.43639
49.98060703442832 8.39007
50.005172069746266 8.38072
50.02993150438364 8.34183
50.05450147301533 8.36691
50.07907390151433 8.32118
50.10364879174981 8.33136
50.12841816587289 8.30141
50.1529980044635 8.28919
50.17758031042124 8.289069999999999
50.20216508562089 8.240960000000001
50.22694442953363 8.22268
50.25153416817468 8.19886
50.27612638170508 8.198830000000001
50.300721072005196 8.17724
50.325510416102105 8.17123
50.350110084975064 8.10892
50.37471223628208 8.144919999999999
50.39931687190919 8.14149
50.424116246675766 8.08975
50.44872587605249 8.09901
50.47333799543065 8.11922
50.49795260670191 8.09044
50.52276204271512 8.06798
50.54738166295838 8.03633
50.57200378079314 8.06275
50.596628398116835 8.033610000000001
50.62144792604559 7.998060000000001
50.646077567609396 7.95787
50.670709714377715 7.95193
50.69553683636198 7.95403
50.72017401885922 7.95222
50.7448137122895 7.911060000000001
50.76945591856022 7.900639999999999
50.79429318636823 7.881469999999999
50.818940443716784 7.8735100000000005
50.84359021965163 7.83827
50.868242516085964 7.82066
50.893089960641895 7.817069999999999
50.917747323549435 7.794580000000001
50.94240721271973 7.796310000000001
50.96706963007175 7.78688
50.99192728239342 7.79708
51.01659478166073 7.7722
51.04126481489051 7.746560000000001
51.06593738400761 7.735310000000001
51.090805275207074 7.68658
51.11548294172845 7.69838
51.14016314993547 7.68725
51.164845901758845 7.667389999999999
51.18972406304274 7.633719999999999
51.21441192780656 7.65268
51.23910234200271 7.57955
51.2637953075678 7.60434
51.288683770237945 7.5619
51.31338186432707 7.57762
51.33808251561888 7.53357
51.362978729967345 7.5529399999999995
51.387684521509755 7.52486
51.41239287610203 7.503639999999999
51.437103795691165 7.471480000000001
51.46201036644977 7.492789999999999
51.486726441956634 7.42703
51.51144508832545 7.45648
51.536166307509156 7.447960000000001
51.56108326624387 7.42282
51.58580965706056 7.371060000000001
51.61053862657523 7.360639999999999
51.635270176746864 7.35153
51.66019755512065 7.3336
51.68493429268881 7.327139999999999
51.70967361681515 7.329339999999999
51.73441552946465 7.32533
51.759353359237934 7.31575
51.7841004750961 7.29868
51.80885018539685 7.25259
51.833602492111254 7.2296
51.8585508051424 7.172789999999999
51.883308330926425 7.18158
51.90806845906181 7.1734
51.932831191525715 7.15913
51.95779001977161 7.152810000000001
51.98255798721516 7.16642
52.00732856494335 7.10645
52.03229530577543 7.1122
52.057071130455945 7.11874
52.081849571391054 7.13438
52.106630630568695 7.075010000000001
52.13160794279417 7.04748
52.15639426492067 7.05276
52.18118321127822 7.042660000000001
52.205974783860896 7.0431
52.23096269971011 6.9987699999999995
52.255759551287994 6.98112
52.280559035098186 6.9553199999999995
52.30536115314103 6.9229199999999995
52.33035970494467 6.94897
52.35516711807904 6.913069999999999
52.37997717147198 6.92196
52.40478986713005 6.9455
52.42979908731974 6.90943
52.454617094216 6.85688
52.47943774942214 6.801360000000001
52.50426105495102 6.849
52.529280976059844 6.830989999999999
52.554109609024096 6.7972399999999995
52.57894089837482 6.81657
52.60377484613117 6.758560000000001
52.62880550079408 6.798139999999999
52.65364479223379 6.747389999999999
52.67848674816189 6.716239999999999
52.70352547971946 6.71068
52.72837279155837 6.722589999999999
52.753222773982785 6.67615
52.778075429022984 6.676539999999999
52.80312495150885 6.70755
52.827982978797436 6.68047
52.85284368481815 6.637460000000001
52.87770707160767 6.63577
52.90276741793998 6.6163
52.92763619336701 6.59254
52.952507655698504 6.583760000000001
52.977381806977576 6.56618
53.00245301017842 6.55066
53.02733256653592 6.5708
53.052214817996074 6.51106
53.077099766608484 6.51748
53.102181859804446 6.51703
53.127072229988265 6.5507599999999995
53.15196530349892 6.50747
53.17686108239249 6.44923
53.20195409881522 6.47541
53.22685531582556 6.46031
53.25175924441303 6.4038900000000005
53.27666588664027 6.42954
53.30176985962693 6.39648
53.3266819565689 6.359
53.35159677336455 6.37012
53.376514312083096 6.34889
53.40162927507703 6.3683
53.42655228516116 6.315180000000001
53.45147802340193 6.32669
53.47660125628886 6.28136
53.50153247842639 6.29252
53.52646643496923 6.25675
53.55140312799818 6.22941
53.576537409691696 6.25991
53.60147960336152 6.2232199999999995
53.626424539786164 6.21344
53.65137222105307 6.20331
53.67651758529126 6.18572
53.70147078399681 6.14155
53.72642673383343 6.1237
53.75138543689533 6.16105
53.776541917524526 6.136480000000001
53.801506154876755 6.08383
53.826473151763246 6.110519999999999
53.851442910284916 6.08934
53.87661054126026 6.06449
53.9015858509782 6.07112
53.92656392866066 6.04655
53.95154477641532 6.07134
53.976723591801296 6.04826
54.00171000771266 6.0212900000000005
54.02669920004598 6.01783
54.051691170915745 5.98703
54.076881204886796 5.92404
54.101878760928514 5.96891
54.12687910187696 5.95768
54.152077577768296 5.9221
54.1770835166946 5.93469
54.20209224691339 5.9218
54.22710377055121 5.9084
54.25231352511594 5.91079
54.27733066384342 5.87933
54.30235060239643 5.83705
54.32737334290836 5.7916
54.35259441062629 5.77649
54.377622783395324 5.77905
54.40265396455061 5.76205
54.42768795623251 5.77332
54.45292037169559 5.74287
54.477960012857906 5.76931
54.50300247099511 5.722980000000001
54.52804774825457 5.72921
54.55329154616743 5.67621
54.57834249018678 5.6795599999999995
54.6033962597977 5.63851
54.6284528571545 5.6836
54.653708072335164 5.59186
54.67877035378786 5.5909
54.70383546947698 5.58014
54.72890342156389 5.578790000000001
54.7541700889442 5.52991
54.77924374251975 5.5037199999999995
54.8043202390049 5.47282
54.82959552413022 5.46859
54.8546777351945 5.46063
54.87976279569621 5.40215
54.90485070780914 5.42195
54.930137506558005 5.39785
54.95523115074295 5.4065199999999995
54.98032765308844 5.35426
55.005427015775496 5.31459
55.03072536339621 5.3572
55.05583047570572 5.2893099999999995
55.080938454927676 5.29977
55.10604930325027 5.2573
55.131359235107396 5.24555
55.15647585066083 5.18572
55.181595341907496 5.2118400000000005
55.20671771104285 5.16482
55.232039262617704 5.1054699999999995
55.25716741665048 5.12931
55.28229845518636 5.13162
55.30743238042802 5.16156
55.33276558731939 5.10002
55.357905315183636 5.06018
55.383047936390035 4.98522
55.40819345314859 4.94869
55.433538351073295 5.02024
55.458689688238415 4.9314599999999995
55.483843927614096 4.91355
55.509197623043605 4.92929
55.53435769621134 4.88168
55.55952067826466 4.8637
55.5846865714265 4.855
55.61005202069737 4.86814
55.63522376553902 4.812869999999999
55.66039842818645 4.74485
55.68557601087004 4.8017900000000004
55.7109532500271 4.74257
55.73613670233794 4.7895
