TT I
1.2716486653135266 7.24861
1.2939594142134223 7.1238
1.3162702121660406 6.43611
1.3385810600174564 6.486190000000001
1.3608919586137629 6.28914
1.383202908801069 6.40575
1.405513911425503 6.1633
1.4278249673332093 6.3719
1.4501343378461518 5.74317
1.4724455028545926 5.40452
1.4947567236847858 5.798769999999999
1.517068001182951 5.91846
1.5393793361953272 5.6857
1.5616907295681737 5.53336
1.5840021821477681 4.87994
1.60631369478041 4.86421
1.6286252683124185 5.2417
1.6509369035901333 5.41616
1.6732468618895553 4.928319999999999
1.695558623192809 5.1112
1.7178704487808514 5.07669
1.7401823395001077 4.5983
1.7625012545597203 4.45927
1.7848028405262486 4.86985
1.8071218901122095 4.764130000000001
1.8294236121921872 4.59376
1.8517427996910911 4.36164
1.8740620574440425 5.1959800000000005
1.8963639900671978 4.50915
1.9186833908139995 4.30084
1.9409854680117449 4.12624
1.9633050151394713 4.73106
1.9856246367570705 4.17759
2.0079269371922672 4.21269
2.03024671027244 4.68056
2.0525491637446027 4.271059999999999
2.074869091674931 3.90107
2.097171701569106 4.35772
2.1194917877373847 5.10999
2.141811954326636 4.92692
2.164114805233074 4.16814
2.186435135143035 4.356319999999999
2.208738150935709 5.28072
2.231058647554722 6.4520599999999995
2.2533792288321184 6.56999
2.275682498336085 5.97748
2.298003251406138 5.3579099999999995
2.3203066942619714 4.93761
2.3426276225136022 5.4873199999999995
2.3649486396617507 5.7649
2.387252348930071 5.71644
2.4095735463442893 5.92197
2.4318774374315884 6.25744
2.4541988185014043 7.189760000000001
2.476502894794693 7.318739999999999
2.498824462909887 7.510210000000001
2.521146125856138 7.09355
2.5434504863470337 7.0967199999999995
2.5657723414244717 7.363230000000001
2.588076895590662 8.32961
2.610398946189713 8.39202
2.6327210958598384 7.7965
2.6550259469304716 8.50056
2.6773482972090137 8.24335
2.6996533504259 8.42296
2.7219759047039602 8.75292
2.744298562293959 8.80451
2.7666039251246595 8.59496
2.7889267918020164 7.992889999999999
2.8112323652516555 8.233319999999999
2.833555444408179 8.29388
2.8558786311183852 8.380189999999999
2.8781845268938557 8.59484
2.9005079311721484 9.24213
2.9228140460410397 8.43548
2.9451376712799635 8.68978
2.967444008632326 9.33591
2.9897678582247247 9.80264
3.0120918213106695 10.1484
3.0343984987899373 10.5593
3.0567226913198637 10.7689
3.079029599759726 11.5189
3.101354025127254 12.1398
3.123678568232338 12.4208
3.145985829517914 13.0151
3.16831061055229 13.7069
3.1906181112775593 13.9184
3.212943133635653 14.83
3.2352682779763207 14.8475
3.2575761442691227 14.9641
3.2799015350264273 15.0973
3.302209649240067 15.4855
3.3245352898092655 16.1814
3.3468436553365257 17.0298
3.369169549113219 17.2209
3.3914955708171384 18.2244
3.413804319727358 18.65
3.4361305997334863 18.489
3.4584396084414553 18.7987
3.4807661501462652 19.6573
3.503092824025881 20.2891
3.5254022288463154 20.5897
3.5477291695206588 20.9908
3.5700388426251948 21.4626
3.5923660534916446 22.0869
3.6146934007816114 23.5171
3.637003482731501 28.2038
3.6593311053109985 29.8574
3.681641464033634 26.6199
3.7039693653009733 24.6434
3.726297407241705 24.668000000000003
3.7486081875460804 24.7131
3.7709365132734978 25.3369
3.793247578841633 25.6913
3.8155761917550093 25.8805
3.8378875459837216 26.2652
3.8602164494827234 26.9314
3.882545499606844 27.4438
3.9048572932539183 28.0757
3.9271866390645718 28.5077
3.9494987298666713 29.0391
3.971828374764527 29.7701
3.9941581705403255 29.8602
4.016470713506008 30.1818
4.038800813471445 31.3603
4.061113662089144 32.063
4.0834440696459176 32.4522
4.105774632334751 32.8507
4.128087945865126 33.5009
4.150418821249301 34.4495
4.172732448931298 35.1039
4.195063640413578 35.6883
4.2173775856475215 36.6586
4.239709096631102 39.3178
4.262040768704612 54.8745
4.284355196706267 63.7508
4.306687193387355 54.7108
4.329001947444346 44.3988
4.35133427213731 41.7678
4.373666762177566 41.9019
4.395982011761091 42.3255
4.418314834921175 43.5426
4.44063041906622 45.2828
4.4629635787515625 46.9348
4.4852969080429785 48.0578
4.5076130004776225 49.8072
4.529946671403969 54.3156
4.552263106909177 57.3927
4.574597122877047 55.0061
4.596931312711224 52.5378
4.619248269273446 52.7537
4.6415828092605835 53.4628
4.663900117405352 54.935
4.686235010953232 56.6076
4.708552674085913 57.3983
4.730887924602802 59.6216
4.753223354952695 61.1826
4.775541557023902 64.4002
4.797877349456786 67.5387
4.820195915032126 67.6965
4.842532072957498 67.5194
4.864868414979744 70.3939
4.88718753227192 74.7751
4.909524244902505 77.5817
4.931843734218147 76.4893
4.954180820867835 77.339
4.976518095879839 80.3284
4.998838149695359 83.4794
5.021175803844231 86.7298
5.043496238205739 89.6223
5.065834274903528 93.6353
5.088172504230693 98.1778
5.1104935158799565 104.25200000000001
5.132832132875765 116.667
5.155153533596801 136.084
5.1774925416746225 175.632
5.199814334878411 378.30199999999996
5.2221537374521505 1004.82
5.244493338631803 2813.2
5.266815727034316 7944.05
5.289155727832427 13816.0
5.311478517248165 8365.46
5.333818921080011 2276.13
5.356159527788849 427.19199999999995
5.3784829252032536 177.269
5.400823940070432 143.399
5.423147747031976 125.225
5.445489173474152 116.81200000000001
5.467830807066149 116.262
5.490155234831516 116.374
5.512497285125229 110.669
5.534822130975162 104.728
5.557164601388673 101.037
5.579489868738879 98.2171
5.601832762690846 96.7245
5.6241758697774475 95.9789
5.646501775867269 95.0723
5.668845311622074 94.3576
5.691171647754637 93.5678
5.713515615597765 92.3713
5.735859800852677 91.9331
5.758186788542988 93.3544
5.780531411018185 96.3731
5.802858837297399 95.8867
5.825203900414495 96.4996
5.8475491852224 97.986
5.869877275883075 97.4254
5.892223006467101 95.0836
5.914551544266608 93.8008
5.936897724049891 96.6932
5.959244129804903 104.40299999999999
5.981573344815301 132.398
6.0039202049061 243.919
6.026249875609095 474.962
6.04859719346037 969.34
6.070927323278297 2282.65
6.093275102315365 4810.04
6.115623113320588 5572.17
6.137953938319995 2917.02
6.160302415650845 816.898
6.182633708324452 193.608
6.2049826554078376 102.079
6.227331838745022 86.9036
6.249663839443684 81.4025
6.27201349767565 77.9319
6.294345974611799 76.4705
6.316696111167083 75.5901
6.339046488263839 73.4625
6.361379686074702 70.9619
6.383730546639482 69.1261
6.406064229255215 68.2516
6.428415576718203 69.2838
6.450749747566656 68.0827
6.47310158535871 65.7709
6.495453669698332 64.15899999999999
6.517788579421056 63.463
6.540141159237969 62.4606
6.562476565766648 62.0325
6.5848296444934045 62.1561
6.607182974060425 62.1182
6.6295191323281015 61.4606
6.651872965955752 60.1939
6.6742096296068985 61.1947
6.6965639707294615 65.7468
6.71891856698715 65.5875
6.741255995248479 61.3066
6.763611104154477 58.4119
6.785949046381137 57.4757
6.808304671371482 58.0455
6.8306605557940046 59.0852
6.852999275508618 58.1228
6.875355681171544 56.8077
6.897694923437771 55.812
6.92005185377892 55.4263
6.9423916220322655 55.2523
6.964749080490181 54.4808
6.987106804399774 54.7379
7.009447368180821 54.6909
7.031805625367033 54.6875
7.054146723727803 54.5923
7.076505517631004 53.8844
7.098864581288365 54.0422
7.121206488070854 53.8684
7.143566093607822 53.9085
7.165908543567245 54.8909
7.188268694426048 54.6668
7.2106291193438095 53.7309
7.232972390625943 53.2238
7.255333366030969 54.1073
7.277677189091925 58.2339
7.300038718428332 63.7613
7.322400526130865 61.5524
7.344745183422596 56.3726
7.367107550224791 53.1373
7.389452767901992 53.0635
7.411815697249891 53.4872
7.434161478756298 52.8102
7.456524974096713 52.738
7.478888753837185 52.8492
7.501235387657368 53.3278
7.523599738562711 54.1141
7.545946944825532 54.7278
7.568311870344528 55.5949
7.5906770845765665 54.6879
7.613025156078678 54.2839
7.635390950099687 54.6297
7.657739602662809 54.4581
7.680105979923558 54.9672
7.702472650212829 56.0491
7.724822180948224 55.6723
7.747189439655568 55.5294
7.769539560075357 55.1731
7.791907410653562 55.7473
7.81425812420825 55.9401
7.836626570110925 55.7516
7.858995315087906 56.7697
7.881346924933401 56.7764
7.903716270417482 57.0334
7.926068482028405 57.6635
7.948438431475253 58.5491
7.9708086843180235 59.2201
7.993161805171116 59.7148
8.015532667162402 60.2703
8.037886398416653 61.3087
8.060257873014221 61.9024
8.082629655331942 62.6048
8.104984308787587 63.3471
8.127356708900503 64.5071
8.149711981398308 67.7268
8.172085002766314 68.8873
8.194458336181368 68.1371
8.216814543847752 67.896
8.23918850371002 68.5453
8.26154533906492 69.232
8.283919928836452 71.0836
8.306277395339652 72.2616
8.328652618483376 73.3596
8.351028159736202 75.6254
8.373386579575245 77.8403
8.395762759396959 79.5906
8.418121819038275 82.0796
8.440498640894003 86.6076
8.462875785192262 96.7338
8.485235811156207 124.376
8.507613602688501 179.54
8.529974277114228 269.933
8.552352719347912 401.94
8.574731488360351 665.145
8.59709314210385 1252.17
8.619472567021075 2042.65
8.64183487789147 2363.76
8.664214962183097 1774.57
8.686577933647762 807.6389999999999
8.708958680784317 296.798
8.731339760774953 138.59799999999998
8.753703729764451 103.273
8.77608547780821 95.5745
8.798450116065078 92.9736
8.820832535634787 91.2443
8.843215292401656 91.0764
8.865580941199045 90.81700000000001
8.887964374703538 90.0608
8.910330701447199 89.7906
8.932714815164482 89.2495
8.955099270424924 86.7492
8.977466620733543 84.7781
8.999851761421976 84.5356
9.022219798361645 83.6386
9.04460562795561 83.2715
9.066991803441677 83.2194
9.089360876979615 83.7706
9.111747746589993 83.8248
9.13411751544971 82.4685
9.156505082664324 82.0512
9.178875550323522 81.657
9.20126381862328 81.663
9.223652438908596 82.5122
9.246023961427412 83.4897
9.26841328802173 83.73899999999999
9.290785518039224 83.8393
9.313175554425882 84.7699
9.335565947154315 85.5028
9.357939245086508 85.7569
9.380330352834827 84.7567
9.40270436697103 84.4672
9.425096193225055 84.5551
9.447488380180165 84.56299999999999
9.469863475295412 84.25200000000001
9.492256385987508 84.1499
9.514632206018318 84.6382
9.537025843935714 84.8537
9.559402392368193 86.2407
9.581796761000229 88.4774
9.604191496441521 89.9998
9.626569144158516 93.0504
9.648964615551032 92.8573
9.671343000390081 91.6592
9.693739211225699 91.3972
9.716135793237463 91.5148
9.738515290448102 92.137
9.760912617143402 94.0722
9.783292860202891 96.2587
9.805690935076182 98.4478
9.828089385495742 99.4439
9.850470754023561 100.079
9.872869957865444 101.804
9.89525208097539 104.96
9.917652041736662 110.71799999999999
9.940052382417589 121.932
9.962435644102392 151.122
9.984836746950979 194.655
10.007220771957746 259.132
10.029622640473708 364.796
10.052007432299963 546.136
10.074410069984072 854.11
10.096813093716005 1362.15
10.119199042482517 1904.7
10.141602840636468 2027.78
10.163989564971628 1461.31
10.186394141051062 731.2139999999999
10.208799107559706 307.797
10.231187001965623 157.732
10.253592751657669 117.40899999999999
10.275981430388155 108.398
10.298387966769793 106.036
10.320794897965431 105.07
10.343184759907361 104.20200000000001
10.36559248305461 102.74
10.387983138083852 104.21799999999999
10.410391656691655 110.98100000000001
10.432800574501677 123.315
10.455192425893369 139.395
10.47760214443012 165.86900000000003
10.499994797678786 212.093
10.522405320453982 296.97
10.54479877906917 418.778
10.567210109595656 555.365
10.5896218454736 589.7919999999999
10.612016518879773 470.59
10.634429067781074 295.024
10.656824555333241 168.571
10.679237920773568 110.82700000000001
10.701651695961992 92.4302
10.724048411481384 87.8756
10.746463008485165 85.3965
10.768860546937125 83.7352
10.791275969274796 81.9581
10.81369180576079 81.0374
10.836090585366925 80.1816
10.858507252467449 78.6939
10.88090686379991 77.9363
10.903324365036394 77.4561
10.925724811614439 76.1373
10.948143150509463 76.7266
10.970561909719066 76.1664
10.992963615930844 75.3918
11.015383218085756 74.2484
11.037785768347074 72.7643
11.06020621697282 71.8101
11.082627090322113 71.132
11.105030913430326 70.6183
11.12745263854165 70.0329
11.149857314510728 69.452
11.172279894912576 70.0015
11.194702904450653 69.3371
11.217108866490921 68.4314
11.239532736615194 67.6905
11.26193956033512 67.3444
11.284364294577085 66.9374
11.306789462371718 66.0355
11.329197585398376 65.8324
11.351623622610898 66.1861
11.37403261614354 65.3597
11.396459526308487 65.1958
11.418869393879497 65.0019
11.441297180532617 64.3935
11.463725406927658 63.7988
11.486136592353875 63.4192
11.508565700543707 63.3195
11.530977768845315 63.6375
11.553407762368774 63.0593
11.575838200059769 63.2051
11.598251599479612 62.725
11.620682927815501 62.6203
11.64309721895548 62.8087
11.665529441478206 62.342
11.687962112597958 61.9255
11.710377748130886 62.262
11.732811318753434 62.1123
11.755227854859067 61.8713
11.777662328529495 61.7867
11.800079768750786 61.9764
11.822515149015453 62.1202
11.844950984084935 62.3237
11.867369787303163 61.718
11.889806534289491 61.6296
11.912226250487029 61.918
11.934663912939751 62.3983
11.9571020346363 62.9786
11.979523127133968 63.3637
12.001962169624331 64.3722
12.024384183972964 65.907
12.046824150809913 69.3359
12.069264581333726 73.3096
12.091687985297767 79.6747
12.11412934550045 88.8737
12.136553680195208 105.236
12.158995973632788 127.648
12.181438735204349 159.958
12.20386447284199 193.45
12.226308172985636 208.859
12.24873485024193 193.815
12.271179492516982 151.062
12.293607112949127 108.016
12.316052700916226 81.6626
12.338498763250042 68.6722
12.360927805303868 64.1952
12.383374818673879 63.1498
12.405804812803074 62.8437
12.428252780773262 62.8982
12.45070122756722 63.1645
12.473132656675375 63.295
12.49558206341869 63.8425
12.518014453510101 63.816
12.540464823770117 64.1235
12.562915677315177 63.8308
12.58534951575545 64.1679
12.607801338171472 64.0515
12.630236146511358 64.7211
12.652688941369085 65.7517
12.675124723177234 66.1943
12.697578494048786 66.3691
12.720032754458185 66.0242
12.742470003354093 66.1275
12.764925245138771 66.5787
12.787363476431278 67.2909
12.809819703166806 67.6532
12.83227642391173 68.3612
12.854716135692716 69.0504
12.877173846755147 70.3258
12.899614549869717 70.5477
12.9220732548287 71.384
12.94453245827299 72.0883
12.966974655289818 72.9706
12.989434858002571 74.1233
13.011878055298721 74.7271
13.034339260862497 75.4523
13.056800969391883 76.9402
13.079245674017244 80.2994
13.101708390774869 84.6937
13.12415410463411 92.7801
13.146617833206086 102.70100000000001
13.169064559883248 113.671
13.191529303857127 128.67
13.213994557076367 152.132
13.236442809902437 189.965
13.258909083908291 250.47099999999998
13.28135835851934 325.38599999999997
13.30382565690295 398.9
13.326293469022952 447.875
13.348744283242008 414.52
13.371213125129904 319.01
13.39366497011003 216.842
13.416134845360597 146.564
13.438605238843131 112.486
13.46105863690397 104.01
13.483530069144786 106.478
13.505984506951902 112.61200000000001
13.528456981549432 123.49700000000001
13.550929978879088 138.954
13.573385983253365 163.416
13.595860028340867 203.148
13.618317081455832 258.009
13.64079217790333 327.512
13.663250283359057 379.167
13.685726434770173 387.199
13.708203115221277 325.625
13.730662806148091 240.493
13.75314054697177 163.139
13.775601299246777 114.544
13.798080104050406 91.3582
13.820559442405358 82.8988
13.843021793671388 80.3118
13.865502201420897 78.8102
13.887965623051947 78.59899999999999
13.910447103807167 77.7673
13.932929122629764 76.4261
13.955394156785959 75.9031
13.977877254034569 75.07600000000001
14.000343367582113 74.0828
14.022827546871707 73.6188
14.045294743423524 72.9884
14.06778000837062 72.1857
14.090265817715476 72.3316
14.112734645763819 71.6621
14.13522154619454 71.2077
14.157691466286913 71.2605
14.180179461423874 71.2792
14.202668005486178 70.6941
14.22513957064374 70.072
14.247629214846473 69.8632
14.270101881097517 69.0814
14.29259262906496 69.1625
14.315083930490205 69.0918
14.337558255389705 68.9217
14.360050666019726 68.7911
14.382526101071944 68.3889
14.405019624534942 68.3968
14.427513705993134 68.4027
14.449990813291825 68.2412
14.47248601302899 67.9494
14.49496423954951 68.2256
14.517460561197822 68.3644
14.539939910570322 68.0669
14.562437357763558 68.3091
14.58493536931253 68.5263
14.607416409993311 68.5901
14.62991555254159 68.8959
14.652397725157423 69.0711
14.674898002342799 69.3861
14.697398848433282 69.7438
14.719882725991326 71.336
14.74238471217934 73.6337
14.764869730765593 76.6936
14.787372860692983 79.8209
14.809876564079925 84.714
14.83236330125751 90.5584
14.854868153850365 99.6289
14.877356041159485 114.235
14.899862046604186 133.187
14.922351087688757 161.1
14.944858249632887 195.72299999999998
14.967365991421232 222.76
14.989856770231246 231.795
15.012365673994204 214.608
15.03485761569738 176.172
15.05736768508665 133.27200000000002
15.07987833888692 101.554
15.102372032001655 82.9269
15.124883856909658 73.4634
15.14737872204565 70.6803
15.169891721717274 69.4028
15.192405310371893 68.9511
15.214901940621196 68.7804
15.237416709527137 67.9422
15.259914520936249 67.6667
15.282430473753607 67.1317
15.304947020131227 66.6418
15.327446610371178 66.2807
15.349964346154254 65.93
15.372465126703139 65.8821
15.394984055556009 65.6437
15.417486030076159 65.5033
15.44000615566487 65.072
15.462526881230803 64.9633
15.485030653812652 65.075
15.507552581617434 64.9849
15.530057557334603 65.1596
15.55258069104857 65.2886
15.575104429329837 65.5732
15.597611216864632 65.2867
15.620136166564563 66.1348
15.6426441664095 67.8769
15.665170331202765 70.4368
15.687697105158826 73.0421
15.710206930593545 76.4012
15.732734925158933 81.1455
15.755245972089478 87.6087
15.77777519094324 96.9307
15.800287463046663 109.804
15.822817909869592 130.142
15.84534897229804 153.496
15.867863089299354 180.68400000000003
15.890395385222186 198.929
15.912910736597423 197.58700000000002
15.935444269699861 176.472
15.957978423016485 140.94
15.980495633101265 108.648
16.003031029129367 84.9561
16.02554948280019 70.7206
16.048086125229432 64.525
16.070623392487107 62.4558
16.09314371869582 61.6453
16.11568223789321 60.5753
16.13820381691126 59.9132
16.160743591742527 59.5516
16.183283996022084 58.9387
16.205807461423195 58.3892
16.228349126881973 57.8093
16.25087385432698 57.7096
16.27341678466365 57.294
16.29594277784926 57.1435
16.31848697676433 56.7991
16.341031811604868 56.3415
16.36355971058487 56.1901
16.3861058195587 55.9748
16.40863499352978 55.4996
16.431182380342005 55.2469
16.453730407713202 55.0115
16.476261501364792 54.7911
16.498810812136167 54.593
16.52134319004079 54.7423
16.54389378792203 54.7445
16.566445031001553 54.5019
16.588979342490088 54.4352
16.61153187824822 54.2474
16.634067483263312 53.9788
16.656621315414416 53.9485
16.679175797408888 53.6284
16.701713349928728 53.7011
16.72426913389191 53.9927
16.74680798922351 53.8018
16.76936507887444 54.0125
16.791905240734874 53.9028
16.814463639794468 53.8165
16.837022695210294 54.0233
16.859564824093756 54.2109
16.882125194503903 54.1142
16.904668639217885 54.1294
16.927230328348003 54.0705
16.949792678493612 54.4114
16.972338104193863 54.4783
16.994901778652235 54.7084
17.017448529496576 54.8074
17.040013531998152 55.2523
17.06257920018044 55.9209
17.0851279459922 56.7459
17.107694947817667 57.4502
17.130245028099072 58.4172
17.15281336730298 59.586999999999996
17.17536478578733 61.419
17.19793446610687 63.6236
17.220504818648422 66.76
17.243058251703697 70.0796
17.265629950971032 75.3418
17.288184731571736 80.4597
17.310757781306908 83.7118
17.33333150794385 83.3691
17.355888317140174 79.5005
17.37846339986244 73.0273
17.401021565958885 66.9448
17.42359800851343 63.0382
17.44617513265564 60.2392
17.468735341390783 58.9817
17.491261035594565 58.2184
17.51396340099364 58.0396
17.536490463869136 58.236999999999995
17.559018209820174 58.3041
17.58154663977963 58.4494
17.604251766089718 58.5262
17.626781572227713 58.9096
17.64931206518155 59.2035
17.671843245885103 59.43600000000001
17.69455114821572 59.4909
17.717083712612634 59.8519
17.739616967569667 60.2096
17.762150914021706 60.672
17.78486160749854 61.0001
17.807396945166804 61.9508
17.829932977143503 63.5066
17.85246970436452 64.85600000000001
17.875183204129467 66.2529
17.897721330097664 68.5044
17.920260154126645 70.7712
17.942799677153296 74.023
17.9655159983646 77.9478
17.988056927677544 83.6977
18.010598558807683 91.5018
18.033140892692916 102.291
18.05586005052525 114.74600000000001
18.07840379824407 128.379
18.10094825154059 138.931
18.12366954819864 142.90200000000002
18.146215420998306 137.17600000000002
18.16876200220057 124.478
18.191309292745153 109.03
18.214033452627167 95.436
18.236582170236648 86.8118
18.259131600016456 83.7576
18.281681742907335 85.1965
18.304408781233683 90.6411
18.32696035875955 97.6353
18.349512652227624 102.6
18.372065662579683 106.652
18.394795594587553 105.14299999999999
18.41735004715306 98.2189
18.43990521943684 89.7473
18.46246111238171 80.9428
18.485193953325208 71.7818
18.507751296070428 66.1954
18.530309362314178 63.5767
18.552868153000343 62.2446
18.57560391815056 61.032
18.59816416623245 60.6584
18.620725141597372 60.1317
18.643286845190268 59.7503
18.666025549835414 59.2507
18.688588718427933 58.8165
18.711152618092243 58.8919
18.73389353884365 58.6188
18.75645890921984 58.2809
18.77902501351406 57.8397
18.801591852673102 57.8477
18.824335739722738 57.4282
18.846904057212626 57.3534
18.8694731124168 56.9149
18.89204290628315 57.0283
18.914789774966803 56.713
18.937361054791623 56.5493
18.959933076131318 56.2296
18.982505839934877 56.1562
19.00525570560582 56.1706
19.027829963004184 55.8479
19.05040496572238 56.1534
19.072980714710468 56.2813
19.095733592739563 56.3555
19.11831084296757 56.4108
19.140888842324735 56.706
19.16346759176222 57.1042
19.18622349753803 57.6395
19.208803755869358 58.5404
19.231384767143577 60.013999999999996
19.253966532312948 61.5436
19.276725481241822 63.8936
19.29930876296784 66.4788
19.3218928014549 69.584
19.34465404436217 72.6226
19.36723960516257 74.9439
19.389825925592426 75.2163
19.412413006605938 72.8628
19.43517731967805 68.6661
19.457765930683355 64.0109
19.48035530514408 59.9559
19.50294544401556 56.9948
19.525712842708348 55.0251
19.54830451925909 53.9951
19.570896963095727 53.2301
19.593490175174704 53.0561
19.616260674962184 53.1439
19.638855432416964 52.8504
19.661450960992624 52.7589
19.68404726164677 52.7042
19.706820878021247 52.6421
19.729418731756834 52.7471
19.752017360452857 52.7071
19.77461676506804 53.0023
19.797393513540218 53.1158
19.819994478951667 53.2906
19.84259622316767 53.7103
19.8651987471481 54.0948
19.887978643247177 54.4115
19.91058273574792 54.9855
19.933187610901943 55.7046
19.955969879466828 56.9007
19.97857632894404 58.4468
20.00118356396599 60.2973
20.023791585494575 62.8437
20.046577028914875 65.9018
20.069186632506966 68.4187
20.091797025500632 70.0594
20.114408208858933 70.1138
20.137196842715273 68.9649
20.159809615886765 66.4224
20.18242318232135 63.6033
20.20503754298326 61.5882
20.227829382875154 60.8116
20.250445341109344 61.3259
20.27306209647285 62.6644
20.29567964993108 64.2542
20.31847471147704 64.9818
20.34109387027612 65.516
20.363713830075454 64.7514
20.386334591841646 62.0785
20.409132890679302 58.6071
20.431755265564437 55.7214
20.454378445325528 53.2737
20.477002430930366 51.8324
20.499803982716553 50.9095
20.522429589228004 50.1807
20.54505600449589 49.5951
20.567683229489194 49.5758
20.590488049900088 49.4467
20.61311690359731 49.4259
20.63574656993626 49.2074
20.658553853717297 48.7698
20.681185154618298 48.9111
20.703817271080066 48.6926
20.72645020407368 48.4958
20.749260783967177 48.5475
20.771895359337133 48.3208
20.794530754161617 48.2124
20.817166969412938 48.2362
20.83998086114876 48.1456
20.86261872660049 48.0098
20.885257415405402 48.0544
20.90789692853701 47.9167
20.930714147864748 47.909
20.953355319030678 48.1983
20.97599731745334 48.0674
20.99864014410749 47.8618
21.021460706796564 47.9828
21.044105199328826 48.0585
21.06675052302631 48.2864
21.089396678865015 48.6745
21.112220600704806 48.8948
21.134868430275347 49.2719
21.15751709492456 49.4672
21.180166595629693 49.8612
21.202993892429635 50.4937
21.22564507473034 50.8944
21.24829709602816 51.0447
21.27112693608965 50.773999999999994
21.293780644891275 50.5212
21.316435195634053 49.7558
21.339090589297417 48.99
21.361923832041875 48.6503
21.384580921090404 48.0255
21.407238856007325 47.7211
21.429897637773326 47.6726
21.45273429906592 47.7104
21.475394784108598 47.7972
21.498056118951983 47.8403
21.520718304578022 48.0915
21.543558400304388 48.1481
21.566222297108816 48.2945
21.58888704765135 48.5983
21.61155265291521 48.825
21.63439619898156 49.1861
21.657063523335786 49.4331
21.67973170537063 49.9715
21.7024007460706 50.3932
21.72524775840385 51.1293
21.747918526116475 52.4332
21.770590155457388 53.5796
21.79326264741238 55.1476
21.816113141960237 57.0785
21.838787368860547 59.0045
21.861462461341976 61.4178
21.884315579735777 63.6598
21.90699241312273 64.602
21.92967011506078 64.3185
21.95234868653799 62.9035
21.9752053151131 60.9397
21.997885635446785 58.8864
22.020566828293532 57.1362
22.04324889464272 55.742
22.066109049404666 55.3394
22.088792872571794 55.3935
22.111477572219204 55.5695
22.1341631493376 55.7294
22.157026846313123 55.3528
22.179714188221507 54.0594
22.202402410582668 52.7138
22.22509151438863 51.1278
22.24795876962584 49.8873
22.270649646204486 49.2641
22.293341407213727 48.6707
22.316034053646906 48.3205
22.338904883215342 48.2661
22.36159931041458 48.1147
22.38429462602756 48.0831
22.40699083104897 47.7506
22.429865251039757 47.8643
22.452563244831367 47.7614
22.47526213102522 47.8713
22.49813925616515 47.8893
22.520839937143307 47.7972
22.543541513520587 47.9123
22.56624398629403 47.7126
22.589124730075895 47.5961
22.611829005656723 48.1776
22.63453418063466 48.1573
22.657240256008077 48.3374
22.680124634582935 48.3882
22.70283252079775 48.6643
22.725541310413075 48.8721
22.74825100442868 49.1899
22.771139033969575 49.6611
22.79385054687155 49.8916
22.81656296718292 50.5403
22.83927629590484 51.5462
22.862167992606945 52.6922
22.88488314827121 53.9785
22.907599215359284 54.9983
22.93031619487366 56.0749
22.953211574954405 57.199
22.975930389478226 57.6354
22.998650119445763 57.11
23.02137076586092 56.013000000000005
23.044269845560063 54.2903
23.06699233506288 52.4885
23.089715744034912 50.9027
23.112617610931565 49.5338
23.135342869061212 48.7222
23.158069049684816 48.3039
23.1807961538087 48.1224
23.20370174880544 48.1108
23.226430710184808 48.1878
23.249160598093425 48.2686
23.271891413539002 48.2566
23.294800752937697 48.3226
23.31753343374794 48.4386
23.340267045128353 48.6713
23.36300158808808 48.9702
23.38591468821339 49.2057
23.408651104658304 49.6499
23.431388455719986 50.3988
23.454126742409 51.2071
23.4770436196085 52.331
23.499783787914662 53.7085
23.522524894889884 54.9132
23.54526694154616 56.285
23.56818761219047 57.3879
23.59093154860734 57.7134
23.613676427751283 57.2965
23.636422250635754 55.7291
23.659346731118656 53.8363
23.68209445191868 51.7492
23.704843119509587 49.6854
23.72759273490623 48.0146
23.750521041644767 46.8574
23.77327256312355 46.137
23.796025035462787 45.7203
23.818956224555475 45.3502
23.841710609113413 45.1962
23.86446594758979 45.0048
23.887222241002014 44.8216
23.910157285144578 44.4208
23.932915498962537 44.5582
23.955674670778713 44.3203
23.978434801611975 44.1301
24.001373717286125 44.1582
24.024135776723917 44.0432
24.046898798245582 43.8956
24.06966278287146 43.8296
24.092605586582614 43.494
24.115371508023642 43.376000000000005
24.1381383956401 43.3278
24.16090625045381 43.3284
24.183852958731244 43.2879
24.206622758582608 43.089
24.229393528706886 42.9099
24.252165270127392 43.0136
24.27511589952438 43.0051
24.297889594216997 42.7114
24.32066426328598 42.6133
24.34343990775613 42.4821
24.36639447485003 42.5183
24.38917208083877 42.4515
24.41195066531332 42.3803
24.43490819850244 42.5569
24.457688750692377 42.3232
24.48047028445616 42.287
24.503252800821233 42.3309
24.526214300784112 42.5709
24.548998793132213 42.387
24.57178427117417 42.4083
24.59457073593893 42.2688
24.617536219319863 42.2169
24.64032466834748 42.2143
24.663114107195035 42.0848
24.685904536893013 42.013000000000005
24.708874020360852 41.9173
24.731666442613744 41.7311
24.754459858818787 41.7918
24.777254270007962 41.662
24.80022777025625 41.6674
24.82302418230472 41.6096
24.845821592443674 41.6236
24.86862000170663 41.7067
24.891597535453727 41.5411
24.914397953892728 41.7664
24.93719937456671 41.8022
24.96000179851076 41.8469
24.98298338249997 42.1761
25.00578782394922 42.235
25.028593271784167 42.4343
25.05157790644186 42.7391
25.07438537804115 42.9694
25.097193859145293 43.2492
25.120003350792075 43.4386
25.142992065061257 43.7633
25.165803588823465 43.9517
25.18861612625217 43.9558
25.211429678386736 44.0505
25.234422489079968 44.0135
25.257238081693636 44.1317
25.280054692141732 44.1253
25.3028723214652 44.3889
25.325869245420463 44.4398
25.348688923599397 44.4891
25.371509623787006 44.3174
25.394331347025812 43.8826
25.41733240110666 43.2884
25.440156181590016 42.516000000000005
25.46298098826268 42.0739
25.48580682216873 41.5558
25.50881202326435 41.1113
25.53163992281684 40.6162
25.55446885274561 40.4775
25.577298814096377 40.2505
25.600308179121807 40.2835
25.623140214533745 40.4624
25.64597328451537 40.204
25.66898578564376 39.7268
25.691820936010206 40.0206
25.714657124097695 39.9395
25.737494350954734 40.0733
25.760511045684957 39.8726
25.783350361364224 39.9577
25.806190718969255 39.8638
25.82903211955018 39.9659
25.852053024868923 39.9847
25.874896522722523 39.9739
25.897741066713106 39.9273
25.920586657892454 40.2449
25.943611790812668 40.2819
25.966459487728237 40.4456
25.989308234998564 40.4893
26.01215803367705 40.8711
26.03518741123814 40.9362
26.05803932412957 41.2107
26.080892291600094 41.1308
26.10374631470478 41.2503
26.12677995397268 41.206
26.14963609978026 41.0195
26.172493304397875 40.6486
26.19535156888223 40.3955
26.218389486949604 40.0203
26.241249882640123 39.8045
26.26411134137826 39.6681
26.28715248187403 39.7564
26.31001607820869 39.5466
26.3328807407756 39.4182
26.35574647063438 39.6292
26.37879191991473 39.5451
26.401659795896734 39.6695
26.424528742360263 39.8008
26.447398760366614 39.9107
26.470448535598294 40.0505
26.49332070826805 40.1059
26.516193955675355 40.4415
26.53906827888316 40.634
26.562122397260108 40.8121
26.584998883685063 41.2915
26.607876449110325 41.6407
26.63075509460056 41.7644
26.65381357334404 41.8717
26.67669439061878 41.5435
26.699576291163382 41.4039
26.722459276044212 41.1641
26.745522132402975 40.8752
26.768407297649354 40.7685
26.791293550442003 40.4908
26.814180891848974 40.2309
26.837248143099337 40.0149
26.860137673466657 39.9267
26.88302829566349 39.578
26.90592001075963 39.4068
26.92899167420566 39.1438
26.951885586870763 38.9107
26.974780595655517 38.7462
26.99785558178161 38.5482
27.020752794605112 38.3918
27.043651106772522 38.2791
27.06655051935668 38.2883
27.089629948036183 38.2031
27.112531573292053 38.1292
27.135434302194138 38.3056
27.158338135817015 38.0547
27.181422024430987 38.0691
27.204328079372566 38.0598
27.22723524226965 38.0537
27.250143514198573 38.0186
27.273231880156334 38.0795
27.296142382065014 37.8343
27.319053996245536 37.6897
27.341966723775965 37.7194
27.365059584515222 37.9055
27.38797455070062 37.9126
27.410890633481237 37.9178
27.433807833936918 37.9689
27.456905206923906 38.1198
27.47982465472398 38.0375
27.502745223449743 38.0877
27.525666914182825 38.2075
27.548768816912457 38.0484
27.571692763693633 37.9614
27.59461783573812 37.8188
27.617723149491244 37.6012
27.640650484125285 37.4872
27.66357894728264 37.5929
27.686508540048052 37.5804
27.709618414237887 37.4537
27.732550278321757 37.3667
27.755483275279115 37.172
27.778417406196485 37.3104
27.801531858397514 37.3369
27.824468269376716 37.345
27.847405817586786 37.3586
27.870344504116094 37.5053
27.893463551932008 37.5435
27.916404527281053 37.772
27.93934664422563 37.9463
27.962289903855886 38.0814
27.98541356491974 38.1939
28.00835912214229 38.364000000000004
28.03130582533231 38.5988
28.054253675581805 38.6585
28.077381967556104 38.6421
28.100332124185126 38.6022
28.123283431160893 38.3677
28.146235889577238 38.2573
28.169368830154156 38.0083
28.192323603752033 37.9301
28.215279532083304 37.7985
28.238415973016764 37.4384
28.261374223145094 37.2499
28.284333631303806 36.9865
28.307294198589954 36.7993
28.330435319167677 36.5647
28.353398217078915 36.2978
28.376362277420153 36.1247
28.39932750129032 35.9869
28.422473319286713 35.7716
28.44544088262495 35.8819
28.468409612800283 35.7456
28.491379510913497 35.4116
28.51453004413313 35.4359
28.53750229057244 35.3692
28.56047570826344 35.2784
28.583450298308804 35.3504
28.606605564586562 35.2039
28.629582511831156 35.2767
28.65256063474956 35.093
28.675539934446338 35.1017
28.698699951647605 35.092
28.72168161743193 35.084
28.74466446331978 34.9774
28.767648490417624 34.9102
28.790813276438353 34.9339
28.813799678527303 34.921
28.836787265157085 34.9399
28.859955641890075 34.873000000000005
28.882945610203045 34.9369
28.905936766392035 34.8494
28.928929111566863 34.8747
28.952102288520145 34.7497
28.975097024308607 34.6433
28.998092952423807 34.4164
29.021090073977508 34.4913
29.04426806913204 34.3913
29.067267590245258 34.1225
29.090268308143695 34.1617
29.11327022394099 34.0401
29.13645305530891 34.0305
29.159457379627167 33.8809
29.18246290519685 33.8617
29.20546963313352 33.8225
29.22865731875826 33.8544
29.25166646419296 33.8211
29.27467681535305 33.6475
29.29768837335608 33.7976
29.320880931312562 33.8259
29.34389491580634 33.8981
29.366910110507334 33.7539
29.38992651653503 33.7456
29.41312396492981 33.8251
29.436142806456754 33.6449
29.45916286268059 33.6003
29.48236399319994 33.4422
29.50538649169417 33.2112
29.528410208259935 33.2219
29.55143514402014 32.9675
29.574641196749695 32.8235
29.597668583816574 32.7551
29.6206971934585 32.634
29.64372702680042 32.6633
29.666938019934474 32.6066
29.689970313635285 32.5211
29.713003834422636 32.5518
29.73603858342347 32.4577
29.759254535188578 32.4145
29.78229175361658 32.3307
29.80533020365064 32.37
29.82836988641968 32.4462
29.85159081507472 32.3149
29.874632976355343 32.2287
29.89767637376955 32.3898
29.920721008448314 32.1899
29.9439469322847 32.2014
29.96699405457564 32.0377
29.9900424175358 32.0799
30.013092022298157 32.1213
30.03632295963995 32.008
30.059375061131373 31.8737
30.08242840783577 32.0312
30.105483000888153 32.1449
30.128718970092244 32.0084
30.151776069006917 31.9799
30.17483441768648 32.0218
30.198074175317235 31.8868
30.221135036724256 31.9498
30.24419715131772 31.9436
30.267260520236203 31.8189
30.290505341942243 31.901999999999997
30.313571232750228 31.8849
30.336638381310948 31.8861
30.35970678876503 31.8755
30.38295669299435 31.6962
30.40602763151657 31.8142
30.429099832366074 31.7002
30.452173296685572 31.6121
30.47542830191959 31.6872
30.498504306502497 31.509
30.521581577995562 31.6059
30.544660117543582 31.7274
30.56792024229725 31.6501
30.59100133132069 31.6459
30.614083691845494 31.781999999999996
30.637167325018545 31.8043
30.660432587840603 31.8757
30.683518779717886 31.8171
30.70660624769615 31.868000000000002
30.729694992924372 31.7677
30.75296541239743 31.7721
30.77605672557558 31.7089
30.799149319462742 31.6661
30.8224236211637 31.4338
30.845518789950724 31.4249
30.868615242910597 31.3974
30.891712981195973 31.203000000000003
30.91499247215866 31.0846
30.938092794619365 31.0963
30.96119440587579 31.0979
30.984297307082752 30.994
31.00758200598383 30.877
31.030687500658694 30.7592
31.053794288760695 30.6696
31.076902371446767 30.5784
31.100192296997445 30.7292
31.12330298246119 30.6788
31.14641496599209 30.4998
31.169528248749216 30.6141
31.19282341969534 30.4571
31.215939314557186 30.4101
31.239056512134788 30.5295
31.262175013589378 30.4571
31.28547544871168 30.4118
31.30859657161541 30.3578
31.331719001892175 30.4493
31.35484274070538 30.5347
31.378148458819545 30.4934
31.401274828443725 30.3936
31.424402510106933 30.5276
31.447712205419993 30.5454
31.470842524931633 30.3877
31.493974159989783 30.4091
31.51710711176168 30.3491
31.54042212308802 30.3798
31.563557722100917 30.2492
31.586694641341655 30.0556
31.609832881979628 30.0658
31.63315322823208 29.9812
31.656294125521327 30.0111
31.679436347728515 29.8393
31.70257989602529 29.7769
31.725905596152327 29.7422
31.74905181052835 29.7473
31.772199354521323 29.7447
31.79534822930507 29.7395
31.818679302290967 29.7744
31.84183085259981 29.8207
31.864983737233473 29.7452
31.88813795736804 29.7407
31.911474422233013 29.6088
31.934631327356435 29.6854
31.9577895715215 29.6907
31.980949155906522 29.642
32.004291031706956 29.476999999999997
32.027453310562606 29.4499
32.05061693318573 29.38
32.07396288236386 29.4047
32.09712920658542 29.3088
32.12029687812702 29.2059
32.14346589817093 29.111
32.166817291729984 29.0471
32.18998902288583 29.0157
32.21316210610336 28.9788
32.23633654256711 28.9892
32.259693399663725 28.8298
32.282870556771144 28.7385
32.30604907069099 28.7876
32.329228942610065 28.6468
32.35259128243769 28.4857
32.375773884550505 28.555999999999997
32.398957848235646 28.5768
32.422143174682176 28.5318
32.445511016471215 28.3358
32.468699082679954 28.3544
32.49188851523011 28.3911
32.51507931531304 28.2303
32.538452678331 28.2453
32.56164622776311 28.217
32.58484114831493 28.0415
32.60803744118015 28.1808
32.631416344731896 28.2211
32.654615396551876 28.0686
32.67781582427913 27.9942
32.701198898634416 28.022
32.72440209253756 27.9147
32.747606665947124 27.8767
32.77081262006088 27.7432
32.79420126883317 27.7647
32.81740999876112 27.8222
32.840620112999424 27.6995
32.86383161274818 27.5408
32.88722585534586 27.6309
32.91044014056596 27.6952
32.933655814909734 27.5231
32.95687287957963 27.5879
32.98027273544904 27.5633
33.00349259526636 27.5134
33.026713849030116 27.4876
33.04993649794511 27.4141
33.073341986570746 27.4225
33.09656744032826 27.4523
33.11979429286444 27.4321
33.14302254538647 27.4656
33.166433686291185 27.37
33.18966475336992 27.3401
33.212897224069096 27.2348
33.23613109959831 27.2511
33.259547912343415 27.2124
33.2827846121627 27.2257
33.306022720453775 27.1762
33.32926223842861 27.041999999999998
33.352684742614166 26.9803
33.37592709463173 26.9864
33.399170859982064 26.9143
33.422597648419426 26.811999999999998
33.44584425514446 26.6733
33.46909227885668 26.6332
33.4923417207723 26.6088
33.51577423505344 26.6485
33.539026528130385 26.4777
33.56228024307245 26.4795
33.585535381098246 26.3597
33.60897364093058 26.4335
33.63223163992385 26.3478
33.6554910656699 26.3011
33.678751919389796 26.3051
33.702195944520106 26.3227
33.72545966903325 26.2891
33.74872482519663 26.124000000000002
33.771991414233746 26.1352
33.79544122444841 26.1366
33.81871069412428 26.0765
33.84198160035767 26.0432
33.86525394437455 26.0365
33.88870955949969 25.8864
33.911984794020626 25.8963
33.93526147001624 25.9417
33.958539588715006 25.8286
33.98200102861669 25.7577
34.0052820477047 25.7376
34.02856451319451 25.73
34.05203033759056 25.6264
34.07531571090147 25.6182
34.09860253431845 25.5543
34.121890809074316 25.5167
34.145362493118924 25.4909
34.16865368561615 25.488000000000003
34.191946333164054 25.4298
34.21524043699793 25.423000000000002
34.23871800066799 25.3669
34.26201503218366 25.3019
34.28531352370466 25.3017
34.30861347646881 25.1609
34.33209693978188 25.1705
34.3553998301885 25.1691
34.378704185565205 25.0431
34.402010007152356 25.0606
34.42549939016683 25.003
34.44880815937748 24.9374
34.472118398533134 24.9354
34.49543010887669 24.8609
34.51892543169198 24.7297
34.54224009966052 24.7501
34.56555624255917 24.7991
34.58887386163339 24.6883
34.61237514439016 24.5507
34.6356957311114 24.6012
34.65901779775809 24.5911
34.68252356662995 24.4991
34.705848608458616 24.5125
34.72917513396849 24.4925
34.75250314440949 24.4763
34.77601490857862 24.3678
34.799345904259795 24.3774
34.82267838863559 24.3624
34.846012362958525 24.359
34.869530142679984 24.2949
34.89286711232212 24.281999999999996
34.91620557568269 24.28
34.93954553401677 24.1934
34.9630693495876 24.1567
34.986412313340814 24.2005
35.00975677584668 24.0355
35.033102738362956 24.0441
35.05663261012228 24.0191
35.0799815881786 24.0157
35.10333207003229 23.8808
35.12668405694369 23.9787
35.150220005273056 23.9502
35.17357501786656 23.9442
35.19693153931268 23.8626
35.220289570874385 23.8161
35.24383161619786 23.7743
35.267192683604904 23.822
35.290555264930376 23.7542
35.314101899412165 23.7699
35.33746752422433 23.8111
35.36083466676374 23.7507
35.38420332829803 23.656
35.407756095629054 23.7104
35.43112781085063 23.7308
35.45450104888391 23.6701
35.477875810999194 23.6596
35.50143473172161 23.4851
35.52481255774625 23.5589
35.54819191167777 23.4871
35.57157279478914 23.49
35.595137889488406 23.4311
35.61852184675279 23.3527
35.641907337029984 23.2862
35.665294361595684 23.2445
35.68886565090076 23.1285
35.7122557598848 23.1801
35.73564740699838 23.1355
35.759040593519934 23.1517
35.78261809810353 23.1029
35.80601437933051 23.0608
35.829412203814705 22.9464
35.85281157283719 22.9344
35.876395313415884 22.9835
35.8997977874528 22.8894
35.92320180988546 22.9287
35.946790244133936 22.7778
35.97019737933222 22.7783
35.993606066789866 22.7871
36.01701630779276 22.7059
36.04061101440684 22.6533
36.06402437852291 22.738000000000003
36.08743930005611 22.6513
36.1108557802951 22.5729
36.13445678011326 22.5815
36.15787639383515 22.6182
36.18129757014299 22.5403
36.20472031032821 22.4624
36.22832762423364 22.3831
36.25175350829375 22.3538
36.275180960119776 22.4023
36.298609981005924 22.2848
36.32222362992669 22.2968
36.34565580510207 22.2992
36.36908955323448 22.2387
36.39252487562093 22.1307
36.416144880530226 22.0807
36.43958336764275 22.1177
36.463023432914625 22.0804
36.486465077645676 22.0313
36.51009145956204 22.1629
36.53353627947859 22.0373
36.55698268276811 22.0097
36.58043067073321 21.9983
36.60406345072071 21.9219
36.62751462435344 21.875999999999998
36.65096738658405 21.8686
36.67460498210655 21.7539
36.69806093788647 21.8134
36.72151848619297 21.7411
36.744977628333636 21.8315
36.76862165890998 21.6873
36.79208400512205 21.6092
36.81554794910557 21.7025
36.83901349217101 21.5868
36.862663978991606 21.5495
36.88613273667352 21.4194
36.90960309738324 21.4651
36.933075062434064 21.4525
36.95673202673572 21.4398
36.98020721697122 21.3756
37.003684015502365 21.3374
37.027162423645365 21.2116
37.050825886711465 21.2212
37.07430753063053 21.1845
37.09779078812467 21.1507
37.121275660513014 21.1687
37.144945643673694 21.0859
37.16843376245278 21.1164
37.19192350009803 21.109
37.215414857931435 21.0294
37.239091382563885 21.0003
37.262585997426164 20.9854
37.28608223645736 20.9491
37.309763684451696 20.9275
37.33326318851098 20.9274
37.356764320726555 20.7568
37.380267082425526 20.8275
37.40395510942588 20.765
37.42746114683234 20.7865
37.45096881771841 20.7048
37.474478123414166 20.74
37.49817275092816 20.5936
37.52168534303452 20.611
37.54519957395567 20.5152
37.568715445024665 20.4892
37.592416694607714 20.486
37.61593586281424 20.5063
37.63945667518264 20.5092
37.66297913304891 20.3387
37.68668702630454 20.3906
37.710212792059274 20.2905
37.733740207334854 20.2993
37.757269273470364 20.2732
37.780983832050374 20.2534
37.80451621684926 20.28
37.82805025654007 20.2366
37.851585952464795 20.1826
37.8753071980695 20.0536
37.89884622345676 20.0106
37.92238690911902 20.0324
37.94611318753442 20.0075
37.969657210779765 19.936
37.99320289834801 20.0077
38.016750251586465 19.9725
38.04048325513017 19.9159
38.06403395679343 19.8942
38.087586328183946 19.8044
38.11114037065203 19.7484
38.13488012115898 19.8
38.1584375229181 19.7353
38.181996599821 19.6597
38.205557353221124 19.6239
38.229303872575656 19.6303
38.2528679961576 19.663
38.27643380031219 19.5537
38.30000128639589 19.5483
38.32375459653193 19.4979
38.34732546371299 19.5108
38.37089801690786 19.4436
38.39447225747609 19.3586
38.418232380377425 19.3661
38.441810012983396 19.4271
38.46538933705673 19.3411
38.488970353960084 19.3398
38.51273731166058 19.268
38.536321731567014 19.2181
38.55990784840681 19.206
38.58367995004091 19.1866
38.60726947812959 19.1183
38.63086070726198 19.1415
38.654453638806274 19.1161
38.678232613930824 19.0248
38.70182896773327 18.9915
38.72542702806741 19.0069
38.7490267963045 18.9274
38.77281266709232 18.9297
38.79641586862214 18.9245
38.8200207821842 18.8909
38.843627409152944 18.855
38.86742019782782 18.8077
38.891030269149255 18.7418
38.914642058016156 18.7416
38.938255565806124 18.6442
38.96205529464307 18.7033
38.98567225787121 18.6112
39.00929094417078 18.637
39.03291135492255 18.6421
39.05671804624804 18.5823
39.080341923549106 18.5467
39.103967529460334 18.5198
39.127594865365744 18.5003
39.15140854155791 18.4382
39.17503935514948 18.4063
39.19867190290282 18.4262
39.22249083587951 18.4038
39.24612686969409 18.3436
39.269764641845306 18.3639
39.293404153722804 18.3461
39.317230110864074 18.1969
39.34087311998506 18.1485
39.36451787301696 18.1664
39.388164371352595 18.1888
39.41199737518003 18.1086
39.43564738196752 18.1171
39.45929913825317 18.0569
39.48295264543308 18.0651
39.506792718520884 17.9945
39.530449745387216 17.9612
39.55410852735203 17.957
39.57776906581474 17.9585
39.60161623079 17.9551
39.625280300200025 17.8605
39.64894613032202 17.8483
39.67261372255866 17.8364
39.6964680021016 17.7985
39.72013913657293 17.8074
39.74381203738292 17.7662
39.76748670593756 17.6936
39.79134812278169 17.6971
39.81502634488497 17.7123
39.83870633896685 17.6139
39.862388106436654 17.4917
39.88625668336918 17.5387
39.90994201572829 17.588
39.933629125719285 17.543
39.957503091207826 17.4514
39.9811937746168 17.4954
40.00488623990914 17.4486
40.02858048850006 17.4103
40.05246165409549 17.3598
40.076159487492085 17.31
40.099859108448875 17.3007
40.123560518384345 17.2961
40.1474489070226 17.2565
40.171153913178564 17.1719
40.194860712584955 17.1981
40.2185693066637 17.2408
40.242464941335314 17.1812
40.26617714307655 17.064
40.289891143772046 17.1194
40.3136069448471 17.0759
40.33750984859743 17.0764
40.3612292688043 17.005
40.3849504936829 17.0098
40.40867352466194 16.965
40.43258372059144 16.9481
40.45631038219906 16.9797
40.48003885420956 16.9115
40.503769138055105 16.8486
40.52768664931955 16.8547
40.55142057531802 16.8023
40.57515631746428 16.8097
40.599079334038514 16.7503
40.62281872700477 16.6895
40.64655994043941 16.6389
40.67030297578061 16.6384
40.69423334835778 16.651
40.71798004609188 16.6271
40.74172857006355 16.5543
40.76547892171441 16.5857
40.7894166736039 16.5651
40.813170699248566 16.4834
40.83692655691388 16.4703
40.86068424804498 16.4677
40.884629402612525 16.4688
40.908390779366385 16.4344
40.932153993938 16.3191
40.95591904777605 16.3188
40.979871628443995 16.382
41.003640379561936 16.3387
41.02741097430883 16.2919
41.05118341413683 16.3081
41.075143444384416 16.262
41.098919593177826 16.2407
41.1226975914255 16.1736
41.14647744058318 16.1375
41.170444943946755 16.0995
41.19422851378379 16.0932
41.218013938914645 16.0346
41.24198706625173 15.9685
41.26577622087193 15.9992
41.289567235177785 16.0122
41.31336011063129 15.9314
41.337340752422875 15.8776
41.361137369129835 15.9355
41.38493585138705 15.9193
41.40873620066004 15.8459
41.43272438060107 15.8332
41.45652848292052 15.741
41.48033445666918 15.7605
41.50414230331616 15.7373
41.528138045159764 15.6959
41.551949656675205 15.6832
41.575763145513235 15.6975
41.59957851314666 15.6058
41.62358184070442 15.59
41.64740098505737 15.5934
41.6712220126409 15.5561
41.69504492493139 15.4917
41.71905586207357 15.4827
41.74288256296395 15.4816
41.766711153007456 15.4533
41.79054163368412 15.4526
41.814560204340054 15.4133
41.838394485526365 15.3993
41.86223066180303 15.3817
41.88625497706819 15.3375
41.910094962812 15.3546
41.93393684811168 15.2697
41.95778063445365 15.1949
41.981812625263366 15.197000000000001
42.00566023303407 15.2195
42.029509746323676 15.175999999999998
42.05336116662236 15.1208
42.077400857069705 15.1065
42.10125611078846 15.1337
42.12511327600405 15.0656
42.14897235421036 15.0383
42.173019768448455 15.0188
42.19688269209613 14.9498
42.22074753323349 14.9252
42.24461429335818 14.895
42.268669455600495 14.9621
42.292540073217886 14.9514
42.31641261433284 14.8789
42.34028708044675 14.8095
42.36435001496739 14.8275
42.38822835065557 14.8293
42.41210861586426 14.8022
42.4359908120986 14.7862
42.46006154323262 14.7156
42.48394762115317 14.6728
42.507835634632315 14.7104
42.531912233047436 14.7175
42.55580413732265 14.6518
42.579697981698 14.5989
42.60359376768525 14.6009
42.62767820545945 14.6067
42.65157789440821 14.5563
42.67547952952185 14.525
42.699383112316 14.5303
42.72347541395347 14.4206
42.74738291190531 14.3486
42.771292362102166 14.3858
42.795203766063516 14.3154
42.819303956130405 14.3472
42.843219287476536 14.3234
42.86713657716324 14.3096
42.89105582671383 14.2749
42.91516392983864 14.273
42.939087119032166 14.2463
42.963012272677304 14.1967
42.98693939230129 14.1758
43.01105543317513 14.175
43.034986504731386 14.1064
43.05891954686589 14.0964
43.08285456110972 14.0323
43.10697856448665 14.0051
43.130917542983475 14.0096
43.15485849820081 14.0628
43.17880143167367 13.9877
43.20293342237094 13.9424
43.226880332449 13.9246
43.25082922540554 13.9547
43.27496722682525 13.9372
43.29892010567796 13.7913
43.32287497204102 13.839
43.34683182745632 13.8038
43.370977859791836 13.7931
43.39493871351105 13.790999999999999
43.41890156092628 13.7591
43.44286640358341 13.722000000000001
43.46702049182749 13.7272
43.49098934522816 13.6702
43.51496019852649 13.68
43.5389330532723 13.6383
43.56309522248204 13.6178
43.58707210044314 13.622
43.61105098451946 13.5458
43.63503187626491 13.546
43.659202151562134 13.4879
43.68318707902681 13.5214
43.70717401884041 13.4386
43.731162972560874 13.3691
43.75534137913236 13.3734
43.779334381108384 13.4388
43.803329401683186 13.3691
43.82732644241872 13.3651
43.8515130055166 13.3442
43.87551410707659 13.2989
43.89951723350145 13.2834
43.923709934595614 13.2946
43.94771713129917 13.2777
43.97172635758096 13.1816
43.99573761501002 13.1859
44.0199385169922 13.1373
44.04395385732619 13.0976
44.067971233533086 13.1317
44.09199064718605 13.1319
44.11619977548961 13.0524
44.14022328470671 12.9928
44.16424883610785 13.0539
44.18827643127035 13.0569
44.21249381139513 12.987
44.236525514814076 12.9371
44.26055926674478 12.911
44.28459506876863 12.9297
44.3088207262813 12.8755
44.33286064928722 12.9427
44.35690262714919 12.8564
44.38094666145278 12.7982
44.4051806219871 12.7919
44.42922879003185 12.7674
44.45327901929361 12.7545
44.477331311362136 12.7618
44.501573600619416 12.6961
44.525630039221795 12.704
44.54968854541895 12.6715
44.573937102200176 12.6794
44.5979997645541 12.6473
44.622064499300315 12.5876
44.64613130803592 12.5829
44.67038823869318 12.5899
44.69445921643748 12.5517
44.718532272981385 12.4778
44.742607409926194 12.5241
44.76687274034801 12.4669
44.79095205918753 12.4017
44.81503346325094 12.3941
44.839116954143876 12.4053
44.86339071028742 12.3942
44.88747839599524 12.3733
44.91156817336837 12.3558
44.93566004401666 12.3528
44.959942251908146 12.2762
44.984038330325966 12.2894
45.00813650686762 12.2859
45.03223678314731 12.275
45.05652746888232 12.25
45.08063196592069 12.190999999999999
45.104738567558705 12.1417
45.128847275414856 12.1816
45.15314646515866 12.1537
45.17725940679741 12.0855
45.20137445952892 12.072000000000001
45.22568004865265 12.0605
45.24979934496396 12.0556
45.27392075725247 12.0367
45.29804428714431 12.0029
45.322358426247604 11.9586
45.346486212804315 11.9085
45.370616121861914 11.9294
45.39474815505086 11.9143
45.41907087049246 11.9049
45.4432071734666 11.8509
45.46734560548283 11.8968
45.49148616817604 11.8654
45.51581748638564 11.802
45.5399623320197 11.8326
45.56410931325473 11.7681
45.58825843173002 11.7565
45.61259837920865 11.7448
45.636751793816 11.7156
45.66090735060093 11.6498
45.68506505120716 11.6584
45.7094136545275 11.6405
45.73357566449271 11.6185
45.75773982322992 11.5951
45.78190613238733 11.5613
45.806263418194064 11.5118
45.83043404997326 11.5377
45.85460683713677 11.5355
45.87897065658495 11.4886
45.90314777634752 11.4623
45.92732705646868 11.4661
45.9515084986045 11.4508
45.97588104735473 11.3993
46.00006683541565 11.3535
46.02425479047904 11.3619
46.04844491420549 11.3811
46.0728262191024 11.3631
46.09702070211635 11.3322
46.12121735879483 11.3208
46.14541619080294 11.3064
46.169806278764455 11.2709
46.194009483459034 11.2631
46.21821486849841 11.2214
46.24242243555223 11.1623
46.266821333570014 11.1523
46.29103328674601 11.1169
46.31524742696538 11.1214
46.33946375590237 11.067
46.36387149104216 11.1042
46.38809221957392 11.0278
46.41231514186606 11.0426
46.436540259597464 11.0303
46.460956858999374 11.0112
46.48518638983522 10.9578
46.509418121166966 10.9384
46.533652054678114 10.9494
46.55807754555709 10.933
46.58231590571962 10.924000000000001
46.60655647313217 10.8664
46.630988654873654 10.8587
46.655233659129024 10.9074
46.67948087571551 10.8379
46.70373030632484 10.8171
46.72817142736393 10.8303
46.752425308428684 10.73
46.77668140861147 10.7346
46.80093972960865 10.6955
46.82538981736788 10.6922
46.849652602470904 10.6968
46.87391761349769 10.6604
46.8981848521493 10.6504
46.9226439341274 10.6394
46.946915650573224 10.6211
46.97118959976749 10.5826
46.99546578341598 10.5529
47.019933887188216 10.5521
47.04421456235744 10.5507
47.06849747711879 10.4927
47.09278263318286 10.4841
47.11725978640143 10.4597
47.14154944775105 10.4608
47.165841355555656 10.4455
47.1901355115306 10.4089
47.214621741924994 10.389000000000001
47.23892041698887 10.3985
47.26322134538975 10.3344
47.28771440635075 10.375
47.31201986422527 10.3475
47.33632758061436 10.290999999999999
47.360637557241866 10.267999999999999
47.38513974410611 10.2657
47.40945426407847 10.2595
47.43377104948137 10.2001
47.45809010204344 10.2119
47.48260144275502 10.1717
47.506925052572285 10.1613
47.53125093475548 10.1645
47.55557909103813 10.1266
47.58009961361992 10.1326
47.60443234110732 10.0783
47.62876734791564 10.0645
47.65310463578333 10.0823
47.6776343683373 10.0524
47.7019762413987 10.0312
47.72632040075572 9.975439999999999
47.75066684815169 9.979289999999999
47.77520581885936 9.947560000000001
47.799556865477655 9.89823
47.823910205386 9.93684
47.84826584033272 9.9192
47.87281407745551 9.873439999999999
47.89717432569297 9.84272
47.92153687423484 9.841389999999999
47.94609208429692 9.827
47.97045925671401 9.81103
47.99482873471275 9.798680000000001
48.01920052005013 9.81942
48.04376504619224 9.78525
48.068141469543484 9.781089999999999
48.09252020552573 9.75499
48.11690125590099 9.716389999999999
48.1414751266064 9.67089
48.16586082917454 9.68727
48.19024885144316 9.67251
48.2146391951793 9.67756
48.239222439012764 9.6386
48.26361744916137 9.57939
48.28801478610016 9.60983
48.31241445160131 9.58809
48.337007097209366 9.54261
48.36141144338331 9.51764
48.38581812345755 9.50515
48.41022713920929 9.518469999999999
48.434829215320704 9.480360000000001
48.45924292604658 9.46839
48.48365897780325 9.46699
48.50807737237308 9.441130000000001
48.532688907799276 9.429889999999999
48.55711201168574 9.43212
48.581537463754074 9.411810000000001
48.60615611725119 9.386000000000001
48.63058628942721 9.351410000000001
48.65501881516546 9.3033
48.6794536962573 9.298689999999999
48.70408185970339 9.32115
48.72852147531801 9.300360000000001
48.75296345168211 9.25721
48.77740779059232 9.23235
48.80204549302823 9.20753
48.82649458091802 9.17131
48.85094603676547 9.21706
48.87539986237231 9.1872
48.90004713292306 9.16633
48.92450572200832 9.13996
48.94896668628025 9.15192
48.97343002754588 9.11881
48.99808689542115 9.063180000000001
49.02255501470614 9.10267
49.04702551642794 9.07978
49.0714984023988 9.0143
49.096164896893235 9.0372
49.120642575466796 9.02358
49.145122643748394 9.044
49.16960510355558 8.97054
49.19428125404938 8.943480000000001
49.2187685210852 8.917769999999999
49.243258185121555 8.899980000000001
49.26794160167084 8.878110000000001
49.2924360839405 8.88724
49.31693296869764 8.87759
49.34143225776915 8.87128
49.36612538195438 8.82896
49.39062950396021 8.837539999999999
49.41513603578346 8.813130000000001
49.4396449792564 8.769160000000001
49.46434784069503 8.820730000000001
49.488861631846454 8.77759
49.513377840166804 8.73995
49.537896467493745 8.73271
49.56260909589029 8.727089999999999
49.587132585683285 8.68497
49.611658500018365 8.666889999999999
49.636186840738596 8.64011
49.66090926588511 8.64103
49.685442483902584 8.63615
49.70997813385706 8.615269999999999
49.734516217597076 8.54898
49.75924846937352 8.54807
49.7837914452858 8.53294
49.80833686055187 8.5251
49.83288471702571 8.490730000000001
49.85762682540054 8.493360000000001
49.882179588965734 8.52737
49.9067347993235 8.50339
49.93129245833333 8.46411
49.95604445336378 8.43649
49.98060703442832 8.38925
50.005172069746266 8.379
50.02993150438364 8.39835
50.05450147301533 8.415460000000001
50.07907390151433 8.355410000000001
50.10364879174981 8.35471
50.12841816587289 8.32419
50.1529980044635 8.34367
50.17758031042124 8.31977
50.20216508562089 8.28435
50.22694442953363 8.2807
50.25153416817468 8.25977
50.27612638170508 8.24699
50.300721072005196 8.22604
50.325510416102105 8.18074
50.350110084975064 8.14293
50.37471223628208 8.16611
50.39931687190919 8.135660000000001
50.424116246675766 8.12135
50.44872587605249 8.09143
50.47333799543065 8.108239999999999
50.49795260670191 8.0867
50.52276204271512 8.070319999999999
50.54738166295838 8.06886
50.57200378079314 8.051060000000001
50.596628398116835 7.99175
50.62144792604559 7.99172
50.646077567609396 7.998810000000001
50.670709714377715 7.9847600000000005
50.69553683636198 7.98499
50.72017401885922 7.96833
50.7448137122895 7.938280000000001
50.76945591856022 7.91488
50.79429318636823 7.91803
50.818940443716784 7.91875
50.84359021965163 7.908510000000001
50.868242516085964 7.85153
50.893089960641895 7.82057
50.917747323549435 7.842339999999999
50.94240721271973 7.80753
50.96706963007175 7.782769999999999
50.99192728239342 7.77295
51.01659478166073 7.78941
51.04126481489051 7.756489999999999
51.06593738400761 7.74397
51.090805275207074 7.729489999999999
51.11548294172845 7.68012
51.14016314993547 7.6781
51.164845901758845 7.65982
51.18972406304274 7.64503
51.21441192780656 7.62534
51.23910234200271 7.64083
51.2637953075678 7.6122
51.288683770237945 7.58078
51.31338186432707 7.55618
51.33808251561888 7.55032
51.362978729967345 7.54812
51.387684521509755 7.54557
51.41239287610203 7.50318
51.437103795691165 7.475060000000001
51.46201036644977 7.4931399999999995
51.486726441956634 7.4833
51.51144508832545 7.44821
51.536166307509156 7.42862
51.56108326624387 7.406280000000001
51.58580965706056 7.40955
51.61053862657523 7.370760000000001
51.635270176746864 7.378430000000001
51.66019755512065 7.37688
51.68493429268881 7.362080000000001
51.70967361681515 7.3446
51.73441552946465 7.30992
51.759353359237934 7.316319999999999
51.7841004750961 7.31133
51.80885018539685 7.278760000000001
51.833602492111254 7.264889999999999
51.8585508051424 7.240530000000001
51.883308330926425 7.22938
51.90806845906181 7.23155
51.932831191525715 7.19567
51.95779001977161 7.1432199999999995
51.98255798721516 7.16943
52.00732856494335 7.12173
52.03229530577543 7.11175
52.057071130455945 7.145810000000001
52.081849571391054 7.118760000000001
52.106630630568695 7.092160000000001
52.13160794279417 7.07649
52.15639426492067 7.10497
52.18118321127822 7.068339999999999
52.205974783860896 7.030130000000001
52.23096269971011 6.995010000000001
52.255759551287994 6.97898
52.280559035098186 6.989889999999999
52.30536115314103 6.97802
52.33035970494467 6.944939999999999
52.35516711807904 6.94035
52.37997717147198 6.92857
52.40478986713005 6.93695
52.42979908731974 6.898039999999999
52.454617094216 6.87155
52.47943774942214 6.8737
52.50426105495102 6.898060000000001
52.529280976059844 6.863589999999999
52.554109609024096 6.841189999999999
52.57894089837482 6.8229
52.60377484613117 6.806939999999999
52.62880550079408 6.774780000000001
52.65364479223379 6.75479
52.67848674816189 6.7510699999999995
52.70352547971946 6.7569
52.72837279155837 6.76675
52.753222773982785 6.72306
52.778075429022984 6.7331
52.80312495150885 6.6843
52.827982978797436 6.65649
52.85284368481815 6.6124
52.87770707160767 6.65544
52.90276741793998 6.61856
52.92763619336701 6.64232
52.952507655698504 6.6199699999999995
52.977381806977576 6.604430000000001
53.00245301017842 6.597389999999999
53.02733256653592 6.576919999999999
53.052214817996074 6.55173
53.077099766608484 6.535880000000001
53.102181859804446 6.48603
53.127072229988265 6.52644
53.15196530349892 6.52121
53.17686108239249 6.50611
53.20195409881522 6.472580000000001
53.22685531582556 6.47025
53.25175924441303 6.410419999999999
53.27666588664027 6.488980000000001
53.30176985962693 6.43253
53.3266819565689 6.43935
53.35159677336455 6.382709999999999
53.376514312083096 6.34601
53.40162927507703 6.403569999999999
53.42655228516116 6.374230000000001
53.45147802340193 6.33631
53.47660125628886 6.30051
53.50153247842639 6.32292
53.52646643496923 6.28038
53.55140312799818 6.26996
53.576537409691696 6.2743400000000005
53.60147960336152 6.25235
53.626424539786164 6.223
53.65137222105307 6.20196
53.67651758529126 6.22981
53.70147078399681 6.18357
53.72642673383343 6.16996
53.75138543689533 6.17543
53.776541917524526 6.16742
53.801506154876755 6.16906
53.826473151763246 6.11857
53.851442910284916 6.10175
53.87661054126026 6.12027
53.9015858509782 6.08862
53.92656392866066 6.06447
53.95154477641532 6.074669999999999
53.976723591801296 6.083019999999999
54.00171000771266 6.05317
54.02669920004598 6.03375
54.051691170915745 6.00898
54.076881204886796 6.00214
54.101878760928514 6.0111099999999995
54.12687910187696 5.95509
54.152077577768296 5.99169
54.1770835166946 5.93534
54.20209224691339 5.95032
54.22710377055121 5.95043
54.25231352511594 5.93444
54.27733066384342 5.88564
54.30235060239643 5.87191
54.32737334290836 5.8575800000000005
54.35259441062629 5.82043
54.377622783395324 5.83395
54.40265396455061 5.82705
54.42768795623251 5.7918400000000005
54.45292037169559 5.77689
54.477960012857906 5.76281
54.50300247099511 5.747719999999999
54.52804774825457 5.73677
54.55329154616743 5.67314
54.57834249018678 5.65634
54.6033962597977 5.6951
54.6284528571545 5.68375
54.653708072335164 5.59731
54.67877035378786 5.58121
54.70383546947698 5.58705
54.72890342156389 5.59181
54.7541700889442 5.5795699999999995
54.77924374251975 5.54166
54.8043202390049 5.48625
54.82959552413022 5.49394
54.8546777351945 5.47254
54.87976279569621 5.46645
54.90485070780914 5.39829
54.930137506558005 5.3862
54.95523115074295 5.4093599999999995
54.98032765308844 5.36449
55.005427015775496 5.33796
55.03072536339621 5.317819999999999
55.05583047570572 5.280959999999999
55.080938454927676 5.25697
55.10604930325027 5.26276
55.131359235107396 5.22724
55.15647585066083 5.14277
55.181595341907496 5.171530000000001
55.20671771104285 5.21287
55.232039262617704 5.18931
55.25716741665048 5.1269800000000005
55.28229845518636 5.13698
55.30743238042802 5.07009
55.33276558731939 5.04694
55.357905315183636 5.03412
55.383047936390035 5.03976
55.40819345314859 4.93548
55.433538351073295 4.93219
55.458689688238415 5.02749
55.483843927614096 4.9215
55.509197623043605 4.91849
55.53435769621134 4.86281
55.55952067826466 4.8213
55.5846865714265 4.81267
55.61005202069737 4.81062
55.63522376553902 4.86408
55.66039842818645 4.77142
55.68557601087004 4.75926
55.7109532500271 4.746980000000001
55.73613670233794 4.80184
