TT I
1.2716486653135266 6.90752
1.2939594142134223 6.50446
1.3162702121660406 6.22256
1.3385810600174564 6.82217
1.3608919586137629 6.54537
1.383202908801069 6.02844
1.405513911425503 6.32597
1.4278249673332093 6.0920000000000005
1.4501343378461518 5.75571
1.4724455028545926 5.50884
1.4947567236847858 5.719180000000001
1.517068001182951 5.45995
1.5393793361953272 5.81324
1.5616907295681737 5.22175
1.5840021821477681 4.75092
1.60631369478041 4.16323
1.6286252683124185 4.83913
1.6509369035901333 5.10554
1.6732468618895553 4.7641599999999995
1.695558623192809 4.90005
1.7178704487808514 4.26811
1.7401823395001077 4.29369
1.7625012545597203 4.1864099999999995
1.7848028405262486 4.56385
1.8071218901122095 4.41354
1.8294236121921872 4.69243
1.8517427996910911 4.52881
1.8740620574440425 4.52313
1.8963639900671978 4.008859999999999
1.9186833908139995 4.415430000000001
1.9409854680117449 4.77968
1.9633050151394713 5.01156
1.9856246367570705 4.45361
2.0079269371922672 4.64315
2.03024671027244 3.7855199999999996
2.0525491637446027 4.12247
2.074869091674931 3.94677
2.097171701569106 4.43339
2.1194917877373847 4.54028
2.141811954326636 4.789619999999999
2.164114805233074 4.34844
2.186435135143035 5.26996
2.208738150935709 10.9353
2.231058647554722 20.6032
2.2533792288321184 16.8492
2.275682498336085 8.94518
2.298003251406138 6.07134
2.3203066942619714 5.14226
2.3426276225136022 5.1921800000000005
2.3649486396617507 5.8398699999999995
2.387252348930071 5.757680000000001
2.4095735463442893 5.95028
2.4318774374315884 6.69136
2.4541988185014043 6.57477
2.476502894794693 7.496289999999999
2.498824462909887 7.71656
2.521146125856138 6.944369999999999
2.5434504863470337 7.63075
2.5657723414244717 8.25216
2.588076895590662 8.71563
2.610398946189713 8.468630000000001
2.6327210958598384 8.40955
2.6550259469304716 8.34629
2.6773482972090137 9.32733
2.6996533504259 9.369069999999999
2.7219759047039602 8.68923
2.744298562293959 8.68267
2.7666039251246595 8.105960000000001
2.7889267918020164 8.65231
2.8112323652516555 8.86696
2.833555444408179 9.05883
2.8558786311183852 8.66124
2.8781845268938557 9.06499
2.9005079311721484 9.0729
2.9228140460410397 8.90818
2.9451376712799635 9.60294
2.967444008632326 10.094
2.9897678582247247 10.2271
3.0120918213106695 10.42
3.0343984987899373 10.532
3.0567226913198637 10.887
3.079029599759726 11.6
3.101354025127254 12.4122
3.123678568232338 13.7719
3.145985829517914 13.339
3.16831061055229 13.8511
3.1906181112775593 14.8025
3.212943133635653 15.0492
3.2352682779763207 15.1338
3.2575761442691227 15.2156
3.2799015350264273 15.7324
3.302209649240067 15.7012
3.3245352898092655 16.5042
3.3468436553365257 17.2729
3.369169549113219 17.7169
3.3914955708171384 18.5899
3.413804319727358 18.8212
3.4361305997334863 18.782
3.4584396084414553 19.381
3.4807661501462652 19.6441
3.503092824025881 20.2086
3.5254022288463154 20.1904
3.5477291695206588 21.2679
3.5700388426251948 21.5971
3.5923660534916446 22.5073
3.6146934007816114 31.8673
3.637003482731501 64.8691
3.6593311053109985 74.1996
3.681641464033634 48.113
3.7039693653009733 28.3584
3.726297407241705 25.3863
3.7486081875460804 24.5756
3.7709365132734978 24.7385
3.793247578841633 25.4874
3.8155761917550093 25.252
3.8378875459837216 25.8406
3.8602164494827234 26.4679
3.882545499606844 27.2455
3.9048572932539183 27.4285
3.9271866390645718 27.8709
3.9494987298666713 28.4649
3.971828374764527 28.7996
3.9941581705403255 29.6933
4.016470713506008 30.093000000000004
4.038800813471445 30.2472
4.061113662089144 31.5241
4.0834440696459176 31.910999999999998
4.105774632334751 32.1424
4.128087945865126 32.8204
4.150418821249301 33.4855
4.172732448931298 34.6023
4.195063640413578 35.7411
4.2173775856475215 38.0889
4.239709096631102 56.2324
4.262040768704612 161.95
4.284355196706267 230.08900000000003
4.306687193387355 163.326
4.329001947444346 71.7402
4.35133427213731 44.8965
4.373666762177566 41.7782
4.395982011761091 41.7056
4.418314834921175 42.8092
4.44063041906622 47.5073
4.4629635787515625 55.4287
4.4852969080429785 56.7278
4.5076130004776225 50.1348
4.529946671403969 47.4504
4.552263106909177 46.644
4.574597122877047 48.0392
4.596931312711224 49.3285
4.619248269273446 50.0813
4.6415828092605835 51.2447
4.663900117405352 52.1872
4.686235010953232 53.044
4.708552674085913 54.2705
4.730887924602802 56.1754
4.753223354952695 57.2237
4.775541557023902 58.3223
4.797877349456786 59.6347
4.820195915032126 61.381
4.842532072957498 62.7329
4.864868414979744 64.6432
4.88718753227192 66.542
4.909524244902505 68.4262
4.931843734218147 69.91199999999999
4.954180820867835 71.9937
4.976518095879839 75.2958
4.998838149695359 77.9436
5.021175803844231 81.0358
5.043496238205739 82.9855
5.065834274903528 87.3807
5.088172504230693 90.7607
5.1104935158799565 95.7856
5.132832132875765 108.86
5.155153533596801 137.172
5.1774925416746225 162.47899999999998
5.199814334878411 230.046
5.2221537374521505 647.617
5.244493338631803 1978.83
5.266815727034316 6650.72
5.289155727832427 13248.1
5.311478517248165 9652.9
5.333818921080011 3318.45
5.356159527788849 695.2310000000001
5.3784829252032536 220.757
5.400823940070432 148.525
5.423147747031976 124.023
5.445489173474152 112.853
5.467830807066149 106.743
5.490155234831516 102.385
5.512497285125229 98.99700000000001
5.534822130975162 97.1524
5.557164601388673 95.3772
5.579489868738879 92.8002
5.601832762690846 91.959
5.6241758697774475 90.6631
5.646501775867269 89.8648
5.668845311622074 88.1087
5.691171647754637 87.5371
5.713515615597765 86.6899
5.735859800852677 86.2689
5.758186788542988 85.0748
5.780531411018185 85.1868
5.802858837297399 84.134
5.825203900414495 83.8923
5.8475491852224 84.5967
5.869877275883075 84.9299
5.892223006467101 85.9887
5.914551544266608 86.2333
5.936897724049891 88.1724
5.959244129804903 91.8446
5.981573344815301 100.855
6.0039202049061 148.012
6.026249875609095 310.962
6.04859719346037 687.684
6.070927323278297 1759.26
6.093275102315365 4250.08
6.115623113320588 5588.14
6.137953938319995 3500.67
6.160302415650845 1068.71
6.182633708324452 257.547
6.2049826554078376 112.736
6.227331838745022 87.1424
6.249663839443684 79.7226
6.27201349767565 76.2193
6.294345974611799 78.71600000000001
6.316696111167083 86.5525
6.339046488263839 84.62200000000001
6.361379686074702 73.9533
6.383730546639482 67.5745
6.406064229255215 64.6924
6.428415576718203 64.0423
6.450749747566656 63.1426
6.47310158535871 61.983999999999995
6.495453669698332 61.0778
6.517788579421056 60.7241
6.540141159237969 59.9852
6.562476565766648 59.2157
6.5848296444934045 58.7835
6.607182974060425 58.391999999999996
6.6295191323281015 58.1501
6.651872965955752 59.687
6.6742096296068985 74.3682
6.6965639707294615 105.755
6.71891856698715 112.38600000000001
6.741255995248479 84.572
6.763611104154477 64.0691
6.785949046381137 56.7792
6.808304671371482 54.7772
6.8306605557940046 54.3993
6.852999275508618 53.8499
6.875355681171544 53.6446
6.897694923437771 53.1924
6.92005185377892 53.2015
6.9423916220322655 53.2471
6.964749080490181 52.4668
6.987106804399774 52.4566
7.009447368180821 52.118
7.031805625367033 52.3906
7.054146723727803 52.2932
7.076505517631004 51.843
7.098864581288365 51.9686
7.121206488070854 51.8828
7.143566093607822 51.3204
7.165908543567245 51.6965
7.188268694426048 51.9769
7.2106291193438095 51.9292
7.232972390625943 52.6156
7.255333366030969 59.0894
7.277677189091925 92.1793
7.300038718428332 129.731
7.322400526130865 120.135
7.344745183422596 82.0404
7.367107550224791 58.8626
7.389452767901992 53.0742
7.411815697249891 52.0436
7.434161478756298 51.2809
7.456524974096713 51.5929
7.478888753837185 51.8247
7.501235387657368 53.0436
7.523599738562711 57.7605
7.545946944825532 65.98899999999999
7.568311870344528 71.2685
7.5906770845765665 66.0312
7.613025156078678 58.8167
7.635390950099687 55.8733
7.657739602662809 54.0663
7.680105979923558 53.038000000000004
7.702472650212829 52.7074
7.724822180948224 52.5932
7.747189439655568 52.8578
7.769539560075357 52.9228
7.791907410653562 53.1877
7.81425812420825 52.9959
7.836626570110925 53.2159
7.858995315087906 54.1739
7.881346924933401 54.0943
7.903716270417482 54.9083
7.926068482028405 55.1672
7.948438431475253 55.4478
7.9708086843180235 56.326
7.993161805171116 56.7204
8.015532667162402 56.9901
8.037886398416653 57.9404
8.060257873014221 58.0572
8.082629655331942 58.7086
8.104984308787587 59.4168
8.127356708900503 61.5193
8.149711981398308 65.2379
8.172085002766314 68.3128
8.194458336181368 66.8549
8.216814543847752 64.6308
8.23918850371002 65.1438
8.26154533906492 65.5492
8.283919928836452 66.9344
8.306277395339652 67.5047
8.328652618483376 68.7621
8.351028159736202 70.6997
8.373386579575245 72.523
8.395762759396959 73.8369
8.418121819038275 77.036
8.440498640894003 86.1365
8.462875785192262 95.8332
8.485235811156207 102.712
8.507613602688501 124.55799999999999
8.529974277114228 191.113
8.552352719347912 293.558
8.574731488360351 498.884
8.59709314210385 979.997
8.619472567021075 1729.62
8.64183487789147 2314.02
8.664214962183097 2021.48
8.686577933647762 1103.27
8.708958680784317 432.861
8.731339760774953 180.28099999999998
8.753703729764451 109.91799999999999
8.77608547780821 93.8581
8.798450116065078 89.9406
8.820832535634787 87.0295
8.843215292401656 85.5002
8.865580941199045 84.4473
8.887964374703538 83.0682
8.910330701447199 83.3895
8.932714815164482 85.1599
8.955099270424924 84.4653
8.977466620733543 82.1226
8.999851761421976 80.3363
9.022219798361645 78.8631
9.04460562795561 78.6423
9.066991803441677 78.0141
9.089360876979615 77.9984
9.111747746589993 78.1845
9.13411751544971 77.7483
9.156505082664324 77.5134
9.178875550323522 78.2205
9.20126381862328 80.5888
9.223652438908596 87.5587
9.246023961427412 101.551
9.26841328802173 109.89200000000001
9.290785518039224 102.63600000000001
9.313175554425882 89.4522
9.335565947154315 81.4584
9.357939245086508 78.7053
9.380330352834827 78.3101
9.40270436697103 78.1975
9.425096193225055 78.3421
9.447488380180165 78.9533
9.469863475295412 79.0607
9.492256385987508 79.5062
9.514632206018318 79.9079
9.537025843935714 80.0529
9.559402392368193 80.4046
9.581796761000229 81.6312
9.604191496441521 81.8965
9.626569144158516 84.49600000000001
9.648964615551032 87.6314
9.671343000390081 89.9281
9.693739211225699 89.0622
9.716135793237463 87.4387
9.738515290448102 86.81
9.760912617143402 87.6326
9.783292860202891 88.7162
9.805690935076182 89.5085
9.828089385495742 90.3901
9.850470754023561 92.4521
9.872869957865444 96.4356
9.89525208097539 106.646
9.917652041736662 116.569
9.940052382417589 118.677
9.962435644102392 119.564
9.984836746950979 138.99200000000002
10.007220771957746 189.90099999999998
10.029622640473708 267.847
10.052007432299963 405.966
10.074410069984072 645.7130000000001
10.096813093716005 1086.0
10.119199042482517 1684.78
10.141602840636468 2053.23
10.163989564971628 1730.78
10.186394141051062 1009.5
10.208799107559706 456.54900000000004
10.231187001965623 207.108
10.253592751657669 126.825
10.275981430388155 107.221
10.298387966769793 104.292
10.320794897965431 105.285
10.343184759907361 104.93700000000001
10.36559248305461 101.08200000000001
10.387983138083852 97.5636
10.410391656691655 96.8356
10.432800574501677 103.206
10.455192425893369 116.649
10.47760214443012 136.935
10.499994797678786 170.24200000000002
10.522405320453982 237.032
10.54479877906917 358.408
10.567210109595656 497.77099999999996
10.5896218454736 591.966
10.612016518879773 551.573
10.634429067781074 403.412
10.656824555333241 228.112
10.679237920773568 140.626
10.701651695961992 103.79799999999999
10.724048411481384 91.8864
10.746463008485165 85.71700000000001
10.768860546937125 81.8909
10.791275969274796 78.7589
10.81369180576079 77.5844
10.836090585366925 76.6288
10.858507252467449 75.0762
10.88090686379991 74.1951
10.903324365036394 73.6551
10.925724811614439 73.2277
10.948143150509463 73.9038
10.970561909719066 73.3039
10.992963615930844 72.2088
11.015383218085756 70.2773
11.037785768347074 68.7875
11.06020621697282 68.2242
11.082627090322113 67.7494
11.105030913430326 67.2704
11.12745263854165 67.3372
11.149857314510728 68.7573
11.172279894912576 73.1108
11.194702904450653 74.5302
11.217108866490921 72.47
11.239532736615194 69.1096
11.26193956033512 67.0168
11.284364294577085 65.6638
11.306789462371718 64.2294
11.329197585398376 63.0688
11.351623622610898 62.6509
11.37403261614354 62.103
11.396459526308487 62.251000000000005
11.418869393879497 61.8321
11.441297180532617 61.5731
11.463725406927658 61.1964
11.486136592353875 61.0668
11.508565700543707 60.9086
11.530977768845315 62.2168
11.553407762368774 62.7659
11.575838200059769 62.6902
11.598251599479612 61.501000000000005
11.620682927815501 60.3725
11.64309721895548 60.0366
11.665529441478206 59.5928
11.687962112597958 59.32
11.710377748130886 59.2357
11.732811318753434 59.2709
11.755227854859067 59.1404
11.777662328529495 59.2288
11.800079768750786 58.9091
11.822515149015453 58.7235
11.844950984084935 59.1027
11.867369787303163 59.1345
11.889806534289491 59.6296
11.912226250487029 60.9891
11.934663912939751 63.1584
11.9571020346363 65.9055
11.979523127133968 66.725
12.001962169624331 65.5765
12.024384183972964 63.2856
12.046824150809913 63.0137
12.069264581333726 66.2299
12.091687985297767 71.1709
12.11412934550045 78.3105
12.136553680195208 90.6972
12.158995973632788 110.785
12.181438735204349 139.003
12.20386447284199 174.06400000000002
12.226308172985636 207.83
12.24873485024193 208.766
12.271179492516982 182.93599999999998
12.293607112949127 136.58100000000002
12.316052700916226 98.9258
12.338498763250042 77.4169
12.360927805303868 67.233
12.383374818673879 63.1611
12.405804812803074 61.2332
12.428252780773262 60.7582
12.45070122756722 60.5218
12.473132656675375 60.1193
12.49558206341869 60.6096
12.518014453510101 60.6953
12.540464823770117 60.6234
12.562915677315177 60.7191
12.58534951575545 61.4076
12.607801338171472 61.9999
12.630236146511358 65.3823
12.652688941369085 69.2698
12.675124723177234 70.5319
12.697578494048786 69.0085
12.720032754458185 66.1128
12.742470003354093 64.0423
12.764925245138771 63.6902
12.787363476431278 63.7433
12.809819703166806 64.3558
12.83227642391173 64.7287
12.854716135692716 65.2756
12.877173846755147 66.3201
12.899614549869717 66.67699999999999
12.9220732548287 67.1853
12.94453245827299 67.7477
12.966974655289818 68.7409
12.989434858002571 69.4204
13.011878055298721 69.9229
13.034339260862497 71.089
13.056800969391883 72.3488
13.079245674017244 74.6586
13.101708390774869 76.1761
13.12415410463411 80.0827
13.146617833206086 88.4191
13.169064559883248 98.9132
13.191529303857127 110.583
13.213994557076367 128.007
13.236442809902437 158.196
13.258909083908291 206.641
13.28135835851934 275.39599999999996
13.30382565690295 358.57
13.326293469022952 432.50800000000004
13.348744283242008 456.089
13.371213125129904 395.156
13.39366497011003 290.305
13.416134845360597 193.50400000000002
13.438605238843131 131.149
13.46105863690397 102.47200000000001
13.483530069144786 96.5082
13.505984506951902 100.35799999999999
13.528456981549432 108.15100000000001
13.550929978879088 119.22200000000001
13.573385983253365 138.335
13.595860028340867 170.864
13.618317081455832 221.02599999999998
13.64079217790333 283.697
13.663250283359057 352.60900000000004
13.685726434770173 385.894
13.708203115221277 372.514
13.730662806148091 292.992
13.75314054697177 210.813
13.775601299246777 142.518
13.798080104050406 100.70200000000001
13.820559442405358 83.682
13.843021793671388 78.5306
13.865502201420897 76.1851
13.887965623051947 75.737
13.910447103807167 74.601
13.932929122629764 73.2664
13.955394156785959 73.0755
13.977877254034569 72.1079
14.000343367582113 71.2335
14.022827546871707 70.6882
14.045294743423524 70.3341
14.06778000837062 69.615
14.090265817715476 69.9105
14.112734645763819 70.4061
14.13522154619454 71.8921
14.157691466286913 74.02600000000001
14.180179461423874 74.6077
14.202668005486178 72.862
14.22513957064374 70.2377
14.247629214846473 68.1194
14.270101881097517 67.1169
14.29259262906496 66.5658
14.315083930490205 67.1706
14.337558255389705 67.3986
14.360050666019726 67.2468
14.382526101071944 66.4456
14.405019624534942 65.9143
14.427513705993134 65.433
14.449990813291825 65.2674
14.47248601302899 65.0882
14.49496423954951 65.033
14.517460561197822 65.40899999999999
14.539939910570322 65.0014
14.562437357763558 65.0372
14.58493536931253 65.9903
14.607416409993311 66.5451
14.62991555254159 67.105
14.652397725157423 67.0691
14.674898002342799 66.9818
14.697398848433282 66.3063
14.719882725991326 66.8876
14.74238471217934 66.8478
14.764869730765593 68.6611
14.787372860692983 71.4317
14.809876564079925 75.828
14.83236330125751 80.8054
14.854868153850365 87.6212
14.877356041159485 99.199
14.899862046604186 114.865
14.922351087688757 139.287
14.944858249632887 172.00900000000001
14.967365991421232 204.014
14.989856770231246 229.1
15.012365673994204 229.312
15.03485761569738 203.812
15.05736768508665 164.062
15.07987833888692 124.413
15.102372032001655 95.1048
15.124883856909658 77.3757
15.14737872204565 70.5437
15.169891721717274 67.8513
15.192405310371893 67.101
15.214901940621196 66.9841
15.237416709527137 66.8032
15.259914520936249 66.8781
15.282430473753607 66.2983
15.304947020131227 65.0477
15.327446610371178 64.3224
15.349964346154254 63.8544
15.372465126703139 63.1873
15.394984055556009 62.9671
15.417486030076159 63.028
15.44000615566487 62.7112
15.462526881230803 62.4855
15.485030653812652 62.6786
15.507552581617434 62.416000000000004
15.530057557334603 62.5024
15.55258069104857 62.6293
15.575104429329837 62.6462
15.597611216864632 62.0695
15.620136166564563 62.0797
15.6426441664095 62.3297
15.665170331202765 63.4574
15.687697105158826 66.0487
15.710206930593545 69.38
15.732734925158933 72.83800000000001
15.755245972089478 77.7689
15.77777519094324 85.0877
15.800287463046663 95.9042
15.822817909869592 113.225
15.84534897229804 136.399
15.867863089299354 163.84400000000002
15.890395385222186 187.995
15.912910736597423 203.458
15.935444269699861 196.424
15.957978423016485 171.98
15.980495633101265 136.835
16.003031029129367 105.331
16.02554948280019 81.4532
16.048086125229432 69.1313
16.070623392487107 64.5519
16.09314371869582 63.2215
16.11568223789321 61.8012
16.13820381691126 60.4898
16.160743591742527 59.0079
16.183283996022084 58.1786
16.205807461423195 56.9005
16.228349126881973 56.1461
16.25087385432698 55.9728
16.27341678466365 55.3801
16.29594277784926 55.4337
16.31848697676433 55.4193
16.341031811604868 55.5473
16.36355971058487 55.7172
16.3861058195587 55.415
16.40863499352978 54.838
16.431182380342005 54.0475
16.453730407713202 53.36600000000001
16.476261501364792 52.9775
16.498810812136167 52.8491
16.52134319004079 52.8813
16.54389378792203 52.6329
16.566445031001553 52.5029
16.588979342490088 52.4878
16.61153187824822 52.1814
16.634067483263312 52.0358
16.656621315414416 51.9314
16.679175797408888 51.6784
16.701713349928728 51.8116
16.72426913389191 52.2049
16.74680798922351 52.0947
16.76936507887444 52.058
16.791905240734874 52.0538
16.814463639794468 52.1942
16.837022695210294 52.0726
16.859564824093756 52.2345
16.882125194503903 52.9123
16.904668639217885 53.5768
16.927230328348003 54.1078
16.949792678493612 54.6036
16.972338104193863 54.1277
16.994901778652235 53.5812
17.017448529496576 52.9614
17.040013531998152 52.9591
17.06257920018044 53.028999999999996
17.0851279459922 53.7092
17.107694947817667 54.3234
17.130245028099072 55.2113
17.15281336730298 56.1758
17.17536478578733 57.67100000000001
17.19793446610687 59.6248
17.220504818648422 62.3364
17.243058251703697 65.4942
17.265629950971032 70.3063
17.288184731571736 75.8776
17.310757781306908 81.342
17.33333150794385 82.3459
17.355888317140174 81.4312
17.37846339986244 76.8802
17.401021565958885 70.5384
17.42359800851343 64.4645
17.44617513265564 60.4289
17.468735341390783 57.8184
17.491261035594565 56.50899999999999
17.51396340099364 56.0897
17.536490463869136 56.2439
17.559018209820174 56.2528
17.58154663977963 56.3204
17.604251766089718 56.5046
17.626781572227713 56.6075
17.64931206518155 56.7776
17.671843245885103 57.1939
17.69455114821572 57.5213
17.717083712612634 57.9536
17.739616967569667 58.4406
17.762150914021706 58.8284
17.78486160749854 58.9189
17.807396945166804 59.448
17.829932977143503 59.7335
17.85246970436452 60.2706
17.875183204129467 61.5483
17.897721330097664 63.7712
17.920260154126645 65.806
17.942799677153296 68.3951
17.9655159983646 71.5756
17.988056927677544 76.1332
18.010598558807683 82.6163
18.033140892692916 91.9085
18.05586005052525 103.735
18.07840379824407 117.556
18.10094825154059 130.30100000000002
18.12366954819864 141.667
18.146215420998306 143.864
18.16876200220057 137.695
18.191309292745153 123.605
18.214033452627167 108.54299999999999
18.236582170236648 93.9223
18.259131600016456 85.852
18.281681742907335 83.1441
18.304408781233683 85.9449
18.32696035875955 91.15
18.349512652227624 97.7409
18.372065662579683 103.848
18.394795594587553 107.046
18.41735004715306 105.13600000000001
18.43990521943684 99.5905
18.46246111238171 89.9087
18.485193953325208 79.1138
18.507751296070428 70.7128
18.530309362314178 65.32
18.552868153000343 62.3057
18.57560391815056 60.4078
18.59816416623245 59.7549
18.620725141597372 59.221000000000004
18.643286845190268 58.5039
18.666025549835414 58.0454
18.688588718427933 57.2098
18.711152618092243 57.0533
18.73389353884365 56.766999999999996
18.75645890921984 56.4101
18.77902501351406 56.1097
18.801591852673102 55.9196
18.824335739722738 55.5634
18.846904057212626 55.5172
18.8694731124168 55.3176
18.89204290628315 55.1532
18.914789774966803 55.0872
18.937361054791623 54.4653
18.959933076131318 54.5066
18.982505839934877 54.521
19.00525570560582 54.468
19.027829963004184 54.4928
19.05040496572238 54.3064
19.072980714710468 54.2622
19.095733592739563 54.1784
19.11831084296757 54.208999999999996
19.140888842324735 54.8426
19.16346759176222 55.0931
19.18622349753803 55.6592
19.208803755869358 56.5472
19.231384767143577 57.385
19.253966532312948 58.6124
19.276725481241822 60.7801
19.29930876296784 63.5484
19.3218928014549 67.06
19.34465404436217 70.8008
19.36723960516257 74.2343
19.389825925592426 76.0535
19.412413006605938 75.9902
19.43517731967805 72.8539
19.457765930683355 68.2513
19.48035530514408 63.4487
19.50294544401556 59.1761
19.525712842708348 55.5514
19.54830451925909 53.602
19.570896963095727 52.1762
19.593490175174704 51.6823
19.616260674962184 51.7742
19.638855432416964 51.2302
19.661450960992624 51.4273
19.68404726164677 51.2418
19.706820878021247 51.0924
19.729418731756834 51.3979
19.752017360452857 51.03
19.77461676506804 51.0612
19.797393513540218 50.8783
19.819994478951667 51.151
19.84259622316767 51.6182
19.8651987471481 51.9123
19.887978643247177 52.3505
19.91058273574792 52.7141
19.933187610901943 53.6247
19.955969879466828 54.3827
19.97857632894404 55.5667
20.00118356396599 57.1105
20.023791585494575 59.1565
20.046577028914875 62.0331
20.069186632506966 64.7511
20.091797025500632 67.4656
20.114408208858933 68.8869
20.137196842715273 69.3746
20.159809615886765 68.1352
20.18242318232135 65.0971
20.20503754298326 62.5172
20.227829382875154 60.9841
20.250445341109344 60.3334
20.27306209647285 61.0188
20.29567964993108 62.2295
20.31847471147704 63.6079
20.34109387027612 65.2911
20.363713830075454 65.1798
20.386334591841646 64.0389
20.409132890679302 61.3444
20.431755265564437 58.1548
20.454378445325528 55.1377
20.477002430930366 52.6372
20.499803982716553 50.8659
20.522429589228004 49.6815
20.54505600449589 49.1719
20.567683229489194 48.9633
20.590488049900088 48.5319
20.61311690359731 48.2174
20.63574656993626 48.0275
20.658553853717297 47.6662
20.681185154618298 47.4674
20.703817271080066 47.4348
20.72645020407368 47.0805
20.749260783967177 47.2412
20.771895359337133 47.0904
20.794530754161617 47.2078
20.817166969412938 47.1602
20.83998086114876 46.9571
20.86261872660049 46.9123
20.885257415405402 46.826
20.90789692853701 46.6515
20.930714147864748 46.523999999999994
20.953355319030678 46.3262
20.97599731745334 46.5719
20.99864014410749 46.3536
21.021460706796564 46.5567
21.044105199328826 46.6936
21.06675052302631 46.6768
21.089396678865015 46.9213
21.112220600704806 47.31100000000001
21.134868430275347 47.6968
21.15751709492456 47.8542
21.180166595629693 48.0959
21.202993892429635 48.5396
21.22564507473034 49.25899999999999
21.24829709602816 49.6005
21.27112693608965 49.8072
21.293780644891275 49.7762
21.316435195634053 49.1994
21.339090589297417 48.4764
21.361923832041875 48.0171
21.384580921090404 47.2577
21.407238856007325 46.4995
21.429897637773326 46.3834
21.45273429906592 46.4807
21.475394784108598 46.3635
21.498056118951983 46.2887
21.520718304578022 46.621
21.543558400304388 46.5907
21.566222297108816 46.7304
21.58888704765135 46.6701
21.61155265291521 47.0002
21.63439619898156 47.1949
21.657063523335786 47.3973
21.67973170537063 47.9604
21.7024007460706 48.4563
21.72524775840385 49.1737
21.747918526116475 50.1768
21.770590155457388 51.1398
21.79326264741238 52.5193
21.816113141960237 54.3265
21.838787368860547 56.4467
21.861462461341976 58.6779
21.884315579735777 61.4369
21.90699241312273 63.2251
21.92967011506078 64.4707
21.95234868653799 64.495
21.9752053151131 63.806999999999995
21.997885635446785 61.4034
22.020566828293532 59.2974
22.04324889464272 57.3513
22.066109049404666 55.8232
22.088792872571794 55.2211
22.111477572219204 55.2904
22.1341631493376 55.5442
22.157026846313123 55.638000000000005
22.179714188221507 55.0874
22.202402410582668 53.7981
22.22509151438863 52.2001
22.24795876962584 50.5317
22.270649646204486 49.3772
22.293341407213727 48.5176
22.316034053646906 47.7667
22.338904883215342 47.3308
22.36159931041458 47.0735
22.38429462602756 47.1653
22.40699083104897 46.9319
22.429865251039757 46.8026
22.452563244831367 46.8587
22.47526213102522 47.0651
22.49813925616515 46.8773
22.520839937143307 46.6851
22.543541513520587 46.7347
22.56624398629403 46.7532
22.589124730075895 46.7162
22.611829005656723 46.7364
22.63453418063466 46.6821
22.657240256008077 46.8184
22.680124634582935 47.0925
22.70283252079775 47.2252
22.725541310413075 47.6024
22.74825100442868 47.6425
22.771139033969575 48.1146
22.79385054687155 48.36600000000001
22.81656296718292 49.0054
22.83927629590484 49.8368
22.862167992606945 50.7492
22.88488314827121 52.0729
22.907599215359284 53.3667
22.93031619487366 54.742
22.953211574954405 55.9398
22.975930389478226 56.9723
22.998650119445763 57.4619
23.02137076586092 57.1355
23.044269845560063 55.9433
23.06699233506288 54.1008
23.089715744034912 52.2267
23.112617610931565 50.4359
23.135342869061212 48.931999999999995
23.158069049684816 47.8611
23.1807961538087 47.247
23.20370174880544 47.0054
23.226430710184808 46.9444
23.249160598093425 46.8828
23.271891413539002 46.8489
23.294800752937697 46.9427
23.31753343374794 47.2359
23.340267045128353 47.1463
23.36300158808808 47.5847
23.38591468821339 47.7656
23.408651104658304 48.3137
23.431388455719986 48.8338
23.454126742409 49.74100000000001
23.4770436196085 50.6338
23.499783787914662 52.0289
23.522524894889884 53.412
23.54526694154616 54.8169
23.56818761219047 56.4359
23.59093154860734 57.3457
23.613676427751283 58.0803
23.636422250635754 57.7148
23.659346731118656 56.2357
23.68209445191868 54.3097
23.704843119509587 51.745
23.72759273490623 49.5204
23.750521041644767 47.7086
23.77327256312355 46.2695
23.796025035462787 45.3097
23.818956224555475 44.7689
23.841710609113413 44.5343
23.86446594758979 44.2231
23.887222241002014 44.015
23.910157285144578 43.5161
23.932915498962537 43.7219
23.955674670778713 43.6084
23.978434801611975 43.2185
24.001373717286125 43.1104
24.024135776723917 43.1091
24.046898798245582 43.0528
24.06966278287146 42.873000000000005
24.092605586582614 42.6307
24.115371508023642 42.4954
24.1381383956401 42.3942
24.16090625045381 42.3511
24.183852958731244 42.2859
24.206622758582608 42.2285
24.229393528706886 41.9441
24.252165270127392 41.9914
24.27511589952438 42.0099
24.297889594216997 41.7838
24.32066426328598 41.8297
24.34343990775613 41.7563
24.36639447485003 41.5788
24.38917208083877 41.4468
24.41195066531332 41.3964
24.43490819850244 41.4132
24.457688750692377 41.2966
24.48047028445616 41.2816
24.503252800821233 41.4357
24.526214300784112 41.3907
24.548998793132213 41.4128
24.57178427117417 41.3849
24.59457073593893 41.4878
24.617536219319863 41.4297
24.64032466834748 41.5672
24.663114107195035 41.5252
24.685904536893013 41.2221
24.708874020360852 41.106
24.731666442613744 41.1669
24.754459858818787 40.9069
24.777254270007962 40.8591
24.80022777025625 40.7889
24.82302418230472 40.644
24.845821592443674 40.529
24.86862000170663 40.6376
24.891597535453727 40.3973
24.914397953892728 40.6495
24.93719937456671 40.546
24.96000179851076 40.6829
24.98298338249997 40.9009
25.00578782394922 41.0713
25.028593271784167 41.2359
25.05157790644186 41.4194
25.07438537804115 41.6648
25.097193859145293 41.9736
25.120003350792075 42.2124
25.142992065061257 42.5844
25.165803588823465 43.0215
25.18861612625217 43.3626
25.211429678386736 43.3624
25.234422489079968 43.5409
25.257238081693636 43.6074
25.280054692141732 43.7886
25.3028723214652 43.9044
25.325869245420463 43.995
25.348688923599397 44.1393
25.371509623787006 44.1538
25.394331347025812 43.9357
25.41733240110666 43.3316
25.440156181590016 42.8057
25.46298098826268 42.1857
25.48580682216873 41.5784
25.50881202326435 40.7896
25.53163992281684 40.1717
25.55446885274561 40.0193
25.577298814096377 39.5504
25.600308179121807 39.4624
25.623140214533745 39.3937
25.64597328451537 39.3052
25.66898578564376 39.1254
25.691820936010206 39.0538
25.714657124097695 39.0466
25.737494350954734 39.0896
25.760511045684957 38.9281
25.783350361364224 39.0206
25.806190718969255 39.0323
25.82903211955018 39.1215
25.852053024868923 39.2221
25.874896522722523 39.2895
25.897741066713106 39.2326
25.920586657892454 39.3693
25.943611790812668 39.5057
25.966459487728237 39.4398
25.989308234998564 39.5035
26.01215803367705 39.9707
26.03518741123814 39.9984
26.05803932412957 40.2682
26.080892291600094 40.4366
26.10374631470478 40.4776
26.12677995397268 40.6637
26.14963609978026 40.7299
26.172493304397875 40.3134
26.19535156888223 40.1404
26.218389486949604 39.6746
26.241249882640123 39.3334
26.26411134137826 39.2056
26.28715248187403 39.0182
26.31001607820869 38.7125
26.3328807407756 38.6123
26.35574647063438 38.736
26.37879191991473 38.773
26.401659795896734 38.7262
26.424528742360263 38.9098
26.447398760366614 39.0725
26.470448535598294 39.1156
26.49332070826805 39.2989
26.516193955675355 39.5932
26.53906827888316 39.8183
26.562122397260108 39.9956
26.584998883685063 40.5006
26.607876449110325 40.8243
26.63075509460056 41.1059
26.65381357334404 41.2181
26.67669439061878 41.2353
26.699576291163382 41.3631
26.722459276044212 41.2798
26.745522132402975 40.8559
26.768407297649354 40.6426
26.791293550442003 40.2426
26.814180891848974 39.9079
26.837248143099337 39.5706
26.860137673466657 39.5368
26.88302829566349 39.303000000000004
26.90592001075963 39.117
26.92899167420566 38.9013
26.951885586870763 38.4752
26.974780595655517 38.3028
26.99785558178161 38.0453
27.020752794605112 37.8927
27.043651106772522 37.7356
27.06655051935668 37.6243
27.089629948036183 37.3946
27.112531573292053 37.3731
27.135434302194138 37.3978
27.158338135817015 37.2782
27.181422024430987 37.3803
27.204328079372566 37.2039
27.22723524226965 37.2158
27.250143514198573 37.2939
27.273231880156334 37.2181
27.296142382065014 37.1221
27.319053996245536 36.9535
27.341966723775965 37.0753
27.365059584515222 37.2124
27.38797455070062 37.2561
27.410890633481237 37.0589
27.433807833936918 37.1642
27.456905206923906 37.3325
27.47982465472398 37.2872
27.502745223449743 37.3197
27.525666914182825 37.556
27.548768816912457 37.4823
27.571692763693633 37.3459
27.59461783573812 37.3088
27.617723149491244 37.2038
27.640650484125285 37.0641
27.66357894728264 36.972
27.686508540048052 36.9844
27.709618414237887 36.7679
27.732550278321757 36.7693
27.755483275279115 36.6407
27.778417406196485 36.5688
27.801531858397514 36.6268
27.824468269376716 36.4606
27.847405817586786 36.5448
27.870344504116094 36.7617
27.893463551932008 36.9646
27.916404527281053 37.0599
27.93934664422563 37.2667
27.962289903855886 37.2769
27.98541356491974 37.5961
28.00835912214229 37.8123
28.03130582533231 38.1331
28.054253675581805 38.2841
28.077381967556104 38.2046
28.100332124185126 38.1554
28.123283431160893 38.2172
28.146235889577238 38.2039
28.169368830154156 37.9924
28.192323603752033 37.7844
28.215279532083304 37.3839
28.238415973016764 37.1289
28.261374223145094 37.0819
28.284333631303806 36.9734
28.307294198589954 36.6999
28.330435319167677 36.2238
28.353398217078915 35.9229
28.376362277420153 35.8018
28.39932750129032 35.5358
28.422473319286713 35.4857
28.44544088262495 35.3952
28.468409612800283 35.1789
28.491379510913497 34.9826
28.51453004413313 34.8352
28.53750229057244 34.8203
28.56047570826344 34.7745
28.583450298308804 34.8338
28.606605564586562 34.6142
28.629582511831156 34.6444
28.65256063474956 34.4647
28.675539934446338 34.441
28.698699951647605 34.5022
28.72168161743193 34.3538
28.74466446331978 34.4009
28.767648490417624 34.2791
28.790813276438353 34.2694
28.813799678527303 34.3252
28.836787265157085 34.3384
28.859955641890075 34.3074
28.882945610203045 34.3988
28.905936766392035 34.2959
28.928929111566863 34.1929
28.952102288520145 34.2504
28.975097024308607 34.0769
28.998092952423807 34.0176
29.021090073977508 33.9894
29.04426806913204 33.7976
29.067267590245258 33.6285
29.090268308143695 33.5109
29.11327022394099 33.4083
29.13645305530891 33.3445
29.159457379627167 33.2916
29.18246290519685 33.2015
29.20546963313352 33.2692
29.22865731875826 33.2471
29.25166646419296 33.1286
29.27467681535305 33.0901
29.29768837335608 33.2937
29.320880931312562 33.1554
29.34389491580634 33.2163
29.366910110507334 33.3666
29.38992651653503 33.341
29.41312396492981 33.3168
29.436142806456754 33.2673
29.45916286268059 33.1141
29.48236399319994 33.0275
29.50538649169417 32.8662
29.528410208259935 32.7428
29.55143514402014 32.5282
29.574641196749695 32.3413
29.597668583816574 32.3152
29.6206971934585 32.0943
29.64372702680042 32.1098
29.666938019934474 32.037
29.689970313635285 31.8824
29.713003834422636 31.9311
29.73603858342347 31.8548
29.759254535188578 31.7097
29.78229175361658 31.7037
29.80533020365064 31.8285
29.82836988641968 31.7848
29.85159081507472 31.712
29.874632976355343 31.6636
29.89767637376955 31.6134
29.920721008448314 31.464000000000002
29.9439469322847 31.5268
29.96699405457564 31.4411
29.9900424175358 31.4427
30.013092022298157 31.4358
30.03632295963995 31.3148
30.059375061131373 31.4381
30.08242840783577 31.5109
30.105483000888153 31.5246
30.128718970092244 31.3375
30.151776069006917 31.4271
30.17483441768648 31.4757
30.198074175317235 31.3558
30.221135036724256 31.3306
30.24419715131772 31.425
30.267260520236203 31.236
30.290505341942243 31.3189
30.313571232750228 31.3232
30.336638381310948 31.3589
30.35970678876503 31.1655
30.38295669299435 31.1874
30.40602763151657 31.0528
30.429099832366074 31.1309
30.452173296685572 31.0947
30.47542830191959 31.0766
30.498504306502497 31.0489
30.521581577995562 31.0616
30.544660117543582 31.1607
30.56792024229725 31.2061
30.59100133132069 31.1187
30.614083691845494 31.0963
30.637167325018545 31.2525
30.660432587840603 31.2965
30.683518779717886 31.3264
30.70660624769615 31.4652
30.729694992924372 31.3984
30.75296541239743 31.4138
30.77605672557558 31.3093
30.799149319462742 31.3602
30.8224236211637 31.1889
30.845518789950724 31.134
30.868615242910597 31.1711
30.891712981195973 30.8467
30.91499247215866 30.7501
30.938092794619365 30.678
30.96119440587579 30.5914
30.984297307082752 30.4447
31.00758200598383 30.3654
31.030687500658694 30.4116
31.053794288760695 30.3835
31.076902371446767 30.1686
31.100192296997445 30.2858
31.12330298246119 30.1239
31.14641496599209 30.0491
31.169528248749216 30.026999999999997
31.19282341969534 29.9792
31.215939314557186 29.9635
31.239056512134788 30.116
31.262175013589378 29.9596
31.28547544871168 29.8894
31.30859657161541 29.8875
31.331719001892175 29.9239
31.35484274070538 30.0018
31.378148458819545 30.0617
31.401274828443725 29.9918
31.424402510106933 30.0281
31.447712205419993 30.0645
31.470842524931633 29.9921
31.493974159989783 30.0131
31.51710711176168 30.0352
31.54042212308802 30.0158
31.563557722100917 29.9582
31.586694641341655 29.7731
31.609832881979628 29.6927
31.63315322823208 29.6872
31.656294125521327 29.5506
31.679436347728515 29.5403
31.70257989602529 29.4192
31.725905596152327 29.3141
31.74905181052835 29.2836
31.772199354521323 29.3199
31.79534822930507 29.2709
31.818679302290967 29.241
31.84183085259981 29.2231
31.864983737233473 29.2971
31.88813795736804 29.2106
31.911474422233013 29.1665
31.934631327356435 29.3445
31.9577895715215 29.2236
31.980949155906522 29.2341
32.004291031706956 29.136999999999997
32.027453310562606 29.1413
32.05061693318573 29.0883
32.07396288236386 29.0049
32.09712920658542 28.9722
32.12029687812702 28.928
32.14346589817093 28.7909
32.166817291729984 28.7588
32.18998902288583 28.645
32.21316210610336 28.6133
32.23633654256711 28.4641
32.259693399663725 28.3156
32.282870556771144 28.212
32.30604907069099 28.3188
32.329228942610065 28.2884
32.35259128243769 28.0904
32.375773884550505 28.1883
32.398957848235646 27.9833
32.422143174682176 28.0013
32.445511016471215 27.964000000000002
32.468699082679954 27.8896
32.49188851523011 27.8496
32.51507931531304 27.7419
32.538452678331 27.8506
32.56164622776311 27.6781
32.58484114831493 27.6015
32.60803744118015 27.6173
32.631416344731896 27.5712
32.654615396551876 27.5827
32.67781582427913 27.6799
32.701198898634416 27.5468
32.72440209253756 27.4496
32.747606665947124 27.3952
32.77081262006088 27.256999999999998
32.79420126883317 27.2593
32.81740999876112 27.2753
32.840620112999424 27.1981
32.86383161274818 27.0848
32.88722585534586 27.1504
32.91044014056596 27.2284
32.933655814909734 27.1909
32.95687287957963 27.2225
32.98027273544904 27.0415
33.00349259526636 26.9826
33.026713849030116 27.0651
33.04993649794511 26.9954
33.073341986570746 26.9683
33.09656744032826 26.9505
33.11979429286444 26.9687
33.14302254538647 26.947
33.166433686291185 26.9593
33.18966475336992 26.9029
33.212897224069096 26.818
33.23613109959831 26.8998
33.259547912343415 26.8507
33.2827846121627 26.8254
33.306022720453775 26.7435
33.32926223842861 26.5589
33.352684742614166 26.6483
33.37592709463173 26.736
33.399170859982064 26.5983
33.422597648419426 26.476
33.44584425514446 26.3616
33.46909227885668 26.362
33.4923417207723 26.2163
33.51577423505344 26.2848
33.539026528130385 26.0902
33.56228024307245 26.0915
33.585535381098246 25.9689
33.60897364093058 25.9883
33.63223163992385 25.9205
33.6554910656699 25.8522
33.678751919389796 25.8663
33.702195944520106 25.8376
33.72545966903325 25.7871
33.74872482519663 25.6769
33.771991414233746 25.695
33.79544122444841 25.7096
33.81871069412428 25.6132
33.84198160035767 25.6395
33.86525394437455 25.7001
33.88870955949969 25.5427
33.911984794020626 25.5755
33.93526147001624 25.5266
33.958539588715006 25.4334
33.98200102861669 25.3309
34.0052820477047 25.3092
34.02856451319451 25.2908
34.05203033759056 25.2806
34.07531571090147 25.2146
34.09860253431845 25.1905
34.121890809074316 25.1416
34.145362493118924 25.043000000000003
34.16865368561615 25.0263
34.191946333164054 24.9594
34.21524043699793 25.0243
34.23871800066799 24.9244
34.26201503218366 24.8624
34.28531352370466 24.8
34.30861347646881 24.7928
34.33209693978188 24.8022
34.3553998301885 24.7673
34.378704185565205 24.6655
34.402010007152356 24.6269
34.42549939016683 24.6124
34.44880815937748 24.5111
34.472118398533134 24.4176
34.49543010887669 24.445999999999998
34.51892543169198 24.3493
34.54224009966052 24.4367
34.56555624255917 24.3718
34.58887386163339 24.3285
34.61237514439016 24.2562
34.6356957311114 24.234
34.65901779775809 24.1594
34.68252356662995 24.1453
34.705848608458616 24.1688
34.72917513396849 24.104
34.75250314440949 23.9722
34.77601490857862 23.8957
34.799345904259795 23.9001
34.82267838863559 23.9706
34.846012362958525 23.9505
34.869530142679984 23.9755
34.89286711232212 23.8423
34.91620557568269 23.8639
34.93954553401677 23.7747
34.9630693495876 23.7631
34.986412313340814 23.8499
35.00975677584668 23.8157
35.033102738362956 23.6793
35.05663261012228 23.574
35.0799815881786 23.6188
35.10333207003229 23.6291
35.12668405694369 23.5767
35.150220005273056 23.517
35.17357501786656 23.537
35.19693153931268 23.4413
35.220289570874385 23.4407
35.24383161619786 23.3628
35.267192683604904 23.4383
35.290555264930376 23.3372
35.314101899412165 23.3836
35.33746752422433 23.3119
35.36083466676374 23.2787
35.38420332829803 23.2849
35.407756095629054 23.2703
35.43112781085063 23.2585
35.45450104888391 23.2393
35.477875810999194 23.2616
35.50143473172161 23.2365
35.52481255774625 23.2723
35.54819191167777 23.2038
35.57157279478914 23.0589
35.595137889488406 23.11
35.61852184675279 22.9855
35.641907337029984 22.9389
35.665294361595684 22.9392
35.68886565090076 22.9026
35.7122557598848 22.8581
35.73564740699838 22.8891
35.759040593519934 22.7487
35.78261809810353 22.7983
35.80601437933051 22.735
35.829412203814705 22.6858
35.85281157283719 22.5904
35.876395313415884 22.5488
35.8997977874528 22.5776
35.92320180988546 22.4964
35.946790244133936 22.4547
35.97019737933222 22.4933
35.993606066789866 22.4264
36.01701630779276 22.4308
36.04061101440684 22.4147
36.06402437852291 22.384
36.08743930005611 22.2731
36.1108557802951 22.275
36.13445678011326 22.26
36.15787639383515 22.1862
36.18129757014299 22.193
36.20472031032821 22.1709
36.22832762423364 22.108
36.25175350829375 22.1101
36.275180960119776 22.03
36.298609981005924 22.0189
36.32222362992669 21.991999999999997
36.34565580510207 21.9179
36.36908955323448 21.9447
36.39252487562093 21.85
36.416144880530226 21.8221
36.43958336764275 21.862
36.463023432914625 21.795
36.486465077645676 21.7152
36.51009145956204 21.7655
36.53353627947859 21.750999999999998
36.55698268276811 21.753
36.58043067073321 21.6599
36.60406345072071 21.5445
36.62751462435344 21.5434
36.65096738658405 21.5909
36.67460498210655 21.4852
36.69806093788647 21.5519
36.72151848619297 21.3947
36.744977628333636 21.4648
36.76862165890998 21.3704
36.79208400512205 21.3169
36.81554794910557 21.3343
36.83901349217101 21.2173
36.862663978991606 21.2701
36.88613273667352 21.2307
36.90960309738324 21.1715
36.933075062434064 21.1358
36.95673202673572 21.1347
36.98020721697122 20.9913
37.003684015502365 20.9832
37.027162423645365 21.0046
37.050825886711465 20.9634
37.07430753063053 20.854
37.09779078812467 20.8226
37.121275660513014 20.8026
37.144945643673694 20.7773
37.16843376245278 20.7751
37.19192350009803 20.7224
37.215414857931435 20.6816
37.239091382563885 20.6556
37.262585997426164 20.7028
37.28608223645736 20.6128
37.309763684451696 20.5272
37.33326318851098 20.5215
37.356764320726555 20.5356
37.380267082425526 20.5615
37.40395510942588 20.4628
37.42746114683234 20.4522
37.45096881771841 20.3153
37.474478123414166 20.3795
37.49817275092816 20.2858
37.52168534303452 20.3334
37.54519957395567 20.2102
37.568715445024665 20.2659
37.592416694607714 20.2179
37.61593586281424 20.2711
37.63945667518264 20.2372
37.66297913304891 20.0967
37.68668702630454 20.1265
37.710212792059274 20.0231
37.733740207334854 20.0529
37.757269273470364 19.9429
37.780983832050374 19.9667
37.80451621684926 19.8716
37.82805025654007 19.892
37.851585952464795 19.8701
37.8753071980695 19.7736
37.89884622345676 19.7904
37.92238690911902 19.8158
37.94611318753442 19.6817
37.969657210779765 19.6925
37.99320289834801 19.694000000000003
38.016750251586465 19.6111
38.04048325513017 19.5479
38.06403395679343 19.5684
38.087586328183946 19.5362
38.11114037065203 19.5316
38.13488012115898 19.5016
38.1584375229181 19.439
38.181996599821 19.4002
38.205557353221124 19.3458
38.229303872575656 19.3853
38.2528679961576 19.3412
38.27643380031219 19.2717
38.30000128639589 19.3215
38.32375459653193 19.226
38.34732546371299 19.2349
38.37089801690786 19.1182
38.39447225747609 19.0954
38.418232380377425 19.1186
38.441810012983396 19.105999999999998
38.46538933705673 19.0296
38.488970353960084 19.0403
38.51273731166058 19.0033
38.536321731567014 18.9487
38.55990784840681 18.9656
38.58367995004091 18.8884
38.60726947812959 18.8035
38.63086070726198 18.8707
38.654453638806274 18.8716
38.678232613930824 18.7902
38.70182896773327 18.7646
38.72542702806741 18.7003
38.7490267963045 18.7474
38.77281266709232 18.6933
38.79641586862214 18.6736
38.8200207821842 18.6037
38.843627409152944 18.6169
38.86742019782782 18.592
38.891030269149255 18.4793
38.914642058016156 18.4784
38.938255565806124 18.417
38.96205529464307 18.4179
38.98567225787121 18.3682
39.00929094417078 18.3586
39.03291135492255 18.311
39.05671804624804 18.2815
39.080341923549106 18.3204
39.103967529460334 18.2182
39.127594865365744 18.1621
39.15140854155791 18.1506
39.17503935514948 18.1334
39.19867190290282 18.1355
39.22249083587951 18.0585
39.24612686969409 18.0644
39.269764641845306 18.0078
39.293404153722804 18.0301
39.317230110864074 17.9031
39.34087311998506 17.9026
39.36451787301696 17.906
39.388164371352595 17.8779
39.41199737518003 17.8678
39.43564738196752 17.8513
39.45929913825317 17.8364
39.48295264543308 17.8256
39.506792718520884 17.7619
39.530449745387216 17.7246
39.55410852735203 17.6346
39.57776906581474 17.666
39.60161623079 17.6071
39.625280300200025 17.5923
39.64894613032202 17.6034
39.67261372255866 17.6124
39.6964680021016 17.5301
39.72013913657293 17.4964
39.74381203738292 17.53
39.76748670593756 17.479
39.79134812278169 17.4839
39.81502634488497 17.464000000000002
39.83870633896685 17.3359
39.862388106436654 17.3145
39.88625668336918 17.3248
39.90994201572829 17.3534
39.933629125719285 17.298
39.957503091207826 17.2287
39.9811937746168 17.2546
40.00488623990914 17.2219
40.02858048850006 17.1214
40.05246165409549 17.1409
40.076159487492085 17.0934
40.099859108448875 17.0927
40.123560518384345 17.0849
40.1474489070226 17.0307
40.171153913178564 16.9094
40.194860712584955 16.9548
40.2185693066637 16.9538
40.242464941335314 16.8511
40.26617714307655 16.8444
40.289891143772046 16.8395
40.3136069448471 16.8285
40.33750984859743 16.8366
40.3612292688043 16.784000000000002
40.3849504936829 16.76
40.40867352466194 16.7241
40.43258372059144 16.7316
40.45631038219906 16.6789
40.48003885420956 16.635
40.503769138055105 16.65
40.52768664931955 16.5963
40.55142057531802 16.5882
40.57515631746428 16.5323
40.599079334038514 16.5224
40.62281872700477 16.4403
40.64655994043941 16.4401
40.67030297578061 16.4644
40.69423334835778 16.4008
40.71798004609188 16.4259
40.74172857006355 16.3896
40.76547892171441 16.3454
40.7894166736039 16.2575
40.813170699248566 16.2734
40.83692655691388 16.2089
40.86068424804498 16.2262
40.884629402612525 16.169
40.908390779366385 16.2068
40.932153993938 16.1676
40.95591904777605 16.102999999999998
40.979871628443995 16.1673
41.003640379561936 16.0493
41.02741097430883 15.9502
41.05118341413683 16.0134
41.075143444384416 16.0085
41.098919593177826 15.9971
41.1226975914255 15.9407
41.14647744058318 15.9019
41.170444943946755 15.8959
41.19422851378379 15.8422
41.218013938914645 15.7735
41.24198706625173 15.7892
41.26577622087193 15.7913
41.289567235177785 15.7631
41.31336011063129 15.7063
41.337340752422875 15.7173
41.361137369129835 15.7095
41.38493585138705 15.6951
41.40873620066004 15.6316
41.43272438060107 15.5994
41.45652848292052 15.5476
41.48033445666918 15.5107
41.50414230331616 15.4818
41.528138045159764 15.5398
41.551949656675205 15.4694
41.575763145513235 15.4644
41.59957851314666 15.4052
41.62358184070442 15.4326
41.64740098505737 15.3649
41.6712220126409 15.2789
41.69504492493139 15.2834
41.71905586207357 15.2827
41.74288256296395 15.283
41.766711153007456 15.1927
41.79054163368412 15.1738
41.814560204340054 15.2152
41.838394485526365 15.2546
41.86223066180303 15.171
41.88625497706819 15.1192
41.910094962812 15.1057
41.93393684811168 15.0737
41.95778063445365 14.9801
41.981812625263366 15.0269
42.00566023303407 15.0157
42.029509746323676 14.9377
42.05336116662236 14.9755
42.077400857069705 14.8984
42.10125611078846 14.9179
42.12511327600405 14.8546
42.14897235421036 14.8032
42.173019768448455 14.8377
42.19688269209613 14.8145
42.22074753323349 14.7532
42.24461429335818 14.727
42.268669455600495 14.7229
42.292540073217886 14.7036
42.31641261433284 14.6921
42.34028708044675 14.6409
42.36435001496739 14.6242
42.38822835065557 14.5796
42.41210861586426 14.5572
42.4359908120986 14.5748
42.46006154323262 14.4887
42.48394762115317 14.4575
42.507835634632315 14.5185
42.531912233047436 14.4884
42.55580413732265 14.4173
42.579697981698 14.3771
42.60359376768525 14.3724
42.62767820545945 14.3128
42.65157789440821 14.3176
42.67547952952185 14.3273
42.699383112316 14.3124
42.72347541395347 14.209000000000001
42.74738291190531 14.1956
42.771292362102166 14.241
42.795203766063516 14.1897
42.819303956130405 14.1388
42.843219287476536 14.1172
42.86713657716324 14.1097
42.89105582671383 14.0706
42.91516392983864 14.0485
42.939087119032166 14.008
42.963012272677304 14.0147
42.98693939230129 14.0068
43.01105543317513 13.9714
43.034986504731386 13.9082
43.05891954686589 13.8835
43.08285456110972 13.9082
43.10697856448665 13.8386
43.130917542983475 13.767999999999999
43.15485849820081 13.7801
43.17880143167367 13.747
43.20293342237094 13.7531
43.226880332449 13.7371
43.25082922540554 13.7622
43.27496722682525 13.7392
43.29892010567796 13.6242
43.32287497204102 13.6468
43.34683182745632 13.6369
43.370977859791836 13.5902
43.39493871351105 13.5694
43.41890156092628 13.5882
43.44286640358341 13.5505
43.46702049182749 13.5143
43.49098934522816 13.4729
43.51496019852649 13.4459
43.5389330532723 13.4333
43.56309522248204 13.3717
43.58707210044314 13.4057
43.61105098451946 13.3805
43.63503187626491 13.3618
43.659202151562134 13.3421
43.68318707902681 13.3084
43.70717401884041 13.2763
43.731162972560874 13.251
43.75534137913236 13.2135
43.779334381108384 13.1712
43.803329401683186 13.1944
43.82732644241872 13.1554
43.8515130055166 13.1726
43.87551410707659 13.1195
43.89951723350145 13.112
43.923709934595614 13.045
43.94771713129917 13.0339
43.97172635758096 13.0753
43.99573761501002 13.045
44.0199385169922 12.9517
44.04395385732619 12.9668
44.067971233533086 12.9664
44.09199064718605 12.8764
44.11619977548961 12.8363
44.14022328470671 12.8555
44.16424883610785 12.8543
44.18827643127035 12.8902
44.21249381139513 12.8138
44.236525514814076 12.738
44.26055926674478 12.7653
44.28459506876863 12.8053
44.3088207262813 12.7502
44.33286064928722 12.7163
44.35690262714919 12.6355
44.38094666145278 12.6397
44.4051806219871 12.6357
44.42922879003185 12.5699
44.45327901929361 12.6072
44.477331311362136 12.5493
44.501573600619416 12.5413
44.525630039221795 12.5158
44.54968854541895 12.4909
44.573937102200176 12.4584
44.5979997645541 12.4628
44.622064499300315 12.4377
44.64613130803592 12.4385
44.67038823869318 12.4429
44.69445921643748 12.3755
44.718532272981385 12.3317
44.742607409926194 12.3174
44.76687274034801 12.2902
44.79095205918753 12.2529
44.81503346325094 12.2602
44.839116954143876 12.2617
44.86339071028742 12.202
44.88747839599524 12.1675
44.91156817336837 12.1825
44.93566004401666 12.1324
44.959942251908146 12.1599
44.984038330325966 12.1504
45.00813650686762 12.1119
45.03223678314731 12.1063
45.05652746888232 12.038
45.08063196592069 12.026
45.104738567558705 11.9895
45.128847275414856 11.9811
45.15314646515866 11.95
45.17725940679741 11.9337
45.20137445952892 11.8836
45.22568004865265 11.8974
45.24979934496396 11.8582
45.27392075725247 11.8301
45.29804428714431 11.8151
45.322358426247604 11.8091
45.346486212804315 11.7938
45.370616121861914 11.7897
45.39474815505086 11.7097
45.41907087049246 11.695
45.4432071734666 11.6831
45.46734560548283 11.665999999999999
45.49148616817604 11.6711
45.51581748638564 11.6735
45.5399623320197 11.6433
45.56410931325473 11.6022
45.58825843173002 11.6209
45.61259837920865 11.5696
45.636751793816 11.5748
45.66090735060093 11.5425
45.68506505120716 11.4827
45.7094136545275 11.4702
45.73357566449271 11.4389
45.75773982322992 11.4888
45.78190613238733 11.4413
45.806263418194064 11.3768
45.83043404997326 11.3686
45.85460683713677 11.3754
45.87897065658495 11.3418
45.90314777634752 11.2583
45.92732705646868 11.2859
45.9515084986045 11.3017
45.97588104735473 11.2384
46.00006683541565 11.2667
46.02425479047904 11.2299
46.04844491420549 11.1875
46.0728262191024 11.1904
46.09702070211635 11.1681
46.12121735879483 11.1046
46.14541619080294 11.1262
46.169806278764455 11.124
46.194009483459034 11.0823
46.21821486849841 11.0559
46.24242243555223 11.0522
46.266821333570014 11.0087
46.29103328674601 11.0283
46.31524742696538 11.0196
46.33946375590237 10.9729
46.36387149104216 10.964
46.38809221957392 10.8988
46.41231514186606 10.9046
46.436540259597464 10.9054
46.460956858999374 10.8617
46.48518638983522 10.8538
46.509418121166966 10.8084
46.533652054678114 10.7894
46.55807754555709 10.7604
46.58231590571962 10.7963
46.60655647313217 10.7593
46.630988654873654 10.7125
46.655233659129024 10.6938
46.67948087571551 10.6859
46.70373030632484 10.6751
46.72817142736393 10.6454
46.752425308428684 10.6142
46.77668140861147 10.6098
46.80093972960865 10.5298
46.82538981736788 10.5327
46.849652602470904 10.5251
46.87391761349769 10.505999999999998
46.8981848521493 10.5047
46.9226439341274 10.4827
46.946915650573224 10.4624
46.97118959976749 10.4783
46.99546578341598 10.4327
47.019933887188216 10.3937
47.04421456235744 10.3861
47.06849747711879 10.3584
47.09278263318286 10.3062
47.11725978640143 10.3008
47.14154944775105 10.3063
47.165841355555656 10.3017
47.1901355115306 10.2601
47.214621741924994 10.2585
47.23892041698887 10.2348
47.26322134538975 10.2198
47.28771440635075 10.1838
47.31201986422527 10.1879
47.33632758061436 10.1464
47.360637557241866 10.1147
47.38513974410611 10.1348
47.40945426407847 10.116
47.43377104948137 10.0918
47.45809010204344 10.0783
47.48260144275502 10.0908
47.506925052572285 10.0826
47.53125093475548 10.0277
47.55557909103813 9.97001
47.58009961361992 9.963610000000001
47.60443234110732 9.98276
47.62876734791564 9.93518
47.65310463578333 9.898769999999999
47.6776343683373 9.8766
47.7019762413987 9.88362
47.72632040075572 9.86416
47.75066684815169 9.87465
47.77520581885936 9.83207
47.799556865477655 9.80831
47.823910205386 9.82446
47.84826584033272 9.79091
47.87281407745551 9.73063
47.89717432569297 9.74938
47.92153687423484 9.72601
47.94609208429692 9.74522
47.97045925671401 9.69459
47.99482873471275 9.6868
48.01920052005013 9.68914
48.04376504619224 9.66035
48.068141469543484 9.644219999999999
48.09252020552573 9.58013
48.11690125590099 9.56664
48.1414751266064 9.55532
48.16586082917454 9.53304
48.19024885144316 9.53542
48.2146391951793 9.50504
48.239222439012764 9.50738
48.26361744916137 9.47874
48.28801478610016 9.46903
48.31241445160131 9.442639999999999
48.337007097209366 9.45519
48.36141144338331 9.42629
48.38581812345755 9.3982
48.41022713920929 9.396519999999999
48.434829215320704 9.356710000000001
48.45924292604658 9.35469
48.48365897780325 9.326989999999999
48.50807737237308 9.294089999999999
48.532688907799276 9.32953
48.55711201168574 9.330789999999999
48.581537463754074 9.27923
48.60615611725119 9.2455
48.63058628942721 9.24718
48.65501881516546 9.229439999999999
48.6794536962573 9.211269999999999
48.70408185970339 9.192210000000001
48.72852147531801 9.170010000000001
48.75296345168211 9.13954
48.77740779059232 9.15081
48.80204549302823 9.12664
48.82649458091802 9.100010000000001
48.85094603676547 9.04658
48.87539986237231 9.06733
48.90004713292306 9.0538
48.92450572200832 9.02356
48.94896668628025 8.99108
48.97343002754588 9.00388
48.99808689542115 8.97799
49.02255501470614 8.92314
49.04702551642794 8.93643
49.0714984023988 8.95996
49.096164896893235 8.931339999999999
49.120642575466796 8.87703
49.145122643748394 8.880989999999999
49.16960510355558 8.874889999999999
49.19428125404938 8.84215
49.2187685210852 8.83233
49.243258185121555 8.8007
49.26794160167084 8.81352
49.2924360839405 8.76171
49.31693296869764 8.75745
49.34143225776915 8.73227
49.36612538195438 8.70343
49.39062950396021 8.70904
49.41513603578346 8.681610000000001
49.4396449792564 8.64133
49.46434784069503 8.6792
49.488861631846454 8.604510000000001
49.513377840166804 8.606010000000001
49.537896467493745 8.59724
49.56260909589029 8.561589999999999
49.587132585683285 8.59806
49.611658500018365 8.56494
49.636186840738596 8.521289999999999
49.66090926588511 8.52175
49.685442483902584 8.49944
49.70997813385706 8.47645
49.734516217597076 8.457089999999999
49.75924846937352 8.43272
49.7837914452858 8.454310000000001
49.80833686055187 8.41991
49.83288471702571 8.37433
49.85762682540054 8.39975
49.882179588965734 8.32952
49.9067347993235 8.34946
49.93129245833333 8.35861
49.95604445336378 8.32703
49.98060703442832 8.2847
50.005172069746266 8.28404
50.02993150438364 8.27673
50.05450147301533 8.27595
50.07907390151433 8.25634
50.10364879174981 8.22044
50.12841816587289 8.21773
50.1529980044635 8.2066
50.17758031042124 8.16817
50.20216508562089 8.15103
50.22694442953363 8.151660000000001
50.25153416817468 8.142719999999999
50.27612638170508 8.11238
50.300721072005196 8.12316
50.325510416102105 8.064219999999999
50.350110084975064 8.07817
50.37471223628208 8.07553
50.39931687190919 8.05306
50.424116246675766 8.01758
50.44872587605249 7.99482
50.47333799543065 7.99395
50.49795260670191 7.976369999999999
50.52276204271512 7.93605
50.54738166295838 7.9803
50.57200378079314 7.94757
50.596628398116835 7.901680000000001
50.62144792604559 7.905539999999999
50.646077567609396 7.90905
50.670709714377715 7.8880300000000005
50.69553683636198 7.845280000000001
50.72017401885922 7.828989999999999
50.7448137122895 7.8004
50.76945591856022 7.8341899999999995
50.79429318636823 7.82423
50.818940443716784 7.80315
50.84359021965163 7.73066
50.868242516085964 7.77033
50.893089960641895 7.75175
50.917747323549435 7.70137
50.94240721271973 7.697139999999999
50.96706963007175 7.676310000000001
50.99192728239342 7.68975
51.01659478166073 7.67528
51.04126481489051 7.63595
51.06593738400761 7.64893
51.090805275207074 7.60785
51.11548294172845 7.61923
51.14016314993547 7.578110000000001
51.164845901758845 7.61278
51.18972406304274 7.56757
51.21441192780656 7.56083
51.23910234200271 7.5525199999999995
51.2637953075678 7.4770199999999996
51.288683770237945 7.494739999999999
51.31338186432707 7.478269999999999
51.33808251561888 7.43717
51.362978729967345 7.44168
51.387684521509755 7.46966
51.41239287610203 7.434260000000001
51.437103795691165 7.3949300000000004
51.46201036644977 7.3639600000000005
51.486726441956634 7.3646
51.51144508832545 7.37529
51.536166307509156 7.3219199999999995
51.56108326624387 7.346
51.58580965706056 7.343
51.61053862657523 7.3311
51.635270176746864 7.3052600000000005
51.66019755512065 7.25356
51.68493429268881 7.261989999999999
51.70967361681515 7.21581
51.73441552946465 7.20935
51.759353359237934 7.2207
51.7841004750961 7.229710000000001
51.80885018539685 7.17172
51.833602492111254 7.1607
51.8585508051424 7.152
51.883308330926425 7.0908
51.90806845906181 7.09633
51.932831191525715 7.1173399999999996
51.95779001977161 7.09311
51.98255798721516 7.06808
52.00732856494335 7.034889999999999
52.03229530577543 7.04793
52.057071130455945 7.01865
52.081849571391054 7.053839999999999
52.106630630568695 7.008830000000001
52.13160794279417 6.98108
52.15639426492067 6.9760100000000005
52.18118321127822 6.97355
52.205974783860896 6.948410000000001
52.23096269971011 6.91297
52.255759551287994 6.92398
52.280559035098186 6.88278
52.30536115314103 6.8891
52.33035970494467 6.886139999999999
52.35516711807904 6.8426800000000005
52.37997717147198 6.83387
52.40478986713005 6.82428
52.42979908731974 6.81354
52.454617094216 6.777360000000001
52.47943774942214 6.79811
52.50426105495102 6.7892399999999995
52.529280976059844 6.774030000000001
52.554109609024096 6.753019999999999
52.57894089837482 6.737539999999999
52.60377484613117 6.70823
52.62880550079408 6.716989999999999
52.65364479223379 6.68001
52.67848674816189 6.674239999999999
52.70352547971946 6.66525
52.72837279155837 6.65152
52.753222773982785 6.6253
52.778075429022984 6.62822
52.80312495150885 6.62688
52.827982978797436 6.61247
52.85284368481815 6.569780000000001
52.87770707160767 6.5699
52.90276741793998 6.53276
52.92763619336701 6.52081
52.952507655698504 6.51052
52.977381806977576 6.49218
53.00245301017842 6.48461
53.02733256653592 6.493930000000001
53.052214817996074 6.47636
53.077099766608484 6.42397
53.102181859804446 6.47392
53.127072229988265 6.433269999999999
53.15196530349892 6.41996
53.17686108239249 6.38972
53.20195409881522 6.4053
53.22685531582556 6.40331
53.25175924441303 6.34548
53.27666588664027 6.34373
53.30176985962693 6.31381
53.3266819565689 6.31588
53.35159677336455 6.27656
53.376514312083096 6.32261
53.40162927507703 6.3148599999999995
53.42655228516116 6.28423
53.45147802340193 6.21477
53.47660125628886 6.20653
53.50153247842639 6.1900699999999995
53.52646643496923 6.23189
53.55140312799818 6.19667
53.576537409691696 6.169569999999999
53.60147960336152 6.18144
53.626424539786164 6.17837
53.65137222105307 6.118609999999999
53.67651758529126 6.14315
53.70147078399681 6.06985
53.72642673383343 6.08752
53.75138543689533 6.14889
53.776541917524526 6.13451
53.801506154876755 6.04369
53.826473151763246 6.07535
53.851442910284916 6.0523
53.87661054126026 5.99465
53.9015858509782 6.00821
53.92656392866066 6.01605
53.95154477641532 6.0034
53.976723591801296 5.99266
54.00171000771266 5.97248
54.02669920004598 5.9711300000000005
54.051691170915745 5.95097
54.076881204886796 5.89768
54.101878760928514 5.91798
54.12687910187696 5.87218
54.152077577768296 5.86747
54.1770835166946 5.83713
54.20209224691339 5.82945
54.22710377055121 5.81761
54.25231352511594 5.812119999999999
54.27733066384342 5.81916
54.30235060239643 5.8494
54.32737334290836 5.800619999999999
54.35259441062629 5.76159
54.377622783395324 5.74223
54.40265396455061 5.72349
54.42768795623251 5.6881900000000005
54.45292037169559 5.674119999999999
54.477960012857906 5.6954199999999995
54.50300247099511 5.64422
54.52804774825457 5.6368599999999995
54.55329154616743 5.5932900000000005
54.57834249018678 5.55737
54.6033962597977 5.55819
54.6284528571545 5.59805
54.653708072335164 5.52923
54.67877035378786 5.50622
54.70383546947698 5.51283
54.72890342156389 5.48683
54.7541700889442 5.44534
54.77924374251975 5.46226
54.8043202390049 5.4465900000000005
54.82959552413022 5.37371
54.8546777351945 5.39942
54.87976279569621 5.37221
54.90485070780914 5.36198
54.930137506558005 5.3135
54.95523115074295 5.347169999999999
54.98032765308844 5.29736
55.005427015775496 5.25943
55.03072536339621 5.27193
55.05583047570572 5.23495
55.080938454927676 5.26115
55.10604930325027 5.2044
55.131359235107396 5.17508
55.15647585066083 5.08882
55.181595341907496 5.13402
55.20671771104285 5.121090000000001
55.232039262617704 5.093030000000001
55.25716741665048 5.1211400000000005
55.28229845518636 5.05826
55.30743238042802 5.01051
55.33276558731939 5.04812
55.357905315183636 5.03009
55.383047936390035 4.95195
55.40819345314859 4.9485
55.433538351073295 4.93432
55.458689688238415 4.92619
55.483843927614096 4.8903099999999995
55.509197623043605 4.86877
55.53435769621134 4.8133099999999995
55.55952067826466 4.7934
55.5846865714265 4.75954
55.61005202069737 4.72503
55.63522376553902 4.76017
55.66039842818645 4.73036
55.68557601087004 4.7467
55.7109532500271 4.65742
55.73613670233794 4.7334
