TT I
1.2716486653135266 7.54758
1.2939594142134223 7.393560000000001
1.3162702121660406 6.33996
1.3385810600174564 6.05923
1.3608919586137629 6.54999
1.383202908801069 6.10648
1.405513911425503 6.535159999999999
1.4278249673332093 6.532719999999999
1.4501343378461518 6.3112
1.4724455028545926 5.94076
1.4947567236847858 5.89786
1.517068001182951 5.96568
1.5393793361953272 6.31991
1.5616907295681737 5.61889
1.5840021821477681 5.29563
1.60631369478041 5.72726
1.6286252683124185 5.84854
1.6509369035901333 4.71626
1.6732468618895553 4.91021
1.695558623192809 4.71814
1.7178704487808514 5.19693
1.7401823395001077 4.78525
1.7625012545597203 4.83021
1.7848028405262486 4.81225
1.8071218901122095 5.2030400000000006
1.8294236121921872 4.22232
1.8517427996910911 4.28444
1.8740620574440425 4.72128
1.8963639900671978 4.627669999999999
1.9186833908139995 4.47952
1.9409854680117449 4.81591
1.9633050151394713 5.10995
1.9856246367570705 4.66782
2.0079269371922672 4.67157
2.03024671027244 4.46483
2.0525491637446027 4.33056
2.074869091674931 3.9845900000000003
2.097171701569106 4.00511
2.1194917877373847 4.93213
2.141811954326636 5.264869999999999
2.164114805233074 5.05633
2.186435135143035 6.5258400000000005
2.208738150935709 17.2786
2.231058647554722 39.0815
2.2533792288321184 30.0199
2.275682498336085 13.0868
2.298003251406138 6.86545
2.3203066942619714 5.9705699999999995
2.3426276225136022 5.55016
2.3649486396617507 5.31984
2.387252348930071 6.05103
2.4095735463442893 6.0221800000000005
2.4318774374315884 6.04985
2.4541988185014043 6.53487
2.476502894794693 7.3909
2.498824462909887 7.37603
2.521146125856138 7.0597
2.5434504863470337 7.389460000000001
2.5657723414244717 6.91949
2.588076895590662 8.3007
2.610398946189713 8.17469
2.6327210958598384 8.09351
2.6550259469304716 7.87396
2.6773482972090137 8.1158
2.6996533504259 7.82486
2.7219759047039602 8.06836
2.744298562293959 8.01047
2.7666039251246595 8.12975
2.7889267918020164 8.380980000000001
2.8112323652516555 8.2919
2.833555444408179 8.208839999999999
2.8558786311183852 8.23102
2.8781845268938557 9.14823
2.9005079311721484 8.68163
2.9228140460410397 9.21083
2.9451376712799635 9.31443
2.967444008632326 9.32008
2.9897678582247247 9.79106
3.0120918213106695 10.3793
3.0343984987899373 11.4594
3.0567226913198637 11.3961
3.079029599759726 11.4696
3.101354025127254 12.0488
3.123678568232338 13.0171
3.145985829517914 13.1019
3.16831061055229 13.7237
3.1906181112775593 14.8878
3.212943133635653 14.7626
3.2352682779763207 15.0115
3.2575761442691227 15.2486
3.2799015350264273 15.8973
3.302209649240067 15.939
3.3245352898092655 16.8292
3.3468436553365257 17.7724
3.369169549113219 18.0058
3.3914955708171384 19.0746
3.413804319727358 19.1025
3.4361305997334863 19.6052
3.4584396084414553 20.0268
3.4807661501462652 20.7448
3.503092824025881 21.0522
3.5254022288463154 21.3127
3.5477291695206588 22.2814
3.5700388426251948 22.7831
3.5923660534916446 24.7662
3.6146934007816114 44.6815
3.637003482731501 118.712
3.6593311053109985 137.787
3.681641464033634 74.4458
3.7039693653009733 34.271
3.726297407241705 26.6544
3.7486081875460804 26.3131
3.7709365132734978 26.4744
3.793247578841633 27.0273
3.8155761917550093 27.2688
3.8378875459837216 27.4987
3.8602164494827234 27.8122
3.882545499606844 28.819000000000003
3.9048572932539183 29.4853
3.9271866390645718 29.6091
3.9494987298666713 29.9238
3.971828374764527 30.5098
3.9941581705403255 31.488000000000003
4.016470713506008 31.7483
4.038800813471445 32.5736
4.061113662089144 32.8484
4.0834440696459176 33.8049
4.105774632334751 34.7407
4.128087945865126 35.2534
4.150418821249301 36.0154
4.172732448931298 37.571999999999996
4.195063640413578 40.5266
4.2173775856475215 45.3251
4.239709096631102 85.5802
4.262040768704612 329.30199999999996
4.284355196706267 461.17
4.306687193387355 296.452
4.329001947444346 102.68700000000001
4.35133427213731 51.8638
4.373666762177566 45.8749
4.395982011761091 45.2807
4.418314834921175 46.5582
4.44063041906622 57.1338
4.4629635787515625 73.6226
4.4852969080429785 73.3982
4.5076130004776225 57.3691
4.529946671403969 51.3173
4.552263106909177 50.037
4.574597122877047 51.215
4.596931312711224 52.5903
4.619248269273446 53.2914
4.6415828092605835 54.4465
4.663900117405352 55.5188
4.686235010953232 56.583999999999996
4.708552674085913 57.7861
4.730887924602802 59.1747
4.753223354952695 61.1688
4.775541557023902 62.3315
4.797877349456786 63.3816
4.820195915032126 65.3099
4.842532072957498 66.6945
4.864868414979744 68.4479
4.88718753227192 70.5459
4.909524244902505 72.7102
4.931843734218147 73.6953
4.954180820867835 76.4141
4.976518095879839 80.0063
4.998838149695359 82.5494
5.021175803844231 85.9505
5.043496238205739 89.1861
5.065834274903528 93.1442
5.088172504230693 98.20700000000001
5.1104935158799565 104.40700000000001
5.132832132875765 130.36700000000002
5.155153533596801 188.482
5.1774925416746225 225.012
5.199814334878411 326.577
5.2221537374521505 890.717
5.244493338631803 2525.72
5.266815727034316 6978.31
5.289155727832427 12622.1
5.311478517248165 9401.58
5.333818921080011 3290.49
5.356159527788849 651.596
5.3784829252032536 196.85
5.400823940070432 148.183
5.423147747031976 130.63
5.445489173474152 119.445
5.467830807066149 113.60799999999999
5.490155234831516 109.53200000000001
5.512497285125229 105.934
5.534822130975162 104.37
5.557164601388673 101.927
5.579489868738879 99.0035
5.601832762690846 98.3104
5.6241758697774475 97.9228
5.646501775867269 96.9115
5.668845311622074 95.1829
5.691171647754637 94.0545
5.713515615597765 92.8684
5.735859800852677 91.5999
5.758186788542988 91.0511
5.780531411018185 90.8041
5.802858837297399 90.4466
5.825203900414495 90.3459
5.8475491852224 91.0388
5.869877275883075 91.0915
5.892223006467101 92.1111
5.914551544266608 92.615
5.936897724049891 95.1737
5.959244129804903 99.2649
5.981573344815301 113.338
6.0039202049061 184.514
6.026249875609095 402.87699999999995
6.04859719346037 872.413
6.070927323278297 1983.44
6.093275102315365 4266.76
6.115623113320588 5226.57
6.137953938319995 3494.14
6.160302415650845 1127.95
6.182633708324452 267.362
6.2049826554078376 120.353
6.227331838745022 95.1615
6.249663839443684 86.7119
6.27201349767565 84.3437
6.294345974611799 94.1524
6.316696111167083 113.23700000000001
6.339046488263839 106.815
6.361379686074702 85.1294
6.383730546639482 73.4833
6.406064229255215 69.4805
6.428415576718203 68.8009
6.450749747566656 67.705
6.47310158535871 66.7949
6.495453669698332 66.1353
6.517788579421056 65.3947
6.540141159237969 64.0764
6.562476565766648 63.843999999999994
6.5848296444934045 63.5284
6.607182974060425 63.5259
6.6295191323281015 63.5593
6.651872965955752 68.2647
6.6742096296068985 105.027
6.6965639707294615 175.90400000000002
6.71891856698715 181.021
6.741255995248479 115.322
6.763611104154477 74.0456
6.785949046381137 62.372
6.808304671371482 59.5747
6.8306605557940046 58.5301
6.852999275508618 57.9982
6.875355681171544 57.6031
6.897694923437771 57.5694
6.92005185377892 57.0958
6.9423916220322655 56.9894
6.964749080490181 56.3375
6.987106804399774 56.2277
7.009447368180821 56.5427
7.031805625367033 56.0024
7.054146723727803 56.501999999999995
7.076505517631004 56.2945
7.098864581288365 56.0238
7.121206488070854 55.8518
7.143566093607822 55.5738
7.165908543567245 56.3176
7.188268694426048 56.1656
7.2106291193438095 56.5577
7.232972390625943 58.0649
7.255333366030969 75.1516
7.277677189091925 152.372
7.300038718428332 230.424
7.322400526130865 193.88400000000001
7.344745183422596 108.60600000000001
7.367107550224791 66.5502
7.389452767901992 57.8749
7.411815697249891 56.3481
7.434161478756298 55.372
7.456524974096713 55.2318
7.478888753837185 54.99
7.501235387657368 55.1287
7.523599738562711 55.4953
7.545946944825532 55.823
7.568311870344528 56.207
7.5906770845765665 56.038000000000004
7.613025156078678 58.2123
7.635390950099687 60.0647
7.657739602662809 58.2927
7.680105979923558 56.9931
7.702472650212829 56.479
7.724822180948224 56.2807
7.747189439655568 56.4003
7.769539560075357 56.2773
7.791907410653562 56.562
7.81425812420825 57.129
7.836626570110925 57.2198
7.858995315087906 58.1465
7.881346924933401 58.2377
7.903716270417482 58.5421
7.926068482028405 58.9099
7.948438431475253 59.5624
7.9708086843180235 60.0551
7.993161805171116 60.8242
8.015532667162402 60.9159
8.037886398416653 62.0156
8.060257873014221 62.5511
8.082629655331942 63.1356
8.104984308787587 63.9506
8.127356708900503 68.6314
8.149711981398308 76.9571
8.172085002766314 80.2361
8.194458336181368 74.8735
8.216814543847752 70.5195
8.23918850371002 70.1597
8.26154533906492 70.1794
8.283919928836452 71.6407
8.306277395339652 72.8306
8.328652618483376 73.9528
8.351028159736202 75.6182
8.373386579575245 78.0556
8.395762759396959 79.9361
8.418121819038275 85.5548
8.440498640894003 102.76700000000001
8.462875785192262 121.98899999999999
8.485235811156207 129.8
8.507613602688501 155.821
8.529974277114228 231.5
8.552352719347912 354.19800000000004
8.574731488360351 587.423
8.59709314210385 1068.91
8.619472567021075 1752.58
8.64183487789147 2173.12
8.664214962183097 1939.09
8.686577933647762 1048.73
8.708958680784317 420.004
8.731339760774953 181.024
8.753703729764451 115.176
8.77608547780821 100.319
8.798450116065078 96.0736
8.820832535634787 93.1832
8.843215292401656 91.2538
8.865580941199045 89.7699
8.887964374703538 88.7861
8.910330701447199 90.5565
8.932714815164482 94.5768
8.955099270424924 94.0852
8.977466620733543 89.8052
8.999851761421976 86.1229
9.022219798361645 84.0362
9.04460562795561 83.4913
9.066991803441677 82.4965
9.089360876979615 82.1895
9.111747746589993 82.1152
9.13411751544971 81.5701
9.156505082664324 81.5914
9.178875550323522 82.2488
9.20126381862328 82.5932
9.223652438908596 83.0482
9.246023961427412 82.5467
9.26841328802173 81.9856
9.290785518039224 82.1539
9.313175554425882 82.4041
9.335565947154315 82.0588
9.357939245086508 82.2394
9.380330352834827 82.2625
9.40270436697103 82.6501
9.425096193225055 82.4496
9.447488380180165 83.7959
9.469863475295412 83.6277
9.492256385987508 84.6044
9.514632206018318 85.2268
9.537025843935714 85.1373
9.559402392368193 85.9841
9.581796761000229 86.7821
9.604191496441521 88.0324
9.626569144158516 92.4114
9.648964615551032 99.2787
9.671343000390081 101.927
9.693739211225699 98.7917
9.716135793237463 94.6587
9.738515290448102 93.1369
9.760912617143402 93.9529
9.783292860202891 94.6259
9.805690935076182 95.4895
9.828089385495742 96.9064
9.850470754023561 99.61399999999999
9.872869957865444 109.398
9.89525208097539 130.776
9.917652041736662 148.833
9.940052382417589 146.058
9.962435644102392 141.55700000000002
9.984836746950979 165.77599999999998
10.007220771957746 221.172
10.029622640473708 313.296
10.052007432299963 473.39099999999996
10.074410069984072 733.048
10.096813093716005 1161.16
10.119199042482517 1666.35
10.141602840636468 1974.47
10.163989564971628 1710.66
10.186394141051062 996.795
10.208799107559706 458.285
10.231187001965623 210.997
10.253592751657669 132.298
10.275981430388155 115.678
10.298387966769793 116.057
10.320794897965431 120.311
10.343184759907361 120.008
10.36559248305461 112.132
10.387983138083852 105.427
10.410391656691655 105.65899999999999
10.432800574501677 114.60700000000001
10.455192425893369 128.983
10.47760214443012 152.451
10.499994797678786 189.08700000000002
10.522405320453982 260.127
10.54479877906917 360.76599999999996
10.567210109595656 481.652
10.5896218454736 568.904
10.612016518879773 531.415
10.634429067781074 377.119
10.656824555333241 223.238
10.679237920773568 134.643
10.701651695961992 99.1213
10.724048411481384 90.4548
10.746463008485165 87.1724
10.768860546937125 85.2991
10.791275969274796 83.2247
10.81369180576079 82.0234
10.836090585366925 81.2965
10.858507252467449 79.967
10.88090686379991 79.2065
10.903324365036394 78.7764
10.925724811614439 78.9261
10.948143150509463 81.1132
10.970561909719066 80.7681
10.992963615930844 78.4919
11.015383218085756 75.4845
11.037785768347074 73.7112
11.06020621697282 73.1888
11.082627090322113 72.7218
11.105030913430326 72.1916
11.12745263854165 73.0723
11.149857314510728 78.4533
11.172279894912576 87.7378
11.194702904450653 89.9344
11.217108866490921 84.0117
11.239532736615194 77.3099
11.26193956033512 74.2867
11.284364294577085 72.1432
11.306789462371718 69.307
11.329197585398376 67.6012
11.351623622610898 67.5167
11.37403261614354 66.4384
11.396459526308487 66.4194
11.418869393879497 65.8521
11.441297180532617 65.4642
11.463725406927658 65.4702
11.486136592353875 65.1728
11.508565700543707 66.1166
11.530977768845315 68.9482
11.553407762368774 70.8009
11.575838200059769 69.6508
11.598251599479612 66.8446
11.620682927815501 64.4487
11.64309721895548 63.8629
11.665529441478206 63.431999999999995
11.687962112597958 63.2365
11.710377748130886 63.2181
11.732811318753434 63.1178
11.755227854859067 63.3964
11.777662328529495 63.0747
11.800079768750786 63.0424
11.822515149015453 62.6742
11.844950984084935 62.8179
11.867369787303163 62.597
11.889806534289491 62.696999999999996
11.912226250487029 62.9988
11.934663912939751 62.9785
11.9571020346363 63.2115
11.979523127133968 63.0126
12.001962169624331 63.3437
12.024384183972964 63.9599
12.046824150809913 66.8157
12.069264581333726 72.1245
12.091687985297767 77.9922
12.11412934550045 86.3428
12.136553680195208 99.7378
12.158995973632788 118.9
12.181438735204349 144.216
12.20386447284199 173.91099999999997
12.226308172985636 202.528
12.24873485024193 208.28400000000002
12.271179492516982 177.035
12.293607112949127 138.47
12.316052700916226 105.02600000000001
12.338498763250042 84.5643
12.360927805303868 73.3251
12.383374818673879 68.0783
12.405804812803074 65.4466
12.428252780773262 64.9262
12.45070122756722 64.6145
12.473132656675375 64.3109
12.49558206341869 64.5671
12.518014453510101 64.6028
12.540464823770117 64.8372
12.562915677315177 65.1195
12.58534951575545 65.9419
12.607801338171472 68.7239
12.630236146511358 76.257
12.652688941369085 84.0828
12.675124723177234 84.5239
12.697578494048786 78.8274
12.720032754458185 72.2595
12.742470003354093 68.9757
12.764925245138771 68.1167
12.787363476431278 68.1918
12.809819703166806 68.6002
12.83227642391173 69.207
12.854716135692716 69.7408
12.877173846755147 70.5685
12.899614549869717 70.9707
12.9220732548287 71.6876
12.94453245827299 72.1605
12.966974655289818 72.9386
12.989434858002571 73.5165
13.011878055298721 74.5845
13.034339260862497 75.3704
13.056800969391883 76.4662
13.079245674017244 78.2807
13.101708390774869 80.1952
13.12415410463411 85.9793
13.146617833206086 96.9457
13.169064559883248 108.495
13.191529303857127 121.71799999999999
13.213994557076367 142.06
13.236442809902437 174.079
13.258909083908291 221.921
13.28135835851934 282.10200000000003
13.30382565690295 351.379
13.326293469022952 418.838
13.348744283242008 439.103
13.371213125129904 383.551
13.39366497011003 288.642
13.416134845360597 190.44099999999997
13.438605238843131 131.203
13.46105863690397 107.74600000000001
13.483530069144786 104.166
13.505984506951902 107.929
13.528456981549432 116.484
13.550929978879088 129.60299999999998
13.573385983253365 150.476
13.595860028340867 183.731
13.618317081455832 232.06900000000002
13.64079217790333 284.158
13.663250283359057 335.746
13.685726434770173 375.305
13.708203115221277 351.33
13.730662806148091 286.246
13.75314054697177 202.06799999999998
13.775601299246777 137.747
13.798080104050406 101.00299999999999
13.820559442405358 86.5866
13.843021793671388 82.1021
13.865502201420897 80.1633
13.887965623051947 79.7889
13.910447103807167 78.687
13.932929122629764 77.0486
13.955394156785959 76.9716
13.977877254034569 75.8932
14.000343367582113 75.0383
14.022827546871707 74.3657
14.045294743423524 73.7844
14.06778000837062 72.883
14.090265817715476 72.971
14.112734645763819 72.8526
14.13522154619454 72.7267
14.157691466286913 73.0909
14.180179461423874 72.6152
14.202668005486178 71.9269
14.22513957064374 70.793
14.247629214846473 70.465
14.270101881097517 70.3752
14.29259262906496 70.952
14.315083930490205 72.2875
14.337558255389705 72.708
14.360050666019726 72.2413
14.382526101071944 70.7566
14.405019624534942 69.7447
14.427513705993134 69.0482
14.449990813291825 68.7908
14.47248601302899 68.6434
14.49496423954951 68.8054
14.517460561197822 69.07300000000001
14.539939910570322 68.6526
14.562437357763558 69.0301
14.58493536931253 70.4667
14.607416409993311 72.0441
14.62991555254159 73.1437
14.652397725157423 72.73100000000001
14.674898002342799 71.2441
14.697398848433282 70.4267
14.719882725991326 70.7965
14.74238471217934 71.1879
14.764869730765593 73.7666
14.787372860692983 76.9685
14.809876564079925 81.3466
14.83236330125751 86.4812
14.854868153850365 93.9546
14.877356041159485 105.495
14.899862046604186 122.678
14.922351087688757 145.115
14.944858249632887 171.886
14.967365991421232 198.357
14.989856770231246 218.451
15.012365673994204 220.638
15.03485761569738 196.021
15.05736768508665 157.89700000000002
15.07987833888692 121.757
15.102372032001655 94.8992
15.124883856909658 78.7601
15.14737872204565 73.0413
15.169891721717274 70.9293
15.192405310371893 70.7869
15.214901940621196 71.6406
15.237416709527137 72.3301
15.259914520936249 72.5538
15.282430473753607 71.3981
15.304947020131227 69.9712
15.327446610371178 68.5975
15.349964346154254 67.5706
15.372465126703139 67.09899999999999
15.394984055556009 66.76899999999999
15.417486030076159 66.4711
15.44000615566487 66.263
15.462526881230803 66.0537
15.485030653812652 66.3032
15.507552581617434 66.422
15.530057557334603 66.9398
15.55258069104857 66.4082
15.575104429329837 66.4189
15.597611216864632 65.7732
15.620136166564563 65.8753
15.6426441664095 66.3939
15.665170331202765 68.1417
15.687697105158826 70.8396
15.710206930593545 74.1899
15.732734925158933 77.8656
15.755245972089478 83.5567
15.77777519094324 91.6944
15.800287463046663 103.49799999999999
15.822817909869592 120.133
15.84534897229804 138.983
15.867863089299354 162.085
15.890395385222186 183.054
15.912910736597423 195.503
15.935444269699861 187.889
15.957978423016485 165.22
15.980495633101265 133.624
16.003031029129367 103.484
16.02554948280019 80.5579
16.048086125229432 69.6985
16.070623392487107 66.6172
16.09314371869582 65.9197
16.11568223789321 65.2364
16.13820381691126 63.9125
16.160743591742527 62.3493
16.183283996022084 61.336000000000006
16.205807461423195 59.9486
16.228349126881973 59.2779
16.25087385432698 59.211000000000006
16.27341678466365 58.573
16.29594277784926 58.8013
16.31848697676433 59.3729
16.341031811604868 60.0106
16.36355971058487 60.4962
16.3861058195587 60.3995
16.40863499352978 58.7925
16.431182380342005 57.4561
16.453730407713202 56.6682
16.476261501364792 56.2241
16.498810812136167 55.8903
16.52134319004079 55.7468
16.54389378792203 55.7002
16.566445031001553 55.7374
16.588979342490088 55.3156
16.61153187824822 55.1308
16.634067483263312 55.001999999999995
16.656621315414416 54.8785
16.679175797408888 54.5179
16.701713349928728 54.7355
16.72426913389191 54.9822
16.74680798922351 55.1206
16.76936507887444 55.2598
16.791905240734874 55.3323
16.814463639794468 55.2616
16.837022695210294 55.3318
16.859564824093756 55.5731
16.882125194503903 56.711999999999996
16.904668639217885 57.6807
16.927230328348003 57.8797
16.949792678493612 57.9891
16.972338104193863 56.9388
16.994901778652235 56.0451
17.017448529496576 55.6766
17.040013531998152 55.7493
17.06257920018044 56.1444
17.0851279459922 56.7163
17.107694947817667 57.5482
17.130245028099072 58.5137
17.15281336730298 59.7158
17.17536478578733 61.2913
17.19793446610687 63.3374
17.220504818648422 65.8236
17.243058251703697 68.5559
17.265629950971032 72.9509
17.288184731571736 77.5806
17.310757781306908 81.9396
17.33333150794385 84.3723
17.355888317140174 83.7502
17.37846339986244 78.6965
17.401021565958885 72.402
17.42359800851343 66.7392
17.44617513265564 62.5652
17.468735341390783 60.3138
17.491261035594565 59.27
17.51396340099364 58.9728
17.536490463869136 59.2179
17.559018209820174 59.0622
17.58154663977963 59.2466
17.604251766089718 59.3567
17.626781572227713 59.4841
17.64931206518155 59.9246
17.671843245885103 60.5337
17.69455114821572 60.8176
17.717083712612634 61.2519
17.739616967569667 61.2896
17.762150914021706 61.2902
17.78486160749854 61.0824
17.807396945166804 61.6858
17.829932977143503 62.409
17.85246970436452 63.3097
17.875183204129467 65.2078
17.897721330097664 67.3636
17.920260154126645 69.6603
17.942799677153296 72.4086
17.9655159983646 75.5647
17.988056927677544 80.3251
18.010598558807683 87.1434
18.033140892692916 95.8682
18.05586005052525 106.03299999999999
18.07840379824407 117.29
18.10094825154059 128.981
18.12366954819864 138.793
18.146215420998306 142.14700000000002
18.16876200220057 135.447
18.191309292745153 122.09
18.214033452627167 106.993
18.236582170236648 93.9645
18.259131600016456 86.6663
18.281681742907335 85.5259
18.304408781233683 88.8016
18.32696035875955 93.6394
18.349512652227624 98.3579
18.372065662579683 103.415
18.394795594587553 106.395
18.41735004715306 105.568
18.43990521943684 100.18
18.46246111238171 90.6817
18.485193953325208 80.1982
18.507751296070428 71.9824
18.530309362314178 66.945
18.552868153000343 63.9516
18.57560391815056 62.5385
18.59816416623245 61.9936
18.620725141597372 61.5478
18.643286845190268 60.998999999999995
18.666025549835414 60.6431
18.688588718427933 60.0844
18.711152618092243 59.9471
18.73389353884365 59.4216
18.75645890921984 59.0294
18.77902501351406 58.7145
18.801591852673102 58.8071
18.824335739722738 57.9975
18.846904057212626 58.067
18.8694731124168 57.8521
18.89204290628315 57.9334
18.914789774966803 57.6736
18.937361054791623 57.336999999999996
18.959933076131318 57.1599
18.982505839934877 57.2453
19.00525570560582 57.2788
19.027829963004184 57.0536
19.05040496572238 57.1415
19.072980714710468 57.036
19.095733592739563 57.2157
19.11831084296757 57.5714
19.140888842324735 58.0533
19.16346759176222 58.3693
19.18622349753803 58.7656
19.208803755869358 59.4339
19.231384767143577 60.4757
19.253966532312948 61.8284
19.276725481241822 63.3253
19.29930876296784 65.8824
19.3218928014549 68.7808
19.34465404436217 72.2143
19.36723960516257 75.5288
19.389825925592426 77.3635
19.412413006605938 77.1636
19.43517731967805 73.9557
19.457765930683355 69.2827
19.48035530514408 64.7986
19.50294544401556 60.4527
19.525712842708348 57.405
19.54830451925909 55.6466
19.570896963095727 54.2789
19.593490175174704 54.1429
19.616260674962184 53.9299
19.638855432416964 53.4342
19.661450960992624 53.8605
19.68404726164677 53.7599
19.706820878021247 53.4805
19.729418731756834 53.7237
19.752017360452857 53.5062
19.77461676506804 53.5727
19.797393513540218 53.5164
19.819994478951667 53.9246
19.84259622316767 54.4772
19.8651987471481 54.9249
19.887978643247177 54.9763
19.91058273574792 55.4489
19.933187610901943 56.0241
19.955969879466828 56.9268
19.97857632894404 58.192
20.00118356396599 59.5419
20.023791585494575 61.3912
20.046577028914875 63.9339
20.069186632506966 66.5365
20.091797025500632 68.4964
20.114408208858933 69.9259
20.137196842715273 70.1181
20.159809615886765 69.0138
20.18242318232135 66.4588
20.20503754298326 63.9792
20.227829382875154 62.4254
20.250445341109344 61.8506
20.27306209647285 62.0799
20.29567964993108 63.299
20.31847471147704 64.3936
20.34109387027612 65.6365
20.363713830075454 65.8816
20.386334591841646 64.8565
20.409132890679302 62.4945
20.431755265564437 59.4508
20.454378445325528 56.4042
20.477002430930366 54.4294
20.499803982716553 53.0189
20.522429589228004 52.2047
20.54505600449589 51.7075
20.567683229489194 51.4158
20.590488049900088 50.83
20.61311690359731 50.4191
20.63574656993626 50.3901
20.658553853717297 49.9711
20.681185154618298 49.7282
20.703817271080066 49.5422
20.72645020407368 49.372
20.749260783967177 49.1543
20.771895359337133 49.2354
20.794530754161617 49.1476
20.817166969412938 49.0623
20.83998086114876 49.0432
20.86261872660049 48.9664
20.885257415405402 48.8199
20.90789692853701 48.6885
20.930714147864748 48.6859
20.953355319030678 48.6034
20.97599731745334 48.7542
20.99864014410749 48.7006
21.021460706796564 48.5699
21.044105199328826 48.8938
21.06675052302631 48.9939
21.089396678865015 49.0738
21.112220600704806 49.4066
21.134868430275347 49.8487
21.15751709492456 50.0888
21.180166595629693 50.4319
21.202993892429635 50.8212
21.22564507473034 51.1196
21.24829709602816 51.3522
21.27112693608965 51.6146
21.293780644891275 51.7626
21.316435195634053 50.9716
21.339090589297417 50.4758
21.361923832041875 49.8957
21.384580921090404 49.0611
21.407238856007325 48.7483
21.429897637773326 48.5594
21.45273429906592 48.4548
21.475394784108598 48.5227
21.498056118951983 48.4596
21.520718304578022 48.6634
21.543558400304388 48.4864
21.566222297108816 48.8177
21.58888704765135 48.8922
21.61155265291521 49.2552
21.63439619898156 49.5875
21.657063523335786 49.7701
21.67973170537063 50.2634
21.7024007460706 50.7397
21.72524775840385 51.3675
21.747918526116475 52.4056
21.770590155457388 53.3734
21.79326264741238 54.8129
21.816113141960237 56.4466
21.838787368860547 58.1713
21.861462461341976 59.9292
21.884315579735777 61.968
21.90699241312273 63.5073
21.92967011506078 64.5787
21.95234868653799 64.7547
21.9752053151131 64.2246
21.997885635446785 62.3639
22.020566828293532 60.4187
22.04324889464272 58.3886
22.066109049404666 56.8631
22.088792872571794 56.1615
22.111477572219204 56.0722
22.1341631493376 56.2506
22.157026846313123 56.4047
22.179714188221507 55.574
22.202402410582668 54.8563
22.22509151438863 53.3081
22.24795876962584 52.0162
22.270649646204486 50.9606
22.293341407213727 50.2608
22.316034053646906 49.6448
22.338904883215342 49.2746
22.36159931041458 49.361999999999995
22.38429462602756 49.2405
22.40699083104897 49.1586
22.429865251039757 49.3455
22.452563244831367 49.3632
22.47526213102522 49.3698
22.49813925616515 49.1067
22.520839937143307 48.8362
22.543541513520587 48.7343
22.56624398629403 48.6217
22.589124730075895 48.5177
22.611829005656723 48.6988
22.63453418063466 48.6336
22.657240256008077 48.9957
22.680124634582935 49.1348
22.70283252079775 49.2349
22.725541310413075 49.4134
22.74825100442868 49.6263
22.771139033969575 50.0484
22.79385054687155 50.2106
22.81656296718292 50.8044
22.83927629590484 51.7677
22.862167992606945 52.5529
22.88488314827121 53.5414
22.907599215359284 54.451
22.93031619487366 55.7847
22.953211574954405 56.8034
22.975930389478226 57.8549
22.998650119445763 58.3747
23.02137076586092 57.9125
23.044269845560063 56.8149
23.06699233506288 55.3707
23.089715744034912 53.6006
23.112617610931565 51.6824
23.135342869061212 50.3763
23.158069049684816 49.6383
23.1807961538087 49.0767
23.20370174880544 48.9163
23.226430710184808 48.9135
23.249160598093425 48.9078
23.271891413539002 48.8886
23.294800752937697 48.7613
23.31753343374794 49.055
23.340267045128353 49.1018
23.36300158808808 49.4294
23.38591468821339 49.6714
23.408651104658304 50.0018
23.431388455719986 50.5692
23.454126742409 51.233999999999995
23.4770436196085 52.3596
23.499783787914662 53.3325
23.522524894889884 54.2303
23.54526694154616 55.4337
23.56818761219047 56.7052
23.59093154860734 57.4222
23.613676427751283 58.2738
23.636422250635754 57.885
23.659346731118656 56.441
23.68209445191868 54.7925
23.704843119509587 52.4905
23.72759273490623 50.353
23.750521041644767 48.8416
23.77327256312355 47.5757
23.796025035462787 46.7944
23.818956224555475 46.5266
23.841710609113413 46.2145
23.86446594758979 45.918
23.887222241002014 45.7781
23.910157285144578 45.3085
23.932915498962537 45.3639
23.955674670778713 45.1566
23.978434801611975 44.9988
24.001373717286125 44.7655
24.024135776723917 44.6819
24.046898798245582 44.7548
24.06966278287146 44.6083
24.092605586582614 44.4001
24.115371508023642 44.3269
24.1381383956401 44.2267
24.16090625045381 44.0533
24.183852958731244 44.0719
24.206622758582608 44.0041
24.229393528706886 43.7889
24.252165270127392 43.7802
24.27511589952438 43.893
24.297889594216997 43.5137
24.32066426328598 43.5204
24.34343990775613 43.6747
24.36639447485003 43.4904
24.38917208083877 43.4137
24.41195066531332 43.2307
24.43490819850244 43.3503
24.457688750692377 43.1814
24.48047028445616 43.0911
24.503252800821233 43.1039
24.526214300784112 43.0909
24.548998793132213 43.1845
24.57178427117417 43.1012
24.59457073593893 43.1793
24.617536219319863 43.1126
24.64032466834748 43.1275
24.663114107195035 42.9542
24.685904536893013 42.7346
24.708874020360852 42.6488
24.731666442613744 42.6626
24.754459858818787 42.6504
24.777254270007962 42.4878
24.80022777025625 42.4396
24.82302418230472 42.3394
24.845821592443674 42.3206
24.86862000170663 42.1959
24.891597535453727 42.1198
24.914397953892728 42.3499
24.93719937456671 42.2632
24.96000179851076 42.4662
24.98298338249997 42.6125
25.00578782394922 42.8992
25.028593271784167 42.8276
25.05157790644186 43.0813
25.07438537804115 43.251999999999995
25.097193859145293 43.5173
25.120003350792075 43.7051
25.142992065061257 44.0764
25.165803588823465 44.3237
25.18861612625217 44.6443
25.211429678386736 44.7978
25.234422489079968 44.8874
25.257238081693636 44.7965
25.280054692141732 44.9079
25.3028723214652 44.9451
25.325869245420463 44.9166
25.348688923599397 44.9618
25.371509623787006 45.1705
25.394331347025812 44.8912
25.41733240110666 44.5104
25.440156181590016 43.9122
25.46298098826268 43.4453
25.48580682216873 42.8466
25.50881202326435 42.1474
25.53163992281684 41.6905
25.55446885274561 41.3682
25.577298814096377 41.1006
25.600308179121807 41.0045
25.623140214533745 41.1701
25.64597328451537 40.967
25.66898578564376 40.6497
25.691820936010206 40.6151
25.714657124097695 40.6102
25.737494350954734 40.6293
25.760511045684957 40.5509
25.783350361364224 40.7028
25.806190718969255 40.6541
25.82903211955018 40.7787
25.852053024868923 40.8061
25.874896522722523 40.8191
25.897741066713106 40.6684
25.920586657892454 40.7905
25.943611790812668 41.0265
25.966459487728237 40.9984
25.989308234998564 40.8836
26.01215803367705 41.3059
26.03518741123814 41.5211
26.05803932412957 41.6692
26.080892291600094 41.5291
26.10374631470478 41.5861
26.12677995397268 41.8433
26.14963609978026 41.9144
26.172493304397875 41.4298
26.19535156888223 41.3732
26.218389486949604 40.9687
26.241249882640123 40.7556
26.26411134137826 40.3999
26.28715248187403 40.3107
26.31001607820869 40.1003
26.3328807407756 40.04
26.35574647063438 40.2095
26.37879191991473 40.1979
26.401659795896734 40.2758
26.424528742360263 40.3524
26.447398760366614 40.4628
26.470448535598294 40.5327
26.49332070826805 40.7665
26.516193955675355 41.1174
26.53906827888316 41.2109
26.562122397260108 41.3974
26.584998883685063 41.6582
26.607876449110325 41.8438
26.63075509460056 42.1148
26.65381357334404 42.3754
26.67669439061878 42.2235
26.699576291163382 42.2718
26.722459276044212 42.1997
26.745522132402975 41.9882
26.768407297649354 41.7106
26.791293550442003 41.3502
26.814180891848974 41.0374
26.837248143099337 40.8215
26.860137673466657 40.5994
26.88302829566349 40.3657
26.90592001075963 40.1835
26.92899167420566 40.0252
26.951885586870763 39.6744
26.974780595655517 39.442
26.99785558178161 39.2196
27.020752794605112 39.2033
27.043651106772522 39.0067
27.06655051935668 38.9243
27.089629948036183 38.7973
27.112531573292053 38.8593
27.135434302194138 38.904
27.158338135817015 38.6068
27.181422024430987 38.6362
27.204328079372566 38.5789
27.22723524226965 38.668
27.250143514198573 38.6569
27.273231880156334 38.5493
27.296142382065014 38.5211
27.319053996245536 38.4661
27.341966723775965 38.5722
27.365059584515222 38.6058
27.38797455070062 38.6387
27.410890633481237 38.5142
27.433807833936918 38.4492
27.456905206923906 38.6118
27.47982465472398 38.5038
27.502745223449743 38.7097
27.525666914182825 38.7032
27.548768816912457 38.5927
27.571692763693633 38.6277
27.59461783573812 38.5968
27.617723149491244 38.3631
27.640650484125285 38.2696
27.66357894728264 38.138000000000005
27.686508540048052 38.1092
27.709618414237887 38.0394
27.732550278321757 37.9098
27.755483275279115 37.9645
27.778417406196485 38.0103
27.801531858397514 37.9151
27.824468269376716 37.8903
27.847405817586786 37.921
27.870344504116094 38.0379
27.893463551932008 38.113
27.916404527281053 38.3298
27.93934664422563 38.4332
27.962289903855886 38.4394
27.98541356491974 38.6251
28.00835912214229 38.7972
28.03130582533231 39.0356
28.054253675581805 39.1474
28.077381967556104 39.0328
28.100332124185126 39.0514
28.123283431160893 39.1127
28.146235889577238 38.9804
28.169368830154156 38.8416
28.192323603752033 38.6728
28.215279532083304 38.3066
28.238415973016764 38.16
28.261374223145094 38.0218
28.284333631303806 37.8077
28.307294198589954 37.6839
28.330435319167677 37.3715
28.353398217078915 37.1344
28.376362277420153 36.8707
28.39932750129032 36.6794
28.422473319286713 36.5812
28.44544088262495 36.5087
28.468409612800283 36.4971
28.491379510913497 36.2429
28.51453004413313 36.1051
28.53750229057244 36.0253
28.56047570826344 36.0582
28.583450298308804 36.1015
28.606605564586562 35.777
28.629582511831156 35.9319
28.65256063474956 35.8284
28.675539934446338 35.8426
28.698699951647605 35.7378
28.72168161743193 35.6108
28.74466446331978 35.6332
28.767648490417624 35.5335
28.790813276438353 35.5823
28.813799678527303 35.5277
28.836787265157085 35.638000000000005
28.859955641890075 35.5357
28.882945610203045 35.6186
28.905936766392035 35.4541
28.928929111566863 35.4424
28.952102288520145 35.3935
28.975097024308607 35.3289
28.998092952423807 35.1325
29.021090073977508 34.9966
29.04426806913204 34.8426
29.067267590245258 34.8604
29.090268308143695 34.7307
29.11327022394099 34.5923
29.13645305530891 34.5576
29.159457379627167 34.5145
29.18246290519685 34.348
29.20546963313352 34.391999999999996
29.22865731875826 34.4138
29.25166646419296 34.4627
29.27467681535305 34.3028
29.29768837335608 34.2744
29.320880931312562 34.3461
29.34389491580634 34.4221
29.366910110507334 34.2386
29.38992651653503 34.3308
29.41312396492981 34.4358
29.436142806456754 34.3009
29.45916286268059 34.2425
29.48236399319994 34.1126
29.50538649169417 34.0032
29.528410208259935 33.873000000000005
29.55143514402014 33.5977
29.574641196749695 33.5388
29.597668583816574 33.4837
29.6206971934585 33.2067
29.64372702680042 33.201
29.666938019934474 33.1684
29.689970313635285 33.1307
29.713003834422636 33.1889
29.73603858342347 33.1203
29.759254535188578 32.9786
29.78229175361658 32.9101
29.80533020365064 32.9151
29.82836988641968 32.9294
29.85159081507472 32.9498
29.874632976355343 32.8403
29.89767637376955 32.8901
29.920721008448314 32.6806
29.9439469322847 32.6818
29.96699405457564 32.6451
29.9900424175358 32.6619
30.013092022298157 32.6748
30.03632295963995 32.5185
30.059375061131373 32.516
30.08242840783577 32.6209
30.105483000888153 32.5657
30.128718970092244 32.4237
30.151776069006917 32.4361
30.17483441768648 32.5405
30.198074175317235 32.5312
30.221135036724256 32.5907
30.24419715131772 32.5113
30.267260520236203 32.4195
30.290505341942243 32.4243
30.313571232750228 32.4969
30.336638381310948 32.4962
30.35970678876503 32.4304
30.38295669299435 32.2906
30.40602763151657 32.4072
30.429099832366074 32.3548
30.452173296685572 32.1073
30.47542830191959 32.1331
30.498504306502497 32.1071
30.521581577995562 32.1786
30.544660117543582 32.3004
30.56792024229725 32.3414
30.59100133132069 32.223
30.614083691845494 32.1735
30.637167325018545 32.3315
30.660432587840603 32.356
30.683518779717886 32.3466
30.70660624769615 32.349000000000004
30.729694992924372 32.3574
30.75296541239743 32.2702
30.77605672557558 32.2737
30.799149319462742 32.3226
30.8224236211637 32.2183
30.845518789950724 32.1254
30.868615242910597 32.1099
30.891712981195973 31.7276
30.91499247215866 31.6616
30.938092794619365 31.7875
30.96119440587579 31.587
30.984297307082752 31.4894
31.00758200598383 31.4539
31.030687500658694 31.3173
31.053794288760695 31.2658
31.076902371446767 31.1566
31.100192296997445 31.1963
31.12330298246119 31.0707
31.14641496599209 31.0291
31.169528248749216 31.1579
31.19282341969534 31.0622
31.215939314557186 31.0618
31.239056512134788 31.0372
31.262175013589378 31.0256
31.28547544871168 31.035
31.30859657161541 30.8631
31.331719001892175 30.8857
31.35484274070538 31.0798
31.378148458819545 30.9803
31.401274828443725 30.8418
31.424402510106933 30.9064
31.447712205419993 31.0742
31.470842524931633 30.9386
31.493974159989783 30.9148
31.51710711176168 30.9173
31.54042212308802 30.9243
31.563557722100917 30.813000000000002
31.586694641341655 30.745
31.609832881979628 30.6927
31.63315322823208 30.5666
31.656294125521327 30.4695
31.679436347728515 30.4032
31.70257989602529 30.436
31.725905596152327 30.3595
31.74905181052835 30.2227
31.772199354521323 30.3494
31.79534822930507 30.3817
31.818679302290967 30.1937
31.84183085259981 30.1668
31.864983737233473 30.3008
31.88813795736804 30.2189
31.911474422233013 30.1611
31.934631327356435 30.2778
31.9577895715215 30.1975
31.980949155906522 30.2049
32.004291031706956 30.1275
32.027453310562606 30.0712
32.05061693318573 29.9421
32.07396288236386 29.9388
32.09712920658542 29.8703
32.12029687812702 29.7492
32.14346589817093 29.6716
32.166817291729984 29.6494
32.18998902288583 29.5626
32.21316210610336 29.5528
32.23633654256711 29.5013
32.259693399663725 29.3519
32.282870556771144 29.2914
32.30604907069099 29.2533
32.329228942610065 29.2614
32.35259128243769 29.0831
32.375773884550505 29.0751
32.398957848235646 28.984
32.422143174682176 28.9953
32.445511016471215 28.8601
32.468699082679954 28.8852
32.49188851523011 28.8094
32.51507931531304 28.8379
32.538452678331 28.8034
32.56164622776311 28.7093
32.58484114831493 28.6279
32.60803744118015 28.6209
32.631416344731896 28.5437
32.654615396551876 28.4937
32.67781582427913 28.4779
32.701198898634416 28.4438
32.72440209253756 28.2703
32.747606665947124 28.3836
32.77081262006088 28.2962
32.79420126883317 28.2676
32.81740999876112 28.2753
32.840620112999424 28.1787
32.86383161274818 28.1062
32.88722585534586 28.0891
32.91044014056596 28.2448
32.933655814909734 28.0655
32.95687287957963 28.0999
32.98027273544904 28.0511
33.00349259526636 27.9723
33.026713849030116 27.9611
33.04993649794511 27.9466
33.073341986570746 27.886
33.09656744032826 27.8756
33.11979429286444 27.872
33.14302254538647 27.9111
33.166433686291185 27.8355
33.18966475336992 27.8256
33.212897224069096 27.7051
33.23613109959831 27.7069
33.259547912343415 27.596
33.2827846121627 27.7061
33.306022720453775 27.651
33.32926223842861 27.5407
33.352684742614166 27.5213
33.37592709463173 27.456
33.399170859982064 27.3943
33.422597648419426 27.3332
33.44584425514446 27.2603
33.46909227885668 27.2953
33.4923417207723 27.1985
33.51577423505344 27.1961
33.539026528130385 27.0484
33.56228024307245 27.0732
33.585535381098246 26.9287
33.60897364093058 26.8682
33.63223163992385 26.7883
33.6554910656699 26.7346
33.678751919389796 26.7223
33.702195944520106 26.7067
33.72545966903325 26.708000000000002
33.74872482519663 26.5777
33.771991414233746 26.6225
33.79544122444841 26.5976
33.81871069412428 26.5457
33.84198160035767 26.5296
33.86525394437455 26.5088
33.88870955949969 26.3662
33.911984794020626 26.357
33.93526147001624 26.4219
33.958539588715006 26.3133
33.98200102861669 26.1922
34.0052820477047 26.2188
34.02856451319451 26.2193
34.05203033759056 26.0945
34.07531571090147 26.1256
34.09860253431845 26.075
34.121890809074316 26.0518
34.145362493118924 26.0222
34.16865368561615 25.9734
34.191946333164054 25.8604
34.21524043699793 25.9294
34.23871800066799 25.8615
34.26201503218366 25.8191
34.28531352370466 25.719
34.30861347646881 25.7077
34.33209693978188 25.7083
34.3553998301885 25.6613
34.378704185565205 25.5181
34.402010007152356 25.476999999999997
34.42549939016683 25.5273
34.44880815937748 25.4287
34.472118398533134 25.3411
34.49543010887669 25.2895
34.51892543169198 25.2882
34.54224009966052 25.2933
34.56555624255917 25.2215
34.58887386163339 25.1249
34.61237514439016 25.0517
34.6356957311114 25.0996
34.65901779775809 25.0543
34.68252356662995 24.9776
34.705848608458616 24.9664
34.72917513396849 24.959
34.75250314440949 24.8536
34.77601490857862 24.8284
34.799345904259795 24.6966
34.82267838863559 24.7071
34.846012362958525 24.7676
34.869530142679984 24.7422
34.89286711232212 24.7443
34.91620557568269 24.6916
34.93954553401677 24.7013
34.9630693495876 24.6555
34.986412313340814 24.6496
35.00975677584668 24.6767
35.033102738362956 24.5591
35.05663261012228 24.4755
35.0799815881786 24.4091
35.10333207003229 24.4121
35.12668405694369 24.3194
35.150220005273056 24.4
35.17357501786656 24.3741
35.19693153931268 24.3768
35.220289570874385 24.25
35.24383161619786 24.2074
35.267192683604904 24.226
35.290555264930376 24.2509
35.314101899412165 24.151
35.33746752422433 24.1962
35.36083466676374 24.151
35.38420332829803 24.0121
35.407756095629054 24.1244
35.43112781085063 24.1263
35.45450104888391 24.0439
35.477875810999194 24.0573
35.50143473172161 23.9831
35.52481255774625 23.9978
35.54819191167777 23.9117
35.57157279478914 23.877
35.595137889488406 23.8131
35.61852184675279 23.8017
35.641907337029984 23.7221
35.665294361595684 23.6973
35.68886565090076 23.7015
35.7122557598848 23.6992
35.73564740699838 23.611
35.759040593519934 23.5757
35.78261809810353 23.5453
35.80601437933051 23.3732
35.829412203814705 23.406
35.85281157283719 23.4271
35.876395313415884 23.4017
35.8997977874528 23.259
35.92320180988546 23.2827
35.946790244133936 23.1664
35.97019737933222 23.2221
35.993606066789866 23.2247
36.01701630779276 23.1182
36.04061101440684 23.0762
36.06402437852291 23.0547
36.08743930005611 23.1215
36.1108557802951 23.0496
36.13445678011326 22.9849
36.15787639383515 22.9074
36.18129757014299 22.906999999999996
36.20472031032821 22.9175
36.22832762423364 22.8288
36.25175350829375 22.7627
36.275180960119776 22.6832
36.298609981005924 22.765
36.32222362992669 22.7533
36.34565580510207 22.6285
36.36908955323448 22.6025
36.39252487562093 22.566
36.416144880530226 22.5027
36.43958336764275 22.5371
36.463023432914625 22.5471
36.486465077645676 22.4655
36.51009145956204 22.4813
36.53353627947859 22.4785
36.55698268276811 22.5042
36.58043067073321 22.3473
36.60406345072071 22.2826
36.62751462435344 22.3605
36.65096738658405 22.2897
36.67460498210655 22.2181
36.69806093788647 22.2532
36.72151848619297 22.1196
36.744977628333636 22.2037
36.76862165890998 22.0652
36.79208400512205 22.057
36.81554794910557 22.0682
36.83901349217101 21.9319
36.862663978991606 21.8805
36.88613273667352 21.8759
36.90960309738324 21.9174
36.933075062434064 21.8662
36.95673202673572 21.8057
36.98020721697122 21.7302
37.003684015502365 21.7123
37.027162423645365 21.7367
37.050825886711465 21.7009
37.07430753063053 21.5894
37.09779078812467 21.5682
37.121275660513014 21.5327
37.144945643673694 21.544
37.16843376245278 21.4747
37.19192350009803 21.4823
37.215414857931435 21.4367
37.239091382563885 21.3447
37.262585997426164 21.3726
37.28608223645736 21.3324
37.309763684451696 21.2814
37.33326318851098 21.1893
37.356764320726555 21.1761
37.380267082425526 21.2684
37.40395510942588 21.2778
37.42746114683234 21.1506
37.45096881771841 21.0698
37.474478123414166 20.9704
37.49817275092816 20.9099
37.52168534303452 21.0329
37.54519957395567 20.8903
37.568715445024665 20.9864
37.592416694607714 20.8234
37.61593586281424 20.8969
37.63945667518264 20.901
37.66297913304891 20.7885
37.68668702630454 20.7915
37.710212792059274 20.7613
37.733740207334854 20.6951
37.757269273470364 20.6345
37.780983832050374 20.6196
37.80451621684926 20.6066
37.82805025654007 20.5688
37.851585952464795 20.5169
37.8753071980695 20.456
37.89884622345676 20.4535
37.92238690911902 20.4471
37.94611318753442 20.32
37.969657210779765 20.3454
37.99320289834801 20.3869
38.016750251586465 20.2988
38.04048325513017 20.3181
38.06403395679343 20.2556
38.087586328183946 20.1948
38.11114037065203 20.109
38.13488012115898 20.1239
38.1584375229181 20.0658
38.181996599821 20.0515
38.205557353221124 20.0265
38.229303872575656 20.0059
38.2528679961576 20.0754
38.27643380031219 19.9268
38.30000128639589 19.9045
38.32375459653193 19.9178
38.34732546371299 19.8813
38.37089801690786 19.8317
38.39447225747609 19.7338
38.418232380377425 19.7857
38.441810012983396 19.7604
38.46538933705673 19.7029
38.488970353960084 19.6747
38.51273731166058 19.6804
38.536321731567014 19.5546
38.55990784840681 19.5436
38.58367995004091 19.5139
38.60726947812959 19.4769
38.63086070726198 19.4902
38.654453638806274 19.479
38.678232613930824 19.4809
38.70182896773327 19.4344
38.72542702806741 19.3422
38.7490267963045 19.3388
38.77281266709232 19.2584
38.79641586862214 19.2888
38.8200207821842 19.1762
38.843627409152944 19.1911
38.86742019782782 19.2352
38.891030269149255 19.1276
38.914642058016156 19.1565
38.938255565806124 19.1043
38.96205529464307 19.0623
38.98567225787121 19.0623
39.00929094417078 19.0218
39.03291135492255 19.0541
39.05671804624804 18.9541
39.080341923549106 18.9405
39.103967529460334 18.9074
39.127594865365744 18.8167
39.15140854155791 18.7219
39.17503935514948 18.8311
39.19867190290282 18.7328
39.22249083587951 18.7384
39.24612686969409 18.702
39.269764641845306 18.6878
39.293404153722804 18.5996
39.317230110864074 18.5925
39.34087311998506 18.5224
39.36451787301696 18.4973
39.388164371352595 18.4553
39.41199737518003 18.467
39.43564738196752 18.4204
39.45929913825317 18.365
39.48295264543308 18.408
39.506792718520884 18.3611
39.530449745387216 18.2806
39.55410852735203 18.3504
39.57776906581474 18.3006
39.60161623079 18.2697
39.625280300200025 18.1732
39.64894613032202 18.1554
39.67261372255866 18.2166
39.6964680021016 18.2011
39.72013913657293 18.1849
39.74381203738292 18.0829
39.76748670593756 18.1024
39.79134812278169 18.0522
39.81502634488497 18.0022
39.83870633896685 17.977999999999998
39.862388106436654 17.886
39.88625668336918 17.8629
39.90994201572829 17.9141
39.933629125719285 17.8674
39.957503091207826 17.7889
39.9811937746168 17.8074
40.00488623990914 17.7697
40.02858048850006 17.6735
40.05246165409549 17.6967
40.076159487492085 17.6403
40.099859108448875 17.6792
40.123560518384345 17.5945
40.1474489070226 17.6436
40.171153913178564 17.561
40.194860712584955 17.5071
40.2185693066637 17.5081
40.242464941335314 17.4969
40.26617714307655 17.4907
40.289891143772046 17.4044
40.3136069448471 17.4231
40.33750984859743 17.4106
40.3612292688043 17.3334
40.3849504936829 17.3205
40.40867352466194 17.2827
40.43258372059144 17.3035
40.45631038219906 17.2337
40.48003885420956 17.1565
40.503769138055105 17.2083
40.52768664931955 17.1334
40.55142057531802 17.1722
40.57515631746428 17.1072
40.599079334038514 17.0459
40.62281872700477 16.9888
40.64655994043941 16.9996
40.67030297578061 17.0037
40.69423334835778 16.9528
40.71798004609188 16.9108
40.74172857006355 16.8841
40.76547892171441 16.9259
40.7894166736039 16.8542
40.813170699248566 16.8491
40.83692655691388 16.8271
40.86068424804498 16.8414
40.884629402612525 16.7726
40.908390779366385 16.7149
40.932153993938 16.7034
40.95591904777605 16.6418
40.979871628443995 16.6838
41.003640379561936 16.6573
41.02741097430883 16.6229
41.05118341413683 16.5641
41.075143444384416 16.5097
41.098919593177826 16.4957
41.1226975914255 16.4665
41.14647744058318 16.4819
41.170444943946755 16.4168
41.19422851378379 16.4109
41.218013938914645 16.3725
41.24198706625173 16.3306
41.26577622087193 16.324
41.289567235177785 16.2746
41.31336011063129 16.2605
41.337340752422875 16.2145
41.361137369129835 16.2192
41.38493585138705 16.2221
41.40873620066004 16.1613
41.43272438060107 16.154
41.45652848292052 16.1189
41.48033445666918 16.0713
41.50414230331616 16.0018
41.528138045159764 16.0134
41.551949656675205 15.9458
41.575763145513235 15.9937
41.59957851314666 15.8937
41.62358184070442 15.8901
41.64740098505737 15.894
41.6712220126409 15.8151
41.69504492493139 15.8363
41.71905586207357 15.8266
41.74288256296395 15.7853
41.766711153007456 15.7318
41.79054163368412 15.7335
41.814560204340054 15.7224
41.838394485526365 15.6745
41.86223066180303 15.5874
41.88625497706819 15.6362
41.910094962812 15.6366
41.93393684811168 15.557
41.95778063445365 15.4928
41.981812625263366 15.5287
42.00566023303407 15.5307
42.029509746323676 15.4953
42.05336116662236 15.4106
42.077400857069705 15.4495
42.10125611078846 15.3896
42.12511327600405 15.3567
42.14897235421036 15.3215
42.173019768448455 15.322000000000001
42.19688269209613 15.3206
42.22074753323349 15.2688
42.24461429335818 15.3203
42.268669455600495 15.25
42.292540073217886 15.2289
42.31641261433284 15.2027
42.34028708044675 15.1965
42.36435001496739 15.164000000000001
42.38822835065557 15.1249
42.41210861586426 15.042
42.4359908120986 15.004000000000001
42.46006154323262 14.9841
42.48394762115317 14.9634
42.507835634632315 14.9814
42.531912233047436 14.952
42.55580413732265 14.9233
42.579697981698 14.8708
42.60359376768525 14.8334
42.62767820545945 14.8428
42.65157789440821 14.852
42.67547952952185 14.7492
42.699383112316 14.7574
42.72347541395347 14.7394
42.74738291190531 14.7124
42.771292362102166 14.7222
42.795203766063516 14.6555
42.819303956130405 14.6107
42.843219287476536 14.5832
42.86713657716324 14.5417
42.89105582671383 14.5383
42.91516392983864 14.5174
42.939087119032166 14.5256
42.963012272677304 14.4947
42.98693939230129 14.4637
43.01105543317513 14.4227
43.034986504731386 14.395999999999999
43.05891954686589 14.4182
43.08285456110972 14.3802
43.10697856448665 14.3233
43.130917542983475 14.3106
43.15485849820081 14.2556
43.17880143167367 14.2128
43.20293342237094 14.2571
43.226880332449 14.265999999999998
43.25082922540554 14.2465
43.27496722682525 14.1636
43.29892010567796 14.135
43.32287497204102 14.1306
43.34683182745632 14.1046
43.370977859791836 14.0384
43.39493871351105 14.0597
43.41890156092628 14.0454
43.44286640358341 14.019
43.46702049182749 13.9861
43.49098934522816 13.9597
43.51496019852649 13.9228
43.5389330532723 13.8941
43.56309522248204 13.8638
43.58707210044314 13.8564
43.61105098451946 13.7294
43.63503187626491 13.7457
43.659202151562134 13.7582
43.68318707902681 13.7836
43.70717401884041 13.7402
43.731162972560874 13.6771
43.75534137913236 13.6729
43.779334381108384 13.6214
43.803329401683186 13.6092
43.82732644241872 13.6452
43.8515130055166 13.6074
43.87551410707659 13.5444
43.89951723350145 13.5613
43.923709934595614 13.5363
43.94771713129917 13.4885
43.97172635758096 13.5168
43.99573761501002 13.4761
44.0199385169922 13.392000000000001
44.04395385732619 13.3697
44.067971233533086 13.404000000000002
44.09199064718605 13.3823
44.11619977548961 13.2923
44.14022328470671 13.2593
44.16424883610785 13.311
44.18827643127035 13.2517
44.21249381139513 13.2884
44.236525514814076 13.2232
44.26055926674478 13.2194
44.28459506876863 13.2064
44.3088207262813 13.1407
44.33286064928722 13.1674
44.35690262714919 13.168
44.38094666145278 13.0886
44.4051806219871 13.0719
44.42922879003185 13.0245
44.45327901929361 13.013
44.477331311362136 13.0017
44.501573600619416 12.9709
44.525630039221795 12.9736
44.54968854541895 12.9163
44.573937102200176 12.9423
44.5979997645541 12.8502
44.622064499300315 12.8996
44.64613130803592 12.8323
44.67038823869318 12.8454
44.69445921643748 12.8412
44.718532272981385 12.7532
44.742607409926194 12.7659
44.76687274034801 12.7583
44.79095205918753 12.6847
44.81503346325094 12.6644
44.839116954143876 12.6852
44.86339071028742 12.6332
44.88747839599524 12.5932
44.91156817336837 12.5795
44.93566004401666 12.5867
44.959942251908146 12.5294
44.984038330325966 12.5309
45.00813650686762 12.4466
45.03223678314731 12.4168
45.05652746888232 12.4099
45.08063196592069 12.4317
45.104738567558705 12.4169
45.128847275414856 12.3791
45.15314646515866 12.3221
45.17725940679741 12.3574
45.20137445952892 12.2893
45.22568004865265 12.3327
45.24979934496396 12.302999999999999
45.27392075725247 12.2895
45.29804428714431 12.2728
45.322358426247604 12.2485
45.346486212804315 12.2059
45.370616121861914 12.1934
45.39474815505086 12.1046
45.41907087049246 12.0934
45.4432071734666 12.0575
45.46734560548283 12.0662
45.49148616817604 12.0726
45.51581748638564 12.0282
45.5399623320197 12.0334
45.56410931325473 12.0117
45.58825843173002 12.0256
45.61259837920865 12.0049
45.636751793816 12.0046
45.66090735060093 11.9332
45.68506505120716 11.87
45.7094136545275 11.870999999999999
45.73357566449271 11.8086
45.75773982322992 11.8629
45.78190613238733 11.8088
45.806263418194064 11.734000000000002
45.83043404997326 11.7446
45.85460683713677 11.7833
45.87897065658495 11.7114
45.90314777634752 11.697000000000001
45.92732705646868 11.6944
45.9515084986045 11.6609
45.97588104735473 11.6391
46.00006683541565 11.6357
46.02425479047904 11.6023
46.04844491420549 11.5671
46.0728262191024 11.5207
46.09702070211635 11.5327
46.12121735879483 11.5573
46.14541619080294 11.5225
46.169806278764455 11.4996
46.194009483459034 11.4514
46.21821486849841 11.4715
46.24242243555223 11.4171
46.266821333570014 11.4082
46.29103328674601 11.3712
46.31524742696538 11.3867
46.33946375590237 11.3441
46.36387149104216 11.3254
46.38809221957392 11.2745
46.41231514186606 11.2503
46.436540259597464 11.2653
46.460956858999374 11.2693
46.48518638983522 11.2285
46.509418121166966 11.1869
46.533652054678114 11.1517
46.55807754555709 11.1455
46.58231590571962 11.1644
46.60655647313217 11.1051
46.630988654873654 11.097999999999999
46.655233659129024 11.0734
46.67948087571551 11.0426
46.70373030632484 10.982000000000001
46.72817142736393 10.9691
46.752425308428684 10.994000000000002
46.77668140861147 10.9755
46.80093972960865 10.9233
46.82538981736788 10.9218
46.849652602470904 10.8874
46.87391761349769 10.8903
46.8981848521493 10.8582
46.9226439341274 10.8025
46.946915650573224 10.8177
46.97118959976749 10.8046
46.99546578341598 10.8013
47.019933887188216 10.7657
47.04421456235744 10.7509
47.06849747711879 10.7405
47.09278263318286 10.6925
47.11725978640143 10.6829
47.14154944775105 10.6487
47.165841355555656 10.6121
47.1901355115306 10.5828
47.214621741924994 10.5994
47.23892041698887 10.6064
47.26322134538975 10.5531
47.28771440635075 10.5621
47.31201986422527 10.5137
47.33632758061436 10.5237
47.360637557241866 10.5025
47.38513974410611 10.4548
47.40945426407847 10.4432
47.43377104948137 10.4417
47.45809010204344 10.4191
47.48260144275502 10.4086
47.506925052572285 10.3766
47.53125093475548 10.347999999999999
47.55557909103813 10.3398
47.58009961361992 10.2576
47.60443234110732 10.2607
47.62876734791564 10.2801
47.65310463578333 10.2192
47.6776343683373 10.2374
47.7019762413987 10.183
47.72632040075572 10.1654
47.75066684815169 10.192
47.77520581885936 10.1778
47.799556865477655 10.163
47.823910205386 10.1167
47.84826584033272 10.1092
47.87281407745551 10.0747
47.89717432569297 10.113999999999999
47.92153687423484 10.064
47.94609208429692 10.007
47.97045925671401 9.997760000000001
47.99482873471275 9.96013
48.01920052005013 10.0391
48.04376504619224 9.9394
48.068141469543484 9.951789999999999
48.09252020552573 9.93573
48.11690125590099 9.941089999999999
48.1414751266064 9.85774
48.16586082917454 9.853580000000001
48.19024885144316 9.88273
48.2146391951793 9.83868
48.239222439012764 9.79702
48.26361744916137 9.81498
48.28801478610016 9.79195
48.31241445160131 9.749360000000001
48.337007097209366 9.74894
48.36141144338331 9.69732
48.38581812345755 9.69975
48.41022713920929 9.73703
48.434829215320704 9.71269
48.45924292604658 9.7213
48.48365897780325 9.6932
48.50807737237308 9.650319999999999
48.532688907799276 9.64879
48.55711201168574 9.58964
48.581537463754074 9.57271
48.60615611725119 9.59313
48.63058628942721 9.56115
48.65501881516546 9.56067
48.6794536962573 9.5279
48.70408185970339 9.50249
48.72852147531801 9.45139
48.75296345168211 9.419839999999999
48.77740779059232 9.41812
48.80204549302823 9.425889999999999
48.82649458091802 9.42682
48.85094603676547 9.37725
48.87539986237231 9.33255
48.90004713292306 9.317110000000001
48.92450572200832 9.29503
48.94896668628025 9.31616
48.97343002754588 9.29769
48.99808689542115 9.28387
49.02255501470614 9.28656
49.04702551642794 9.26883
49.0714984023988 9.24002
49.096164896893235 9.22556
49.120642575466796 9.19788
49.145122643748394 9.1643
49.16960510355558 9.13396
49.19428125404938 9.15502
49.2187685210852 9.13009
49.243258185121555 9.104389999999999
49.26794160167084 9.09287
49.2924360839405 9.03852
49.31693296869764 9.042819999999999
49.34143225776915 9.020710000000001
49.36612538195438 9.0184
49.39062950396021 9.034889999999999
49.41513603578346 8.98654
49.4396449792564 8.92678
49.46434784069503 8.95633
49.488861631846454 8.951139999999999
49.513377840166804 8.91954
49.537896467493745 8.88912
49.56260909589029 8.85928
49.587132585683285 8.84645
49.611658500018365 8.866480000000001
49.636186840738596 8.824010000000001
49.66090926588511 8.829419999999999
49.685442483902584 8.79457
49.70997813385706 8.75434
49.734516217597076 8.76254
49.75924846937352 8.725710000000001
49.7837914452858 8.72016
49.80833686055187 8.693019999999999
49.83288471702571 8.68742
49.85762682540054 8.667639999999999
49.882179588965734 8.65611
49.9067347993235 8.65772
49.93129245833333 8.59981
49.95604445336378 8.59936
49.98060703442832 8.56241
50.005172069746266 8.582289999999999
50.02993150438364 8.579839999999999
50.05450147301533 8.556510000000001
50.07907390151433 8.53207
50.10364879174981 8.494
50.12841816587289 8.49117
50.1529980044635 8.4706
50.17758031042124 8.491480000000001
50.20216508562089 8.473230000000001
50.22694442953363 8.425139999999999
50.25153416817468 8.39715
50.27612638170508 8.377889999999999
50.300721072005196 8.33624
50.325510416102105 8.32492
50.350110084975064 8.31778
50.37471223628208 8.31257
50.39931687190919 8.31835
50.424116246675766 8.30494
50.44872587605249 8.2981
50.47333799543065 8.28612
50.49795260670191 8.258460000000001
50.52276204271512 8.22751
50.54738166295838 8.22142
50.57200378079314 8.20143
50.596628398116835 8.17089
50.62144792604559 8.17799
50.646077567609396 8.198310000000001
50.670709714377715 8.15513
50.69553683636198 8.146930000000001
50.72017401885922 8.09135
50.7448137122895 8.05743
50.76945591856022 8.07634
50.79429318636823 8.09989
50.818940443716784 8.06127
50.84359021965163 8.045810000000001
50.868242516085964 8.01999
50.893089960641895 7.9961
50.917747323549435 7.9978
50.94240721271973 7.9920100000000005
50.96706963007175 7.95288
50.99192728239342 7.91665
51.01659478166073 7.93648
51.04126481489051 7.915839999999999
51.06593738400761 7.8958
51.090805275207074 7.90154
51.11548294172845 7.8834800000000005
51.14016314993547 7.85072
51.164845901758845 7.81732
51.18972406304274 7.827489999999999
51.21441192780656 7.78693
51.23910234200271 7.788289999999999
51.2637953075678 7.77227
51.288683770237945 7.75992
51.31338186432707 7.72167
51.33808251561888 7.701410000000001
51.362978729967345 7.70149
51.387684521509755 7.70745
51.41239287610203 7.68593
51.437103795691165 7.661560000000001
51.46201036644977 7.6489
51.486726441956634 7.6243300000000005
51.51144508832545 7.608039999999999
51.536166307509156 7.6029
51.56108326624387 7.57452
51.58580965706056 7.56085
51.61053862657523 7.53207
51.635270176746864 7.4979
51.66019755512065 7.54522
51.68493429268881 7.52077
51.70967361681515 7.508030000000001
51.73441552946465 7.4554
51.759353359237934 7.477289999999999
51.7841004750961 7.42668
51.80885018539685 7.417999999999999
51.833602492111254 7.4119399999999995
51.8585508051424 7.4246
51.883308330926425 7.36408
51.90806845906181 7.37639
51.932831191525715 7.310060000000001
51.95779001977161 7.349469999999999
51.98255798721516 7.31446
52.00732856494335 7.2744100000000005
52.03229530577543 7.262989999999999
52.057071130455945 7.29873
52.081849571391054 7.24605
52.106630630568695 7.239389999999999
52.13160794279417 7.2065600000000005
52.15639426492067 7.20453
52.18118321127822 7.26702
52.205974783860896 7.1746300000000005
52.23096269971011 7.1525300000000005
52.255759551287994 7.180210000000001
52.280559035098186 7.16852
52.30536115314103 7.109610000000001
52.33035970494467 7.12547
52.35516711807904 7.11494
52.37997717147198 7.07827
52.40478986713005 7.0456199999999995
52.42979908731974 7.07676
52.454617094216 7.035139999999999
52.47943774942214 7.00772
52.50426105495102 6.9801899999999995
52.529280976059844 6.97293
52.554109609024096 6.984039999999999
52.57894089837482 7.005089999999999
52.60377484613117 6.937539999999999
52.62880550079408 6.93151
52.65364479223379 6.904389999999999
52.67848674816189 6.866230000000001
52.70352547971946 6.871560000000001
52.72837279155837 6.868460000000001
52.753222773982785 6.85438
52.778075429022984 6.87598
52.80312495150885 6.836869999999999
52.827982978797436 6.81336
52.85284368481815 6.78212
52.87770707160767 6.800210000000001
52.90276741793998 6.75605
52.92763619336701 6.738519999999999
52.952507655698504 6.7416100000000005
52.977381806977576 6.76535
53.00245301017842 6.73318
53.02733256653592 6.69877
53.052214817996074 6.71363
53.077099766608484 6.70511
53.102181859804446 6.6746
53.127072229988265 6.671239999999999
53.15196530349892 6.696439999999999
53.17686108239249 6.6104199999999995
53.20195409881522 6.590389999999999
53.22685531582556 6.628360000000001
53.25175924441303 6.5489
53.27666588664027 6.55883
53.30176985962693 6.56796
53.3266819565689 6.58321
53.35159677336455 6.54836
53.376514312083096 6.5092099999999995
53.40162927507703 6.517180000000001
53.42655228516116 6.51286
53.45147802340193 6.4690900000000005
53.47660125628886 6.43074
53.50153247842639 6.42096
53.52646643496923 6.39173
53.55140312799818 6.38995
53.576537409691696 6.40418
53.60147960336152 6.3909199999999995
53.626424539786164 6.3812
53.65137222105307 6.33608
53.67651758529126 6.3367
53.70147078399681 6.33485
53.72642673383343 6.29416
53.75138543689533 6.33059
53.776541917524526 6.29648
53.801506154876755 6.26165
53.826473151763246 6.24188
53.851442910284916 6.24563
53.87661054126026 6.222919999999999
53.9015858509782 6.2051300000000005
53.92656392866066 6.1872300000000005
53.95154477641532 6.227069999999999
53.976723591801296 6.19
54.00171000771266 6.1832199999999995
54.02669920004598 6.18346
54.051691170915745 6.14182
54.076881204886796 6.099559999999999
54.101878760928514 6.116219999999999
54.12687910187696 6.11601
54.152077577768296 6.09657
54.1770835166946 6.068630000000001
54.20209224691339 6.05441
54.22710377055121 6.01963
54.25231352511594 6.02083
54.27733066384342 5.93709
54.30235060239643 5.97804
54.32737334290836 5.97245
54.35259441062629 5.9309
54.377622783395324 5.90738
54.40265396455061 5.94949
54.42768795623251 5.9022
54.45292037169559 5.8575
54.477960012857906 5.86751
54.50300247099511 5.88347
54.52804774825457 5.825740000000001
54.55329154616743 5.8086400000000005
54.57834249018678 5.81495
54.6033962597977 5.78503
54.6284528571545 5.77182
54.653708072335164 5.7248
54.67877035378786 5.70805
54.70383546947698 5.68895
54.72890342156389 5.6934
54.7541700889442 5.61685
54.77924374251975 5.61888
54.8043202390049 5.57615
54.82959552413022 5.58747
54.8546777351945 5.6024400000000005
54.87976279569621 5.546930000000001
54.90485070780914 5.57991
54.930137506558005 5.5259599999999995
54.95523115074295 5.53226
54.98032765308844 5.45673
55.005427015775496 5.4802800000000005
55.03072536339621 5.45452
55.05583047570572 5.4656
55.080938454927676 5.40422
55.10604930325027 5.36551
55.131359235107396 5.36254
55.15647585066083 5.36169
55.181595341907496 5.4002
55.20671771104285 5.30776
55.232039262617704 5.27473
55.25716741665048 5.2300699999999996
55.28229845518636 5.20771
55.30743238042802 5.179530000000001
55.33276558731939 5.20633
55.357905315183636 5.13096
55.383047936390035 5.15041
55.40819345314859 5.1241900000000005
55.433538351073295 5.11247
55.458689688238415 5.05826
55.483843927614096 5.07178
55.509197623043605 5.03107
55.53435769621134 4.96856
55.55952067826466 4.94944
55.5846865714265 4.964090000000001
55.61005202069737 4.97484
55.63522376553902 4.9393
55.66039842818645 4.87029
55.68557601087004 4.87338
55.7109532500271 4.84121
55.73613670233794 4.85348
