TT I
1.2716486653135266 7.71207
1.2939594142134223 6.54028
1.3162702121660406 6.922860000000001
1.3385810600174564 6.69745
1.3608919586137629 7.1184199999999995
1.383202908801069 6.68853
1.405513911425503 6.3135900000000005
1.4278249673332093 6.71921
1.4501343378461518 6.55665
1.4724455028545926 6.43422
1.4947567236847858 6.059819999999999
1.517068001182951 6.36644
1.5393793361953272 5.6544
1.5616907295681737 4.830030000000001
1.5840021821477681 5.5042800000000005
1.60631369478041 5.48147
1.6286252683124185 5.67044
1.6509369035901333 5.307919999999999
1.6732468618895553 5.70646
1.695558623192809 4.9499699999999995
1.7178704487808514 5.06749
1.7401823395001077 4.47919
1.7625012545597203 4.71591
1.7848028405262486 4.92066
1.8071218901122095 4.935
1.8294236121921872 4.79815
1.8517427996910911 5.1801
1.8740620574440425 5.19794
1.8963639900671978 4.99025
1.9186833908139995 4.23834
1.9409854680117449 5.04988
1.9633050151394713 4.8406199999999995
1.9856246367570705 5.00729
2.0079269371922672 5.66219
2.03024671027244 4.63603
2.0525491637446027 4.8314
2.074869091674931 4.77869
2.097171701569106 5.12918
2.1194917877373847 5.1661
2.141811954326636 4.90729
2.164114805233074 5.0728800000000005
2.186435135143035 5.94736
2.208738150935709 16.0839
2.231058647554722 35.3758
2.2533792288321184 27.4899
2.275682498336085 12.2176
2.298003251406138 6.52074
2.3203066942619714 6.4637
2.3426276225136022 5.544569999999999
2.3649486396617507 6.1654800000000005
2.387252348930071 5.94182
2.4095735463442893 6.12844
2.4318774374315884 5.49748
2.4541988185014043 6.28241
2.476502894794693 6.742889999999999
2.498824462909887 6.6539399999999995
2.521146125856138 7.415780000000001
2.5434504863470337 7.2470300000000005
2.5657723414244717 7.62592
2.588076895590662 7.596610000000001
2.610398946189713 8.37364
2.6327210958598384 8.502139999999999
2.6550259469304716 8.006839999999999
2.6773482972090137 8.10952
2.6996533504259 8.09728
2.7219759047039602 8.24898
2.744298562293959 8.00182
2.7666039251246595 7.64385
2.7889267918020164 8.26486
2.8112323652516555 8.47872
2.833555444408179 8.49887
2.8558786311183852 8.345369999999999
2.8781845268938557 8.531930000000001
2.9005079311721484 9.15296
2.9228140460410397 9.06426
2.9451376712799635 9.3419
2.967444008632326 9.38268
2.9897678582247247 9.71675
3.0120918213106695 10.609000000000002
3.0343984987899373 10.8713
3.0567226913198637 11.7281
3.079029599759726 11.9014
3.101354025127254 12.6915
3.123678568232338 12.8976
3.145985829517914 13.1554
3.16831061055229 13.3874
3.1906181112775593 14.1263
3.212943133635653 15.2548
3.2352682779763207 15.3574
3.2575761442691227 15.2042
3.2799015350264273 15.7961
3.302209649240067 16.6886
3.3245352898092655 16.9279
3.3468436553365257 17.7368
3.369169549113219 17.6845
3.3914955708171384 18.8807
3.413804319727358 19.1109
3.4361305997334863 19.4786
3.4584396084414553 19.7879
3.4807661501462652 20.4021
3.503092824025881 20.8232
3.5254022288463154 21.2473
3.5477291695206588 22.654
3.5700388426251948 23.3785
3.5923660534916446 24.9357
3.6146934007816114 43.5696
3.637003482731501 109.54299999999999
3.6593311053109985 124.48100000000001
3.681641464033634 68.5892
3.7039693653009733 32.9984
3.726297407241705 26.5201
3.7486081875460804 26.2204
3.7709365132734978 26.3111
3.793247578841633 26.8841
3.8155761917550093 26.929000000000002
3.8378875459837216 27.2531
3.8602164494827234 27.4208
3.882545499606844 29.0574
3.9048572932539183 29.5121
3.9271866390645718 29.808000000000003
3.9494987298666713 30.0532
3.971828374764527 30.7842
3.9941581705403255 31.4755
4.016470713506008 32.1452
4.038800813471445 32.5872
4.061113662089144 33.355
4.0834440696459176 34.1398
4.105774632334751 34.5939
4.128087945865126 35.6428
4.150418821249301 36.3797
4.172732448931298 37.6097
4.195063640413578 40.0918
4.2173775856475215 44.3514
4.239709096631102 84.4851
4.262040768704612 298.175
4.284355196706267 411.05300000000005
4.306687193387355 260.955
4.329001947444346 94.4902
4.35133427213731 50.7245
4.373666762177566 45.9482
4.395982011761091 44.9073
4.418314834921175 46.4287
4.44063041906622 55.9313
4.4629635787515625 70.632
4.4852969080429785 70.1842
4.5076130004776225 56.5112
4.529946671403969 50.5956
4.552263106909177 50.5953
4.574597122877047 51.4745
4.596931312711224 52.9477
4.619248269273446 53.3806
4.6415828092605835 54.547
4.663900117405352 55.8476
4.686235010953232 57.0258
4.708552674085913 58.3591
4.730887924602802 59.6666
4.753223354952695 60.5965
4.775541557023902 61.9988
4.797877349456786 63.2801
4.820195915032126 65.953
4.842532072957498 67.2113
4.864868414979744 68.9485
4.88718753227192 70.8869
4.909524244902505 73.2848
4.931843734218147 74.9006
4.954180820867835 77.181
4.976518095879839 80.2824
4.998838149695359 83.0403
5.021175803844231 86.48700000000001
5.043496238205739 89.6018
5.065834274903528 94.4472
5.088172504230693 98.9666
5.1104935158799565 105.587
5.132832132875765 130.401
5.155153533596801 184.43400000000003
5.1774925416746225 218.41299999999998
5.199814334878411 336.017
5.2221537374521505 933.915
5.244493338631803 2681.33
5.266815727034316 7169.43
5.289155727832427 12622.3
5.311478517248165 9124.97
5.333818921080011 3101.81
5.356159527788849 624.3380000000001
5.3784829252032536 196.622
5.400823940070432 148.054
5.423147747031976 131.126
5.445489173474152 120.72
5.467830807066149 114.501
5.490155234831516 109.97
5.512497285125229 106.323
5.534822130975162 104.36
5.557164601388673 102.26899999999999
5.579489868738879 100.304
5.601832762690846 99.0418
5.6241758697774475 98.161
5.646501775867269 97.1833
5.668845311622074 95.2837
5.691171647754637 94.7337
5.713515615597765 92.7505
5.735859800852677 92.08200000000001
5.758186788542988 91.1512
5.780531411018185 91.7967
5.802858837297399 90.7328
5.825203900414495 90.715
5.8475491852224 91.022
5.869877275883075 91.4059
5.892223006467101 92.3433
5.914551544266608 93.7312
5.936897724049891 96.3581
5.959244129804903 100.73700000000001
5.981573344815301 115.95100000000001
6.0039202049061 194.42700000000002
6.026249875609095 416.917
6.04859719346037 922.0219999999999
6.070927323278297 2058.07
6.093275102315365 4367.26
6.115623113320588 5271.26
6.137953938319995 3536.3
6.160302415650845 1105.41
6.182633708324452 255.989
6.2049826554078376 119.072
6.227331838745022 95.2373
6.249663839443684 86.4213
6.27201349767565 84.3028
6.294345974611799 93.2549
6.316696111167083 109.295
6.339046488263839 102.62799999999999
6.361379686074702 83.1445
6.383730546639482 73.3225
6.406064229255215 70.0625
6.428415576718203 68.7406
6.450749747566656 68.0266
6.47310158535871 66.7646
6.495453669698332 65.7351
6.517788579421056 65.2085
6.540141159237969 64.138
6.562476565766648 63.5764
6.5848296444934045 63.585
6.607182974060425 63.2646
6.6295191323281015 63.6289
6.651872965955752 68.0997
6.6742096296068985 101.914
6.6965639707294615 163.84099999999998
6.71891856698715 164.87099999999998
6.741255995248479 106.399
6.763611104154477 71.7922
6.785949046381137 61.9374
6.808304671371482 59.3656
6.8306605557940046 58.8038
6.852999275508618 58.1171
6.875355681171544 57.9862
6.897694923437771 57.5606
6.92005185377892 57.5043
6.9423916220322655 56.9941
6.964749080490181 56.5377
6.987106804399774 56.4597
7.009447368180821 56.6207
7.031805625367033 56.3157
7.054146723727803 56.3168
7.076505517631004 56.1268
7.098864581288365 56.1205
7.121206488070854 55.5652
7.143566093607822 55.3723
7.165908543567245 55.9559
7.188268694426048 56.1202
7.2106291193438095 56.3049
7.232972390625943 58.26
7.255333366030969 74.2736
7.277677189091925 145.959
7.300038718428332 212.865
7.322400526130865 177.783
7.344745183422596 101.76700000000001
7.367107550224791 64.9073
7.389452767901992 57.7943
7.411815697249891 56.2671
7.434161478756298 55.22
7.456524974096713 55.2309
7.478888753837185 54.8801
7.501235387657368 55.0983
7.523599738562711 55.3627
7.545946944825532 55.7405
7.568311870344528 56.1423
7.5906770845765665 56.143
7.613025156078678 57.5567
7.635390950099687 59.5694
7.657739602662809 58.8148
7.680105979923558 56.8569
7.702472650212829 56.5451
7.724822180948224 56.4398
7.747189439655568 56.6827
7.769539560075357 56.982
7.791907410653562 57.2194
7.81425812420825 56.9316
7.836626570110925 57.5497
7.858995315087906 58.2509
7.881346924933401 58.4739
7.903716270417482 58.8899
7.926068482028405 59.0606
7.948438431475253 59.4833
7.9708086843180235 60.1333
7.993161805171116 60.6429
8.015532667162402 60.9042
8.037886398416653 61.9216
8.060257873014221 62.5145
8.082629655331942 63.5594
8.104984308787587 64.4542
8.127356708900503 68.1197
8.149711981398308 75.2887
8.172085002766314 78.2466
8.194458336181368 73.6461
8.216814543847752 70.1509
8.23918850371002 69.6993
8.26154533906492 70.0111
8.283919928836452 71.8071
8.306277395339652 73.0266
8.328652618483376 73.8938
8.351028159736202 75.9596
8.373386579575245 78.3613
8.395762759396959 80.21
8.418121819038275 86.2004
8.440498640894003 102.17299999999999
8.462875785192262 118.824
8.485235811156207 127.83
8.507613602688501 158.42700000000002
8.529974277114228 235.745
8.552352719347912 365.901
8.574731488360351 615.317
8.59709314210385 1111.81
8.619472567021075 1816.32
8.64183487789147 2198.99
8.664214962183097 1889.08
8.686577933647762 1015.08
8.708958680784317 403.027
8.731339760774953 175.331
8.753703729764451 114.176
8.77608547780821 100.613
8.798450116065078 96.5615
8.820832535634787 93.0136
8.843215292401656 91.7456
8.865580941199045 89.9702
8.887964374703538 88.8625
8.910330701447199 90.6255
8.932714815164482 93.934
8.955099270424924 93.4928
8.977466620733543 89.4257
8.999851761421976 85.9016
9.022219798361645 84.3838
9.04460562795561 83.8496
9.066991803441677 82.8999
9.089360876979615 82.4839
9.111747746589993 82.6253
9.13411751544971 82.1321
9.156505082664324 81.8578
9.178875550323522 81.9783
9.20126381862328 82.7092
9.223652438908596 83.1248
9.246023961427412 82.9904
9.26841328802173 82.4791
9.290785518039224 82.1781
9.313175554425882 82.8786
9.335565947154315 82.7378
9.357939245086508 82.7187
9.380330352834827 83.3477
9.40270436697103 83.4819
9.425096193225055 83.1042
9.447488380180165 84.0142
9.469863475295412 84.45299999999999
9.492256385987508 85.0344
9.514632206018318 85.28299999999999
9.537025843935714 85.6243
9.559402392368193 86.3489
9.581796761000229 87.2287
9.604191496441521 88.1461
9.626569144158516 92.6294
9.648964615551032 98.9189
9.671343000390081 101.103
9.693739211225699 97.9153
9.716135793237463 94.3232
9.738515290448102 93.1151
9.760912617143402 93.6845
9.783292860202891 95.0924
9.805690935076182 96.32700000000001
9.828089385495742 97.6591
9.850470754023561 100.723
9.872869957865444 109.581
9.89525208097539 128.68200000000002
9.917652041736662 144.71
9.940052382417589 141.62
9.962435644102392 141.05100000000002
9.984836746950979 169.24599999999998
10.007220771957746 228.49200000000002
10.029622640473708 326.866
10.052007432299963 493.82
10.074410069984072 767.566
10.096813093716005 1203.89
10.119199042482517 1704.82
10.141602840636468 1939.69
10.163989564971628 1639.91
10.186394141051062 971.3969999999999
10.208799107559706 439.161
10.231187001965623 203.58599999999998
10.253592751657669 131.055
10.275981430388155 115.40100000000001
10.298387966769793 115.661
10.320794897965431 119.083
10.343184759907361 118.40899999999999
10.36559248305461 111.057
10.387983138083852 105.19
10.410391656691655 106.274
10.432800574501677 115.66799999999999
10.455192425893369 131.306
10.47760214443012 154.985
10.499994797678786 195.041
10.522405320453982 269.846
10.54479877906917 383.36400000000003
10.567210109595656 500.56300000000005
10.5896218454736 577.191
10.612016518879773 521.2909999999999
10.634429067781074 364.961
10.656824555333241 213.715
10.679237920773568 133.895
10.701651695961992 98.9179
10.724048411481384 90.015
10.746463008485165 87.4187
10.768860546937125 85.5058
10.791275969274796 83.6139
10.81369180576079 82.4857
10.836090585366925 81.6761
10.858507252467449 80.1278
10.88090686379991 79.2198
10.903324365036394 78.9718
10.925724811614439 79.4454
10.948143150509463 80.8911
10.970561909719066 80.0864
10.992963615930844 77.7324
11.015383218085756 75.289
11.037785768347074 73.9316
11.06020621697282 73.2443
11.082627090322113 72.6714
11.105030913430326 72.1588
11.12745263854165 72.9344
11.149857314510728 77.8829
11.172279894912576 86.1198
11.194702904450653 87.5538
11.217108866490921 82.1815
11.239532736615194 76.5183
11.26193956033512 73.6184
11.284364294577085 71.5019
11.306789462371718 68.9687
11.329197585398376 67.8533
11.351623622610898 67.3962
11.37403261614354 66.64
11.396459526308487 66.1535
11.418869393879497 65.9514
11.441297180532617 65.6784
11.463725406927658 65.1653
11.486136592353875 64.9988
11.508565700543707 66.1937
11.530977768845315 68.8254
11.553407762368774 69.8124
11.575838200059769 68.9447
11.598251599479612 66.2459
11.620682927815501 64.4925
11.64309721895548 64.04
11.665529441478206 63.3744
11.687962112597958 63.3078
11.710377748130886 63.5134
11.732811318753434 63.1694
11.755227854859067 63.2265
11.777662328529495 63.1338
11.800079768750786 62.9317
11.822515149015453 62.6044
11.844950984084935 63.1077
11.867369787303163 62.8682
11.889806534289491 62.7833
11.912226250487029 63.0007
11.934663912939751 63.1256
11.9571020346363 63.2235
11.979523127133968 63.2568
12.001962169624331 63.8945
12.024384183972964 64.4684
12.046824150809913 67.2739
12.069264581333726 72.3556
12.091687985297767 78.3321
12.11412934550045 86.8606
12.136553680195208 100.65799999999999
12.158995973632788 121.42299999999999
12.181438735204349 147.85
12.20386447284199 177.55599999999998
12.226308172985636 204.01
12.24873485024193 202.062
12.271179492516982 171.06400000000002
12.293607112949127 136.656
12.316052700916226 103.147
12.338498763250042 82.5418
12.360927805303868 72.6143
12.383374818673879 67.7417
12.405804812803074 65.4139
12.428252780773262 64.8157
12.45070122756722 64.5939
12.473132656675375 64.5973
12.49558206341869 64.9624
12.518014453510101 64.5765
12.540464823770117 64.6075
12.562915677315177 65.0315
12.58534951575545 66.0295
12.607801338171472 68.67399999999999
12.630236146511358 75.6212
12.652688941369085 81.8709
12.675124723177234 82.3413
12.697578494048786 77.0619
12.720032754458185 71.3679
12.742470003354093 68.3933
12.764925245138771 68.1326
12.787363476431278 68.4538
12.809819703166806 68.4171
12.83227642391173 69.1191
12.854716135692716 70.0209
12.877173846755147 71.1535
12.899614549869717 71.179
12.9220732548287 71.8346
12.94453245827299 72.4875
12.966974655289818 73.4404
12.989434858002571 74.4003
13.011878055298721 74.7303
13.034339260862497 75.7405
13.056800969391883 76.7511
13.079245674017244 78.7883
13.101708390774869 80.8524
13.12415410463411 86.8208
13.146617833206086 98.0054
13.169064559883248 109.382
13.191529303857127 123.435
13.213994557076367 144.542
13.236442809902437 177.97799999999998
13.258909083908291 228.643
13.28135835851934 291.129
13.30382565690295 360.222
13.326293469022952 419.61
13.348744283242008 430.25199999999995
13.371213125129904 373.60400000000004
13.39366497011003 277.126
13.416134845360597 184.37
13.438605238843131 128.613
13.46105863690397 106.77799999999999
13.483530069144786 104.59200000000001
13.505984506951902 109.09899999999999
13.528456981549432 118.046
13.550929978879088 131.868
13.573385983253365 154.701
13.595860028340867 190.60299999999998
13.618317081455832 240.893
13.64079217790333 293.414
13.663250283359057 345.205
13.685726434770173 375.241
13.708203115221277 344.63699999999994
13.730662806148091 275.36400000000003
13.75314054697177 193.93099999999998
13.775601299246777 134.51
13.798080104050406 100.429
13.820559442405358 86.3996
13.843021793671388 82.7247
13.865502201420897 80.8227
13.887965623051947 80.04899999999999
13.910447103807167 78.7338
13.932929122629764 77.4644
13.955394156785959 77.0323
13.977877254034569 76.1296
14.000343367582113 75.2593
14.022827546871707 74.57600000000001
14.045294743423524 73.8697
14.06778000837062 73.3663
14.090265817715476 73.2136
14.112734645763819 72.869
14.13522154619454 72.9297
14.157691466286913 72.9081
14.180179461423874 72.5766
14.202668005486178 71.607
14.22513957064374 71.1179
14.247629214846473 70.4527
14.270101881097517 70.3935
14.29259262906496 71.0863
14.315083930490205 72.0285
14.337558255389705 72.4962
14.360050666019726 71.9893
14.382526101071944 70.7228
14.405019624534942 69.742
14.427513705993134 68.9291
14.449990813291825 69.0267
14.47248601302899 68.7109
14.49496423954951 68.9189
14.517460561197822 69.1029
14.539939910570322 68.6945
14.562437357763558 69.3672
14.58493536931253 70.4959
14.607416409993311 71.87100000000001
14.62991555254159 72.702
14.652397725157423 72.3767
14.674898002342799 71.4114
14.697398848433282 70.736
14.719882725991326 70.9798
14.74238471217934 71.687
14.764869730765593 74.5
14.787372860692983 77.8634
14.809876564079925 81.9912
14.83236330125751 87.5747
14.854868153850365 95.4141
14.877356041159485 107.959
14.899862046604186 125.72
14.922351087688757 149.776
14.944858249632887 175.69299999999998
14.967365991421232 201.688
14.989856770231246 218.579
15.012365673994204 218.144
15.03485761569738 191.653
15.05736768508665 152.099
15.07987833888692 118.594
15.102372032001655 92.9521
15.124883856909658 77.9771
15.14737872204565 72.9437
15.169891721717274 70.8539
15.192405310371893 70.8322
15.214901940621196 71.5559
15.237416709527137 71.9493
15.259914520936249 72.3719
15.282430473753607 71.444
15.304947020131227 69.7625
15.327446610371178 68.8012
15.349964346154254 67.8003
15.372465126703139 67.2129
15.394984055556009 66.6969
15.417486030076159 66.6167
15.44000615566487 66.2317
15.462526881230803 66.3236
15.485030653812652 66.4273
15.507552581617434 66.5899
15.530057557334603 66.5693
15.55258069104857 66.3966
15.575104429329837 66.2127
15.597611216864632 66.1552
15.620136166564563 65.9973
15.6426441664095 66.5517
15.665170331202765 68.5099
15.687697105158826 71.309
15.710206930593545 74.9809
15.732734925158933 78.7522
15.755245972089478 84.4279
15.77777519094324 92.8301
15.800287463046663 105.055
15.822817909869592 122.29299999999999
15.84534897229804 142.393
15.867863089299354 164.692
15.890395385222186 183.74200000000002
15.912910736597423 193.459
15.935444269699861 184.65200000000002
15.957978423016485 160.672
15.980495633101265 130.046
16.003031029129367 101.01799999999999
16.02554948280019 79.9903
16.048086125229432 69.6928
16.070623392487107 66.4933
16.09314371869582 65.7422
16.11568223789321 65.1002
16.13820381691126 63.4603
16.160743591742527 62.2484
16.183283996022084 61.148
16.205807461423195 59.995
16.228349126881973 59.4507
16.25087385432698 59.4126
16.27341678466365 58.7329
16.29594277784926 58.7903
16.31848697676433 59.248999999999995
16.341031811604868 59.9593
16.36355971058487 60.3233
16.3861058195587 59.9658
16.40863499352978 58.5408
16.431182380342005 57.3591
16.453730407713202 56.6559
16.476261501364792 56.0178
16.498810812136167 55.8889
16.52134319004079 55.9644
16.54389378792203 55.8367
16.566445031001553 55.6023
16.588979342490088 55.5674
16.61153187824822 55.541000000000004
16.634067483263312 55.1845
16.656621315414416 55.1224
16.679175797408888 54.8472
16.701713349928728 54.967
16.72426913389191 55.2677
16.74680798922351 55.1842
16.76936507887444 55.2411
16.791905240734874 55.1523
16.814463639794468 55.2562
16.837022695210294 55.2368
16.859564824093756 55.6264
16.882125194503903 56.5828
16.904668639217885 57.5547
16.927230328348003 57.6819
16.949792678493612 57.5963
16.972338104193863 56.7895
16.994901778652235 56.1852
17.017448529496576 56.0048
17.040013531998152 55.8992
17.06257920018044 56.3283
17.0851279459922 57.0219
17.107694947817667 57.876000000000005
17.130245028099072 58.7687
17.15281336730298 59.9221
17.17536478578733 61.4255
17.19793446610687 63.7014
17.220504818648422 66.6039
17.243058251703697 69.3221
17.265629950971032 73.757
17.288184731571736 78.39699999999999
17.310757781306908 82.53200000000001
17.33333150794385 84.2496
17.355888317140174 83.6979
17.37846339986244 78.8846
17.401021565958885 72.4722
17.42359800851343 66.9098
17.44617513265564 62.6741
17.468735341390783 60.5519
17.491261035594565 59.3159
17.51396340099364 59.178999999999995
17.536490463869136 59.3727
17.559018209820174 59.458
17.58154663977963 59.6421
17.604251766089718 59.4291
17.626781572227713 59.8654
17.64931206518155 59.9533
17.671843245885103 60.5476
17.69455114821572 61.0052
17.717083712612634 61.245
17.739616967569667 61.2446
17.762150914021706 61.4842
17.78486160749854 61.3005
17.807396945166804 61.7968
17.829932977143503 62.7117
17.85246970436452 63.9694
17.875183204129467 65.6753
17.897721330097664 67.9531
17.920260154126645 70.2101
17.942799677153296 73.1516
17.9655159983646 76.5194
17.988056927677544 81.3168
18.010598558807683 88.1637
18.033140892692916 97.3854
18.05586005052525 107.35799999999999
18.07840379824407 118.87799999999999
18.10094825154059 131.07
18.12366954819864 138.5
18.146215420998306 140.833
18.16876200220057 132.588
18.191309292745153 120.244
18.214033452627167 105.459
18.236582170236648 93.5994
18.259131600016456 86.7109
18.281681742907335 86.2547
18.304408781233683 89.7395
18.32696035875955 94.2922
18.349512652227624 99.3363
18.372065662579683 104.12700000000001
18.394795594587553 106.309
18.41735004715306 103.969
18.43990521943684 98.6771
18.46246111238171 89.1844
18.485193953325208 79.3613
18.507751296070428 71.4003
18.530309362314178 66.9613
18.552868153000343 63.9016
18.57560391815056 62.4413
18.59816416623245 61.9073
18.620725141597372 61.4792
18.643286845190268 61.0691
18.666025549835414 60.7216
18.688588718427933 60.1904
18.711152618092243 60.0468
18.73389353884365 59.7687
18.75645890921984 59.1086
18.77902501351406 58.8497
18.801591852673102 58.7138
18.824335739722738 58.2939
18.846904057212626 58.1638
18.8694731124168 57.8961
18.89204290628315 58.0574
18.914789774966803 57.763999999999996
18.937361054791623 57.5269
18.959933076131318 57.2945
18.982505839934877 57.1958
19.00525570560582 57.3365
19.027829963004184 57.1033
19.05040496572238 57.196999999999996
19.072980714710468 57.1647
19.095733592739563 57.3157
19.11831084296757 57.6698
19.140888842324735 58.1116
19.16346759176222 58.4731
19.18622349753803 59.01
19.208803755869358 59.6105
19.231384767143577 60.7801
19.253966532312948 61.9922
19.276725481241822 63.7754
19.29930876296784 66.4218
19.3218928014549 69.3542
19.34465404436217 72.6765
19.36723960516257 75.62
19.389825925592426 76.8172
19.412413006605938 76.2335
19.43517731967805 73.0787
19.457765930683355 68.7067
19.48035530514408 64.1864
19.50294544401556 60.1584
19.525712842708348 57.3158
19.54830451925909 55.8332
19.570896963095727 54.5485
19.593490175174704 54.3174
19.616260674962184 53.9527
19.638855432416964 53.8361
19.661450960992624 53.8549
19.68404726164677 53.8196
19.706820878021247 53.6355
19.729418731756834 54.0665
19.752017360452857 53.6565
19.77461676506804 53.6661
19.797393513540218 53.7341
19.819994478951667 53.9984
19.84259622316767 54.5978
19.8651987471481 55.1388
19.887978643247177 55.0232
19.91058273574792 55.5671
19.933187610901943 56.2297
19.955969879466828 57.2881
19.97857632894404 58.6291
20.00118356396599 60.1441
20.023791585494575 62.0622
20.046577028914875 64.5835
20.069186632506966 67.0139
20.091797025500632 68.7105
20.114408208858933 69.8994
20.137196842715273 69.763
20.159809615886765 68.4664
20.18242318232135 65.965
20.20503754298326 63.7228
20.227829382875154 62.4659
20.250445341109344 62.1451
20.27306209647285 62.398999999999994
20.29567964993108 63.6649
20.31847471147704 64.8368
20.34109387027612 65.7156
20.363713830075454 65.5537
20.386334591841646 64.5522
20.409132890679302 62.1602
20.431755265564437 59.0935
20.454378445325528 56.2593
20.477002430930366 54.0962
20.499803982716553 52.7203
20.522429589228004 52.1229
20.54505600449589 51.6098
20.567683229489194 51.5101
20.590488049900088 50.9723
20.61311690359731 50.568999999999996
20.63574656993626 50.2523
20.658553853717297 49.8756
20.681185154618298 49.8566
20.703817271080066 49.8834
20.72645020407368 49.4397
20.749260783967177 49.55
20.771895359337133 49.2728
20.794530754161617 48.9564
20.817166969412938 48.9332
20.83998086114876 49.1118
20.86261872660049 48.8956
20.885257415405402 48.9345
20.90789692853701 48.7297
20.930714147864748 48.6561
20.953355319030678 48.6734
20.97599731745334 48.7983
20.99864014410749 48.6731
21.021460706796564 48.7029
21.044105199328826 48.9153
21.06675052302631 49.2097
21.089396678865015 49.3429
21.112220600704806 49.6235
21.134868430275347 49.8612
21.15751709492456 50.038999999999994
21.180166595629693 50.5455
21.202993892429635 50.8936
21.22564507473034 51.1682
21.24829709602816 51.4266
21.27112693608965 51.522
21.293780644891275 51.4084
21.316435195634053 50.8691
21.339090589297417 50.2484
21.361923832041875 49.9231
21.384580921090404 49.1873
21.407238856007325 48.7803
21.429897637773326 48.6397
21.45273429906592 48.4994
21.475394784108598 48.4214
21.498056118951983 48.3979
21.520718304578022 48.4847
21.543558400304388 48.7182
21.566222297108816 48.8748
21.58888704765135 48.9287
21.61155265291521 49.2212
21.63439619898156 49.7432
21.657063523335786 49.9583
21.67973170537063 50.4326
21.7024007460706 50.9096
21.72524775840385 51.4212
21.747918526116475 52.446999999999996
21.770590155457388 53.7976
21.79326264741238 55.2035
21.816113141960237 56.7533
21.838787368860547 58.5229
21.861462461341976 60.3847
21.884315579735777 62.06399999999999
21.90699241312273 63.5826
21.92967011506078 64.5054
21.95234868653799 64.6842
21.9752053151131 63.7195
21.997885635446785 61.8601
22.020566828293532 59.9156
22.04324889464272 58.0562
22.066109049404666 56.8832
22.088792872571794 56.2009
22.111477572219204 56.2066
22.1341631493376 56.2321
22.157026846313123 56.083999999999996
22.179714188221507 55.5679
22.202402410582668 54.5337
22.22509151438863 53.1013
22.24795876962584 51.8507
22.270649646204486 50.7164
22.293341407213727 50.0036
22.316034053646906 49.6739
22.338904883215342 49.4146
22.36159931041458 49.2859
22.38429462602756 49.2881
22.40699083104897 49.0886
22.429865251039757 49.1704
22.452563244831367 49.3128
22.47526213102522 49.0641
22.49813925616515 48.8328
22.520839937143307 48.7016
22.543541513520587 48.9034
22.56624398629403 48.7408
22.589124730075895 48.6283
22.611829005656723 48.8406
22.63453418063466 48.6761
22.657240256008077 48.9201
22.680124634582935 49.0597
22.70283252079775 49.3154
22.725541310413075 49.7122
22.74825100442868 49.8037
22.771139033969575 50.1915
22.79385054687155 50.4723
22.81656296718292 51.0121
22.83927629590484 51.919
22.862167992606945 52.823
22.88488314827121 53.9061
22.907599215359284 54.9233
22.93031619487366 55.9684
22.953211574954405 56.8344
22.975930389478226 57.7821
22.998650119445763 58.253
23.02137076586092 57.6662
23.044269845560063 56.5417
23.06699233506288 55.2049
23.089715744034912 53.2956
23.112617610931565 51.5662
23.135342869061212 50.3905
23.158069049684816 49.5123
23.1807961538087 49.1003
23.20370174880544 48.8721
23.226430710184808 48.9561
23.249160598093425 49.1232
23.271891413539002 49.0003
23.294800752937697 48.9902
23.31753343374794 49.044
23.340267045128353 49.0718
23.36300158808808 49.4538
23.38591468821339 49.6464
23.408651104658304 50.1899
23.431388455719986 50.8797
23.454126742409 51.5287
23.4770436196085 52.4598
23.499783787914662 53.5608
23.522524894889884 54.4868
23.54526694154616 55.5751
23.56818761219047 56.7928
23.59093154860734 57.7628
23.613676427751283 58.2568
23.636422250635754 57.5969
23.659346731118656 56.1593
23.68209445191868 54.2282
23.704843119509587 52.2684
23.72759273490623 50.3632
23.750521041644767 48.6438
23.77327256312355 47.6024
23.796025035462787 47.0675
23.818956224555475 46.4611
23.841710609113413 46.1445
23.86446594758979 46.0391
23.887222241002014 45.8558
23.910157285144578 45.5208
23.932915498962537 45.4114
23.955674670778713 45.3213
23.978434801611975 45.058
24.001373717286125 44.9315
24.024135776723917 44.9437
24.046898798245582 44.677
24.06966278287146 44.4633
24.092605586582614 44.495
24.115371508023642 44.3757
24.1381383956401 44.2931
24.16090625045381 44.1815
24.183852958731244 44.0565
24.206622758582608 44.0854
24.229393528706886 43.8239
24.252165270127392 43.8562
24.27511589952438 43.8889
24.297889594216997 43.6043
24.32066426328598 43.523
24.34343990775613 43.4559
24.36639447485003 43.3918
24.38917208083877 43.415
24.41195066531332 43.1464
24.43490819850244 43.2279
24.457688750692377 43.1462
24.48047028445616 43.0719
24.503252800821233 43.1703
24.526214300784112 43.2614
24.548998793132213 43.2658
24.57178427117417 43.1533
24.59457073593893 43.1678
24.617536219319863 43.2267
24.64032466834748 43.0886
24.663114107195035 42.9941
24.685904536893013 42.7538
24.708874020360852 42.7346
24.731666442613744 42.7029
24.754459858818787 42.5781
24.777254270007962 42.5112
24.80022777025625 42.244
24.82302418230472 42.4259
24.845821592443674 42.3499
24.86862000170663 42.3303
24.891597535453727 42.2157
24.914397953892728 42.463
24.93719937456671 42.2589
24.96000179851076 42.4489
24.98298338249997 42.6158
25.00578782394922 42.8667
25.028593271784167 42.8959
25.05157790644186 43.2143
25.07438537804115 43.1672
25.097193859145293 43.5738
25.120003350792075 43.7186
25.142992065061257 44.1121
25.165803588823465 44.3966
25.18861612625217 44.6076
25.211429678386736 44.7262
25.234422489079968 44.86600000000001
25.257238081693636 44.8387
25.280054692141732 45.0755
25.3028723214652 45.0063
25.325869245420463 45.0372
25.348688923599397 45.231
25.371509623787006 45.0352
25.394331347025812 44.8806
25.41733240110666 44.4914
25.440156181590016 43.7933
25.46298098826268 43.3031
25.48580682216873 42.7964
25.50881202326435 42.1552
25.53163992281684 41.6445
25.55446885274561 41.2941
25.577298814096377 41.0783
25.600308179121807 40.925
25.623140214533745 41.0438
25.64597328451537 40.8817
25.66898578564376 40.6774
25.691820936010206 40.7078
25.714657124097695 40.6814
25.737494350954734 40.6934
25.760511045684957 40.5823
25.783350361364224 40.7469
25.806190718969255 40.6225
25.82903211955018 40.6875
25.852053024868923 40.7491
25.874896522722523 40.8447
25.897741066713106 40.7525
25.920586657892454 40.7509
25.943611790812668 40.945
25.966459487728237 41.0542
25.989308234998564 41.0559
26.01215803367705 41.4868
26.03518741123814 41.6031
26.05803932412957 41.7071
26.080892291600094 41.6935
26.10374631470478 41.7531
26.12677995397268 41.9007
26.14963609978026 41.8465
26.172493304397875 41.5125
26.19535156888223 41.3853
26.218389486949604 40.992
26.241249882640123 40.6414
26.26411134137826 40.4654
26.28715248187403 40.4136
26.31001607820869 40.2782
26.3328807407756 40.0972
26.35574647063438 40.3042
26.37879191991473 40.2583
26.401659795896734 40.2877
26.424528742360263 40.2965
26.447398760366614 40.5778
26.470448535598294 40.705999999999996
26.49332070826805 40.7536
26.516193955675355 41.1084
26.53906827888316 41.4011
26.562122397260108 41.4395
26.584998883685063 41.6465
26.607876449110325 42.0162
26.63075509460056 42.1279
26.65381357334404 42.3242
26.67669439061878 42.3331
26.699576291163382 42.2965
26.722459276044212 42.0617
26.745522132402975 41.8337
26.768407297649354 41.6239
26.791293550442003 41.2784
26.814180891848974 40.9239
26.837248143099337 40.5901
26.860137673466657 40.5499
26.88302829566349 40.2846
26.90592001075963 40.2304
26.92899167420566 40.1301
26.951885586870763 39.6935
26.974780595655517 39.5068
26.99785558178161 39.2607
27.020752794605112 39.1419
27.043651106772522 39.0689
27.06655051935668 39.0292
27.089629948036183 38.9395
27.112531573292053 38.8858
27.135434302194138 38.8572
27.158338135817015 38.6658
27.181422024430987 38.7572
27.204328079372566 38.63
27.22723524226965 38.6949
27.250143514198573 38.7212
27.273231880156334 38.8093
27.296142382065014 38.5576
27.319053996245536 38.5668
27.341966723775965 38.5682
27.365059584515222 38.6605
27.38797455070062 38.5577
27.410890633481237 38.427
27.433807833936918 38.3728
27.456905206923906 38.6424
27.47982465472398 38.5925
27.502745223449743 38.6924
27.525666914182825 38.8779
27.548768816912457 38.7535
27.571692763693633 38.6778
27.59461783573812 38.4906
27.617723149491244 38.3109
27.640650484125285 38.2349
27.66357894728264 38.2579
27.686508540048052 38.2542
27.709618414237887 38.2524
27.732550278321757 37.9365
27.755483275279115 37.9343
27.778417406196485 38.0456
27.801531858397514 38.0405
27.824468269376716 37.8306
27.847405817586786 37.839
27.870344504116094 38.1429
27.893463551932008 38.2169
27.916404527281053 38.3611
27.93934664422563 38.4304
27.962289903855886 38.4864
27.98541356491974 38.6762
28.00835912214229 38.7437
28.03130582533231 39.0074
28.054253675581805 39.2005
28.077381967556104 39.1396
28.100332124185126 39.0847
28.123283431160893 39.163000000000004
28.146235889577238 38.895
28.169368830154156 38.8034
28.192323603752033 38.5586
28.215279532083304 38.3114
28.238415973016764 38.1313
28.261374223145094 38.0719
28.284333631303806 37.8731
28.307294198589954 37.7768
28.330435319167677 37.4458
28.353398217078915 37.076
28.376362277420153 36.9195
28.39932750129032 36.7518
28.422473319286713 36.7159
28.44544088262495 36.6693
28.468409612800283 36.4624
28.491379510913497 36.1906
28.51453004413313 36.0961
28.53750229057244 36.0298
28.56047570826344 35.9417
28.583450298308804 36.0132
28.606605564586562 35.7643
28.629582511831156 35.8683
28.65256063474956 35.7686
28.675539934446338 35.8246
28.698699951647605 35.738
28.72168161743193 35.6351
28.74466446331978 35.5509
28.767648490417624 35.5756
28.790813276438353 35.5496
28.813799678527303 35.5225
28.836787265157085 35.6152
28.859955641890075 35.5919
28.882945610203045 35.5578
28.905936766392035 35.4271
28.928929111566863 35.4268
28.952102288520145 35.4058
28.975097024308607 35.3111
28.998092952423807 35.1826
29.021090073977508 35.1001
29.04426806913204 34.9492
29.067267590245258 34.8561
29.090268308143695 34.7506
29.11327022394099 34.6704
29.13645305530891 34.5129
29.159457379627167 34.5761
29.18246290519685 34.5291
29.20546963313352 34.3705
29.22865731875826 34.5692
29.25166646419296 34.5746
29.27467681535305 34.406
29.29768837335608 34.374
29.320880931312562 34.37
29.34389491580634 34.3472
29.366910110507334 34.3465
29.38992651653503 34.434
29.41312396492981 34.3697
29.436142806456754 34.3034
29.45916286268059 34.2381
29.48236399319994 34.0805
29.50538649169417 33.9019
29.528410208259935 33.9942
29.55143514402014 33.6778
29.574641196749695 33.5257
29.597668583816574 33.4351
29.6206971934585 33.2558
29.64372702680042 33.281
29.666938019934474 33.1583
29.689970313635285 33.1318
29.713003834422636 33.2545
29.73603858342347 33.1356
29.759254535188578 32.9484
29.78229175361658 32.973
29.80533020365064 32.9719
29.82836988641968 32.9808
29.85159081507472 32.9563
29.874632976355343 32.8379
29.89767637376955 32.9407
29.920721008448314 32.8113
29.9439469322847 32.7504
29.96699405457564 32.7451
29.9900424175358 32.7686
30.013092022298157 32.6381
30.03632295963995 32.6469
30.059375061131373 32.6228
30.08242840783577 32.6211
30.105483000888153 32.6364
30.128718970092244 32.4814
30.151776069006917 32.5848
30.17483441768648 32.5956
30.198074175317235 32.4847
30.221135036724256 32.5105
30.24419715131772 32.4836
30.267260520236203 32.3614
30.290505341942243 32.4872
30.313571232750228 32.4778
30.336638381310948 32.5016
30.35970678876503 32.3564
30.38295669299435 32.3172
30.40602763151657 32.2938
30.429099832366074 32.1826
30.452173296685572 32.1933
30.47542830191959 32.1603
30.498504306502497 32.09
30.521581577995562 32.1926
30.544660117543582 32.2404
30.56792024229725 32.2216
30.59100133132069 32.1987
30.614083691845494 32.1906
30.637167325018545 32.3397
30.660432587840603 32.2816
30.683518779717886 32.226
30.70660624769615 32.3119
30.729694992924372 32.279
30.75296541239743 32.4009
30.77605672557558 32.3306
30.799149319462742 32.2745
30.8224236211637 32.1551
30.845518789950724 31.9454
30.868615242910597 31.9288
30.891712981195973 31.764
30.91499247215866 31.6462
30.938092794619365 31.6041
30.96119440587579 31.6055
30.984297307082752 31.5293
31.00758200598383 31.4326
31.030687500658694 31.3351
31.053794288760695 31.2844
31.076902371446767 31.201
31.100192296997445 31.2254
31.12330298246119 31.2033
31.14641496599209 31.1161
31.169528248749216 31.0991
31.19282341969534 31.0999
31.215939314557186 31.1623
31.239056512134788 31.147
31.262175013589378 31.1325
31.28547544871168 31.0221
31.30859657161541 30.8501
31.331719001892175 30.8856
31.35484274070538 31.1132
31.378148458819545 31.059
31.401274828443725 30.9228
31.424402510106933 30.9989
31.447712205419993 31.125
31.470842524931633 30.8966
31.493974159989783 30.9459
31.51710711176168 30.9677
31.54042212308802 31.0539
31.563557722100917 30.9087
31.586694641341655 30.7996
31.609832881979628 30.659000000000002
31.63315322823208 30.5484
31.656294125521327 30.4933
31.679436347728515 30.4303
31.70257989602529 30.3724
31.725905596152327 30.2567
31.74905181052835 30.183000000000003
31.772199354521323 30.3614
31.79534822930507 30.4286
31.818679302290967 30.2769
31.84183085259981 30.3111
31.864983737233473 30.2259
31.88813795736804 30.3165
31.911474422233013 30.0998
31.934631327356435 30.3091
31.9577895715215 30.3006
31.980949155906522 30.2241
32.004291031706956 30.1687
32.027453310562606 30.0223
32.05061693318573 30.0176
32.07396288236386 29.9594
32.09712920658542 29.8589
32.12029687812702 29.7332
32.14346589817093 29.7365
32.166817291729984 29.6454
32.18998902288583 29.5913
32.21316210610336 29.6457
32.23633654256711 29.416
32.259693399663725 29.3928
32.282870556771144 29.3142
32.30604907069099 29.323
32.329228942610065 29.237
32.35259128243769 29.0783
32.375773884550505 29.0792
32.398957848235646 29.0756
32.422143174682176 28.9906
32.445511016471215 28.9436
32.468699082679954 28.7955
32.49188851523011 28.796
32.51507931531304 28.7639
32.538452678331 28.7991
32.56164622776311 28.7154
32.58484114831493 28.5571
32.60803744118015 28.6211
32.631416344731896 28.680999999999997
32.654615396551876 28.6806
32.67781582427913 28.6221
32.701198898634416 28.5546
32.72440209253756 28.4301
32.747606665947124 28.3919
32.77081262006088 28.3142
32.79420126883317 28.3213
32.81740999876112 28.3162
32.840620112999424 28.1517
32.86383161274818 28.1946
32.88722585534586 28.1369
32.91044014056596 28.1451
32.933655814909734 28.0833
32.95687287957963 28.1357
32.98027273544904 28.0112
33.00349259526636 27.9498
33.026713849030116 27.9977
33.04993649794511 27.9409
33.073341986570746 28.0158
33.09656744032826 27.8983
33.11979429286444 27.9697
33.14302254538647 27.941999999999997
33.166433686291185 27.8398
33.18966475336992 27.8409
33.212897224069096 27.671999999999997
33.23613109959831 27.6759
33.259547912343415 27.7109
33.2827846121627 27.7421
33.306022720453775 27.5879
33.32926223842861 27.5349
33.352684742614166 27.5479
33.37592709463173 27.5397
33.399170859982064 27.4856
33.422597648419426 27.3863
33.44584425514446 27.3021
33.46909227885668 27.2439
33.4923417207723 27.1652
33.51577423505344 27.1717
33.539026528130385 27.0437
33.56228024307245 27.0637
33.585535381098246 26.9008
33.60897364093058 26.8737
33.63223163992385 26.8414
33.6554910656699 26.8695
33.678751919389796 26.7025
33.702195944520106 26.7247
33.72545966903325 26.6664
33.74872482519663 26.6303
33.771991414233746 26.7058
33.79544122444841 26.5556
33.81871069412428 26.4655
33.84198160035767 26.5137
33.86525394437455 26.5304
33.88870955949969 26.4859
33.911984794020626 26.4802
33.93526147001624 26.3979
33.958539588715006 26.3661
33.98200102861669 26.2815
34.0052820477047 26.1609
34.02856451319451 26.224
34.05203033759056 26.0702
34.07531571090147 26.0968
34.09860253431845 26.1136
34.121890809074316 26.0045
34.145362493118924 26.0108
34.16865368561615 25.9644
34.191946333164054 25.8947
34.21524043699793 25.9443
34.23871800066799 25.9148
34.26201503218366 25.7705
34.28531352370466 25.7811
34.30861347646881 25.6423
34.33209693978188 25.6421
34.3553998301885 25.6485
34.378704185565205 25.5982
34.402010007152356 25.52
34.42549939016683 25.5191
34.44880815937748 25.4436
34.472118398533134 25.333000000000002
34.49543010887669 25.4042
34.51892543169198 25.2235
34.54224009966052 25.2083
34.56555624255917 25.2563
34.58887386163339 25.1889
34.61237514439016 25.1128
34.6356957311114 25.113000000000003
34.65901779775809 25.0812
34.68252356662995 25.0097
34.705848608458616 25.0256
34.72917513396849 25.0063
34.75250314440949 24.8926
34.77601490857862 24.8557
34.799345904259795 24.8437
34.82267838863559 24.8507
34.846012362958525 24.7936
34.869530142679984 24.7555
34.89286711232212 24.7426
34.91620557568269 24.7512
34.93954553401677 24.6096
34.9630693495876 24.5924
34.986412313340814 24.5691
35.00975677584668 24.5917
35.033102738362956 24.475
35.05663261012228 24.4716
35.0799815881786 24.5027
35.10333207003229 24.449
35.12668405694369 24.4012
35.150220005273056 24.4164
35.17357501786656 24.3407
35.19693153931268 24.2484
35.220289570874385 24.3047
35.24383161619786 24.3269
35.267192683604904 24.2335
35.290555264930376 24.1986
35.314101899412165 24.2305
35.33746752422433 24.1917
35.36083466676374 24.1421
35.38420332829803 24.1153
35.407756095629054 24.147
35.43112781085063 24.1297
35.45450104888391 24.0284
35.477875810999194 24.0057
35.50143473172161 23.9632
35.52481255774625 24.0888
35.54819191167777 23.9678
35.57157279478914 23.9135
35.595137889488406 23.8665
35.61852184675279 23.8103
35.641907337029984 23.7571
35.665294361595684 23.7212
35.68886565090076 23.7253
35.7122557598848 23.6468
35.73564740699838 23.5958
35.759040593519934 23.5715
35.78261809810353 23.502
35.80601437933051 23.3523
35.829412203814705 23.43
35.85281157283719 23.3652
35.876395313415884 23.3571
35.8997977874528 23.3719
35.92320180988546 23.2697
35.946790244133936 23.274
35.97019737933222 23.3171
35.993606066789866 23.2207
36.01701630779276 23.1886
36.04061101440684 23.0657
36.06402437852291 23.0654
36.08743930005611 23.0772
36.1108557802951 22.9268
36.13445678011326 23.0294
36.15787639383515 22.928
36.18129757014299 22.9697
36.20472031032821 22.923000000000002
36.22832762423364 22.8057
36.25175350829375 22.8103
36.275180960119776 22.6977
36.298609981005924 22.7836
36.32222362992669 22.8057
36.34565580510207 22.724
36.36908955323448 22.5985
36.39252487562093 22.4874
36.416144880530226 22.5369
36.43958336764275 22.5188
36.463023432914625 22.4999
36.486465077645676 22.4694
36.51009145956204 22.5884
36.53353627947859 22.4669
36.55698268276811 22.4164
36.58043067073321 22.3695
36.60406345072071 22.2464
36.62751462435344 22.2608
36.65096738658405 22.2807
36.67460498210655 22.293000000000003
36.69806093788647 22.2452
36.72151848619297 22.1124
36.744977628333636 22.1391
36.76862165890998 22.1023
36.79208400512205 22.0539
36.81554794910557 22.0926
36.83901349217101 21.9237
36.862663978991606 21.9139
36.88613273667352 21.9115
36.90960309738324 21.9171
36.933075062434064 21.8851
36.95673202673572 21.7633
36.98020721697122 21.7548
37.003684015502365 21.7351
37.027162423645365 21.715999999999998
37.050825886711465 21.6388
37.07430753063053 21.6071
37.09779078812467 21.6382
37.121275660513014 21.581999999999997
37.144945643673694 21.5939
37.16843376245278 21.6027
37.19192350009803 21.493000000000002
37.215414857931435 21.4279
37.239091382563885 21.3394
37.262585997426164 21.3652
37.28608223645736 21.3535
37.309763684451696 21.3456
37.33326318851098 21.2418
37.356764320726555 21.296999999999997
37.380267082425526 21.2279
37.40395510942588 21.1693
37.42746114683234 21.1477
37.45096881771841 21.1209
37.474478123414166 21.1038
37.49817275092816 21.0563
37.52168534303452 21.0591
37.54519957395567 20.9189
37.568715445024665 20.9961
37.592416694607714 20.9718
37.61593586281424 20.8613
37.63945667518264 20.8808
37.66297913304891 20.7586
37.68668702630454 20.8701
37.710212792059274 20.7212
37.733740207334854 20.7341
37.757269273470364 20.6962
37.780983832050374 20.6804
37.80451621684926 20.5858
37.82805025654007 20.5522
37.851585952464795 20.5899
37.8753071980695 20.455
37.89884622345676 20.4694
37.92238690911902 20.4535
37.94611318753442 20.3405
37.969657210779765 20.387
37.99320289834801 20.3683
38.016750251586465 20.3557
38.04048325513017 20.3294
38.06403395679343 20.1965
38.087586328183946 20.1627
38.11114037065203 20.14
38.13488012115898 20.2076
38.1584375229181 20.1542
38.181996599821 20.1386
38.205557353221124 20.0564
38.229303872575656 19.967
38.2528679961576 20.0181
38.27643380031219 20.0049
38.30000128639589 19.9147
38.32375459653193 19.8749
38.34732546371299 19.9302
38.37089801690786 19.7858
38.39447225747609 19.7974
38.418232380377425 19.7206
38.441810012983396 19.7626
38.46538933705673 19.7384
38.488970353960084 19.7008
38.51273731166058 19.6483
38.536321731567014 19.6504
38.55990784840681 19.5784
38.58367995004091 19.5509
38.60726947812959 19.5744
38.63086070726198 19.5182
38.654453638806274 19.5155
38.678232613930824 19.3768
38.70182896773327 19.3753
38.72542702806741 19.339000000000002
38.7490267963045 19.2942
38.77281266709232 19.2244
38.79641586862214 19.3056
38.8200207821842 19.2337
38.843627409152944 19.1921
38.86742019782782 19.1507
38.891030269149255 19.0952
38.914642058016156 19.1051
38.938255565806124 19.0764
38.96205529464307 19.0097
38.98567225787121 19.0751
39.00929094417078 19.0188
39.03291135492255 19.0251
39.05671804624804 18.9894
39.080341923549106 19.0161
39.103967529460334 18.9386
39.127594865365744 18.8317
39.15140854155791 18.8502
39.17503935514948 18.8543
39.19867190290282 18.809
39.22249083587951 18.7561
39.24612686969409 18.7496
39.269764641845306 18.6645
39.293404153722804 18.6384
39.317230110864074 18.6174
39.34087311998506 18.595
39.36451787301696 18.6641
39.388164371352595 18.5096
39.41199737518003 18.4807
39.43564738196752 18.4849
39.45929913825317 18.4371
39.48295264543308 18.3954
39.506792718520884 18.3945
39.530449745387216 18.3545
39.55410852735203 18.2978
39.57776906581474 18.3094
39.60161623079 18.2606
39.625280300200025 18.1903
39.64894613032202 18.1991
39.67261372255866 18.1609
39.6964680021016 18.1498
39.72013913657293 18.1471
39.74381203738292 18.1159
39.76748670593756 18.0626
39.79134812278169 18.0546
39.81502634488497 18.0538
39.83870633896685 18.0304
39.862388106436654 17.923
39.88625668336918 17.897000000000002
39.90994201572829 17.8953
39.933629125719285 17.8955
39.957503091207826 17.8611
39.9811937746168 17.8409
40.00488623990914 17.7696
40.02858048850006 17.7567
40.05246165409549 17.6758
40.076159487492085 17.6077
40.099859108448875 17.7136
40.123560518384345 17.6752
40.1474489070226 17.5833
40.171153913178564 17.5296
40.194860712584955 17.4928
40.2185693066637 17.5092
40.242464941335314 17.4607
40.26617714307655 17.4565
40.289891143772046 17.434
40.3136069448471 17.3594
40.33750984859743 17.3385
40.3612292688043 17.3639
40.3849504936829 17.3825
40.40867352466194 17.3893
40.43258372059144 17.2613
40.45631038219906 17.2783
40.48003885420956 17.2242
40.503769138055105 17.2317
40.52768664931955 17.2034
40.55142057531802 17.1633
40.57515631746428 17.175
40.599079334038514 17.1578
40.62281872700477 17.0299
40.64655994043941 16.9883
40.67030297578061 16.9825
40.69423334835778 16.9806
40.71798004609188 16.9469
40.74172857006355 16.9491
40.76547892171441 16.948
40.7894166736039 16.8461
40.813170699248566 16.8038
40.83692655691388 16.8013
40.86068424804498 16.8308
40.884629402612525 16.795
40.908390779366385 16.7654
40.932153993938 16.6759
40.95591904777605 16.6543
40.979871628443995 16.7302
41.003640379561936 16.6786
41.02741097430883 16.6091
41.05118341413683 16.5704
41.075143444384416 16.5394
41.098919593177826 16.5623
41.1226975914255 16.4573
41.14647744058318 16.4336
41.170444943946755 16.4354
41.19422851378379 16.447
41.218013938914645 16.4051
41.24198706625173 16.3257
41.26577622087193 16.2737
41.289567235177785 16.2676
41.31336011063129 16.3366
41.337340752422875 16.2452
41.361137369129835 16.2838
41.38493585138705 16.24
41.40873620066004 16.1477
41.43272438060107 16.1634
41.45652848292052 16.0711
41.48033445666918 16.0756
41.50414230331616 16.0596
41.528138045159764 16.0222
41.551949656675205 15.9712
41.575763145513235 15.9853
41.59957851314666 15.9917
41.62358184070442 15.8763
41.64740098505737 15.9078
41.6712220126409 15.8275
41.69504492493139 15.829
41.71905586207357 15.8548
41.74288256296395 15.8585
41.766711153007456 15.7791
41.79054163368412 15.7486
41.814560204340054 15.7396
41.838394485526365 15.742
41.86223066180303 15.7159
41.88625497706819 15.6037
41.910094962812 15.5998
41.93393684811168 15.5643
41.95778063445365 15.5505
41.981812625263366 15.5757
42.00566023303407 15.5412
42.029509746323676 15.4946
42.05336116662236 15.4372
42.077400857069705 15.4777
42.10125611078846 15.3866
42.12511327600405 15.3505
42.14897235421036 15.3887
42.173019768448455 15.3596
42.19688269209613 15.2759
42.22074753323349 15.2317
42.24461429335818 15.2474
42.268669455600495 15.222999999999999
42.292540073217886 15.1576
42.31641261433284 15.1976
42.34028708044675 15.1587
42.36435001496739 15.1417
42.38822835065557 15.1241
42.41210861586426 15.0645
42.4359908120986 15.0435
42.46006154323262 14.9677
42.48394762115317 14.9736
42.507835634632315 14.9442
42.531912233047436 14.9872
42.55580413732265 14.9652
42.579697981698 14.9087
42.60359376768525 14.8608
42.62767820545945 14.8537
42.65157789440821 14.8228
42.67547952952185 14.7769
42.699383112316 14.762
42.72347541395347 14.6886
42.74738291190531 14.7185
42.771292362102166 14.7004
42.795203766063516 14.6715
42.819303956130405 14.6468
42.843219287476536 14.6054
42.86713657716324 14.6421
42.89105582671383 14.5783
42.91516392983864 14.5422
42.939087119032166 14.5282
42.963012272677304 14.4872
42.98693939230129 14.4941
43.01105543317513 14.4217
43.034986504731386 14.4319
43.05891954686589 14.4155
43.08285456110972 14.3558
43.10697856448665 14.357000000000001
43.130917542983475 14.2773
43.15485849820081 14.2904
43.17880143167367 14.2859
43.20293342237094 14.2246
43.226880332449 14.1723
43.25082922540554 14.1853
43.27496722682525 14.2074
43.29892010567796 14.1832
43.32287497204102 14.1284
43.34683182745632 14.1473
43.370977859791836 14.0518
43.39493871351105 14.0342
43.41890156092628 14.0806
43.44286640358341 14.0247
43.46702049182749 13.9925
43.49098934522816 13.9448
43.51496019852649 13.880999999999998
43.5389330532723 13.8973
43.56309522248204 13.8728
43.58707210044314 13.8229
43.61105098451946 13.7673
43.63503187626491 13.787
43.659202151562134 13.7435
43.68318707902681 13.7478
43.70717401884041 13.7342
43.731162972560874 13.7528
43.75534137913236 13.6695
43.779334381108384 13.6483
43.803329401683186 13.6508
43.82732644241872 13.6028
43.8515130055166 13.6006
43.87551410707659 13.5882
43.89951723350145 13.5888
43.923709934595614 13.5146
43.94771713129917 13.4593
43.97172635758096 13.458
43.99573761501002 13.4698
44.0199385169922 13.4162
44.04395385732619 13.4183
44.067971233533086 13.3986
44.09199064718605 13.3741
44.11619977548961 13.3227
44.14022328470671 13.3072
44.16424883610785 13.3361
44.18827643127035 13.3263
44.21249381139513 13.3105
44.236525514814076 13.2265
44.26055926674478 13.2121
44.28459506876863 13.198
44.3088207262813 13.1311
44.33286064928722 13.1516
44.35690262714919 13.1299
44.38094666145278 13.0875
44.4051806219871 13.0739
44.42922879003185 13.0426
44.45327901929361 13.0055
44.477331311362136 12.999
44.501573600619416 12.9388
44.525630039221795 12.8851
44.54968854541895 12.955
44.573937102200176 12.9462
44.5979997645541 12.8948
44.622064499300315 12.8279
44.64613130803592 12.844000000000001
44.67038823869318 12.8142
44.69445921643748 12.8167
44.718532272981385 12.7788
44.742607409926194 12.7311
44.76687274034801 12.6804
44.79095205918753 12.6906
44.81503346325094 12.7239
44.839116954143876 12.6693
44.86339071028742 12.6282
44.88747839599524 12.64
44.91156817336837 12.6288
44.93566004401666 12.5541
44.959942251908146 12.5297
44.984038330325966 12.522
45.00813650686762 12.493
45.03223678314731 12.4615
45.05652746888232 12.457
45.08063196592069 12.4222
45.104738567558705 12.3902
45.128847275414856 12.3556
45.15314646515866 12.3511
45.17725940679741 12.3644
45.20137445952892 12.3258
45.22568004865265 12.3316
45.24979934496396 12.2908
45.27392075725247 12.2871
45.29804428714431 12.2389
45.322358426247604 12.2076
45.346486212804315 12.1918
45.370616121861914 12.2006
45.39474815505086 12.1785
45.41907087049246 12.1129
45.4432071734666 12.1001
45.46734560548283 12.1033
45.49148616817604 12.0345
45.51581748638564 12.0712
45.5399623320197 12.0598
45.56410931325473 12.0239
45.58825843173002 11.9897
45.61259837920865 12.0017
45.636751793816 11.9903
45.66090735060093 11.9017
45.68506505120716 11.8703
45.7094136545275 11.8971
45.73357566449271 11.8712
45.75773982322992 11.8812
45.78190613238733 11.8268
45.806263418194064 11.7733
45.83043404997326 11.7969
45.85460683713677 11.8001
45.87897065658495 11.7356
45.90314777634752 11.6924
45.92732705646868 11.6345
45.9515084986045 11.6758
45.97588104735473 11.6566
46.00006683541565 11.6442
46.02425479047904 11.5841
46.04844491420549 11.5531
46.0728262191024 11.5775
46.09702070211635 11.5594
46.12121735879483 11.5356
46.14541619080294 11.5067
46.169806278764455 11.5479
46.194009483459034 11.508
46.21821486849841 11.4817
46.24242243555223 11.4648
46.266821333570014 11.419
46.29103328674601 11.341
46.31524742696538 11.3833
46.33946375590237 11.3389
46.36387149104216 11.3306
46.38809221957392 11.3252
46.41231514186606 11.2559
46.436540259597464 11.2665
46.460956858999374 11.2411
46.48518638983522 11.2575
46.509418121166966 11.2004
46.533652054678114 11.1561
46.55807754555709 11.1493
46.58231590571962 11.1684
46.60655647313217 11.1115
46.630988654873654 11.1069
46.655233659129024 11.0903
46.67948087571551 11.0671
46.70373030632484 11.0033
46.72817142736393 11.0243
46.752425308428684 11.0245
46.77668140861147 10.9919
46.80093972960865 10.9194
46.82538981736788 10.9003
46.849652602470904 10.9176
46.87391761349769 10.8677
46.8981848521493 10.8739
46.9226439341274 10.815
46.946915650573224 10.8087
46.97118959976749 10.7933
46.99546578341598 10.7566
47.019933887188216 10.7736
47.04421456235744 10.7576
47.06849747711879 10.7343
47.09278263318286 10.7228
47.11725978640143 10.6794
47.14154944775105 10.6699
47.165841355555656 10.6591
47.1901355115306 10.6433
47.214621741924994 10.6454
47.23892041698887 10.6022
47.26322134538975 10.5917
47.28771440635075 10.5619
47.31201986422527 10.5642
47.33632758061436 10.5293
47.360637557241866 10.5024
47.38513974410611 10.4883
47.40945426407847 10.4902
47.43377104948137 10.4642
47.45809010204344 10.405999999999999
47.48260144275502 10.3894
47.506925052572285 10.3649
47.53125093475548 10.3542
47.55557909103813 10.35
47.58009961361992 10.3603
47.60443234110732 10.2725
47.62876734791564 10.2727
47.65310463578333 10.2579
47.6776343683373 10.2487
47.7019762413987 10.1911
47.72632040075572 10.1643
47.75066684815169 10.2045
47.77520581885936 10.1766
47.799556865477655 10.1477
47.823910205386 10.1195
47.84826584033272 10.0925
47.87281407745551 10.0551
47.89717432569297 10.0348
47.92153687423484 10.0457
47.94609208429692 10.024
47.97045925671401 10.017999999999999
47.99482873471275 10.0067
48.01920052005013 9.98803
48.04376504619224 9.92627
48.068141469543484 9.98677
48.09252020552573 9.92895
48.11690125590099 9.88284
48.1414751266064 9.90183
48.16586082917454 9.87665
48.19024885144316 9.86282
48.2146391951793 9.84205
48.239222439012764 9.85864
48.26361744916137 9.82382
48.28801478610016 9.81121
48.31241445160131 9.84246
48.337007097209366 9.78994
48.36141144338331 9.77427
48.38581812345755 9.74007
48.41022713920929 9.758980000000001
48.434829215320704 9.69402
48.45924292604658 9.69545
48.48365897780325 9.675469999999999
48.50807737237308 9.640839999999999
48.532688907799276 9.618910000000001
48.55711201168574 9.608080000000001
48.581537463754074 9.573830000000001
48.60615611725119 9.58132
48.63058628942721 9.5484
48.65501881516546 9.519219999999999
48.6794536962573 9.49793
48.70408185970339 9.49682
48.72852147531801 9.45912
48.75296345168211 9.403039999999999
48.77740779059232 9.42648
48.80204549302823 9.46021
48.82649458091802 9.45381
48.85094603676547 9.41855
48.87539986237231 9.36674
48.90004713292306 9.31883
48.92450572200832 9.341330000000001
48.94896668628025 9.34377
48.97343002754588 9.32235
48.99808689542115 9.33336
49.02255501470614 9.29272
49.04702551642794 9.27241
49.0714984023988 9.26882
49.096164896893235 9.23317
49.120642575466796 9.20544
49.145122643748394 9.21983
49.16960510355558 9.13443
49.19428125404938 9.11818
49.2187685210852 9.13234
49.243258185121555 9.11984
49.26794160167084 9.03999
49.2924360839405 9.08094
49.31693296869764 9.06391
49.34143225776915 9.05599
49.36612538195438 9.03651
49.39062950396021 8.9794
49.41513603578346 8.98268
49.4396449792564 8.94939
49.46434784069503 8.912519999999999
49.488861631846454 8.92863
49.513377840166804 8.94519
49.537896467493745 8.87738
49.56260909589029 8.846
49.587132585683285 8.85752
49.611658500018365 8.84389
49.636186840738596 8.82587
49.66090926588511 8.81742
49.685442483902584 8.76168
49.70997813385706 8.7397
49.734516217597076 8.76528
49.75924846937352 8.7541
49.7837914452858 8.712760000000001
49.80833686055187 8.70027
49.83288471702571 8.71844
49.85762682540054 8.64865
49.882179588965734 8.63739
49.9067347993235 8.65276
49.93129245833333 8.65663
49.95604445336378 8.6263
49.98060703442832 8.6154
50.005172069746266 8.58085
50.02993150438364 8.546330000000001
50.05450147301533 8.52006
50.07907390151433 8.5212
50.10364879174981 8.520389999999999
50.12841816587289 8.47493
50.1529980044635 8.49244
50.17758031042124 8.45871
50.20216508562089 8.45547
50.22694442953363 8.38209
50.25153416817468 8.4073
50.27612638170508 8.42203
50.300721072005196 8.34495
50.325510416102105 8.36219
50.350110084975064 8.3479
50.37471223628208 8.31426
50.39931687190919 8.29314
50.424116246675766 8.28134
50.44872587605249 8.26796
50.47333799543065 8.26351
50.49795260670191 8.2677
50.52276204271512 8.218860000000001
50.54738166295838 8.22868
50.57200378079314 8.26192
50.596628398116835 8.19944
50.62144792604559 8.16905
50.646077567609396 8.1865
50.670709714377715 8.1662
50.69553683636198 8.14149
50.72017401885922 8.1041
50.7448137122895 8.09888
50.76945591856022 8.079410000000001
50.79429318636823 8.06077
50.818940443716784 8.07496
50.84359021965163 8.057780000000001
50.868242516085964 8.03164
50.893089960641895 8.00168
50.917747323549435 7.95103
50.94240721271973 7.98695
50.96706963007175 7.9413100000000005
50.99192728239342 7.93668
51.01659478166073 7.93595
51.04126481489051 7.9274
51.06593738400761 7.89015
51.090805275207074 7.920389999999999
51.11548294172845 7.8966199999999995
51.14016314993547 7.870769999999999
51.164845901758845 7.8345199999999995
51.18972406304274 7.8093
51.21441192780656 7.77774
51.23910234200271 7.75824
51.2637953075678 7.76163
51.288683770237945 7.770010000000001
51.31338186432707 7.7233
51.33808251561888 7.70955
51.362978729967345 7.72249
51.387684521509755 7.71817
51.41239287610203 7.63857
51.437103795691165 7.63048
51.46201036644977 7.650710000000001
51.486726441956634 7.596260000000001
51.51144508832545 7.6019
51.536166307509156 7.6089899999999995
51.56108326624387 7.55997
51.58580965706056 7.565060000000001
51.61053862657523 7.52605
51.635270176746864 7.49862
51.66019755512065 7.5396399999999995
51.68493429268881 7.509189999999999
51.70967361681515 7.484360000000001
51.73441552946465 7.47279
51.759353359237934 7.4648699999999995
51.7841004750961 7.444030000000001
51.80885018539685 7.4428600000000005
51.833602492111254 7.374560000000001
51.8585508051424 7.400519999999999
51.883308330926425 7.38104
51.90806845906181 7.3457300000000005
51.932831191525715 7.31647
51.95779001977161 7.316160000000001
51.98255798721516 7.30243
52.00732856494335 7.28242
52.03229530577543 7.27854
52.057071130455945 7.26311
52.081849571391054 7.249960000000001
52.106630630568695 7.23061
52.13160794279417 7.214519999999999
52.15639426492067 7.21422
52.18118321127822 7.2051
52.205974783860896 7.168939999999999
52.23096269971011 7.17363
52.255759551287994 7.133089999999999
52.280559035098186 7.1515
52.30536115314103 7.1303399999999995
52.33035970494467 7.121580000000001
52.35516711807904 7.086069999999999
52.37997717147198 7.057410000000001
52.40478986713005 7.045319999999999
52.42979908731974 7.002489999999999
52.454617094216 7.015339999999999
52.47943774942214 7.011819999999999
52.50426105495102 7.021439999999999
52.529280976059844 6.97205
52.554109609024096 6.9635
52.57894089837482 6.96553
52.60377484613117 6.98005
52.62880550079408 6.959060000000001
52.65364479223379 6.9569600000000005
52.67848674816189 6.90145
52.70352547971946 6.8849
52.72837279155837 6.91609
52.753222773982785 6.88057
52.778075429022984 6.87161
52.80312495150885 6.85982
52.827982978797436 6.8293
52.85284368481815 6.8148800000000005
52.87770707160767 6.80895
52.90276741793998 6.789460000000001
52.92763619336701 6.76267
52.952507655698504 6.742369999999999
52.977381806977576 6.72196
53.00245301017842 6.73319
53.02733256653592 6.719519999999999
53.052214817996074 6.659860000000001
53.077099766608484 6.69415
53.102181859804446 6.67837
53.127072229988265 6.70363
53.15196530349892 6.616910000000001
53.17686108239249 6.58597
53.20195409881522 6.60233
53.22685531582556 6.59815
53.25175924441303 6.54785
53.27666588664027 6.559639999999999
53.30176985962693 6.55296
53.3266819565689 6.4881400000000005
53.35159677336455 6.52864
53.376514312083096 6.54901
53.40162927507703 6.48465
53.42655228516116 6.443980000000001
53.45147802340193 6.45333
53.47660125628886 6.46898
53.50153247842639 6.4727
53.52646643496923 6.41562
53.55140312799818 6.39531
53.576537409691696 6.4006300000000005
53.60147960336152 6.34851
53.626424539786164 6.37249
53.65137222105307 6.381869999999999
53.67651758529126 6.39771
53.70147078399681 6.296819999999999
53.72642673383343 6.29727
53.75138543689533 6.3053300000000005
53.776541917524526 6.3097
53.801506154876755 6.25865
53.826473151763246 6.22555
53.851442910284916 6.2066300000000005
53.87661054126026 6.22481
53.9015858509782 6.18074
53.92656392866066 6.15126
53.95154477641532 6.14346
53.976723591801296 6.2076400000000005
54.00171000771266 6.15085
54.02669920004598 6.13985
54.051691170915745 6.144819999999999
54.076881204886796 6.08632
54.101878760928514 6.10768
54.12687910187696 6.06658
54.152077577768296 6.07794
54.1770835166946 6.065119999999999
54.20209224691339 6.08629
54.22710377055121 6.06196
54.25231352511594 5.99711
54.27733066384342 5.9981
54.30235060239643 6.03242
54.32737334290836 5.93694
54.35259441062629 5.95916
54.377622783395324 5.970269999999999
54.40265396455061 5.92854
54.42768795623251 5.92291
54.45292037169559 5.88318
54.477960012857906 5.88994
54.50300247099511 5.85925
54.52804774825457 5.82465
54.55329154616743 5.79946
54.57834249018678 5.80411
54.6033962597977 5.77413
54.6284528571545 5.79442
54.653708072335164 5.74674
54.67877035378786 5.7442
54.70383546947698 5.71341
54.72890342156389 5.68774
54.7541700889442 5.6134900000000005
54.77924374251975 5.633830000000001
54.8043202390049 5.6394400000000005
54.82959552413022 5.5662199999999995
54.8546777351945 5.58113
54.87976279569621 5.5746400000000005
54.90485070780914 5.63565
54.930137506558005 5.5385800000000005
54.95523115074295 5.519480000000001
54.98032765308844 5.51291
55.005427015775496 5.46394
55.03072536339621 5.43623
55.05583047570572 5.4216
55.080938454927676 5.42968
55.10604930325027 5.3492
55.131359235107396 5.42164
55.15647585066083 5.37999
55.181595341907496 5.34506
55.20671771104285 5.30187
55.232039262617704 5.30935
55.25716741665048 5.2580800000000005
55.28229845518636 5.28379
55.30743238042802 5.14124
55.33276558731939 5.15351
55.357905315183636 5.16571
55.383047936390035 5.11515
55.40819345314859 5.06476
55.433538351073295 5.065169999999999
55.458689688238415 5.05103
55.483843927614096 4.99492
55.509197623043605 4.99085
55.53435769621134 5.00432
55.55952067826466 4.94724
55.5846865714265 4.98419
55.61005202069737 4.91047
55.63522376553902 4.92085
55.66039842818645 4.8489
55.68557601087004 4.86862
55.7109532500271 4.87237
55.73613670233794 4.8587
