TT I
1.2716486653135266 8.110289999999999
1.2939594142134223 7.53563
1.3162702121660406 7.1855
1.3385810600174564 7.4249600000000004
1.3608919586137629 6.98993
1.383202908801069 6.7470300000000005
1.405513911425503 6.92272
1.4278249673332093 6.592810000000001
1.4501343378461518 6.76461
1.4724455028545926 6.1485
1.4947567236847858 6.18613
1.517068001182951 6.3228
1.5393793361953272 5.97118
1.5616907295681737 6.6635
1.5840021821477681 5.78889
1.60631369478041 5.1761
1.6286252683124185 5.69153
1.6509369035901333 5.395230000000001
1.6732468618895553 5.5121400000000005
1.695558623192809 4.9726099999999995
1.7178704487808514 5.45327
1.7401823395001077 5.54596
1.7625012545597203 5.4155
1.7848028405262486 5.66479
1.8071218901122095 4.96074
1.8294236121921872 5.3246400000000005
1.8517427996910911 5.2017
1.8740620574440425 5.061
1.8963639900671978 4.86039
1.9186833908139995 5.2205900000000005
1.9409854680117449 4.30096
1.9633050151394713 4.232130000000001
1.9856246367570705 5.3329699999999995
2.0079269371922672 5.236269999999999
2.03024671027244 4.82805
2.0525491637446027 5.15463
2.074869091674931 4.68423
2.097171701569106 4.0757
2.1194917877373847 4.432230000000001
2.141811954326636 4.8448
2.164114805233074 4.21192
2.186435135143035 4.20001
2.208738150935709 4.73056
2.231058647554722 4.631880000000001
2.2533792288321184 3.8714199999999996
2.275682498336085 4.36471
2.298003251406138 4.66034
2.3203066942619714 5.04245
2.3426276225136022 4.94233
2.3649486396617507 4.45181
2.387252348930071 5.09165
2.4095735463442893 4.25186
2.4318774374315884 4.78857
2.4541988185014043 4.830509999999999
2.476502894794693 4.65278
2.498824462909887 4.29282
2.521146125856138 4.33997
2.5434504863470337 4.80031
2.5657723414244717 4.76283
2.588076895590662 5.031619999999999
2.610398946189713 5.10568
2.6327210958598384 4.75318
2.6550259469304716 5.36046
2.6773482972090137 5.8813
2.6996533504259 6.517180000000001
2.7219759047039602 6.26112
2.744298562293959 7.0888100000000005
2.7666039251246595 7.3061300000000005
2.7889267918020164 7.41741
2.8112323652516555 7.29462
2.833555444408179 7.56411
2.8558786311183852 7.48578
2.8781845268938557 7.928780000000001
2.9005079311721484 8.40448
2.9228140460410397 8.160039999999999
2.9451376712799635 8.96219
2.967444008632326 9.43802
2.9897678582247247 10.042
3.0120918213106695 10.5769
3.0343984987899373 10.9286
3.0567226913198637 11.5454
3.079029599759726 12.2251
3.101354025127254 12.6556
3.123678568232338 12.9224
3.145985829517914 13.5266
3.16831061055229 13.3736
3.1906181112775593 14.4354
3.212943133635653 15.073
3.2352682779763207 15.2528
3.2575761442691227 15.3506
3.2799015350264273 16.0042
3.302209649240067 16.5395
3.3245352898092655 16.793
3.3468436553365257 17.4121
3.369169549113219 17.8548
3.3914955708171384 18.6068
3.413804319727358 18.7375
3.4361305997334863 19.2594
3.4584396084414553 19.6132
3.4807661501462652 20.328
3.503092824025881 20.6964
3.5254022288463154 20.2059
3.5477291695206588 20.9774
3.5700388426251948 21.3746
3.5923660534916446 21.916999999999998
3.6146934007816114 22.2856
3.637003482731501 23.01
3.6593311053109985 23.2417
3.681641464033634 23.8885
3.7039693653009733 23.7924
3.726297407241705 24.4186
3.7486081875460804 24.7051
3.7709365132734978 25.0073
3.793247578841633 25.9431
3.8155761917550093 25.9382
3.8378875459837216 26.3586
3.8602164494827234 26.614
3.882545499606844 27.7426
3.9048572932539183 28.2495
3.9271866390645718 28.3957
3.9494987298666713 28.7662
3.971828374764527 29.4038
3.9941581705403255 29.5179
4.016470713506008 30.1221
4.038800813471445 31.0627
4.061113662089144 31.0035
4.0834440696459176 32.122
4.105774632334751 32.1227
4.128087945865126 32.602
4.150418821249301 33.2632
4.172732448931298 34.1113
4.195063640413578 35.0361
4.2173775856475215 35.4758
4.239709096631102 36.5134
4.262040768704612 36.3061
4.284355196706267 37.1131
4.306687193387355 38.2326
4.329001947444346 39.4859
4.35133427213731 40.1256
4.373666762177566 40.5719
4.395982011761091 41.3598
4.418314834921175 42.0694
4.44063041906622 43.2563
4.4629635787515625 43.8027
4.4852969080429785 45.3605
4.5076130004776225 46.6605
4.529946671403969 47.5318
4.552263106909177 48.7549
4.574597122877047 49.507
4.596931312711224 50.9033
4.619248269273446 51.8401
4.6415828092605835 53.1169
4.663900117405352 54.1955
4.686235010953232 55.5219
4.708552674085913 56.9498
4.730887924602802 58.1942
4.753223354952695 60.463
4.775541557023902 61.3017
4.797877349456786 62.8572
4.820195915032126 65.7854
4.842532072957498 66.6929
4.864868414979744 68.0465
4.88718753227192 70.597
4.909524244902505 72.8262
4.931843734218147 76.0872
4.954180820867835 78.9855
4.976518095879839 83.0882
4.998838149695359 86.3713
5.021175803844231 90.5191
5.043496238205739 94.5799
5.065834274903528 100.885
5.088172504230693 107.88600000000001
5.1104935158799565 116.134
5.132832132875765 130.232
5.155153533596801 151.675
5.1774925416746225 201.833
5.199814334878411 513.7040000000001
5.2221537374521505 1849.68
5.244493338631803 3758.5
5.266815727034316 5602.12
5.289155727832427 8625.17
5.311478517248165 9892.6
5.333818921080011 6171.89
5.356159527788849 1815.13
5.3784829252032536 415.07800000000003
5.400823940070432 203.805
5.423147747031976 159.436
5.445489173474152 137.931
5.467830807066149 126.465
5.490155234831516 119.09299999999999
5.512497285125229 113.973
5.534822130975162 110.929
5.557164601388673 107.56200000000001
5.579489868738879 104.345
5.601832762690846 101.646
5.6241758697774475 100.09200000000001
5.646501775867269 99.1331
5.668845311622074 97.9433
5.691171647754637 97.4417
5.713515615597765 96.5897
5.735859800852677 95.5476
5.758186788542988 94.6778
5.780531411018185 95.2674
5.802858837297399 95.1229
5.825203900414495 95.6716
5.8475491852224 96.4779
5.869877275883075 98.0997
5.892223006467101 101.266
5.914551544266608 104.61200000000001
5.936897724049891 110.561
5.959244129804903 122.887
5.981573344815301 151.566
6.0039202049061 276.323
6.026249875609095 724.105
6.04859719346037 1366.67
6.070927323278297 1982.24
6.093275102315365 2901.0
6.115623113320588 3945.58
6.137953938319995 4064.97
6.160302415650845 2186.86
6.182633708324452 664.666
6.2049826554078376 204.07299999999998
6.227331838745022 119.102
6.249663839443684 98.2434
6.27201349767565 88.5802
6.294345974611799 82.9397
6.316696111167083 77.9726
6.339046488263839 75.5684
6.361379686074702 73.0213
6.383730546639482 71.4509
6.406064229255215 69.2026
6.428415576718203 67.9703
6.450749747566656 66.8478
6.47310158535871 65.748
6.495453669698332 64.6149
6.517788579421056 63.8806
6.540141159237969 62.7024
6.562476565766648 62.3656
6.5848296444934045 61.2139
6.607182974060425 60.8696
6.6295191323281015 60.5894
6.651872965955752 59.8552
6.6742096296068985 58.8649
6.6965639707294615 58.7081
6.71891856698715 57.7633
6.741255995248479 57.2986
6.763611104154477 57.4815
6.785949046381137 56.8683
6.808304671371482 56.2263
6.8306605557940046 56.0553
6.852999275508618 55.3149
6.875355681171544 55.47
6.897694923437771 54.998999999999995
6.92005185377892 54.9106
6.9423916220322655 54.5952
6.964749080490181 53.8872
6.987106804399774 53.7762
7.009447368180821 53.6228
7.031805625367033 53.8028
7.054146723727803 53.8743
7.076505517631004 53.5039
7.098864581288365 53.3299
7.121206488070854 52.7782
7.143566093607822 52.7909
7.165908543567245 52.8183
7.188268694426048 52.4569
7.2106291193438095 52.455
7.232972390625943 52.4003
7.255333366030969 52.5125
7.277677189091925 52.0612
7.300038718428332 52.3397
7.322400526130865 52.0446
7.344745183422596 52.5749
7.367107550224791 52.7724
7.389452767901992 52.853
7.411815697249891 52.7577
7.434161478756298 52.4037
7.456524974096713 52.7472
7.478888753837185 52.453
7.501235387657368 53.2782
7.523599738562711 55.9729
7.545946944825532 60.42100000000001
7.568311870344528 61.7197
7.5906770845765665 58.0022
7.613025156078678 55.1751
7.635390950099687 54.5797
7.657739602662809 53.6792
7.680105979923558 53.8573
7.702472650212829 54.4551
7.724822180948224 54.3183
7.747189439655568 55.0997
7.769539560075357 54.9061
7.791907410653562 55.3185
7.81425812420825 55.3342
7.836626570110925 55.7531
7.858995315087906 56.4693
7.881346924933401 56.5442
7.903716270417482 57.2453
7.926068482028405 57.4826
7.948438431475253 58.1642
7.9708086843180235 58.6392
7.993161805171116 59.5421
8.015532667162402 59.6441
8.037886398416653 60.7322
8.060257873014221 61.1387
8.082629655331942 61.6823
8.104984308787587 62.3126
8.127356708900503 63.4155
8.149711981398308 64.2182
8.172085002766314 64.9135
8.194458336181368 65.8817
8.216814543847752 66.8321
8.23918850371002 68.3064
8.26154533906492 69.4831
8.283919928836452 71.0671
8.306277395339652 72.2052
8.328652618483376 73.833
8.351028159736202 76.2771
8.373386579575245 79.1337
8.395762759396959 80.9217
8.418121819038275 83.8141
8.440498640894003 88.3887
8.462875785192262 95.3627
8.485235811156207 109.382
8.507613602688501 170.296
8.529974277114228 357.535
8.552352719347912 588.773
8.574731488360351 774.472
8.59709314210385 926.4110000000001
8.619472567021075 1180.07
8.64183487789147 1591.67
8.664214962183097 1887.11
8.686577933647762 1627.44
8.708958680784317 914.045
8.731339760774953 387.457
8.753703729764451 166.843
8.77608547780821 114.5
8.798450116065078 103.20700000000001
8.820832535634787 96.9286
8.843215292401656 93.6725
8.865580941199045 91.2602
8.887964374703538 89.4087
8.910330701447199 88.2767
8.932714815164482 87.2925
8.955099270424924 85.7096
8.977466620733543 85.044
8.999851761421976 84.7333
9.022219798361645 83.721
9.04460562795561 83.5487
9.066991803441677 82.7953
9.089360876979615 82.5534
9.111747746589993 82.744
9.13411751544971 81.9897
9.156505082664324 81.7677
9.178875550323522 82.2906
9.20126381862328 82.5945
9.223652438908596 86.4522
9.246023961427412 93.729
9.26841328802173 94.5104
9.290785518039224 90.2432
9.313175554425882 85.9963
9.335565947154315 83.51700000000001
9.357939245086508 83.2232
9.380330352834827 82.49
9.40270436697103 82.4841
9.425096193225055 82.2949
9.447488380180165 83.1273
9.469863475295412 83.6453
9.492256385987508 84.1708
9.514632206018318 84.7773
9.537025843935714 85.0445
9.559402392368193 85.6622
9.581796761000229 86.4083
9.604191496441521 86.8271
9.626569144158516 87.7277
9.648964615551032 88.6943
9.671343000390081 89.4567
9.693739211225699 90.3497
9.716135793237463 91.3659
9.738515290448102 92.2177
9.760912617143402 93.6633
9.783292860202891 94.7734
9.805690935076182 95.9826
9.828089385495742 97.4826
9.850470754023561 99.4461
9.872869957865444 101.74799999999999
9.89525208097539 104.66799999999999
9.917652041736662 108.35
9.940052382417589 114.182
9.962435644102392 129.628
9.984836746950979 182.257
10.007220771957746 332.94300000000004
10.029622640473708 532.387
10.052007432299963 676.097
10.074410069984072 759.068
10.096813093716005 875.3
10.119199042482517 1107.38
10.141602840636468 1465.04
10.163989564971628 1711.68
10.186394141051062 1527.96
10.208799107559706 938.791
10.231187001965623 452.30400000000003
10.253592751657669 204.24099999999999
10.275981430388155 131.725
10.298387966769793 115.978
10.320794897965431 111.52600000000001
10.343184759907361 108.316
10.36559248305461 105.915
10.387983138083852 104.96600000000001
10.410391656691655 107.272
10.432800574501677 121.325
10.455192425893369 162.42
10.47760214443012 212.25400000000002
10.499994797678786 247.679
10.522405320453982 266.699
10.54479877906917 295.631
10.567210109595656 347.087
10.5896218454736 427.75800000000004
10.612016518879773 512.633
10.634429067781074 488.278
10.656824555333241 361.12199999999996
10.679237920773568 219.34799999999998
10.701651695961992 129.85
10.724048411481384 99.315
10.746463008485165 90.4651
10.768860546937125 86.7266
10.791275969274796 83.7854
10.81369180576079 82.4188
10.836090585366925 81.2517
10.858507252467449 79.9028
10.88090686379991 78.7737
10.903324365036394 77.832
10.925724811614439 76.2163
10.948143150509463 75.9073
10.970561909719066 75.0887
10.992963615930844 73.9962
11.015383218085756 73.3713
11.037785768347074 72.2985
11.06020621697282 71.7915
11.082627090322113 71.2662
11.105030913430326 70.6527
11.12745263854165 69.9991
11.149857314510728 69.1804
11.172279894912576 69.4188
11.194702904450653 68.4332
11.217108866490921 67.6666
11.239532736615194 67.2346
11.26193956033512 66.9236
11.284364294577085 66.5063
11.306789462371718 66.1323
11.329197585398376 65.9337
11.351623622610898 66.0835
11.37403261614354 65.0951
11.396459526308487 65.0955
11.418869393879497 64.6732
11.441297180532617 64.2593
11.463725406927658 63.8933
11.486136592353875 63.7248
11.508565700543707 63.5336
11.530977768845315 63.4909
11.553407762368774 62.9456
11.575838200059769 62.8445
11.598251599479612 62.8377
11.620682927815501 62.3465
11.64309721895548 62.5839
11.665529441478206 62.3833
11.687962112597958 62.1474
11.710377748130886 62.0614
11.732811318753434 62.0015
11.755227854859067 61.8229
11.777662328529495 61.6531
11.800079768750786 61.7663
11.822515149015453 61.7749
11.844950984084935 61.9504
11.867369787303163 61.5907
11.889806534289491 62.0367
11.912226250487029 62.8943
11.934663912939751 64.2997
11.9571020346363 65.4709
11.979523127133968 65.3703
12.001962169624331 65.2153
12.024384183972964 65.1802
12.046824150809913 67.8852
12.069264581333726 77.4819
12.091687985297767 90.3602
12.11412934550045 101.053
12.136553680195208 108.301
12.158995973632788 114.54799999999999
12.181438735204349 121.917
12.20386447284199 136.048
12.226308172985636 157.599
12.24873485024193 182.895
12.271179492516982 194.604
12.293607112949127 175.671
12.316052700916226 135.885
12.338498763250042 95.9106
12.360927805303868 74.4068
12.383374818673879 67.0375
12.405804812803074 64.3409
12.428252780773262 63.8641
12.45070122756722 63.8474
12.473132656675375 63.4628
12.49558206341869 63.727
12.518014453510101 63.7972
12.540464823770117 63.8602
12.562915677315177 63.9534
12.58534951575545 64.3593
12.607801338171472 63.9066
12.630236146511358 64.4512
12.652688941369085 64.6791
12.675124723177234 65.1931
12.697578494048786 65.5014
12.720032754458185 65.9202
12.742470003354093 66.2222
12.764925245138771 66.6753
12.787363476431278 67.2373
12.809819703166806 67.5808
12.83227642391173 68.3632
12.854716135692716 69.0324
12.877173846755147 70.2796
12.899614549869717 70.4071
12.9220732548287 71.0472
12.94453245827299 71.6718
12.966974655289818 72.8057
12.989434858002571 73.8856
13.011878055298721 74.3398
13.034339260862497 75.7221
13.056800969391883 77.2303
13.079245674017244 79.6492
13.101708390774869 81.7911
13.12415410463411 86.6712
13.146617833206086 102.23899999999999
13.169064559883248 131.734
13.191529303857127 162.547
13.213994557076367 185.854
13.236442809902437 199.62
13.258909083908291 210.968
13.28135835851934 228.595
13.30382565690295 259.56
13.326293469022952 308.47
13.348744283242008 367.909
13.371213125129904 402.19699999999995
13.39366497011003 378.207
13.416134845360597 298.283
13.438605238843131 202.362
13.46105863690397 139.031
13.483530069144786 117.863
13.505984506951902 128.607
13.528456981549432 152.717
13.550929978879088 171.713
13.573385983253365 182.579
13.595860028340867 189.762
13.618317081455832 200.669
13.64079217790333 220.313
13.663250283359057 251.165
13.685726434770173 294.405
13.708203115221277 340.231
13.730662806148091 344.30800000000005
13.75314054697177 300.968
13.775601299246777 221.675
13.798080104050406 149.335
13.820559442405358 104.17399999999999
13.843021793671388 88.0791
13.865502201420897 82.5243
13.887965623051947 81.116
13.910447103807167 79.916
13.932929122629764 78.4891
13.955394156785959 77.7269
13.977877254034569 76.6747
14.000343367582113 75.8947
14.022827546871707 75.1469
14.045294743423524 74.051
14.06778000837062 73.2582
14.090265817715476 73.3673
14.112734645763819 73.2286
14.13522154619454 73.6722
14.157691466286913 74.1092
14.180179461423874 73.893
14.202668005486178 72.8454
14.22513957064374 71.6969
14.247629214846473 70.71300000000001
14.270101881097517 70.13600000000001
14.29259262906496 70.1119
14.315083930490205 69.5786
14.337558255389705 69.3709
14.360050666019726 69.51
14.382526101071944 69.2122
14.405019624534942 68.9533
14.427513705993134 68.7111
14.449990813291825 68.6995
14.47248601302899 68.5425
14.49496423954951 69.0631
14.517460561197822 68.7573
14.539939910570322 68.6413
14.562437357763558 68.9845
14.58493536931253 69.1961
14.607416409993311 69.1206
14.62991555254159 69.5014
14.652397725157423 69.8122
14.674898002342799 70.0718
14.697398848433282 70.2731
14.719882725991326 71.3961
14.74238471217934 71.9492
14.764869730765593 74.4919
14.787372860692983 80.8465
14.809876564079925 93.3116
14.83236330125751 106.53
14.854868153850365 115.964
14.877356041159485 121.91
14.899862046604186 125.399
14.922351087688757 131.414
14.944858249632887 140.75799999999998
14.967365991421232 156.308
14.989856770231246 175.463
15.012365673994204 200.505
15.03485761569738 214.52900000000002
15.05736768508665 205.595
15.07987833888692 173.613
15.102372032001655 134.173
15.124883856909658 99.9717
15.14737872204565 81.2366
15.169891721717274 73.8621
15.192405310371893 71.6219
15.214901940621196 70.5063
15.237416709527137 69.566
15.259914520936249 69.2725
15.282430473753607 68.536
15.304947020131227 67.7685
15.327446610371178 67.5361
15.349964346154254 66.998
15.372465126703139 66.7722
15.394984055556009 66.7863
15.417486030076159 66.543
15.44000615566487 66.2251
15.462526881230803 66.405
15.485030653812652 66.2716
15.507552581617434 66.0449
15.530057557334603 66.1464
15.55258069104857 66.0527
15.575104429329837 66.2023
15.597611216864632 66.1575
15.620136166564563 66.5153
15.6426441664095 66.9406
15.665170331202765 68.7126
15.687697105158826 73.936
15.710206930593545 84.0303
15.732734925158933 94.6405
15.755245972089478 102.49600000000001
15.77777519094324 107.59700000000001
15.800287463046663 110.63600000000001
15.822817909869592 114.171
15.84534897229804 119.745
15.867863089299354 130.505
15.890395385222186 143.68200000000002
15.912910736597423 162.06799999999998
15.935444269699861 180.987
15.957978423016485 188.101
15.980495633101265 176.139
16.003031029129367 149.339
16.02554948280019 113.426
16.048086125229432 86.914
16.070623392487107 72.6444
16.09314371869582 66.1597
16.11568223789321 63.3876
16.13820381691126 62.1529
16.160743591742527 61.3996
16.183283996022084 61.0464
16.205807461423195 59.8982
16.228349126881973 59.3771
16.25087385432698 59.172
16.27341678466365 58.4305
16.29594277784926 58.1661
16.31848697676433 57.8501
16.341031811604868 57.2312
16.36355971058487 56.9025
16.3861058195587 56.7199
16.40863499352978 56.2708
16.431182380342005 56.3452
16.453730407713202 56.0484
16.476261501364792 55.8097
16.498810812136167 55.6916
16.52134319004079 55.7385
16.54389378792203 55.3192
16.566445031001553 55.2483
16.588979342490088 55.1914
16.61153187824822 55.1359
16.634067483263312 54.6847
16.656621315414416 54.6755
16.679175797408888 54.5395
16.701713349928728 54.6113
16.72426913389191 54.7397
16.74680798922351 54.7905
16.76936507887444 54.5134
16.791905240734874 54.5837
16.814463639794468 54.4803
16.837022695210294 54.6056
16.859564824093756 54.7537
16.882125194503903 54.8265
16.904668639217885 54.8109
16.927230328348003 54.9953
16.949792678493612 55.4356
16.972338104193863 55.3398
16.994901778652235 55.3136
17.017448529496576 55.4473
17.040013531998152 55.8455
17.06257920018044 56.1184
17.0851279459922 57.3359
17.107694947817667 59.2444
17.130245028099072 61.4355
17.15281336730298 63.2601
17.17536478578733 64.8422
17.19793446610687 65.3873
17.220504818648422 66.1547
17.243058251703697 66.6377
17.265629950971032 68.5446
17.288184731571736 70.9107
17.310757781306908 74.3537
17.33333150794385 77.5158
17.355888317140174 81.3345
17.37846339986244 83.9203
17.401021565958885 82.0491
17.42359800851343 76.9662
17.44617513265564 71.0637
17.468735341390783 65.7306
17.491261035594565 61.8161
17.51396340099364 60.3291
17.536490463869136 59.6379
17.559018209820174 59.3177
17.58154663977963 59.5111
17.604251766089718 59.7607
17.626781572227713 59.9817
17.64931206518155 59.9976
17.671843245885103 60.3679
17.69455114821572 60.4102
17.717083712612634 60.8467
17.739616967569667 61.1463
17.762150914021706 61.9141
17.78486160749854 62.0164
17.807396945166804 62.6707
17.829932977143503 63.3153
17.85246970436452 64.4325
17.875183204129467 66.7009
17.897721330097664 72.4259
17.920260154126645 78.7848
17.942799677153296 83.7383
17.9655159983646 87.0577
17.988056927677544 89.303
18.010598558807683 90.8509
18.033140892692916 93.2599
18.05586005052525 96.258
18.07840379824407 101.646
18.10094825154059 108.865
18.12366954819864 119.337
18.146215420998306 132.375
18.16876200220057 143.85399999999998
18.191309292745153 147.364
18.214033452627167 141.486
18.236582170236648 126.191
18.259131600016456 110.24799999999999
18.281681742907335 96.3095
18.304408781233683 89.4574
18.32696035875955 87.6834
18.349512652227624 88.9782
18.372065662579683 92.9056
18.394795594587553 97.6188
18.41735004715306 102.76700000000001
18.43990521943684 105.01100000000001
18.46246111238171 102.818
18.485193953325208 94.9394
18.507751296070428 84.5853
18.530309362314178 75.4502
18.552868153000343 69.3356
18.57560391815056 65.33
18.59816416623245 63.6645
18.620725141597372 62.8751
18.643286845190268 62.0956
18.666025549835414 61.5147
18.688588718427933 60.7213
18.711152618092243 60.5667
18.73389353884365 60.1278
18.75645890921984 59.7358
18.77902501351406 59.4153
18.801591852673102 59.3391
18.824335739722738 58.7244
18.846904057212626 58.7327
18.8694731124168 58.3317
18.89204290628315 58.2574
18.914789774966803 58.018
18.937361054791623 57.8029
18.959933076131318 57.7155
18.982505839934877 57.4647
19.00525570560582 57.3922
19.027829963004184 57.328
19.05040496572238 57.1308
19.072980714710468 57.2327
19.095733592739563 57.2819
19.11831084296757 57.8557
19.140888842324735 58.8005
19.16346759176222 59.9501
19.18622349753803 60.9608
19.208803755869358 62.1094
19.231384767143577 62.7595
19.253966532312948 63.1709
19.276725481241822 63.5349
19.29930876296784 64.2369
19.3218928014549 65.1166
19.34465404436217 66.5914
19.36723960516257 68.446
19.389825925592426 70.5278
19.412413006605938 73.1303
19.43517731967805 74.9669
19.457765930683355 74.8099
19.48035530514408 72.6346
19.50294544401556 68.4366
19.525712842708348 63.6749
19.54830451925909 59.6275
19.570896963095727 56.5228
19.593490175174704 55.0977
19.616260674962184 54.6459
19.638855432416964 54.2138
19.661450960992624 54.2521
19.68404726164677 53.9176
19.706820878021247 53.7096
19.729418731756834 54.0806
19.752017360452857 53.9592
19.77461676506804 53.8448
19.797393513540218 54.0779
19.819994478951667 54.1709
19.84259622316767 55.1679
19.8651987471481 56.3261
19.887978643247177 57.0756
19.91058273574792 57.8196
19.933187610901943 58.6813
19.955969879466828 59.0997
19.97857632894404 59.3695
20.00118356396599 59.6289
20.023791585494575 60.2127
20.046577028914875 61.5124
20.069186632506966 63.2312
20.091797025500632 65.5909
20.114408208858933 68.2722
20.137196842715273 71.2592
20.159809615886765 73.4871
20.18242318232135 73.1809
20.20503754298326 71.559
20.227829382875154 68.814
20.250445341109344 66.0018
20.27306209647285 63.2901
20.29567964993108 61.9987
20.31847471147704 62.0794
20.34109387027612 63.0807
20.363713830075454 64.3953
20.386334591841646 65.7433
20.409132890679302 66.1566
20.431755265564437 64.4777
20.454378445325528 62.2727
20.477002430930366 59.0352
20.499803982716553 56.1553
20.522429589228004 53.6432
20.54505600449589 52.0279
20.567683229489194 51.5549
20.590488049900088 51.18899999999999
20.61311690359731 50.8592
20.63574656993626 50.5862
20.658553853717297 50.2936
20.681185154618298 50.2757
20.703817271080066 50.1119
20.72645020407368 49.7477
20.749260783967177 49.6445
20.771895359337133 49.7247
20.794530754161617 49.532
20.817166969412938 49.4866
20.83998086114876 49.6015
20.86261872660049 49.2912
20.885257415405402 49.2405
20.90789692853701 49.1671
20.930714147864748 49.1289
20.953355319030678 49.0391
20.97599731745334 49.3279
20.99864014410749 49.4513
21.021460706796564 49.5555
21.044105199328826 49.8087
21.06675052302631 50.1082
21.089396678865015 49.9947
21.112220600704806 50.1911
21.134868430275347 50.1364
21.15751709492456 50.1948
21.180166595629693 50.3617
21.202993892429635 50.317
21.22564507473034 50.6927
21.24829709602816 51.0233
21.27112693608965 51.3313
21.293780644891275 52.0059
21.316435195634053 51.9899
21.339090589297417 51.8555
21.361923832041875 51.6055
21.384580921090404 50.9065
21.407238856007325 50.2267
21.429897637773326 49.6982
21.45273429906592 49.3746
21.475394784108598 49.1744
21.498056118951983 48.9895
21.520718304578022 49.229
21.543558400304388 49.2608
21.566222297108816 49.6353
21.58888704765135 49.4361
21.61155265291521 49.7792
21.63439619898156 50.8463
21.657063523335786 51.6766
21.67973170537063 52.744
21.7024007460706 53.5171
21.72524775840385 53.971000000000004
21.747918526116475 54.6883
21.770590155457388 54.8998
21.79326264741238 55.2055
21.816113141960237 55.7535
21.838787368860547 56.7289
21.861462461341976 58.0537
21.884315579735777 59.7272
21.90699241312273 61.3734
21.92967011506078 63.43
21.95234868653799 65.4425
21.9752053151131 66.9033
21.997885635446785 67.1698
22.020566828293532 66.2369
22.04324889464272 63.8796
22.066109049404666 61.0398
22.088792872571794 58.4313
22.111477572219204 56.8184
22.1341631493376 56.4394
22.157026846313123 56.2669
22.179714188221507 56.7751
22.202402410582668 57.1218
22.22509151438863 56.4318
22.24795876962584 55.272
22.270649646204486 54.1027
22.293341407213727 52.784
22.316034053646906 51.4415
22.338904883215342 50.4189
22.36159931041458 49.9767
22.38429462602756 49.6441
22.40699083104897 49.5156
22.429865251039757 49.4561
22.452563244831367 49.3535
22.47526213102522 49.3199
22.49813925616515 49.2266
22.520839937143307 49.3757
22.543541513520587 49.4479
22.56624398629403 49.203
22.589124730075895 49.1532
22.611829005656723 49.4414
22.63453418063466 49.3447
22.657240256008077 49.7699
22.680124634582935 50.1909
22.70283252079775 50.8198
22.725541310413075 51.4384
22.74825100442868 51.7945
22.771139033969575 52.4048
22.79385054687155 52.4018
22.81656296718292 52.5998
22.83927629590484 52.7351
22.862167992606945 53.0994
22.88488314827121 53.3145
22.907599215359284 53.8182
22.93031619487366 54.318999999999996
22.953211574954405 55.1182
22.975930389478226 56.1891
22.998650119445763 57.4606
23.02137076586092 58.3206
23.044269845560063 59.1287
23.06699233506288 59.0648
23.089715744034912 58.0739
23.112617610931565 56.3103
23.135342869061212 54.2738
23.158069049684816 52.5653
23.1807961538087 51.0196
23.20370174880544 50.286
23.226430710184808 49.9317
23.249160598093425 49.7767
23.271891413539002 49.7945
23.294800752937697 50.1029
23.31753343374794 50.9405
23.340267045128353 51.4873
23.36300158808808 51.9751
23.38591468821339 52.2773
23.408651104658304 52.4125
23.431388455719986 52.3831
23.454126742409 52.4375
23.4770436196085 52.7407
23.499783787914662 52.8667
23.522524894889884 53.2759
23.54526694154616 53.8674
23.56818761219047 54.7978
23.59093154860734 55.4852
23.613676427751283 57.1142
23.636422250635754 58.0274
23.659346731118656 58.6593
23.68209445191868 58.6287
23.704843119509587 57.4476
23.72759273490623 55.7085
23.750521041644767 53.5491
23.77327256312355 51.2764
23.796025035462787 49.3475
23.818956224555475 47.9476
23.841710609113413 47.3086
23.86446594758979 46.918
23.887222241002014 46.4702
23.910157285144578 46.0738
23.932915498962537 46.0901
23.955674670778713 45.9003
23.978434801611975 45.7728
24.001373717286125 45.6019
24.024135776723917 45.4903
24.046898798245582 45.41
24.06966278287146 45.191
24.092605586582614 44.8945
24.115371508023642 44.8177
24.1381383956401 44.7538
24.16090625045381 44.6261
24.183852958731244 44.542
24.206622758582608 44.3949
24.229393528706886 44.2238
24.252165270127392 44.351000000000006
24.27511589952438 44.2575
24.297889594216997 44.078
24.32066426328598 43.9365
24.34343990775613 43.9162
24.36639447485003 43.7682
24.38917208083877 43.6829
24.41195066531332 43.6619
24.43490819850244 43.6948
24.457688750692377 43.4488
24.48047028445616 43.3926
24.503252800821233 43.5643
24.526214300784112 43.4286
24.548998793132213 43.552
24.57178427117417 43.42
24.59457073593893 43.4805
24.617536219319863 43.4964
24.64032466834748 43.6295
24.663114107195035 43.6629
24.685904536893013 43.3885
24.708874020360852 43.3689
24.731666442613744 43.4097
24.754459858818787 43.1118
24.777254270007962 43.0693
24.80022777025625 43.0022
24.82302418230472 42.8189
24.845821592443674 42.8995
24.86862000170663 42.9253
24.891597535453727 42.9389
24.914397953892728 43.1667
24.93719937456671 43.1563
24.96000179851076 43.1521
24.98298338249997 43.2755
25.00578782394922 43.5397
25.028593271784167 43.4492
25.05157790644186 43.8556
25.07438537804115 43.8476
25.097193859145293 44.2958
25.120003350792075 44.5569
25.142992065061257 44.886
25.165803588823465 44.8797
25.18861612625217 45.075
25.211429678386736 45.316
25.234422489079968 45.4338
25.257238081693636 45.5795
25.280054692141732 45.683
25.3028723214652 45.5306
25.325869245420463 45.4435
25.348688923599397 45.3239
25.371509623787006 45.4449
25.394331347025812 45.4924
25.41733240110666 45.4483
25.440156181590016 45.493
25.46298098826268 45.3805
25.48580682216873 44.9303
25.50881202326435 44.2449
25.53163992281684 43.4138
25.55446885274561 42.848
25.577298814096377 42.2086
25.600308179121807 41.8934
25.623140214533745 41.8201
25.64597328451537 41.4721
25.66898578564376 41.3673
25.691820936010206 41.2124
25.714657124097695 41.1286
25.737494350954734 41.2944
25.760511045684957 41.2496
25.783350361364224 41.4057
25.806190718969255 41.4617
25.82903211955018 41.6313
25.852053024868923 41.538999999999994
25.874896522722523 41.4436
25.897741066713106 41.5086
25.920586657892454 41.4565
25.943611790812668 41.38399999999999
25.966459487728237 41.4257
25.989308234998564 41.3456
26.01215803367705 41.7208
26.03518741123814 41.6934
26.05803932412957 41.7968
26.080892291600094 41.7505
26.10374631470478 41.8623
26.12677995397268 42.1693
26.14963609978026 42.3612
26.172493304397875 42.4583
26.19535156888223 42.7079
26.218389486949604 42.4236
26.241249882640123 42.1898
26.26411134137826 41.9099
26.28715248187403 41.631
26.31001607820869 41.3022
26.3328807407756 41.2214
26.35574647063438 41.2281
26.37879191991473 41.0969
26.401659795896734 41.2365
26.424528742360263 41.2304
26.447398760366614 41.3566
26.470448535598294 41.415
26.49332070826805 41.5633
26.516193955675355 41.6547
26.53906827888316 41.6335
26.562122397260108 41.7741
26.584998883685063 42.0914
26.607876449110325 42.184
26.63075509460056 42.2956
26.65381357334404 42.5004
26.67669439061878 42.6975
26.699576291163382 43.0383
26.722459276044212 43.2925
26.745522132402975 43.1851
26.768407297649354 43.1766
26.791293550442003 42.7551
26.814180891848974 42.4188
26.837248143099337 41.9719
26.860137673466657 41.7827
26.88302829566349 41.4018
26.90592001075963 41.2667
26.92899167420566 41.2408
26.951885586870763 40.8039
26.974780595655517 40.625
26.99785558178161 40.412
27.020752794605112 40.1048
27.043651106772522 39.8576
27.06655051935668 39.832
27.089629948036183 39.6682
27.112531573292053 39.5718
27.135434302194138 39.5624
27.158338135817015 39.2681
27.181422024430987 39.4966
27.204328079372566 39.2848
27.22723524226965 39.3396
27.250143514198573 39.4121
27.273231880156334 39.3767
27.296142382065014 39.2433
27.319053996245536 39.0993
27.341966723775965 39.1161
27.365059584515222 39.2193
27.38797455070062 39.2525
27.410890633481237 39.1597
27.433807833936918 39.0006
27.456905206923906 39.1132
27.47982465472398 39.0226
27.502745223449743 39.1478
27.525666914182825 39.2394
27.548768816912457 39.0749
27.571692763693633 39.1181
27.59461783573812 39.243
27.617723149491244 39.2301
27.640650484125285 39.2419
27.66357894728264 39.2809
27.686508540048052 39.1854
27.709618414237887 39.0875
27.732550278321757 38.8842
27.755483275279115 38.9796
27.778417406196485 38.9484
27.801531858397514 38.8595
27.824468269376716 38.5856
27.847405817586786 38.7108
27.870344504116094 38.8433
27.893463551932008 38.8043
27.916404527281053 38.9451
27.93934664422563 39.0319
27.962289903855886 39.0261
27.98541356491974 39.2786
28.00835912214229 39.137
28.03130582533231 39.3828
28.054253675581805 39.5816
28.077381967556104 39.6104
28.100332124185126 39.6491
28.123283431160893 39.8205
28.146235889577238 40.0291
28.169368830154156 39.8803
28.192323603752033 39.7904
28.215279532083304 39.4884
28.238415973016764 39.3508
28.261374223145094 39.1503
28.284333631303806 38.9275
28.307294198589954 38.787
28.330435319167677 38.4894
28.353398217078915 38.3015
28.376362277420153 38.0105
28.39932750129032 37.7906
28.422473319286713 37.4971
28.44544088262495 37.4406
28.468409612800283 37.2241
28.491379510913497 36.8716
28.51453004413313 36.6151
28.53750229057244 36.6537
28.56047570826344 36.7174
28.583450298308804 36.7161
28.606605564586562 36.3575
28.629582511831156 36.4387
28.65256063474956 36.2465
28.675539934446338 36.4589
28.698699951647605 36.3721
28.72168161743193 36.0953
28.74466446331978 36.164
28.767648490417624 36.0076
28.790813276438353 36.0293
28.813799678527303 35.9639
28.836787265157085 35.8812
28.859955641890075 35.9887
28.882945610203045 35.9199
28.905936766392035 35.9367
28.928929111566863 35.9114
28.952102288520145 35.8719
28.975097024308607 35.8492
28.998092952423807 35.7755
29.021090073977508 35.8106
29.04426806913204 35.7476
29.067267590245258 35.4901
29.090268308143695 35.4109
29.11327022394099 35.3721
29.13645305530891 35.2504
29.159457379627167 35.1998
29.18246290519685 35.0886
29.20546963313352 35.0342
29.22865731875826 34.9536
29.25166646419296 34.9143
29.27467681535305 34.7163
29.29768837335608 34.8296
29.320880931312562 34.9043
29.34389491580634 34.768
29.366910110507334 34.7482
29.38992651653503 34.7655
29.41312396492981 34.7405
29.436142806456754 34.8029
29.45916286268059 34.7189
29.48236399319994 34.7343
29.50538649169417 34.6747
29.528410208259935 34.6394
29.55143514402014 34.3829
29.574641196749695 34.2942
29.597668583816574 34.0846
29.6206971934585 33.8014
29.64372702680042 33.8722
29.666938019934474 33.7121
29.689970313635285 33.7452
29.713003834422636 33.6206
29.73603858342347 33.6309
29.759254535188578 33.4858
29.78229175361658 33.4129
29.80533020365064 33.4288
29.82836988641968 33.4868
29.85159081507472 33.4195
29.874632976355343 33.2376
29.89767637376955 33.4256
29.920721008448314 33.1638
29.9439469322847 33.1327
29.96699405457564 33.1683
29.9900424175358 33.2306
30.013092022298157 33.108000000000004
30.03632295963995 33.0539
30.059375061131373 33.0549
30.08242840783577 33.0287
30.105483000888153 32.9255
30.128718970092244 32.8517
30.151776069006917 32.9296
30.17483441768648 32.9351
30.198074175317235 33.0036
30.221135036724256 32.8373
30.24419715131772 32.8117
30.267260520236203 32.8286
30.290505341942243 32.9263
30.313571232750228 33.0036
30.336638381310948 33.0645
30.35970678876503 33.0691
30.38295669299435 33.0563
30.40602763151657 32.9549
30.429099832366074 32.8997
30.452173296685572 32.8464
30.47542830191959 32.7404
30.498504306502497 32.7922
30.521581577995562 32.8347
30.544660117543582 32.7658
30.56792024229725 32.7717
30.59100133132069 32.6812
30.614083691845494 32.7256
30.637167325018545 32.667
30.660432587840603 32.7137
30.683518779717886 32.6934
30.70660624769615 32.7421
30.729694992924372 32.7226
30.75296541239743 32.8388
30.77605672557558 32.9793
30.799149319462742 33.039
30.8224236211637 32.9068
30.845518789950724 32.8332
30.868615242910597 32.7067
30.891712981195973 32.5639
30.91499247215866 32.4863
30.938092794619365 32.4464
30.96119440587579 32.3775
30.984297307082752 32.1684
31.00758200598383 32.0775
31.030687500658694 31.866
31.053794288760695 31.8402
31.076902371446767 31.8221
31.100192296997445 31.8871
31.12330298246119 31.7712
31.14641496599209 31.6359
31.169528248749216 31.6718
31.19282341969534 31.6053
31.215939314557186 31.6026
31.239056512134788 31.5953
31.262175013589378 31.5262
31.28547544871168 31.467
31.30859657161541 31.447
31.331719001892175 31.3711
31.35484274070538 31.4736
31.378148458819545 31.4765
31.401274828443725 31.4618
31.424402510106933 31.3834
31.447712205419993 31.5931
31.470842524931633 31.3762
31.493974159989783 31.3256
31.51710711176168 31.3243
31.54042212308802 31.439
31.563557722100917 31.5107
31.586694641341655 31.4632
31.609832881979628 31.3945
31.63315322823208 31.3236
31.656294125521327 31.2416
31.679436347728515 31.2097
31.70257989602529 31.1713
31.725905596152327 30.8897
31.74905181052835 30.7415
31.772199354521323 30.9045
31.79534822930507 30.9358
31.818679302290967 30.811
31.84183085259981 30.7725
31.864983737233473 30.7065
31.88813795736804 30.7735
31.911474422233013 30.663
31.934631327356435 30.7943
31.9577895715215 30.6822
31.980949155906522 30.7495
32.004291031706956 30.6858
32.027453310562606 30.5907
32.05061693318573 30.4509
32.07396288236386 30.515
32.09712920658542 30.5055
32.12029687812702 30.4288
32.14346589817093 30.3683
32.166817291729984 30.264
32.18998902288583 30.1944
32.21316210610336 30.1086
32.23633654256711 29.9625
32.259693399663725 29.8428
32.282870556771144 29.8367
32.30604907069099 29.8138
32.329228942610065 29.737
32.35259128243769 29.6431
32.375773884550505 29.5969
32.398957848235646 29.5241
32.422143174682176 29.5241
32.445511016471215 29.3886
32.468699082679954 29.3862
32.49188851523011 29.276999999999997
32.51507931531304 29.18
32.538452678331 29.2122
32.56164622776311 29.1702
32.58484114831493 29.0668
32.60803744118015 29.0011
32.631416344731896 29.0821
32.654615396551876 29.0778
32.67781582427913 28.9887
32.701198898634416 28.9489
32.72440209253756 28.8609
32.747606665947124 28.8767
32.77081262006088 28.6727
32.79420126883317 28.6374
32.81740999876112 28.7459
32.840620112999424 28.7142
32.86383161274818 28.5881
32.88722585534586 28.5539
32.91044014056596 28.7377
32.933655814909734 28.616999999999997
32.95687287957963 28.6484
32.98027273544904 28.5251
33.00349259526636 28.4275
33.026713849030116 28.4239
33.04993649794511 28.421999999999997
33.073341986570746 28.3445
33.09656744032826 28.3363
33.11979429286444 28.2384
33.14302254538647 28.2189
33.166433686291185 28.2479
33.18966475336992 28.2331
33.212897224069096 28.1289
33.23613109959831 28.2217
33.259547912343415 28.1977
33.2827846121627 28.1985
33.306022720453775 28.0885
33.32926223842861 28.0111
33.352684742614166 28.0007
33.37592709463173 28.0164
33.399170859982064 27.9123
33.422597648419426 27.8514
33.44584425514446 27.6956
33.46909227885668 27.7489
33.4923417207723 27.6005
33.51577423505344 27.6377
33.539026528130385 27.5484
33.56228024307245 27.509
33.585535381098246 27.3745
33.60897364093058 27.3426
33.63223163992385 27.3093
33.6554910656699 27.1822
33.678751919389796 27.2801
33.702195944520106 27.1904
33.72545966903325 27.0723
33.74872482519663 26.9812
33.771991414233746 27.0513
33.79544122444841 27.0439
33.81871069412428 26.8606
33.84198160035767 26.9207
33.86525394437455 26.9178
33.88870955949969 26.783
33.911984794020626 26.7499
33.93526147001624 26.8917
33.958539588715006 26.7673
33.98200102861669 26.6551
34.0052820477047 26.601999999999997
34.02856451319451 26.5809
34.05203033759056 26.506999999999998
34.07531571090147 26.5664
34.09860253431845 26.4932
34.121890809074316 26.4689
34.145362493118924 26.3877
34.16865368561615 26.3144
34.191946333164054 26.2947
34.21524043699793 26.3482
34.23871800066799 26.2762
34.26201503218366 26.1188
34.28531352370466 26.1693
34.30861347646881 26.1043
34.33209693978188 26.1291
34.3553998301885 26.0679
34.378704185565205 25.9482
34.402010007152356 25.8476
34.42549939016683 25.855999999999998
34.44880815937748 25.7782
34.472118398533134 25.769000000000002
34.49543010887669 25.7255
34.51892543169198 25.6363
34.54224009966052 25.7197
34.56555624255917 25.6498
34.58887386163339 25.5531
34.61237514439016 25.4947
34.6356957311114 25.5059
34.65901779775809 25.4286
34.68252356662995 25.4308
34.705848608458616 25.3391
34.72917513396849 25.268
34.75250314440949 25.2204
34.77601490857862 25.2196
34.799345904259795 25.1539
34.82267838863559 25.1924
34.846012362958525 25.1566
34.869530142679984 25.0283
34.89286711232212 25.0741
34.91620557568269 25.0558
34.93954553401677 25.0397
34.9630693495876 24.9958
34.986412313340814 25.0561
35.00975677584668 24.9943
35.033102738362956 24.8607
35.05663261012228 24.814
35.0799815881786 24.8454
35.10333207003229 24.7938
35.12668405694369 24.8142
35.150220005273056 24.7466
35.17357501786656 24.719
35.19693153931268 24.6695
35.220289570874385 24.6562
35.24383161619786 24.6891
35.267192683604904 24.7178
35.290555264930376 24.4969
35.314101899412165 24.443
35.33746752422433 24.475
35.36083466676374 24.4734
35.38420332829803 24.458000000000002
35.407756095629054 24.4468
35.43112781085063 24.4192
35.45450104888391 24.4081
35.477875810999194 24.4519
35.50143473172161 24.2714
35.52481255774625 24.3858
35.54819191167777 24.2597
35.57157279478914 24.2858
35.595137889488406 24.2058
35.61852184675279 24.2744
35.641907337029984 24.2283
35.665294361595684 24.1333
35.68886565090076 24.0061
35.7122557598848 24.0178
35.73564740699838 23.9912
35.759040593519934 23.9755
35.78261809810353 23.9997
35.80601437933051 23.7944
35.829412203814705 23.7487
35.85281157283719 23.7689
35.876395313415884 23.6918
35.8997977874528 23.5612
35.92320180988546 23.7114
35.946790244133936 23.5589
35.97019737933222 23.5647
35.993606066789866 23.5026
36.01701630779276 23.5408
36.04061101440684 23.541
36.06402437852291 23.4418
36.08743930005611 23.416
36.1108557802951 23.2639
36.13445678011326 23.3421
36.15787639383515 23.3288
36.18129757014299 23.2876
36.20472031032821 23.2311
36.22832762423364 23.1387
36.25175350829375 23.1274
36.275180960119776 23.0896
36.298609981005924 23.0043
36.32222362992669 23.0885
36.34565580510207 23.08
36.36908955323448 23.0666
36.39252487562093 22.9001
36.416144880530226 22.8407
36.43958336764275 22.7993
36.463023432914625 22.9323
36.486465077645676 22.7724
36.51009145956204 22.8795
36.53353627947859 22.8107
36.55698268276811 22.7136
36.58043067073321 22.7388
36.60406345072071 22.6824
36.62751462435344 22.680999999999997
36.65096738658405 22.7013
36.67460498210655 22.5682
36.69806093788647 22.5039
36.72151848619297 22.4582
36.744977628333636 22.5198
36.76862165890998 22.4257
36.79208400512205 22.4841
36.81554794910557 22.4955
36.83901349217101 22.326
36.862663978991606 22.2467
36.88613273667352 22.2959
36.90960309738324 22.3092
36.933075062434064 22.1893
36.95673202673572 22.2011
36.98020721697122 22.0572
37.003684015502365 22.019000000000002
37.027162423645365 21.9851
37.050825886711465 21.955
37.07430753063053 21.8896
37.09779078812467 21.8922
37.121275660513014 21.8821
37.144945643673694 21.846
37.16843376245278 21.8102
37.19192350009803 21.8273
37.215414857931435 21.767
37.239091382563885 21.7036
37.262585997426164 21.6136
37.28608223645736 21.7377
37.309763684451696 21.6232
37.33326318851098 21.5343
37.356764320726555 21.5616
37.380267082425526 21.5232
37.40395510942588 21.5451
37.42746114683234 21.4355
37.45096881771841 21.3612
37.474478123414166 21.3949
37.49817275092816 21.3646
37.52168534303452 21.3156
37.54519957395567 21.2792
37.568715445024665 21.2339
37.592416694607714 21.1777
37.61593586281424 21.213
37.63945667518264 21.1916
37.66297913304891 21.0921
37.68668702630454 21.1714
37.710212792059274 21.0294
37.733740207334854 20.9906
37.757269273470364 20.9248
37.780983832050374 20.8955
37.80451621684926 20.8981
37.82805025654007 20.9192
37.851585952464795 20.9036
37.8753071980695 20.7806
37.89884622345676 20.7216
37.92238690911902 20.7456
37.94611318753442 20.7019
37.969657210779765 20.6477
37.99320289834801 20.6385
38.016750251586465 20.6135
38.04048325513017 20.5984
38.06403395679343 20.5165
38.087586328183946 20.5268
38.11114037065203 20.4989
38.13488012115898 20.4856
38.1584375229181 20.3373
38.181996599821 20.3772
38.205557353221124 20.3178
38.229303872575656 20.3122
38.2528679961576 20.3516
38.27643380031219 20.2796
38.30000128639589 20.2364
38.32375459653193 20.2158
38.34732546371299 20.1078
38.37089801690786 20.0579
38.39447225747609 20.037
38.418232380377425 20.0121
38.441810012983396 20.0445
38.46538933705673 19.9496
38.488970353960084 19.958
38.51273731166058 19.973
38.536321731567014 19.9619
38.55990784840681 19.8776
38.58367995004091 19.8295
38.60726947812959 19.7496
38.63086070726198 19.7353
38.654453638806274 19.7638
38.678232613930824 19.7107
38.70182896773327 19.6483
38.72542702806741 19.6931
38.7490267963045 19.6119
38.77281266709232 19.5945
38.79641586862214 19.4915
38.8200207821842 19.4913
38.843627409152944 19.4785
38.86742019782782 19.4553
38.891030269149255 19.4445
38.914642058016156 19.3547
38.938255565806124 19.3665
38.96205529464307 19.3584
38.98567225787121 19.2964
39.00929094417078 19.3225
39.03291135492255 19.2672
39.05671804624804 19.1464
39.080341923549106 19.1705
39.103967529460334 19.1718
39.127594865365744 19.0555
39.15140854155791 18.9858
39.17503935514948 19.0315
39.19867190290282 19.0379
39.22249083587951 19.0117
39.24612686969409 18.9649
39.269764641845306 18.9057
39.293404153722804 18.887999999999998
39.317230110864074 18.8568
39.34087311998506 18.8285
39.36451787301696 18.753
39.388164371352595 18.7273
39.41199737518003 18.7244
39.43564738196752 18.7065
39.45929913825317 18.7019
39.48295264543308 18.6685
39.506792718520884 18.6418
39.530449745387216 18.5807
39.55410852735203 18.5834
39.57776906581474 18.518
39.60161623079 18.5241
39.625280300200025 18.5239
39.64894613032202 18.4757
39.67261372255866 18.4785
39.6964680021016 18.4193
39.72013913657293 18.4028
39.74381203738292 18.3492
39.76748670593756 18.3401
39.79134812278169 18.3201
39.81502634488497 18.2908
39.83870633896685 18.2174
39.862388106436654 18.2027
39.88625668336918 18.2183
39.90994201572829 18.1727
39.933629125719285 18.0781
39.957503091207826 18.1051
39.9811937746168 18.1393
40.00488623990914 17.9973
40.02858048850006 17.9755
40.05246165409549 17.9863
40.076159487492085 17.9318
40.099859108448875 17.9494
40.123560518384345 17.8997
40.1474489070226 17.8416
40.171153913178564 17.8174
40.194860712584955 17.784000000000002
40.2185693066637 17.726
40.242464941335314 17.7214
40.26617714307655 17.6996
40.289891143772046 17.680999999999997
40.3136069448471 17.6178
40.33750984859743 17.5856
40.3612292688043 17.6262
40.3849504936829 17.5813
40.40867352466194 17.5936
40.43258372059144 17.5121
40.45631038219906 17.529
40.48003885420956 17.4814
40.503769138055105 17.4682
40.52768664931955 17.4156
40.55142057531802 17.3955
40.57515631746428 17.3388
40.599079334038514 17.3247
40.62281872700477 17.2964
40.64655994043941 17.2432
40.67030297578061 17.2182
40.69423334835778 17.1806
40.71798004609188 17.2173
40.74172857006355 17.2186
40.76547892171441 17.209
40.7894166736039 17.0971
40.813170699248566 17.0363
40.83692655691388 17.0485
40.86068424804498 17.0805
40.884629402612525 17.0309
40.908390779366385 16.9819
40.932153993938 16.9197
40.95591904777605 16.9308
40.979871628443995 16.951
41.003640379561936 16.9323
41.02741097430883 16.8895
41.05118341413683 16.8236
41.075143444384416 16.8135
41.098919593177826 16.7652
41.1226975914255 16.6892
41.14647744058318 16.6789
41.170444943946755 16.6339
41.19422851378379 16.6511
41.218013938914645 16.648
41.24198706625173 16.5831
41.26577622087193 16.6202
41.289567235177785 16.5087
41.31336011063129 16.5036
41.337340752422875 16.5046
41.361137369129835 16.5013
41.38493585138705 16.4545
41.40873620066004 16.439
41.43272438060107 16.4449
41.45652848292052 16.3521
41.48033445666918 16.2841
41.50414230331616 16.2255
41.528138045159764 16.2204
41.551949656675205 16.2023
41.575763145513235 16.1423
41.59957851314666 16.1778
41.62358184070442 16.1179
41.64740098505737 16.093
41.6712220126409 16.0485
41.69504492493139 16.0471
41.71905586207357 16.0239
41.74288256296395 15.9851
41.766711153007456 15.9319
41.79054163368412 15.9523
41.814560204340054 15.9439
41.838394485526365 15.8644
41.86223066180303 15.8502
41.88625497706819 15.8187
41.910094962812 15.8068
41.93393684811168 15.7604
41.95778063445365 15.7344
41.981812625263366 15.764000000000001
42.00566023303407 15.7642
42.029509746323676 15.7119
42.05336116662236 15.6584
42.077400857069705 15.6814
42.10125611078846 15.6675
42.12511327600405 15.5684
42.14897235421036 15.5544
42.173019768448455 15.5651
42.19688269209613 15.4905
42.22074753323349 15.4189
42.24461429335818 15.4879
42.268669455600495 15.4263
42.292540073217886 15.4194
42.31641261433284 15.3979
42.34028708044675 15.3789
42.36435001496739 15.2925
42.38822835065557 15.2954
42.41210861586426 15.2951
42.4359908120986 15.2512
42.46006154323262 15.2065
42.48394762115317 15.1728
42.507835634632315 15.1966
42.531912233047436 15.1306
42.55580413732265 15.1067
42.579697981698 15.1088
42.60359376768525 15.056
42.62767820545945 15.0005
42.65157789440821 15.0503
42.67547952952185 15.019
42.699383112316 14.9615
42.72347541395347 14.9526
42.74738291190531 14.87
42.771292362102166 14.8891
42.795203766063516 14.8666
42.819303956130405 14.8409
42.843219287476536 14.7568
42.86713657716324 14.796
42.89105582671383 14.8023
42.91516392983864 14.7627
42.939087119032166 14.7227
42.963012272677304 14.6844
42.98693939230129 14.6327
43.01105543317513 14.7042
43.034986504731386 14.6171
43.05891954686589 14.5673
43.08285456110972 14.6391
43.10697856448665 14.546
43.130917542983475 14.4653
43.15485849820081 14.5301
43.17880143167367 14.4754
43.20293342237094 14.4869
43.226880332449 14.4167
43.25082922540554 14.4221
43.27496722682525 14.3766
43.29892010567796 14.3608
43.32287497204102 14.311
43.34683182745632 14.2728
43.370977859791836 14.2566
43.39493871351105 14.1966
43.41890156092628 14.2355
43.44286640358341 14.2188
43.46702049182749 14.145
43.49098934522816 14.1124
43.51496019852649 14.107000000000001
43.5389330532723 14.0766
43.56309522248204 14.0475
43.58707210044314 14.0843
43.61105098451946 14.0053
43.63503187626491 13.9925
43.659202151562134 13.9668
43.68318707902681 13.9529
43.70717401884041 13.9181
43.731162972560874 13.9003
43.75534137913236 13.8778
43.779334381108384 13.8178
43.803329401683186 13.7944
43.82732644241872 13.8097
43.8515130055166 13.8221
43.87551410707659 13.7576
43.89951723350145 13.7276
43.923709934595614 13.7553
43.94771713129917 13.6885
43.97172635758096 13.7246
43.99573761501002 13.6546
44.0199385169922 13.6549
44.04395385732619 13.5545
44.067971233533086 13.5235
44.09199064718605 13.5361
44.11619977548961 13.5295
44.14022328470671 13.4303
44.16424883610785 13.4855
44.18827643127035 13.4728
44.21249381139513 13.458
44.236525514814076 13.3697
44.26055926674478 13.3792
44.28459506876863 13.401
44.3088207262813 13.3141
44.33286064928722 13.3024
44.35690262714919 13.2419
44.38094666145278 13.2811
44.4051806219871 13.2395
44.42922879003185 13.1877
44.45327901929361 13.2079
44.477331311362136 13.1749
44.501573600619416 13.1295
44.525630039221795 13.1097
44.54968854541895 13.1068
44.573937102200176 13.0904
44.5979997645541 13.0984
44.622064499300315 13.0927
44.64613130803592 13.0234
44.67038823869318 13.0147
44.69445921643748 12.9619
44.718532272981385 12.9288
44.742607409926194 12.939
44.76687274034801 12.8995
44.79095205918753 12.8591
44.81503346325094 12.8372
44.839116954143876 12.8293
44.86339071028742 12.7977
44.88747839599524 12.7787
44.91156817336837 12.7909
44.93566004401666 12.7404
44.959942251908146 12.7109
44.984038330325966 12.7457
45.00813650686762 12.6312
45.03223678314731 12.6153
45.05652746888232 12.5982
45.08063196592069 12.6016
45.104738567558705 12.5374
45.128847275414856 12.5664
45.15314646515866 12.5421
45.17725940679741 12.4738
45.20137445952892 12.4421
45.22568004865265 12.4124
45.24979934496396 12.4266
45.27392075725247 12.4775
45.29804428714431 12.4338
45.322358426247604 12.4345
45.346486212804315 12.4397
45.370616121861914 12.4016
45.39474815505086 12.3273
45.41907087049246 12.272
45.4432071734666 12.2647
45.46734560548283 12.2683
45.49148616817604 12.2433
45.51581748638564 12.2031
45.5399623320197 12.1769
45.56410931325473 12.2144
45.58825843173002 12.1956
45.61259837920865 12.1443
45.636751793816 12.1043
45.66090735060093 12.0816
45.68506505120716 12.0228
45.7094136545275 12.0545
45.73357566449271 11.9883
45.75773982322992 11.9879
45.78190613238733 11.9728
45.806263418194064 11.9223
45.83043404997326 11.9425
45.85460683713677 11.9146
45.87897065658495 11.8612
45.90314777634752 11.8593
45.92732705646868 11.8361
45.9515084986045 11.7935
45.97588104735473 11.7894
46.00006683541565 11.8111
46.02425479047904 11.7393
46.04844491420549 11.7023
46.0728262191024 11.7195
46.09702070211635 11.700999999999999
46.12121735879483 11.6837
46.14541619080294 11.6774
46.169806278764455 11.6419
46.194009483459034 11.6333
46.21821486849841 11.5803
46.24242243555223 11.5661
46.266821333570014 11.5247
46.29103328674601 11.5103
46.31524742696538 11.5199
46.33946375590237 11.4938
46.36387149104216 11.5352
46.38809221957392 11.4567
46.41231514186606 11.4656
46.436540259597464 11.419
46.460956858999374 11.4143
46.48518638983522 11.3441
46.509418121166966 11.3267
46.533652054678114 11.3233
46.55807754555709 11.2761
46.58231590571962 11.3
46.60655647313217 11.2462
46.630988654873654 11.228
46.655233659129024 11.184000000000001
46.67948087571551 11.1658
46.70373030632484 11.1632
46.72817142736393 11.1551
46.752425308428684 11.124
46.77668140861147 11.1321
46.80093972960865 11.0772
46.82538981736788 11.091
46.849652602470904 11.0269
46.87391761349769 11.0271
46.8981848521493 11.0438
46.9226439341274 11.015
46.946915650573224 10.9732
46.97118959976749 10.9484
46.99546578341598 10.937000000000001
47.019933887188216 10.9409
47.04421456235744 10.9051
47.06849747711879 10.8676
47.09278263318286 10.8306
47.11725978640143 10.8195
47.14154944775105 10.8155
47.165841355555656 10.8006
47.1901355115306 10.7627
47.214621741924994 10.7581
47.23892041698887 10.7143
47.26322134538975 10.682
47.28771440635075 10.7035
47.31201986422527 10.652000000000001
47.33632758061436 10.6211
47.360637557241866 10.6251
47.38513974410611 10.5815
47.40945426407847 10.5885
47.43377104948137 10.5658
47.45809010204344 10.5482
47.48260144275502 10.5464
47.506925052572285 10.5008
47.53125093475548 10.4936
47.55557909103813 10.4675
47.58009961361992 10.4374
47.60443234110732 10.397
47.62876734791564 10.4255
47.65310463578333 10.3753
47.6776343683373 10.3566
47.7019762413987 10.3308
47.72632040075572 10.293
47.75066684815169 10.2875
47.77520581885936 10.3148
47.799556865477655 10.3138
47.823910205386 10.2736
47.84826584033272 10.2469
47.87281407745551 10.2276
47.89717432569297 10.2289
47.92153687423484 10.1974
47.94609208429692 10.1845
47.97045925671401 10.1755
47.99482873471275 10.1424
48.01920052005013 10.1086
48.04376504619224 10.078
48.068141469543484 10.0551
48.09252020552573 10.0588
48.11690125590099 10.0308
48.1414751266064 10.015
48.16586082917454 10.0208
48.19024885144316 9.984760000000001
48.2146391951793 9.93352
48.239222439012764 9.95933
48.26361744916137 9.92811
48.28801478610016 9.94332
48.31241445160131 9.90414
48.337007097209366 9.882060000000001
48.36141144338331 9.846919999999999
48.38581812345755 9.82265
48.41022713920929 9.828510000000001
48.434829215320704 9.80647
48.45924292604658 9.79544
48.48365897780325 9.80563
48.50807737237308 9.74911
48.532688907799276 9.73973
48.55711201168574 9.71423
48.581537463754074 9.69891
48.60615611725119 9.702639999999999
48.63058628942721 9.66778
48.65501881516546 9.64953
48.6794536962573 9.61064
48.70408185970339 9.59866
48.72852147531801 9.54929
48.75296345168211 9.54077
48.77740779059232 9.57114
48.80204549302823 9.56074
48.82649458091802 9.52634
48.85094603676547 9.53005
48.87539986237231 9.47343
48.90004713292306 9.46492
48.92450572200832 9.507639999999999
48.94896668628025 9.46273
48.97343002754588 9.45172
48.99808689542115 9.38445
49.02255501470614 9.361989999999999
49.04702551642794 9.33658
49.0714984023988 9.35029
49.096164896893235 9.33812
49.120642575466796 9.34159
49.145122643748394 9.29175
49.16960510355558 9.26024
49.19428125404938 9.25617
49.2187685210852 9.26605
49.243258185121555 9.22395
49.26794160167084 9.178410000000001
49.2924360839405 9.17975
49.31693296869764 9.16342
49.34143225776915 9.14221
49.36612538195438 9.14061
49.39062950396021 9.12085
49.41513603578346 9.11717
49.4396449792564 9.08193
49.46434784069503 9.06617
49.488861631846454 9.03513
49.513377840166804 9.02616
49.537896467493745 8.998280000000001
49.56260909589029 8.96102
49.587132585683285 8.989939999999999
49.611658500018365 8.98034
49.636186840738596 8.939969999999999
49.66090926588511 8.938039999999999
49.685442483902584 8.90161
49.70997813385706 8.884780000000001
49.734516217597076 8.86153
49.75924846937352 8.8622
49.7837914452858 8.83062
49.80833686055187 8.8306
49.83288471702571 8.81118
49.85762682540054 8.792710000000001
49.882179588965734 8.77839
49.9067347993235 8.72206
49.93129245833333 8.75545
49.95604445336378 8.74664
49.98060703442832 8.72493
50.005172069746266 8.7094
50.02993150438364 8.68608
50.05450147301533 8.65018
50.07907390151433 8.627289999999999
50.10364879174981 8.618089999999999
50.12841816587289 8.574110000000001
50.1529980044635 8.61377
50.17758031042124 8.57784
50.20216508562089 8.566360000000001
50.22694442953363 8.54846
50.25153416817468 8.53914
50.27612638170508 8.50478
50.300721072005196 8.465910000000001
50.325510416102105 8.48456
50.350110084975064 8.4618
50.37471223628208 8.43242
50.39931687190919 8.41971
50.424116246675766 8.437489999999999
50.44872587605249 8.38728
50.47333799543065 8.39663
50.49795260670191 8.38596
50.52276204271512 8.34004
50.54738166295838 8.307030000000001
50.57200378079314 8.29995
50.596628398116835 8.30007
50.62144792604559 8.2866
50.646077567609396 8.24865
50.670709714377715 8.27315
50.69553683636198 8.23452
50.72017401885922 8.22589
50.7448137122895 8.240969999999999
50.76945591856022 8.19167
50.79429318636823 8.18251
50.818940443716784 8.17109
50.84359021965163 8.15351
50.868242516085964 8.117
50.893089960641895 8.10947
50.917747323549435 8.087539999999999
50.94240721271973 8.09275
50.96706963007175 8.07047
50.99192728239342 8.02386
51.01659478166073 8.064060000000001
51.04126481489051 8.04841
51.06593738400761 8.02384
51.090805275207074 8.00871
51.11548294172845 7.96997
51.14016314993547 7.96966
51.164845901758845 7.93617
51.18972406304274 7.88782
51.21441192780656 7.89428
51.23910234200271 7.901660000000001
51.2637953075678 7.85732
51.288683770237945 7.837999999999999
51.31338186432707 7.863230000000001
51.33808251561888 7.8090399999999995
51.362978729967345 7.79708
51.387684521509755 7.775180000000001
51.41239287610203 7.76772
51.437103795691165 7.76174
51.46201036644977 7.7278899999999995
51.486726441956634 7.669110000000001
51.51144508832545 7.710430000000001
51.536166307509156 7.7095
51.56108326624387 7.654319999999999
51.58580965706056 7.67075
51.61053862657523 7.629810000000001
51.635270176746864 7.62219
51.66019755512065 7.64407
51.68493429268881 7.59622
51.70967361681515 7.592210000000001
51.73441552946465 7.5796
51.759353359237934 7.5564
51.7841004750961 7.538410000000001
51.80885018539685 7.54046
51.833602492111254 7.5095600000000005
51.8585508051424 7.51196
51.883308330926425 7.482410000000001
51.90806845906181 7.448519999999999
51.932831191525715 7.422110000000001
51.95779001977161 7.4343699999999995
51.98255798721516 7.393910000000001
52.00732856494335 7.39204
52.03229530577543 7.393680000000001
52.057071130455945 7.349480000000001
52.081849571391054 7.30282
52.106630630568695 7.353689999999999
52.13160794279417 7.2922199999999995
52.15639426492067 7.3483
52.18118321127822 7.311710000000001
52.205974783860896 7.273280000000001
52.23096269971011 7.233339999999999
52.255759551287994 7.2586
52.280559035098186 7.191669999999999
52.30536115314103 7.212460000000001
52.33035970494467 7.21338
52.35516711807904 7.206989999999999
52.37997717147198 7.167730000000001
52.40478986713005 7.148460000000001
52.42979908731974 7.12815
52.454617094216 7.1034
52.47943774942214 7.108169999999999
52.50426105495102 7.130319999999999
52.529280976059844 7.069189999999999
52.554109609024096 7.02428
52.57894089837482 7.039789999999999
52.60377484613117 7.02965
52.62880550079408 7.0184
52.65364479223379 6.948980000000001
52.67848674816189 6.97467
52.70352547971946 6.99344
52.72837279155837 6.99562
52.753222773982785 6.928260000000001
52.778075429022984 6.96594
52.80312495150885 6.95472
52.827982978797436 6.891380000000001
52.85284368481815 6.90057
52.87770707160767 6.831230000000001
52.90276741793998 6.8391399999999996
52.92763619336701 6.83137
52.952507655698504 6.841660000000001
52.977381806977576 6.84665
53.00245301017842 6.83224
53.02733256653592 6.80548
53.052214817996074 6.77262
53.077099766608484 6.74275
53.102181859804446 6.73475
53.127072229988265 6.78775
53.15196530349892 6.739889999999999
53.17686108239249 6.743339999999999
53.20195409881522 6.6996899999999995
53.22685531582556 6.721210000000001
53.25175924441303 6.677460000000001
53.27666588664027 6.6503
53.30176985962693 6.61963
53.3266819565689 6.6254
53.35159677336455 6.587689999999999
53.376514312083096 6.56973
53.40162927507703 6.574839999999999
53.42655228516116 6.53755
53.45147802340193 6.54117
53.47660125628886 6.54781
53.50153247842639 6.5547699999999995
53.52646643496923 6.47623
53.55140312799818 6.43883
53.576537409691696 6.47675
53.60147960336152 6.4835
53.626424539786164 6.43844
53.65137222105307 6.41484
53.67651758529126 6.44611
53.70147078399681 6.41052
53.72642673383343 6.39024
53.75138543689533 6.3906
53.776541917524526 6.34831
53.801506154876755 6.38213
53.826473151763246 6.31679
53.851442910284916 6.30502
53.87661054126026 6.27641
53.9015858509782 6.28444
53.92656392866066 6.29962
53.95154477641532 6.26304
53.976723591801296 6.21727
54.00171000771266 6.18889
54.02669920004598 6.17362
54.051691170915745 6.19895
54.076881204886796 6.176419999999999
54.101878760928514 6.15444
54.12687910187696 6.14509
54.152077577768296 6.14421
54.1770835166946 6.10119
54.20209224691339 6.13157
54.22710377055121 6.0982199999999995
54.25231352511594 6.05397
54.27733066384342 6.03725
54.30235060239643 6.04424
54.32737334290836 6.00376
54.35259441062629 5.96818
54.377622783395324 5.9637
54.40265396455061 5.98449
54.42768795623251 5.92265
54.45292037169559 5.921069999999999
54.477960012857906 5.926130000000001
54.50300247099511 5.89361
54.52804774825457 5.83362
54.55329154616743 5.8389
54.57834249018678 5.84778
54.6033962597977 5.76666
54.6284528571545 5.8086
54.653708072335164 5.72431
54.67877035378786 5.710459999999999
54.70383546947698 5.70009
54.72890342156389 5.68077
54.7541700889442 5.647130000000001
54.77924374251975 5.65803
54.8043202390049 5.61969
54.82959552413022 5.58858
54.8546777351945 5.62599
54.87976279569621 5.54548
54.90485070780914 5.57871
54.930137506558005 5.523630000000001
54.95523115074295 5.52654
54.98032765308844 5.4822
55.005427015775496 5.4625900000000005
55.03072536339621 5.43842
55.05583047570572 5.41616
55.080938454927676 5.40238
55.10604930325027 5.3601
55.131359235107396 5.36758
55.15647585066083 5.29093
55.181595341907496 5.29916
55.20671771104285 5.25708
55.232039262617704 5.25125
55.25716741665048 5.23006
55.28229845518636 5.1676
55.30743238042802 5.15364
55.33276558731939 5.1438
55.357905315183636 5.10636
55.383047936390035 5.1037099999999995
55.40819345314859 5.09729
55.433538351073295 5.08012
55.458689688238415 5.09098
55.483843927614096 5.0453
55.509197623043605 4.97995
55.53435769621134 4.94108
55.55952067826466 4.938
55.5846865714265 4.9009599999999995
55.61005202069737 4.91908
55.63522376553902 4.91252
55.66039842818645 4.868930000000001
55.68557601087004 4.86676
55.7109532500271 4.78052
55.73613670233794 4.80766
