TT I
1.2716486653135266 8.30229
1.2939594142134223 7.624560000000001
1.3162702121660406 7.583469999999999
1.3385810600174564 7.41308
1.3608919586137629 7.1729899999999995
1.383202908801069 7.10498
1.405513911425503 6.95787
1.4278249673332093 7.114389999999999
1.4501343378461518 6.980510000000001
1.4724455028545926 6.52855
1.4947567236847858 6.817819999999999
1.517068001182951 6.75148
1.5393793361953272 6.31858
1.5616907295681737 6.352930000000001
1.5840021821477681 5.5813
1.60631369478041 5.5489
1.6286252683124185 6.03996
1.6509369035901333 6.35445
1.6732468618895553 5.98402
1.695558623192809 5.1860800000000005
1.7178704487808514 5.63729
1.7401823395001077 5.6641
1.7625012545597203 5.7498
1.7848028405262486 5.3510599999999995
1.8071218901122095 5.6039
1.8294236121921872 5.0649
1.8517427996910911 5.41869
1.8740620574440425 5.33097
1.8963639900671978 5.3177900000000005
1.9186833908139995 5.4648
1.9409854680117449 5.60144
1.9633050151394713 6.0018
1.9856246367570705 5.82866
2.0079269371922672 5.09245
2.03024671027244 5.409730000000001
2.0525491637446027 4.9706
2.074869091674931 5.53667
2.097171701569106 5.02504
2.1194917877373847 5.199409999999999
2.141811954326636 5.03699
2.164114805233074 4.48991
2.186435135143035 4.89994
2.208738150935709 4.80922
2.231058647554722 4.63472
2.2533792288321184 4.75565
2.275682498336085 4.74809
2.298003251406138 4.43203
2.3203066942619714 4.04957
2.3426276225136022 4.03808
2.3649486396617507 4.15829
2.387252348930071 4.00434
2.4095735463442893 3.5807800000000003
2.4318774374315884 4.01464
2.4541988185014043 4.1936800000000005
2.476502894794693 4.17847
2.498824462909887 3.6549099999999997
2.521146125856138 3.6171599999999997
2.5434504863470337 3.9855
2.5657723414244717 5.01231
2.588076895590662 5.59903
2.610398946189713 4.8
2.6327210958598384 4.5564599999999995
2.6550259469304716 4.47615
2.6773482972090137 4.9812
2.6996533504259 5.55981
2.7219759047039602 5.58321
2.744298562293959 5.577459999999999
2.7666039251246595 5.27717
2.7889267918020164 5.78546
2.8112323652516555 6.6893199999999995
2.833555444408179 6.791460000000001
2.8558786311183852 6.760330000000001
2.8781845268938557 7.422839999999999
2.9005079311721484 7.821860000000001
2.9228140460410397 7.748760000000001
2.9451376712799635 8.18487
2.967444008632326 8.8843
2.9897678582247247 9.04544
3.0120918213106695 10.1142
3.0343984987899373 10.2441
3.0567226913198637 11.2962
3.079029599759726 11.4228
3.101354025127254 12.3108
3.123678568232338 12.5165
3.145985829517914 12.9129
3.16831061055229 13.4677
3.1906181112775593 14.2823
3.212943133635653 14.4592
3.2352682779763207 14.4016
3.2575761442691227 14.9164
3.2799015350264273 15.6397
3.302209649240067 15.7575
3.3245352898092655 16.6319
3.3468436553365257 16.9336
3.369169549113219 17.1478
3.3914955708171384 18.3748
3.413804319727358 18.6171
3.4361305997334863 18.4289
3.4584396084414553 19.0587
3.4807661501462652 19.5113
3.503092824025881 20.3695
3.5254022288463154 20.4704
3.5477291695206588 20.8768
3.5700388426251948 20.7602
3.5923660534916446 21.0515
3.6146934007816114 22.0322
3.637003482731501 22.1971
3.6593311053109985 22.9385
3.681641464033634 22.8072
3.7039693653009733 23.4789
3.726297407241705 23.8025
3.7486081875460804 23.9331
3.7709365132734978 24.6318
3.793247578841633 25.4069
3.8155761917550093 25.6233
3.8378875459837216 25.6417
3.8602164494827234 26.4351
3.882545499606844 26.7951
3.9048572932539183 27.0623
3.9271866390645718 27.5716
3.9494987298666713 27.9244
3.971828374764527 28.1698
3.9941581705403255 29.2874
4.016470713506008 29.5886
4.038800813471445 30.2633
4.061113662089144 30.8679
4.0834440696459176 31.1614
4.105774632334751 31.3783
4.128087945865126 32.1743
4.150418821249301 32.6854
4.172732448931298 33.2608
4.195063640413578 33.9929
4.2173775856475215 34.6939
4.239709096631102 35.4652
4.262040768704612 36.1672
4.284355196706267 36.3322
4.306687193387355 36.6343
4.329001947444346 38.1231
4.35133427213731 38.8391
4.373666762177566 39.6135
4.395982011761091 40.553000000000004
4.418314834921175 41.4392
4.44063041906622 42.0453
4.4629635787515625 43.1924
4.4852969080429785 44.4607
4.5076130004776225 45.3747
4.529946671403969 46.5355
4.552263106909177 47.1466
4.574597122877047 48.0855
4.596931312711224 49.4353
4.619248269273446 50.4297
4.6415828092605835 52.158
4.663900117405352 53.0759
4.686235010953232 54.3321
4.708552674085913 56.2238
4.730887924602802 57.5155
4.753223354952695 59.2776
4.775541557023902 60.5317
4.797877349456786 61.6795
4.820195915032126 64.1658
4.842532072957498 66.0037
4.864868414979744 67.7552
4.88718753227192 69.9877
4.909524244902505 72.4199
4.931843734218147 75.4618
4.954180820867835 79.2719
4.976518095879839 83.1106
4.998838149695359 87.1269
5.021175803844231 93.1756
5.043496238205739 97.5847
5.065834274903528 104.47
5.088172504230693 112.648
5.1104935158799565 123.314
5.132832132875765 140.569
5.155153533596801 168.99400000000003
5.1774925416746225 240.982
5.199814334878411 659.9730000000001
5.2221537374521505 2186.15
5.244493338631803 3791.87
5.266815727034316 4642.36
5.289155727832427 6736.71
5.311478517248165 9130.39
5.333818921080011 7064.69
5.356159527788849 2620.86
5.3784829252032536 657.617
5.400823940070432 268.28700000000003
5.423147747031976 187.046
5.445489173474152 153.911
5.467830807066149 136.671
5.490155234831516 126.491
5.512497285125229 119.19
5.534822130975162 115.124
5.557164601388673 110.74799999999999
5.579489868738879 106.777
5.601832762690846 103.95200000000001
5.6241758697774475 102.426
5.646501775867269 101.095
5.668845311622074 99.9356
5.691171647754637 99.3563
5.713515615597765 97.8562
5.735859800852677 97.0549
5.758186788542988 96.9589
5.780531411018185 97.4352
5.802858837297399 97.4147
5.825203900414495 97.8436
5.8475491852224 99.5468
5.869877275883075 101.682
5.892223006467101 105.48100000000001
5.914551544266608 110.73
5.936897724049891 119.434
5.959244129804903 135.40200000000002
5.981573344815301 175.334
6.0039202049061 333.461
6.026249875609095 834.715
6.04859719346037 1437.03
6.070927323278297 1756.89
6.093275102315365 2193.72
6.115623113320588 3167.14
6.137953938319995 3820.1
6.160302415650845 2489.22
6.182633708324452 895.765
6.2049826554078376 283.631
6.227331838745022 144.291
6.249663839443684 109.71600000000001
6.27201349767565 95.0977
6.294345974611799 86.9937
6.316696111167083 81.0279
6.339046488263839 77.0493
6.361379686074702 73.6664
6.383730546639482 71.3686
6.406064229255215 68.726
6.428415576718203 68.2047
6.450749747566656 66.6318
6.47310158535871 65.1751
6.495453669698332 64.0036
6.517788579421056 63.2769
6.540141159237969 62.1858
6.562476565766648 60.9853
6.5848296444934045 60.42100000000001
6.607182974060425 59.8941
6.6295191323281015 59.4594
6.651872965955752 58.4165
6.6742096296068985 57.8221
6.6965639707294615 57.5247
6.71891856698715 56.5967
6.741255995248479 56.1667
6.763611104154477 56.1249
6.785949046381137 55.4147
6.808304671371482 54.8348
6.8306605557940046 54.7532
6.852999275508618 54.1285
6.875355681171544 53.7459
6.897694923437771 53.4072
6.92005185377892 53.4797
6.9423916220322655 53.4353
6.964749080490181 52.2141
6.987106804399774 52.6526
7.009447368180821 52.4915
7.031805625367033 52.4336
7.054146723727803 52.7144
7.076505517631004 52.0318
7.098864581288365 51.8789
7.121206488070854 51.6392
7.143566093607822 51.3432
7.165908543567245 51.3826
7.188268694426048 51.1852
7.2106291193438095 50.6934
7.232972390625943 50.9209
7.255333366030969 51.1273
7.277677189091925 50.8151
7.300038718428332 51.3907
7.322400526130865 51.1837
7.344745183422596 50.9059
7.367107550224791 51.306000000000004
7.389452767901992 51.3203
7.411815697249891 51.4014
7.434161478756298 50.86600000000001
7.456524974096713 51.1897
7.478888753837185 51.4845
7.501235387657368 53.2489
7.523599738562711 58.2637
7.545946944825532 69.7459
7.568311870344528 74.028
7.5906770845765665 67.4966
7.613025156078678 58.0532
7.635390950099687 54.3126
7.657739602662809 53.2126
7.680105979923558 52.7935
7.702472650212829 53.2431
7.724822180948224 53.1617
7.747189439655568 53.278999999999996
7.769539560075357 53.5572
7.791907410653562 53.996
7.81425812420825 53.9424
7.836626570110925 54.3389
7.858995315087906 55.0094
7.881346924933401 55.4374
7.903716270417482 55.8093
7.926068482028405 56.3048
7.948438431475253 56.7028
7.9708086843180235 56.821999999999996
7.993161805171116 57.8407
8.015532667162402 58.3595
8.037886398416653 59.4681
8.060257873014221 59.7487
8.082629655331942 60.18600000000001
8.104984308787587 61.121
8.127356708900503 61.7072
8.149711981398308 62.8739
8.172085002766314 63.6292
8.194458336181368 64.4783
8.216814543847752 65.4638
8.23918850371002 66.6519
8.26154533906492 68.1162
8.283919928836452 70.0335
8.306277395339652 71.1788
8.328652618483376 72.6894
8.351028159736202 75.0578
8.373386579575245 77.4345
8.395762759396959 80.1463
8.418121819038275 84.15899999999999
8.440498640894003 89.1925
8.462875785192262 97.5747
8.485235811156207 115.632
8.507613602688501 187.274
8.529974277114228 400.695
8.552352719347912 646.252
8.574731488360351 773.182
8.59709314210385 765.165
8.619472567021075 859.495
8.64183487789147 1185.44
8.664214962183097 1692.39
8.686577933647762 1753.33
8.708958680784317 1168.86
8.731339760774953 546.2719999999999
8.753703729764451 217.47099999999998
8.77608547780821 127.52
8.798450116065078 108.465
8.820832535634787 99.9918
8.843215292401656 95.2406
8.865580941199045 91.9354
8.887964374703538 89.1387
8.910330701447199 87.6904
8.932714815164482 86.2911
8.955099270424924 85.0009
8.977466620733543 84.0051
8.999851761421976 83.4025
9.022219798361645 82.5065
9.04460562795561 82.2866
9.066991803441677 81.7598
9.089360876979615 81.9036
9.111747746589993 81.2868
9.13411751544971 80.7919
9.156505082664324 81.131
9.178875550323522 81.0227
9.20126381862328 82.554
9.223652438908596 91.3491
9.246023961427412 108.50200000000001
9.26841328802173 115.361
9.290785518039224 107.417
9.313175554425882 93.6619
9.335565947154315 84.6834
9.357939245086508 82.37100000000001
9.380330352834827 81.3796
9.40270436697103 81.3916
9.425096193225055 80.8293
9.447488380180165 81.8119
9.469863475295412 82.0081
9.492256385987508 82.587
9.514632206018318 83.2513
9.537025843935714 83.1215
9.559402392368193 83.7291
9.581796761000229 85.029
9.604191496441521 84.9135
9.626569144158516 85.5748
9.648964615551032 86.6182
9.671343000390081 87.4367
9.693739211225699 88.3508
9.716135793237463 89.5175
9.738515290448102 90.3039
9.760912617143402 91.6577
9.783292860202891 93.2517
9.805690935076182 94.8114
9.828089385495742 95.8594
9.850470754023561 98.0052
9.872869957865444 100.735
9.89525208097539 103.838
9.917652041736662 108.648
9.940052382417589 115.94200000000001
9.962435644102392 135.502
9.984836746950979 199.102
10.007220771957746 371.19199999999995
10.029622640473708 586.886
10.052007432299963 692.19
10.074410069984072 674.9169999999999
10.096813093716005 670.8380000000001
10.119199042482517 794.677
10.141602840636468 1098.28
10.163989564971628 1480.03
10.186394141051062 1594.26
10.208799107559706 1168.45
10.231187001965623 610.159
10.253592751657669 264.719
10.275981430388155 148.055
10.298387966769793 121.072
10.320794897965431 113.68700000000001
10.343184759907361 109.09299999999999
10.36559248305461 105.96
10.387983138083852 104.962
10.410391656691655 107.545
10.432800574501677 123.927
10.455192425893369 171.007
10.47760214443012 226.83900000000003
10.499994797678786 253.52700000000002
10.522405320453982 245.362
10.54479877906917 240.923
10.567210109595656 267.10400000000004
10.5896218454736 332.986
10.612016518879773 437.73699999999997
10.634429067781074 486.69199999999995
10.656824555333241 418.75
10.679237920773568 282.54
10.701651695961992 159.549
10.724048411481384 109.57600000000001
10.746463008485165 93.9471
10.768860546937125 87.5491
10.791275969274796 83.256
10.81369180576079 81.5479
10.836090585366925 79.8976
10.858507252467449 78.4905
10.88090686379991 77.0738
10.903324365036394 76.0412
10.925724811614439 74.9419
10.948143150509463 74.743
10.970561909719066 73.8348
10.992963615930844 72.9059
11.015383218085756 71.8773
11.037785768347074 70.9811
11.06020621697282 70.2617
11.082627090322113 69.8762
11.105030913430326 69.1757
11.12745263854165 68.1918
11.149857314510728 67.3119
11.172279894912576 67.6254
11.194702904450653 66.6075
11.217108866490921 65.8937
11.239532736615194 65.5461
11.26193956033512 65.433
11.284364294577085 64.9706
11.306789462371718 64.4632
11.329197585398376 64.3837
11.351623622610898 64.2666
11.37403261614354 63.6045
11.396459526308487 63.3571
11.418869393879497 63.0657
11.441297180532617 62.8983
11.463725406927658 62.5406
11.486136592353875 62.1449
11.508565700543707 61.8111
11.530977768845315 61.8988
11.553407762368774 61.4021
11.575838200059769 61.0571
11.598251599479612 60.976000000000006
11.620682927815501 61.0502
11.64309721895548 61.2723
11.665529441478206 60.8239
11.687962112597958 60.8131
11.710377748130886 60.5057
11.732811318753434 60.2093
11.755227854859067 60.3642
11.777662328529495 60.1257
11.800079768750786 60.0936
11.822515149015453 60.1562
11.844950984084935 60.5859
11.867369787303163 60.4427
11.889806534289491 60.7674
11.912226250487029 62.3283
11.934663912939751 65.5164
11.9571020346363 69.1232
11.979523127133968 69.709
12.001962169624331 68.5647
12.024384183972964 66.9546
12.046824150809913 68.4916
12.069264581333726 78.5809
12.091687985297767 92.704
12.11412934550045 103.264
12.136553680195208 106.949
12.158995973632788 105.15100000000001
12.181438735204349 104.79299999999999
12.20386447284199 111.62899999999999
12.226308172985636 127.38
12.24873485024193 155.27200000000002
12.271179492516982 180.50599999999997
12.293607112949127 184.94400000000002
12.316052700916226 153.833
12.338498763250042 110.883
12.360927805303868 80.4503
12.383374818673879 68.1424
12.405804812803074 63.8465
12.428252780773262 62.9077
12.45070122756722 62.7057
12.473132656675375 62.3553
12.49558206341869 62.3008
12.518014453510101 62.1469
12.540464823770117 61.8339
12.562915677315177 62.1491
12.58534951575545 62.5587
12.607801338171472 62.2376
12.630236146511358 62.7501
12.652688941369085 63.268
12.675124723177234 63.4097
12.697578494048786 63.8278
12.720032754458185 64.145
12.742470003354093 64.5071
12.764925245138771 65.0898
12.787363476431278 65.5549
12.809819703166806 65.9008
12.83227642391173 66.5286
12.854716135692716 67.1284
12.877173846755147 68.2821
12.899614549869717 68.657
12.9220732548287 69.3262
12.94453245827299 69.7326
12.966974655289818 71.0407
12.989434858002571 72.0908
13.011878055298721 72.8894
13.034339260862497 74.1424
13.056800969391883 75.6255
13.079245674017244 78.6524
13.101708390774869 81.4031
13.12415410463411 87.54899999999999
13.146617833206086 105.206
13.169064559883248 138.092
13.191529303857127 172.014
13.213994557076367 193.62099999999998
13.236442809902437 193.52
13.258909083908291 185.74599999999998
13.28135835851934 185.74900000000002
13.30382565690295 201.18099999999998
13.326293469022952 236.502
13.348744283242008 293.074
13.371213125129904 360.577
13.39366497011003 389.083
13.416134845360597 342.04
13.438605238843131 248.59599999999998
13.46105863690397 165.701
13.483530069144786 129.201
13.505984506951902 135.959
13.528456981549432 161.96200000000002
13.550929978879088 179.998
13.573385983253365 183.37599999999998
13.595860028340867 174.87400000000002
13.618317081455832 169.472
13.64079217790333 175.528
13.663250283359057 195.035
13.685726434770173 232.418
13.708203115221277 291.402
13.730662806148091 335.829
13.75314054697177 329.88800000000003
13.775601299246777 270.478
13.798080104050406 183.22099999999998
13.820559442405358 118.458
13.843021793671388 91.751
13.865502201420897 82.9315
13.887965623051947 80.3827
13.910447103807167 78.4256
13.932929122629764 76.6577
13.955394156785959 75.9623
13.977877254034569 74.9351
14.000343367582113 74.0186
14.022827546871707 73.5276
14.045294743423524 72.6839
14.06778000837062 72.123
14.090265817715476 72.0274
14.112734645763819 72.3109
14.13522154619454 74.5354
14.157691466286913 76.5038
14.180179461423874 76.0004
14.202668005486178 74.4698
14.22513957064374 72.2994
14.247629214846473 70.5024
14.270101881097517 69.3262
14.29259262906496 68.5857
14.315083930490205 68.3272
14.337558255389705 67.7839
14.360050666019726 67.8385
14.382526101071944 67.7122
14.405019624534942 67.4361
14.427513705993134 66.925
14.449990813291825 67.0565
14.47248601302899 67.0349
14.49496423954951 67.0291
14.517460561197822 67.3351
14.539939910570322 66.8852
14.562437357763558 67.267
14.58493536931253 67.4822
14.607416409993311 67.5598
14.62991555254159 67.7774
14.652397725157423 67.7994
14.674898002342799 68.3072
14.697398848433282 68.7079
14.719882725991326 69.6918
14.74238471217934 70.6115
14.764869730765593 73.7026
14.787372860692983 80.6147
14.809876564079925 95.045
14.83236330125751 109.76700000000001
14.854868153850365 118.618
14.877356041159485 120.031
14.899862046604186 116.583
14.922351087688757 114.512
14.944858249632887 116.959
14.967365991421232 125.33200000000001
14.989856770231246 140.394
15.012365673994204 166.239
15.03485761569738 194.52599999999998
15.05736768508665 207.68
15.07987833888692 193.25
15.102372032001655 157.805
15.124883856909658 114.55799999999999
15.14737872204565 87.4371
15.169891721717274 75.5186
15.192405310371893 71.4722
15.214901940621196 69.7351
15.237416709527137 68.544
15.259914520936249 67.825
15.282430473753607 67.1881
15.304947020131227 66.3751
15.327446610371178 65.8668
15.349964346154254 65.4607
15.372465126703139 65.4428
15.394984055556009 65.0673
15.417486030076159 65.0538
15.44000615566487 64.8234
15.462526881230803 64.6263
15.485030653812652 64.3502
15.507552581617434 64.1567
15.530057557334603 64.2426
15.55258069104857 64.5211
15.575104429329837 64.8739
15.597611216864632 64.4792
15.620136166564563 64.7448
15.6426441664095 65.6474
15.665170331202765 67.8943
15.687697105158826 73.9899
15.710206930593545 85.1592
15.732734925158933 97.2948
15.755245972089478 105.00200000000001
15.77777519094324 107.551
15.800287463046663 105.02
15.822817909869592 101.73299999999999
15.84534897229804 101.45299999999999
15.867863089299354 106.965
15.890395385222186 115.912
15.912910736597423 131.629
15.935444269699861 154.562
15.957978423016485 175.528
15.980495633101265 181.179
16.003031029129367 167.43099999999998
16.02554948280019 133.336
16.048086125229432 100.266
16.070623392487107 78.6935
16.09314371869582 68.5081
16.11568223789321 64.1302
16.13820381691126 61.9522
16.160743591742527 60.5573
16.183283996022084 59.7261
16.205807461423195 58.7423
16.228349126881973 58.0908
16.25087385432698 58.0124
16.27341678466365 57.114
16.29594277784926 56.8632
16.31848697676433 56.5563
16.341031811604868 55.9703
16.36355971058487 55.7347
16.3861058195587 55.4689
16.40863499352978 54.9644
16.431182380342005 55.0106
16.453730407713202 54.8999
16.476261501364792 54.4876
16.498810812136167 54.2136
16.52134319004079 54.1208
16.54389378792203 54.0503
16.566445031001553 53.7918
16.588979342490088 53.717
16.61153187824822 53.6723
16.634067483263312 53.6461
16.656621315414416 53.4895
16.679175797408888 53.2877
16.701713349928728 53.3175
16.72426913389191 53.2113
16.74680798922351 53.254
16.76936507887444 53.2754
16.791905240734874 53.3224
16.814463639794468 53.1781
16.837022695210294 53.1313
16.859564824093756 53.4096
16.882125194503903 53.5705
16.904668639217885 53.913000000000004
16.927230328348003 53.9905
16.949792678493612 54.5972
16.972338104193863 54.5166
16.994901778652235 54.4882
17.017448529496576 54.4545
17.040013531998152 54.5295
17.06257920018044 54.6454
17.0851279459922 55.8511
17.107694947817667 58.2772
17.130245028099072 60.601000000000006
17.15281336730298 62.9331
17.17536478578733 64.0061
17.19793446610687 63.582
17.220504818648422 63.0835
17.243058251703697 62.6674
17.265629950971032 63.3762
17.288184731571736 64.6011
17.310757781306908 67.2567
17.33333150794385 70.0777
17.355888317140174 74.1853
17.37846339986244 78.6915
17.401021565958885 80.7043
17.42359800851343 79.1708
17.44617513265564 74.0778
17.468735341390783 67.2677
17.491261035594565 61.9345
17.51396340099364 59.3412
17.536490463869136 58.5166
17.559018209820174 58.1214
17.58154663977963 58.0102
17.604251766089718 58.081
17.626781572227713 58.3512
17.64931206518155 58.5082
17.671843245885103 58.6696
17.69455114821572 58.8482
17.717083712612634 59.3495
17.739616967569667 59.8386
17.762150914021706 60.4448
17.78486160749854 60.7287
17.807396945166804 61.4269
17.829932977143503 62.0619
17.85246970436452 63.038000000000004
17.875183204129467 66.1069
17.897721330097664 72.0354
17.920260154126645 79.1275
17.942799677153296 84.7631
17.9655159983646 87.6176
17.988056927677544 87.3118
18.010598558807683 85.9274
18.033140892692916 85.0458
18.05586005052525 85.1809
18.07840379824407 87.8326
18.10094825154059 92.9053
18.12366954819864 101.11200000000001
18.146215420998306 113.964
18.16876200220057 130.378
18.191309292745153 143.505
18.214033452627167 147.672
18.236582170236648 138.055
18.259131600016456 119.486
18.281681742907335 100.12899999999999
18.304408781233683 87.2767
18.32696035875955 81.6926
18.349512652227624 80.5682
18.372065662579683 82.8435
18.394795594587553 86.926
18.41735004715306 93.0071
18.43990521943684 99.0494
18.46246111238171 102.167
18.485193953325208 99.4907
18.507751296070428 90.7526
18.530309362314178 80.274
18.552868153000343 71.4871
18.57560391815056 65.8658
18.59816416623245 63.1242
18.620725141597372 61.6234
18.643286845190268 60.9765
18.666025549835414 60.2551
18.688588718427933 59.3676
18.711152618092243 59.126000000000005
18.73389353884365 58.8602
18.75645890921984 58.3324
18.77902501351406 57.9978
18.801591852673102 57.8646
18.824335739722738 57.2736
18.846904057212626 57.1572
18.8694731124168 56.9582
18.89204290628315 56.8179
18.914789774966803 56.6767
18.937361054791623 56.3155
18.959933076131318 56.0302
18.982505839934877 55.9656
19.00525570560582 56.0273
19.027829963004184 55.6376
19.05040496572238 55.8027
19.072980714710468 55.8883
19.095733592739563 55.8413
19.11831084296757 56.4384
19.140888842324735 57.7431
19.16346759176222 58.8915
19.18622349753803 60.2815
19.208803755869358 61.3165
19.231384767143577 61.354
19.253966532312948 61.0161
19.276725481241822 60.5828
19.29930876296784 60.645
19.3218928014549 61.3211
19.34465404436217 62.1986
19.36723960516257 63.5273
19.389825925592426 65.0313
19.412413006605938 67.5399
19.43517731967805 70.5784
19.457765930683355 72.872
19.48035530514408 73.06
19.50294544401556 70.4162
19.525712842708348 65.9375
19.54830451925909 61.1664
19.570896963095727 56.8031
19.593490175174704 54.4843
19.616260674962184 53.6203
19.638855432416964 53.0638
19.661450960992624 53.1254
19.68404726164677 52.9464
19.706820878021247 52.6052
19.729418731756834 52.6872
19.752017360452857 52.2894
19.77461676506804 52.5269
19.797393513540218 52.6485
19.819994478951667 53.0234
19.84259622316767 53.8726
19.8651987471481 55.1167
19.887978643247177 56.2565
19.91058273574792 57.0892
19.933187610901943 57.6373
19.955969879466828 57.6509
19.97857632894404 57.2491
20.00118356396599 56.6594
20.023791585494575 56.8962
20.046577028914875 57.7184
20.069186632506966 58.9831
20.091797025500632 61.2518
20.114408208858933 63.6125
20.137196842715273 66.6952
20.159809615886765 69.8467
20.18242318232135 71.1461
20.20503754298326 70.7048
20.227829382875154 68.8136
20.250445341109344 65.4679
20.27306209647285 61.9997
20.29567964993108 59.3961
20.31847471147704 58.4295
20.34109387027612 58.5867
20.363713830075454 59.8056
20.386334591841646 61.8376
20.409132890679302 63.6757
20.431755265564437 64.0193
20.454378445325528 63.1591
20.477002430930366 60.3693
20.499803982716553 57.2374
20.522429589228004 53.7104
20.54505600449589 51.3258
20.567683229489194 50.4765
20.590488049900088 49.8134
20.61311690359731 49.605
20.63574656993626 49.4131
20.658553853717297 49.04600000000001
20.681185154618298 48.9498
20.703817271080066 48.7845
20.72645020407368 48.5409
20.749260783967177 48.5385
20.771895359337133 48.6294
20.794530754161617 48.3847
20.817166969412938 48.4449
20.83998086114876 48.3929
20.86261872660049 48.2576
20.885257415405402 48.0561
20.90789692853701 47.9425
20.930714147864748 47.9324
20.953355319030678 47.7142
20.97599731745334 48.0484
20.99864014410749 47.8815
21.021460706796564 48.2414
21.044105199328826 48.5344
21.06675052302631 48.7889
21.089396678865015 48.7165
21.112220600704806 48.5504
21.134868430275347 48.5994
21.15751709492456 48.3255
21.180166595629693 48.2549
21.202993892429635 48.3708
21.22564507473034 48.7058
21.24829709602816 48.9512
21.27112693608965 49.2731
21.293780644891275 49.8029
21.316435195634053 50.208
21.339090589297417 50.3693
21.361923832041875 50.4134
21.384580921090404 50.0342
21.407238856007325 49.1832
21.429897637773326 48.7977
21.45273429906592 48.2543
21.475394784108598 48.0697
21.498056118951983 47.6676
21.520718304578022 47.8496
21.543558400304388 47.951
21.566222297108816 48.1274
21.58888704765135 48.1663
21.61155265291521 48.51
21.63439619898156 49.6359
21.657063523335786 50.7633
21.67973170537063 51.8783
21.7024007460706 52.6185
21.72524775840385 53.1827
21.747918526116475 53.1516
21.770590155457388 52.9972
21.79326264741238 52.7889
21.816113141960237 53.0738
21.838787368860547 53.4697
21.861462461341976 54.3491
21.884315579735777 55.7447
21.90699241312273 57.1136
21.92967011506078 58.6838
21.95234868653799 60.8737
21.9752053151131 62.8577
21.997885635446785 64.5901
22.020566828293532 65.0711
22.04324889464272 63.8265
22.066109049404666 61.2359
22.088792872571794 58.1596
22.111477572219204 55.6786
22.1341631493376 54.4505
22.157026846313123 54.1704
22.179714188221507 54.3683
22.202402410582668 55.2828
22.22509151438863 55.3813
22.24795876962584 54.7961
22.270649646204486 54.0554
22.293341407213727 52.6987
22.316034053646906 51.1424
22.338904883215342 49.8066
22.36159931041458 48.9428
22.38429462602756 48.6139
22.40699083104897 48.1323
22.429865251039757 48.1053
22.452563244831367 47.9487
22.47526213102522 48.028999999999996
22.49813925616515 47.9829
22.520839937143307 47.9975
22.543541513520587 48.0697
22.56624398629403 47.9271
22.589124730075895 47.9509
22.611829005656723 48.2191
22.63453418063466 48.091
22.657240256008077 48.2934
22.680124634582935 48.8101
22.70283252079775 49.6483
22.725541310413075 50.4824
22.74825100442868 50.8494
22.771139033969575 51.4036
22.79385054687155 51.1377
22.81656296718292 50.9885
22.83927629590484 50.9064
22.862167992606945 50.8249
22.88488314827121 50.8362
22.907599215359284 50.9889
22.93031619487366 51.4354
22.953211574954405 51.6868
22.975930389478226 52.5001
22.998650119445763 53.6203
23.02137076586092 54.5534
23.044269845560063 56.0534
23.06699233506288 57.2938
23.089715744034912 57.3726
23.112617610931565 56.36
23.135342869061212 54.9101
23.158069049684816 52.7305
23.1807961538087 50.7339
23.20370174880544 49.3575
23.226430710184808 48.8782
23.249160598093425 48.724
23.271891413539002 48.6437
23.294800752937697 49.0408
23.31753343374794 49.9154
23.340267045128353 50.497
23.36300158808808 51.2692
23.38591468821339 51.2262
23.408651104658304 51.2974
23.431388455719986 50.9432
23.454126742409 50.5606
23.4770436196085 50.4263
23.499783787914662 50.3454
23.522524894889884 50.2851
23.54526694154616 50.5141
23.56818761219047 50.9752
23.59093154860734 51.7303
23.613676427751283 52.9301
23.636422250635754 54.1197
23.659346731118656 55.5424
23.68209445191868 56.9159
23.704843119509587 57.1435
23.72759273490623 56.2399
23.750521041644767 54.4003
23.77327256312355 52.1106
23.796025035462787 49.6773
23.818956224555475 47.6794
23.841710609113413 46.4704
23.86446594758979 45.6954
23.887222241002014 45.4085
23.910157285144578 45.1046
23.932915498962537 44.9661
23.955674670778713 44.7783
23.978434801611975 44.6173
24.001373717286125 44.5293
24.024135776723917 44.3613
24.046898798245582 44.1846
24.06966278287146 44.0025
24.092605586582614 43.6863
24.115371508023642 43.7899
24.1381383956401 43.4851
24.16090625045381 43.3468
24.183852958731244 43.5106
24.206622758582608 43.4073
24.229393528706886 43.0148
24.252165270127392 43.1994
24.27511589952438 43.2607
24.297889594216997 42.8986
24.32066426328598 42.8847
24.34343990775613 42.84
24.36639447485003 42.6714
24.38917208083877 42.696000000000005
24.41195066531332 42.4042
24.43490819850244 42.6143
24.457688750692377 42.3409
24.48047028445616 42.3614
24.503252800821233 42.3008
24.526214300784112 42.3081
24.548998793132213 42.3486
24.57178427117417 42.1556
24.59457073593893 42.2504
24.617536219319863 42.331
24.64032466834748 42.3461
24.663114107195035 42.3911
24.685904536893013 42.3518
24.708874020360852 42.3452
24.731666442613744 42.3809
24.754459858818787 42.1937
24.777254270007962 42.0117
24.80022777025625 41.7665
24.82302418230472 41.841
24.845821592443674 41.7682
24.86862000170663 41.9712
24.891597535453727 41.8142
24.914397953892728 42.1617
24.93719937456671 42.0735
24.96000179851076 42.2085
24.98298338249997 42.0632
25.00578782394922 42.1788
25.028593271784167 42.3979
25.05157790644186 42.6229
25.07438537804115 42.7131
25.097193859145293 42.8479
25.120003350792075 42.8571
25.142992065061257 43.0955
25.165803588823465 43.1733
25.18861612625217 43.4856
25.211429678386736 43.5149
25.234422489079968 43.641999999999996
25.257238081693636 43.7665
25.280054692141732 43.9181
25.3028723214652 43.8455
25.325869245420463 43.8326
25.348688923599397 43.81100000000001
25.371509623787006 43.6183
25.394331347025812 43.6551
25.41733240110666 44.0374
25.440156181590016 44.0282
25.46298098826268 44.2566
25.48580682216873 44.1686
25.50881202326435 43.6841
25.53163992281684 43.0263
25.55446885274561 42.2754
25.577298814096377 41.4149
25.600308179121807 40.9307
25.623140214533745 40.7535
25.64597328451537 40.3912
25.66898578564376 40.258
25.691820936010206 40.205
25.714657124097695 40.2048
25.737494350954734 40.2897
25.760511045684957 40.0808
25.783350361364224 40.1863
25.806190718969255 40.4077
25.82903211955018 40.5799
25.852053024868923 40.5737
25.874896522722523 40.5475
25.897741066713106 40.3573
25.920586657892454 40.1968
25.943611790812668 40.2232
25.966459487728237 40.1774
25.989308234998564 40.0507
26.01215803367705 40.176
26.03518741123814 40.3083
26.05803932412957 40.3307
26.080892291600094 40.1663
26.10374631470478 40.4389
26.12677995397268 40.6881
26.14963609978026 40.9475
26.172493304397875 41.2069
26.19535156888223 41.5205
26.218389486949604 41.4437
26.241249882640123 41.3607
26.26411134137826 41.0779
26.28715248187403 40.8642
26.31001607820869 40.5667
26.3328807407756 40.2306
26.35574647063438 40.4358
26.37879191991473 40.1323
26.401659795896734 40.2018
26.424528742360263 40.2591
26.447398760366614 40.2784
26.470448535598294 40.1764
26.49332070826805 40.1604
26.516193955675355 40.2925
26.53906827888316 40.3355
26.562122397260108 40.3497
26.584998883685063 40.4983
26.607876449110325 40.5972
26.63075509460056 40.6207
26.65381357334404 40.6115
26.67669439061878 40.9611
26.699576291163382 41.1461
26.722459276044212 41.4153
26.745522132402975 41.7624
26.768407297649354 41.9228
26.791293550442003 41.8594
26.814180891848974 41.6149
26.837248143099337 41.2426
26.860137673466657 40.8074
26.88302829566349 40.3868
26.90592001075963 40.2736
26.92899167420566 40.1633
26.951885586870763 39.8987
26.974780595655517 39.7902
26.99785558178161 39.6372
27.020752794605112 39.3337
27.043651106772522 39.1191
27.06655051935668 38.8349
27.089629948036183 38.6261
27.112531573292053 38.4697
27.135434302194138 38.495
27.158338135817015 38.2869
27.181422024430987 38.3446
27.204328079372566 38.2553
27.22723524226965 38.2711
27.250143514198573 38.3835
27.273231880156334 38.3467
27.296142382065014 38.0512
27.319053996245536 38.0026
27.341966723775965 37.9958
27.365059584515222 38.0988
27.38797455070062 38.0666
27.410890633481237 37.8665
27.433807833936918 37.9201
27.456905206923906 37.9772
27.47982465472398 37.8115
27.502745223449743 37.9015
27.525666914182825 37.991
27.548768816912457 38.1114
27.571692763693633 38.0489
27.59461783573812 37.9929
27.617723149491244 37.9786
27.640650484125285 38.1071
27.66357894728264 38.0757
27.686508540048052 38.1675
27.709618414237887 38.254
27.732550278321757 38.1189
27.755483275279115 38.1002
27.778417406196485 37.9431
27.801531858397514 37.8939
27.824468269376716 37.7763
27.847405817586786 37.6401
27.870344504116094 37.7214
27.893463551932008 37.736999999999995
27.916404527281053 37.7139
27.93934664422563 37.7312
27.962289903855886 37.7869
27.98541356491974 37.796
28.00835912214229 37.8269
28.03130582533231 37.955999999999996
28.054253675581805 38.0045
28.077381967556104 38.012
28.100332124185126 38.0253
28.123283431160893 38.1982
28.146235889577238 38.451
28.169368830154156 38.6664
28.192323603752033 38.7648
28.215279532083304 38.5808
28.238415973016764 38.3338
28.261374223145094 38.078
28.284333631303806 37.7834
28.307294198589954 37.6237
28.330435319167677 37.3834
28.353398217078915 37.3478
28.376362277420153 37.1887
28.39932750129032 37.0658
28.422473319286713 36.6995
28.44544088262495 36.5404
28.468409612800283 36.3398
28.491379510913497 35.9074
28.51453004413313 35.8592
28.53750229057244 35.7674
28.56047570826344 35.7336
28.583450298308804 35.5378
28.606605564586562 35.3539
28.629582511831156 35.5822
28.65256063474956 35.4932
28.675539934446338 35.4699
28.698699951647605 35.3929
28.72168161743193 35.2227
28.74466446331978 35.1132
28.767648490417624 35.088
28.790813276438353 34.903
28.813799678527303 34.9227
28.836787265157085 34.8693
28.859955641890075 34.9458
28.882945610203045 34.7992
28.905936766392035 34.713
28.928929111566863 34.8153
28.952102288520145 34.7569
28.975097024308607 34.7916
28.998092952423807 34.6648
29.021090073977508 34.7804
29.04426806913204 34.7746
29.067267590245258 34.71
29.090268308143695 34.5403
29.11327022394099 34.5125
29.13645305530891 34.2858
29.159457379627167 34.1888
29.18246290519685 34.0716
29.20546963313352 33.9203
29.22865731875826 33.9286
29.25166646419296 33.9957
29.27467681535305 33.7676
29.29768837335608 33.7398
29.320880931312562 33.6858
29.34389491580634 33.5885
29.366910110507334 33.5831
29.38992651653503 33.5921
29.41312396492981 33.6187
29.436142806456754 33.4778
29.45916286268059 33.5759
29.48236399319994 33.6411
29.50538649169417 33.6559
29.528410208259935 33.6969
29.55143514402014 33.598
29.574641196749695 33.505
29.597668583816574 33.3301
29.6206971934585 33.1349
29.64372702680042 33.0555
29.666938019934474 32.9055
29.689970313635285 32.716
29.713003834422636 32.6665
29.73603858342347 32.5682
29.759254535188578 32.3693
29.78229175361658 32.4079
29.80533020365064 32.5054
29.82836988641968 32.4467
29.85159081507472 32.5026
29.874632976355343 32.4295
29.89767637376955 32.5104
29.920721008448314 32.3158
29.9439469322847 32.2608
29.96699405457564 32.1394
29.9900424175358 32.236999999999995
30.013092022298157 32.167
30.03632295963995 32.0288
30.059375061131373 32.0902
30.08242840783577 32.1243
30.105483000888153 32.0807
30.128718970092244 31.8927
30.151776069006917 31.8803
30.17483441768648 31.9889
30.198074175317235 32.0129
30.221135036724256 31.9608
30.24419715131772 31.93
30.267260520236203 31.8497
30.290505341942243 31.9667
30.313571232750228 32.0991
30.336638381310948 32.0864
30.35970678876503 31.9856
30.38295669299435 31.9636
30.40602763151657 32.0424
30.429099832366074 31.9563
30.452173296685572 31.8621
30.47542830191959 31.8387
30.498504306502497 31.7723
30.521581577995562 31.808000000000003
30.544660117543582 31.8716
30.56792024229725 31.6648
30.59100133132069 31.6675
30.614083691845494 31.6619
30.637167325018545 31.6269
30.660432587840603 31.5838
30.683518779717886 31.5372
30.70660624769615 31.6519
30.729694992924372 31.7144
30.75296541239743 31.7365
30.77605672557558 31.6542
30.799149319462742 31.7804
30.8224236211637 31.7651
30.845518789950724 31.8176
30.868615242910597 31.8258
30.891712981195973 31.6591
30.91499247215866 31.5981
30.938092794619365 31.538
30.96119440587579 31.4097
30.984297307082752 31.2064
31.00758200598383 31.2695
31.030687500658694 31.1361
31.053794288760695 30.9913
31.076902371446767 30.8439
31.100192296997445 30.9911
31.12330298246119 30.9147
31.14641496599209 30.7138
31.169528248749216 30.8015
31.19282341969534 30.7341
31.215939314557186 30.7673
31.239056512134788 30.6105
31.262175013589378 30.6153
31.28547544871168 30.5308
31.30859657161541 30.4416
31.331719001892175 30.4749
31.35484274070538 30.506
31.378148458819545 30.514
31.401274828443725 30.398000000000003
31.424402510106933 30.493000000000002
31.447712205419993 30.5574
31.470842524931633 30.4474
31.493974159989783 30.3678
31.51710711176168 30.3783
31.54042212308802 30.3344
31.563557722100917 30.5095
31.586694641341655 30.5271
31.609832881979628 30.4738
31.63315322823208 30.5052
31.656294125521327 30.385
31.679436347728515 30.2929
31.70257989602529 30.2069
31.725905596152327 30.0891
31.74905181052835 29.9914
31.772199354521323 29.9928
31.79534822930507 29.9747
31.818679302290967 29.8516
31.84183085259981 29.8297
31.864983737233473 29.7307
31.88813795736804 29.7499
31.911474422233013 29.6747
31.934631327356435 29.6662
31.9577895715215 29.6559
31.980949155906522 29.7153
32.004291031706956 29.7186
32.027453310562606 29.5409
32.05061693318573 29.4626
32.07396288236386 29.5258
32.09712920658542 29.5858
32.12029687812702 29.4279
32.14346589817093 29.5037
32.166817291729984 29.3141
32.18998902288583 29.2765
32.21316210610336 29.1847
32.23633654256711 29.1428
32.259693399663725 29.0854
32.282870556771144 28.9538
32.30604907069099 29.0037
32.329228942610065 28.9338
32.35259128243769 28.753
32.375773884550505 28.7366
32.398957848235646 28.6391
32.422143174682176 28.7248
32.445511016471215 28.4695
32.468699082679954 28.5231
32.49188851523011 28.4365
32.51507931531304 28.377
32.538452678331 28.4524
32.56164622776311 28.3698
32.58484114831493 28.2041
32.60803744118015 28.2394
32.631416344731896 28.1798
32.654615396551876 28.1457
32.67781582427913 28.1702
32.701198898634416 28.0174
32.72440209253756 27.8967
32.747606665947124 27.9518
32.77081262006088 27.8484
32.79420126883317 27.8471
32.81740999876112 27.9963
32.840620112999424 27.8003
32.86383161274818 27.7517
32.88722585534586 27.7736
32.91044014056596 27.8282
32.933655814909734 27.7577
32.95687287957963 27.7922
32.98027273544904 27.6893
33.00349259526636 27.6461
33.026713849030116 27.614
33.04993649794511 27.563000000000002
33.073341986570746 27.4997
33.09656744032826 27.4765
33.11979429286444 27.3913
33.14302254538647 27.4165
33.166433686291185 27.2722
33.18966475336992 27.3048
33.212897224069096 27.2498
33.23613109959831 27.2671
33.259547912343415 27.2029
33.2827846121627 27.3082
33.306022720453775 27.2659
33.32926223842861 27.0683
33.352684742614166 27.1973
33.37592709463173 27.1891
33.399170859982064 27.1094
33.422597648419426 27.0843
33.44584425514446 26.9588
33.46909227885668 27.0162
33.4923417207723 26.8709
33.51577423505344 26.8386
33.539026528130385 26.8104
33.56228024307245 26.7093
33.585535381098246 26.5615
33.60897364093058 26.5155
33.63223163992385 26.5182
33.6554910656699 26.4377
33.678751919389796 26.4082
33.702195944520106 26.2877
33.72545966903325 26.3136
33.74872482519663 26.2254
33.771991414233746 26.2283
33.79544122444841 26.1275
33.81871069412428 26.1206
33.84198160035767 26.1035
33.86525394437455 26.1344
33.88870955949969 25.9873
33.911984794020626 26.0015
33.93526147001624 25.9799
33.958539588715006 25.9113
33.98200102861669 25.8939
34.0052820477047 25.8608
34.02856451319451 25.8465
34.05203033759056 25.8345
34.07531571090147 25.8024
34.09860253431845 25.7486
34.121890809074316 25.7285
34.145362493118924 25.6464
34.16865368561615 25.634
34.191946333164054 25.5635
34.21524043699793 25.5095
34.23871800066799 25.4629
34.26201503218366 25.3022
34.28531352370466 25.2738
34.30861347646881 25.2274
34.33209693978188 25.2972
34.3553998301885 25.2675
34.378704185565205 25.1947
34.402010007152356 25.0915
34.42549939016683 25.146
34.44880815937748 24.9844
34.472118398533134 25.0191
34.49543010887669 25.011
34.51892543169198 24.927
34.54224009966052 24.9088
34.56555624255917 24.9495
34.58887386163339 24.8697
34.61237514439016 24.6775
34.6356957311114 24.701
34.65901779775809 24.6151
34.68252356662995 24.5853
34.705848608458616 24.6012
34.72917513396849 24.5792
34.75250314440949 24.5651
34.77601490857862 24.4176
34.799345904259795 24.366999999999997
34.82267838863559 24.4195
34.846012362958525 24.4109
34.869530142679984 24.3737
34.89286711232212 24.2406
34.91620557568269 24.3191
34.93954553401677 24.2232
34.9630693495876 24.1269
34.986412313340814 24.2517
35.00975677584668 24.2016
35.033102738362956 24.1391
35.05663261012228 24.0832
35.0799815881786 24.0961
35.10333207003229 24.0173
35.12668405694369 23.9666
35.150220005273056 24.0215
35.17357501786656 23.9707
35.19693153931268 23.9533
35.220289570874385 23.8928
35.24383161619786 23.9188
35.267192683604904 23.8771
35.290555264930376 23.7976
35.314101899412165 23.8047
35.33746752422433 23.7704
35.36083466676374 23.7456
35.38420332829803 23.5968
35.407756095629054 23.6554
35.43112781085063 23.6506
35.45450104888391 23.5777
35.477875810999194 23.6263
35.50143473172161 23.5999
35.52481255774625 23.6551
35.54819191167777 23.5011
35.57157279478914 23.4592
35.595137889488406 23.4433
35.61852184675279 23.4326
35.641907337029984 23.4355
35.665294361595684 23.4597
35.68886565090076 23.3428
35.7122557598848 23.3499
35.73564740699838 23.2776
35.759040593519934 23.2764
35.78261809810353 23.1618
35.80601437933051 23.1397
35.829412203814705 23.0747
35.85281157283719 23.0123
35.876395313415884 23.0053
35.8997977874528 22.8957
35.92320180988546 22.9149
35.946790244133936 22.7919
35.97019737933222 22.8663
35.993606066789866 22.8319
36.01701630779276 22.8054
36.04061101440684 22.7129
36.06402437852291 22.6954
36.08743930005611 22.712
36.1108557802951 22.6339
36.13445678011326 22.569000000000003
36.15787639383515 22.5754
36.18129757014299 22.5542
36.20472031032821 22.5195
36.22832762423364 22.4774
36.25175350829375 22.4228
36.275180960119776 22.3574
36.298609981005924 22.4039
36.32222362992669 22.4679
36.34565580510207 22.366999999999997
36.36908955323448 22.3035
36.39252487562093 22.2431
36.416144880530226 22.1803
36.43958336764275 22.1342
36.463023432914625 22.1261
36.486465077645676 22.0797
36.51009145956204 22.1312
36.53353627947859 22.1487
36.55698268276811 22.0362
36.58043067073321 22.0262
36.60406345072071 21.9443
36.62751462435344 21.9138
36.65096738658405 21.8951
36.67460498210655 21.8981
36.69806093788647 21.8489
36.72151848619297 21.7705
36.744977628333636 21.7962
36.76862165890998 21.8054
36.79208400512205 21.7553
36.81554794910557 21.7524
36.83901349217101 21.5969
36.862663978991606 21.6366
36.88613273667352 21.5514
36.90960309738324 21.5553
36.933075062434064 21.5184
36.95673202673572 21.5305
36.98020721697122 21.4367
37.003684015502365 21.3484
37.027162423645365 21.3456
37.050825886711465 21.334
37.07430753063053 21.2333
37.09779078812467 21.2455
37.121275660513014 21.2174
37.144945643673694 21.1518
37.16843376245278 21.1141
37.19192350009803 21.1793
37.215414857931435 21.1354
37.239091382563885 21.0348
37.262585997426164 21.06
37.28608223645736 21.0383
37.309763684451696 20.9892
37.33326318851098 20.9418
37.356764320726555 20.9196
37.380267082425526 20.9429
37.40395510942588 20.93
37.42746114683234 20.791
37.45096881771841 20.7451
37.474478123414166 20.71
37.49817275092816 20.7114
37.52168534303452 20.7412
37.54519957395567 20.5953
37.568715445024665 20.5678
37.592416694607714 20.535999999999998
37.61593586281424 20.565
37.63945667518264 20.6197
37.66297913304891 20.4613
37.68668702630454 20.4793
37.710212792059274 20.4065
37.733740207334854 20.3385
37.757269273470364 20.3119
37.780983832050374 20.3011
37.80451621684926 20.2821
37.82805025654007 20.2197
37.851585952464795 20.2178
37.8753071980695 20.1734
37.89884622345676 20.2286
37.92238690911902 20.1474
37.94611318753442 20.0809
37.969657210779765 19.9736
37.99320289834801 19.9534
38.016750251586465 19.9297
38.04048325513017 19.8903
38.06403395679343 19.935
38.087586328183946 19.9237
38.11114037065203 19.8427
38.13488012115898 19.9031
38.1584375229181 19.7622
38.181996599821 19.7436
38.205557353221124 19.6927
38.229303872575656 19.695
38.2528679961576 19.6648
38.27643380031219 19.61
38.30000128639589 19.5917
38.32375459653193 19.5875
38.34732546371299 19.5685
38.37089801690786 19.4728
38.39447225747609 19.4174
38.418232380377425 19.3978
38.441810012983396 19.4608
38.46538933705673 19.3924
38.488970353960084 19.3493
38.51273731166058 19.298
38.536321731567014 19.2919
38.55990784840681 19.2908
38.58367995004091 19.1938
38.60726947812959 19.1154
38.63086070726198 19.1804
38.654453638806274 19.1023
38.678232613930824 19.1232
38.70182896773327 19.0932
38.72542702806741 19.0765
38.7490267963045 19.032
38.77281266709232 19.0058
38.79641586862214 18.9782
38.8200207821842 18.9064
38.843627409152944 18.9402
38.86742019782782 18.7863
38.891030269149255 18.8431
38.914642058016156 18.8955
38.938255565806124 18.8135
38.96205529464307 18.7543
38.98567225787121 18.7085
39.00929094417078 18.722
39.03291135492255 18.7286
39.05671804624804 18.6882
39.080341923549106 18.6042
39.103967529460334 18.6085
39.127594865365744 18.5932
39.15140854155791 18.5219
39.17503935514948 18.4939
39.19867190290282 18.5131
39.22249083587951 18.4508
39.24612686969409 18.453
39.269764641845306 18.3601
39.293404153722804 18.3721
39.317230110864074 18.3399
39.34087311998506 18.2739
39.36451787301696 18.3009
39.388164371352595 18.1282
39.41199737518003 18.1412
39.43564738196752 18.1314
39.45929913825317 18.123
39.48295264543308 18.0771
39.506792718520884 18.0664
39.530449745387216 18.03
39.55410852735203 18.0129
39.57776906581474 18.0152
39.60161623079 17.945999999999998
39.625280300200025 17.9302
39.64894613032202 17.8521
39.67261372255866 17.8697
39.6964680021016 17.8093
39.72013913657293 17.8472
39.74381203738292 17.8308
39.76748670593756 17.7967
39.79134812278169 17.712
39.81502634488497 17.737000000000002
39.83870633896685 17.7303
39.862388106436654 17.7099
39.88625668336918 17.6108
39.90994201572829 17.6365
39.933629125719285 17.555999999999997
39.957503091207826 17.5029
39.9811937746168 17.5463
40.00488623990914 17.5673
40.02858048850006 17.4936
40.05246165409549 17.4079
40.076159487492085 17.4142
40.099859108448875 17.3726
40.123560518384345 17.4011
40.1474489070226 17.335
40.171153913178564 17.3225
40.194860712584955 17.2677
40.2185693066637 17.1987
40.242464941335314 17.1977
40.26617714307655 17.2257
40.289891143772046 17.1642
40.3136069448471 17.2104
40.33750984859743 17.1504
40.3612292688043 17.0412
40.3849504936829 17.0399
40.40867352466194 17.0736
40.43258372059144 17.0195
40.45631038219906 17.0155
40.48003885420956 16.9358
40.503769138055105 16.898
40.52768664931955 16.916
40.55142057531802 16.926
40.57515631746428 16.8972
40.599079334038514 16.8233
40.62281872700477 16.7642
40.64655994043941 16.75
40.67030297578061 16.7676
40.69423334835778 16.7037
40.71798004609188 16.6697
40.74172857006355 16.6028
40.76547892171441 16.6557
40.7894166736039 16.6638
40.813170699248566 16.5631
40.83692655691388 16.5495
40.86068424804498 16.5524
40.884629402612525 16.4821
40.908390779366385 16.4349
40.932153993938 16.4484
40.95591904777605 16.4149
40.979871628443995 16.4143
41.003640379561936 16.4426
41.02741097430883 16.3835
41.05118341413683 16.3216
41.075143444384416 16.2961
41.098919593177826 16.2959
41.1226975914255 16.2551
41.14647744058318 16.2277
41.170444943946755 16.2094
41.19422851378379 16.1978
41.218013938914645 16.1224
41.24198706625173 16.0627
41.26577622087193 16.0641
41.289567235177785 16.0574
41.31336011063129 15.9872
41.337340752422875 15.9456
41.361137369129835 15.9683
41.38493585138705 15.9525
41.40873620066004 15.8689
41.43272438060107 15.8461
41.45652848292052 15.8493
41.48033445666918 15.8402
41.50414230331616 15.7926
41.528138045159764 15.8094
41.551949656675205 15.7144
41.575763145513235 15.7021
41.59957851314666 15.6618
41.62358184070442 15.6331
41.64740098505737 15.6189
41.6712220126409 15.6555
41.69504492493139 15.5868
41.71905586207357 15.546
41.74288256296395 15.5679
41.766711153007456 15.4778
41.79054163368412 15.4643
41.814560204340054 15.4594
41.838394485526365 15.4963
41.86223066180303 15.3834
41.88625497706819 15.3518
41.910094962812 15.3639
41.93393684811168 15.3412
41.95778063445365 15.3264
41.981812625263366 15.2599
42.00566023303407 15.2575
42.029509746323676 15.2494
42.05336116662236 15.1849
42.077400857069705 15.1902
42.10125611078846 15.1987
42.12511327600405 15.137
42.14897235421036 15.1092
42.173019768448455 15.1335
42.19688269209613 15.0821
42.22074753323349 14.9912
42.24461429335818 14.9773
42.268669455600495 14.9493
42.292540073217886 14.9715
42.31641261433284 14.9474
42.34028708044675 14.8721
42.36435001496739 14.870999999999999
42.38822835065557 14.9085
42.41210861586426 14.8118
42.4359908120986 14.8082
42.46006154323262 14.8049
42.48394762115317 14.7334
42.507835634632315 14.7736
42.531912233047436 14.6922
42.55580413732265 14.7004
42.579697981698 14.6853
42.60359376768525 14.6197
42.62767820545945 14.6083
42.65157789440821 14.6009
42.67547952952185 14.5113
42.699383112316 14.5605
42.72347541395347 14.5472
42.74738291190531 14.4689
42.771292362102166 14.4201
42.795203766063516 14.3752
42.819303956130405 14.357000000000001
42.843219287476536 14.3873
42.86713657716324 14.3867
42.89105582671383 14.3357
42.91516392983864 14.3127
42.939087119032166 14.2841
42.963012272677304 14.2978
42.98693939230129 14.232999999999999
43.01105543317513 14.2358
43.034986504731386 14.1534
43.05891954686589 14.1276
43.08285456110972 14.1479
43.10697856448665 14.1086
43.130917542983475 14.0883
43.15485849820081 14.0924
43.17880143167367 14.0305
43.20293342237094 14.0164
43.226880332449 14.0018
43.25082922540554 13.9731
43.27496722682525 13.932
43.29892010567796 13.8979
43.32287497204102 13.9108
43.34683182745632 13.8795
43.370977859791836 13.8573
43.39493871351105 13.7955
43.41890156092628 13.8054
43.44286640358341 13.7681
43.46702049182749 13.7845
43.49098934522816 13.6993
43.51496019852649 13.6966
43.5389330532723 13.6969
43.56309522248204 13.6624
43.58707210044314 13.6494
43.61105098451946 13.5687
43.63503187626491 13.5825
43.659202151562134 13.5812
43.68318707902681 13.5239
43.70717401884041 13.5287
43.731162972560874 13.4881
43.75534137913236 13.4763
43.779334381108384 13.4468
43.803329401683186 13.4221
43.82732644241872 13.3816
43.8515130055166 13.4217
43.87551410707659 13.3374
43.89951723350145 13.3448
43.923709934595614 13.3003
43.94771713129917 13.312000000000001
43.97172635758096 13.2949
43.99573761501002 13.2484
44.0199385169922 13.2495
44.04395385732619 13.184000000000001
44.067971233533086 13.1681
44.09199064718605 13.1488
44.11619977548961 13.1372
44.14022328470671 13.114
44.16424883610785 13.1063
44.18827643127035 13.0667
44.21249381139513 13.044
44.236525514814076 13.007
44.26055926674478 12.9743
44.28459506876863 12.9642
44.3088207262813 12.9538
44.33286064928722 12.9118
44.35690262714919 12.9112
44.38094666145278 12.8267
44.4051806219871 12.8552
44.42922879003185 12.7817
44.45327901929361 12.7832
44.477331311362136 12.7706
44.501573600619416 12.7751
44.525630039221795 12.7303
44.54968854541895 12.6926
44.573937102200176 12.7219
44.5979997645541 12.6422
44.622064499300315 12.6429
44.64613130803592 12.6198
44.67038823869318 12.6278
44.69445921643748 12.6032
44.718532272981385 12.5117
44.742607409926194 12.5023
44.76687274034801 12.5136
44.79095205918753 12.4705
44.81503346325094 12.4955
44.839116954143876 12.4786
44.86339071028742 12.4746
44.88747839599524 12.418
44.91156817336837 12.3897
44.93566004401666 12.3839
44.959942251908146 12.3505
44.984038330325966 12.2898
45.00813650686762 12.2563
45.03223678314731 12.2664
45.05652746888232 12.3089
45.08063196592069 12.2095
45.104738567558705 12.1677
45.128847275414856 12.1731
45.15314646515866 12.1532
45.17725940679741 12.1832
45.20137445952892 12.1608
45.22568004865265 12.1231
45.24979934496396 12.0834
45.27392075725247 12.0753
45.29804428714431 12.0293
45.322358426247604 12.0281
45.346486212804315 12.0254
45.370616121861914 11.9669
45.39474815505086 11.945
45.41907087049246 11.890999999999998
45.4432071734666 11.8937
45.46734560548283 11.8873
45.49148616817604 11.8768
45.51581748638564 11.8561
45.5399623320197 11.8106
45.56410931325473 11.7759
45.58825843173002 11.8256
45.61259837920865 11.775
45.636751793816 11.7621
45.66090735060093 11.6959
45.68506505120716 11.7318
45.7094136545275 11.6744
45.73357566449271 11.6236
45.75773982322992 11.6056
45.78190613238733 11.5746
45.806263418194064 11.5935
45.83043404997326 11.5827
45.85460683713677 11.57
45.87897065658495 11.5121
45.90314777634752 11.504000000000001
45.92732705646868 11.4954
45.9515084986045 11.4623
45.97588104735473 11.4394
46.00006683541565 11.4101
46.02425479047904 11.4412
46.04844491420549 11.4066
46.0728262191024 11.3751
46.09702070211635 11.3597
46.12121735879483 11.3231
46.14541619080294 11.3112
46.169806278764455 11.3041
46.194009483459034 11.2967
46.21821486849841 11.259
46.24242243555223 11.2412
46.266821333570014 11.2137
46.29103328674601 11.203
46.31524742696538 11.1907
46.33946375590237 11.1514
46.36387149104216 11.1587
46.38809221957392 11.1165
46.41231514186606 11.1025
46.436540259597464 11.0964
46.460956858999374 11.0269
46.48518638983522 11.0321
46.509418121166966 10.9946
46.533652054678114 10.9693
46.55807754555709 10.9485
46.58231590571962 10.9671
46.60655647313217 10.9239
46.630988654873654 10.9035
46.655233659129024 10.8635
46.67948087571551 10.875
46.70373030632484 10.8625
46.72817142736393 10.8147
46.752425308428684 10.8253
46.77668140861147 10.8077
46.80093972960865 10.7664
46.82538981736788 10.7371
46.849652602470904 10.7343
46.87391761349769 10.7057
46.8981848521493 10.6556
46.9226439341274 10.6465
46.946915650573224 10.6264
46.97118959976749 10.6472
46.99546578341598 10.5288
47.019933887188216 10.5929
47.04421456235744 10.5978
47.06849747711879 10.5392
47.09278263318286 10.5122
47.11725978640143 10.5014
47.14154944775105 10.4851
47.165841355555656 10.4852
47.1901355115306 10.4593
47.214621741924994 10.4186
47.23892041698887 10.3913
47.26322134538975 10.4011
47.28771440635075 10.3967
47.31201986422527 10.3862
47.33632758061436 10.3659
47.360637557241866 10.3058
47.38513974410611 10.2589
47.40945426407847 10.2676
47.43377104948137 10.2555
47.45809010204344 10.2061
47.48260144275502 10.201
47.506925052572285 10.2243
47.53125093475548 10.1542
47.55557909103813 10.1795
47.58009961361992 10.1648
47.60443234110732 10.1328
47.62876734791564 10.1054
47.65310463578333 10.1236
47.6776343683373 10.0843
47.7019762413987 10.078
47.72632040075572 10.0357
47.75066684815169 10.0035
47.77520581885936 9.93716
47.799556865477655 9.956560000000001
47.823910205386 9.95577
47.84826584033272 9.972489999999999
47.87281407745551 9.918460000000001
47.89717432569297 9.93367
47.92153687423484 9.86508
47.94609208429692 9.85597
47.97045925671401 9.83973
47.99482873471275 9.79252
48.01920052005013 9.7932
48.04376504619224 9.79316
48.068141469543484 9.75132
48.09252020552573 9.750539999999999
48.11690125590099 9.75723
48.1414751266064 9.75418
48.16586082917454 9.70837
48.19024885144316 9.68711
48.2146391951793 9.70774
48.239222439012764 9.67075
48.26361744916137 9.68303
48.28801478610016 9.654819999999999
48.31241445160131 9.598239999999999
48.337007097209366 9.600769999999999
48.36141144338331 9.59747
48.38581812345755 9.56697
48.41022713920929 9.55233
48.434829215320704 9.509
48.45924292604658 9.46805
48.48365897780325 9.5244
48.50807737237308 9.4659
48.532688907799276 9.47137
48.55711201168574 9.45125
48.581537463754074 9.42632
48.60615611725119 9.44022
48.63058628942721 9.40702
48.65501881516546 9.36196
48.6794536962573 9.380189999999999
48.70408185970339 9.350539999999999
48.72852147531801 9.29541
48.75296345168211 9.276489999999999
48.77740779059232 9.28848
48.80204549302823 9.29165
48.82649458091802 9.24746
48.85094603676547 9.22284
48.87539986237231 9.22081
48.90004713292306 9.194980000000001
48.92450572200832 9.19856
48.94896668628025 9.17009
48.97343002754588 9.146469999999999
48.99808689542115 9.145560000000001
49.02255501470614 9.150789999999999
49.04702551642794 9.10331
49.0714984023988 9.06133
49.096164896893235 9.05649
49.120642575466796 9.04985
49.145122643748394 9.0286
49.16960510355558 8.998669999999999
49.19428125404938 9.00365
49.2187685210852 8.98572
49.243258185121555 8.98049
49.26794160167084 8.92169
49.2924360839405 8.95032
49.31693296869764 8.8994
49.34143225776915 8.87166
49.36612538195438 8.85828
49.39062950396021 8.87451
49.41513603578346 8.84192
49.4396449792564 8.83486
49.46434784069503 8.82691
49.488861631846454 8.778210000000001
49.513377840166804 8.78704
49.537896467493745 8.73559
49.56260909589029 8.74612
49.587132585683285 8.75066
49.611658500018365 8.67952
49.636186840738596 8.65532
49.66090926588511 8.67573
49.685442483902584 8.67325
49.70997813385706 8.61619
49.734516217597076 8.6534
49.75924846937352 8.60086
49.7837914452858 8.570730000000001
49.80833686055187 8.56371
49.83288471702571 8.58663
49.85762682540054 8.54331
49.882179588965734 8.49443
49.9067347993235 8.51313
49.93129245833333 8.50511
49.95604445336378 8.472669999999999
49.98060703442832 8.485510000000001
50.005172069746266 8.449110000000001
50.02993150438364 8.42418
50.05450147301533 8.42196
50.07907390151433 8.38141
50.10364879174981 8.3627
50.12841816587289 8.383939999999999
50.1529980044635 8.345260000000001
50.17758031042124 8.34192
50.20216508562089 8.32527
50.22694442953363 8.313830000000001
50.25153416817468 8.30127
50.27612638170508 8.2831
50.300721072005196 8.24519
50.325510416102105 8.21541
50.350110084975064 8.23672
50.37471223628208 8.20255
50.39931687190919 8.19153
50.424116246675766 8.18147
50.44872587605249 8.17564
50.47333799543065 8.14215
50.49795260670191 8.13804
50.52276204271512 8.11445
50.54738166295838 8.11444
50.57200378079314 8.097380000000001
50.596628398116835 8.084389999999999
50.62144792604559 8.064739999999999
50.646077567609396 7.994460000000001
50.670709714377715 8.02699
50.69553683636198 8.02041
50.72017401885922 8.00039
50.7448137122895 7.9866399999999995
50.76945591856022 7.97164
50.79429318636823 7.9516800000000005
50.818940443716784 7.9067300000000005
50.84359021965163 7.92513
50.868242516085964 7.916060000000001
50.893089960641895 7.8799600000000005
50.917747323549435 7.859939999999999
50.94240721271973 7.88318
50.96706963007175 7.828110000000001
50.99192728239342 7.81692
51.01659478166073 7.84461
51.04126481489051 7.8176
51.06593738400761 7.78838
51.090805275207074 7.75493
51.11548294172845 7.75502
51.14016314993547 7.74327
51.164845901758845 7.74984
51.18972406304274 7.6982
51.21441192780656 7.685969999999999
51.23910234200271 7.68479
51.2637953075678 7.65963
51.288683770237945 7.62517
51.31338186432707 7.620410000000001
51.33808251561888 7.5990899999999995
51.362978729967345 7.577960000000001
51.387684521509755 7.59543
51.41239287610203 7.583139999999999
51.437103795691165 7.552569999999999
51.46201036644977 7.525410000000001
51.486726441956634 7.49867
51.51144508832545 7.4870399999999995
51.536166307509156 7.46985
51.56108326624387 7.45735
51.58580965706056 7.4489
51.61053862657523 7.46177
51.635270176746864 7.414339999999999
51.66019755512065 7.42019
51.68493429268881 7.39422
51.70967361681515 7.368710000000001
51.73441552946465 7.36264
51.759353359237934 7.3553
51.7841004750961 7.331239999999999
51.80885018539685 7.33125
51.833602492111254 7.293989999999999
51.8585508051424 7.2853699999999995
51.883308330926425 7.2573300000000005
51.90806845906181 7.24187
51.932831191525715 7.25818
51.95779001977161 7.247730000000001
51.98255798721516 7.171119999999999
52.00732856494335 7.16047
52.03229530577543 7.1748899999999995
52.057071130455945 7.16165
52.081849571391054 7.13965
52.106630630568695 7.08559
52.13160794279417 7.090560000000001
52.15639426492067 7.1168
52.18118321127822 7.117960000000001
52.205974783860896 7.082210000000001
52.23096269971011 7.0487
52.255759551287994 7.03131
52.280559035098186 6.993110000000001
52.30536115314103 6.984189999999999
52.33035970494467 7.019589999999999
52.35516711807904 7.00789
52.37997717147198 6.96753
52.40478986713005 6.9762
52.42979908731974 6.931539999999999
52.454617094216 6.925089999999999
52.47943774942214 6.89363
52.50426105495102 6.90068
52.529280976059844 6.851089999999999
52.554109609024096 6.843660000000001
52.57894089837482 6.87498
52.60377484613117 6.85654
52.62880550079408 6.85645
52.65364479223379 6.7960199999999995
52.67848674816189 6.7777
52.70352547971946 6.80852
52.72837279155837 6.829039999999999
52.753222773982785 6.7470300000000005
52.778075429022984 6.73423
52.80312495150885 6.739839999999999
52.827982978797436 6.735010000000001
52.85284368481815 6.676760000000001
52.87770707160767 6.717969999999999
52.90276741793998 6.71598
52.92763619336701 6.63329
52.952507655698504 6.61207
52.977381806977576 6.61512
53.00245301017842 6.6038
53.02733256653592 6.58966
53.052214817996074 6.607060000000001
53.077099766608484 6.59125
53.102181859804446 6.5460199999999995
53.127072229988265 6.54256
53.15196530349892 6.55577
53.17686108239249 6.54101
53.20195409881522 6.51196
53.22685531582556 6.49516
53.25175924441303 6.47936
53.27666588664027 6.4846
53.30176985962693 6.43562
53.3266819565689 6.464580000000001
53.35159677336455 6.48273
53.376514312083096 6.44325
53.40162927507703 6.45369
53.42655228516116 6.41856
53.45147802340193 6.32851
53.47660125628886 6.32717
53.50153247842639 6.34446
53.52646643496923 6.31365
53.55140312799818 6.30521
53.576537409691696 6.31274
53.60147960336152 6.28327
53.626424539786164 6.278230000000001
53.65137222105307 6.26098
53.67651758529126 6.26967
53.70147078399681 6.2125900000000005
53.72642673383343 6.2105
53.75138543689533 6.19681
53.776541917524526 6.1468300000000005
53.801506154876755 6.15466
53.826473151763246 6.15866
53.851442910284916 6.119730000000001
53.87661054126026 6.11849
53.9015858509782 6.102069999999999
53.92656392866066 6.100969999999999
53.95154477641532 6.070819999999999
53.976723591801296 6.06771
54.00171000771266 6.02257
54.02669920004598 6.05551
54.051691170915745 6.0144
54.076881204886796 6.01653
54.101878760928514 5.99461
54.12687910187696 5.94243
54.152077577768296 5.9488199999999996
54.1770835166946 5.95495
54.20209224691339 5.9358900000000006
54.22710377055121 5.91855
54.25231352511594 5.90735
54.27733066384342 5.85621
54.30235060239643 5.88368
54.32737334290836 5.88761
54.35259441062629 5.8356
54.377622783395324 5.81027
54.40265396455061 5.79151
54.42768795623251 5.78041
54.45292037169559 5.72197
54.477960012857906 5.72831
54.50300247099511 5.70774
54.52804774825457 5.71445
54.55329154616743 5.66645
54.57834249018678 5.644909999999999
54.6033962597977 5.60824
54.6284528571545 5.606269999999999
54.653708072335164 5.53719
54.67877035378786 5.50117
54.70383546947698 5.509440000000001
54.72890342156389 5.54723
54.7541700889442 5.5120000000000005
54.77924374251975 5.4583699999999995
54.8043202390049 5.486759999999999
54.82959552413022 5.40456
54.8546777351945 5.43259
54.87976279569621 5.38427
54.90485070780914 5.3874
54.930137506558005 5.3501900000000004
54.95523115074295 5.35496
54.98032765308844 5.3234900000000005
55.005427015775496 5.2620000000000005
55.03072536339621 5.26039
55.05583047570572 5.26807
55.080938454927676 5.25459
55.10604930325027 5.18994
55.131359235107396 5.174980000000001
55.15647585066083 5.13319
55.181595341907496 5.13366
55.20671771104285 5.09125
55.232039262617704 5.10625
55.25716741665048 5.04895
55.28229845518636 5.06102
55.30743238042802 5.00585
55.33276558731939 4.94342
55.357905315183636 4.95821
55.383047936390035 4.93155
55.40819345314859 4.86995
55.433538351073295 4.87763
55.458689688238415 4.826219999999999
55.483843927614096 4.86965
55.509197623043605 4.78875
55.53435769621134 4.78629
55.55952067826466 4.78144
55.5846865714265 4.7602
55.61005202069737 4.70173
55.63522376553902 4.76337
55.66039842818645 4.67875
55.68557601087004 4.74389
55.7109532500271 4.62079
55.73613670233794 4.66246
