TT I
1.2716486653135266 7.1855899999999995
1.2939594142134223 7.0289399999999995
1.3162702121660406 6.49573
1.3385810600174564 6.03608
1.3608919586137629 6.06353
1.383202908801069 6.05949
1.405513911425503 6.5726
1.4278249673332093 5.96242
1.4501343378461518 6.7572600000000005
1.4724455028545926 6.25712
1.4947567236847858 6.54358
1.517068001182951 6.00205
1.5393793361953272 5.2084
1.5616907295681737 5.40491
1.5840021821477681 5.43425
1.60631369478041 5.68332
1.6286252683124185 5.229830000000001
1.6509369035901333 5.02001
1.6732468618895553 5.21075
1.695558623192809 4.815919999999999
1.7178704487808514 5.09178
1.7401823395001077 5.0684
1.7625012545597203 4.85343
1.7848028405262486 4.7496
1.8071218901122095 4.8055
1.8294236121921872 4.7321599999999995
1.8517427996910911 4.7721
1.8740620574440425 4.36195
1.8963639900671978 4.49595
1.9186833908139995 4.5593
1.9409854680117449 4.5208699999999995
1.9633050151394713 5.29469
1.9856246367570705 4.62592
2.0079269371922672 4.77757
2.03024671027244 4.52395
2.0525491637446027 5.03229
2.074869091674931 5.04514
2.097171701569106 4.94149
2.1194917877373847 5.22175
2.141811954326636 4.7765
2.164114805233074 4.4837
2.186435135143035 5.915830000000001
2.208738150935709 13.3661
2.231058647554722 27.6057
2.2533792288321184 21.8312
2.275682498336085 10.1459
2.298003251406138 6.24725
2.3203066942619714 5.6506300000000005
2.3426276225136022 6.17898
2.3649486396617507 6.461869999999999
2.387252348930071 6.51894
2.4095735463442893 6.50504
2.4318774374315884 6.04475
2.4541988185014043 6.951160000000001
2.476502894794693 7.98814
2.498824462909887 7.5843
2.521146125856138 7.514810000000001
2.5434504863470337 7.87505
2.5657723414244717 8.48788
2.588076895590662 9.00164
2.610398946189713 8.18651
2.6327210958598384 8.20529
2.6550259469304716 8.00809
2.6773482972090137 8.78187
2.6996533504259 8.80952
2.7219759047039602 8.5393
2.744298562293959 8.606589999999999
2.7666039251246595 8.97702
2.7889267918020164 8.38459
2.8112323652516555 8.99617
2.833555444408179 8.93471
2.8558786311183852 8.62989
2.8781845268938557 8.39303
2.9005079311721484 9.35925
2.9228140460410397 9.34716
2.9451376712799635 9.151860000000001
2.967444008632326 9.6106
2.9897678582247247 10.4472
3.0120918213106695 10.3841
3.0343984987899373 10.767999999999999
3.0567226913198637 11.6425
3.079029599759726 12.1394
3.101354025127254 12.702
3.123678568232338 13.0251
3.145985829517914 13.5504
3.16831061055229 13.7969
3.1906181112775593 14.7394
3.212943133635653 15.352
3.2352682779763207 15.4476
3.2575761442691227 15.0839
3.2799015350264273 15.9177
3.302209649240067 16.0279
3.3245352898092655 16.9532
3.3468436553365257 17.5083
3.369169549113219 17.8287
3.3914955708171384 18.6013
3.413804319727358 18.8818
3.4361305997334863 18.7604
3.4584396084414553 19.8006
3.4807661501462652 20.3055
3.503092824025881 20.4785
3.5254022288463154 21.0874
3.5477291695206588 21.5559
3.5700388426251948 22.3888
3.5923660534916446 24.0779
3.6146934007816114 38.32
3.637003482731501 86.2883
3.6593311053109985 96.7024
3.681641464033634 56.398
3.7039693653009733 30.646
3.726297407241705 26.2368
3.7486081875460804 25.5836
3.7709365132734978 26.0159
3.793247578841633 26.944000000000003
3.8155761917550093 26.7538
3.8378875459837216 27.0714
3.8602164494827234 27.2025
3.882545499606844 28.1648
3.9048572932539183 28.8279
3.9271866390645718 29.2428
3.9494987298666713 29.612
3.971828374764527 30.025
3.9941581705403255 30.6752
4.016470713506008 31.2777
4.038800813471445 32.1881
4.061113662089144 32.434
4.0834440696459176 33.1618
4.105774632334751 33.6571
4.128087945865126 34.7009
4.150418821249301 35.0564
4.172732448931298 36.3238
4.195063640413578 38.2165
4.2173775856475215 41.6758
4.239709096631102 73.0714
4.262040768704612 231.71599999999998
4.284355196706267 311.509
4.306687193387355 204.665
4.329001947444346 80.5334
4.35133427213731 47.5734
4.373666762177566 44.2708
4.395982011761091 43.7504
4.418314834921175 45.1019
4.44063041906622 52.7903
4.4629635787515625 63.8141
4.4852969080429785 63.4971
4.5076130004776225 53.4376
4.529946671403969 49.6391
4.552263106909177 49.9135
4.574597122877047 50.7028
4.596931312711224 51.4389
4.619248269273446 52.2544
4.6415828092605835 53.4819
4.663900117405352 54.5477
4.686235010953232 55.5398
4.708552674085913 57.0131
4.730887924602802 58.1923
4.753223354952695 60.0265
4.775541557023902 61.4406
4.797877349456786 63.1306
4.820195915032126 65.1822
4.842532072957498 65.9627
4.864868414979744 67.416
4.88718753227192 70.4119
4.909524244902505 72.10300000000001
4.931843734218147 73.9525
4.954180820867835 76.1178
4.976518095879839 78.8898
4.998838149695359 81.0502
5.021175803844231 84.5388
5.043496238205739 87.5304
5.065834274903528 90.5693
5.088172504230693 95.0252
5.1104935158799565 101.56200000000001
5.132832132875765 121.542
5.155153533596801 161.22899999999998
5.1774925416746225 188.66099999999997
5.199814334878411 278.79900000000004
5.2221537374521505 745.3739999999999
5.244493338631803 2399.22
5.266815727034316 7551.31
5.289155727832427 13676.1
5.311478517248165 9192.09
5.333818921080011 2909.08
5.356159527788849 538.763
5.3784829252032536 174.37099999999998
5.400823940070432 138.136
5.423147747031976 124.083
5.445489173474152 115.693
5.467830807066149 110.65
5.490155234831516 107.24
5.512497285125229 103.774
5.534822130975162 101.914
5.557164601388673 99.7909
5.579489868738879 97.1612
5.601832762690846 96.1505
5.6241758697774475 95.8209
5.646501775867269 94.8666
5.668845311622074 93.4864
5.691171647754637 92.2009
5.713515615597765 90.6653
5.735859800852677 89.8608
5.758186788542988 89.1768
5.780531411018185 89.6221
5.802858837297399 88.8816
5.825203900414495 88.8423
5.8475491852224 89.2672
5.869877275883075 89.3035
5.892223006467101 89.3473
5.914551544266608 90.6243
5.936897724049891 92.9173
5.959244129804903 96.4987
5.981573344815301 108.54899999999999
6.0039202049061 171.676
6.026249875609095 363.986
6.04859719346037 802.5010000000001
6.070927323278297 2135.66
6.093275102315365 4613.98
6.115623113320588 5462.15
6.137953938319995 3192.74
6.160302415650845 926.4119999999999
6.182633708324452 216.722
6.2049826554078376 107.194
6.227331838745022 88.9323
6.249663839443684 82.6272
6.27201349767565 80.8756
6.294345974611799 87.016
6.316696111167083 97.67200000000001
6.339046488263839 92.9974
6.361379686074702 78.5752
6.383730546639482 70.8689
6.406064229255215 67.9011
6.428415576718203 67.2625
6.450749747566656 66.1842
6.47310158535871 65.1027
6.495453669698332 64.0532
6.517788579421056 63.8084
6.540141159237969 62.9529
6.562476565766648 62.3823
6.5848296444934045 61.6215
6.607182974060425 61.3412
6.6295191323281015 61.519
6.651872965955752 65.0976
6.6742096296068985 90.6826
6.6965639707294615 135.16
6.71891856698715 135.114
6.741255995248479 93.4571
6.763611104154477 67.3394
6.785949046381137 59.7818
6.808304671371482 57.8197
6.8306605557940046 57.5491
6.852999275508618 56.9333
6.875355681171544 56.1442
6.897694923437771 56.0341
6.92005185377892 55.7224
6.9423916220322655 55.8157
6.964749080490181 55.0912
6.987106804399774 54.9933
7.009447368180821 55.0584
7.031805625367033 54.9196
7.054146723727803 54.7493
7.076505517631004 54.3563
7.098864581288365 54.632
7.121206488070854 54.2873
7.143566093607822 54.2146
7.165908543567245 54.6806
7.188268694426048 54.6113
7.2106291193438095 54.744
7.232972390625943 56.2168
7.255333366030969 68.6338
7.277677189091925 122.39200000000001
7.300038718428332 167.718
7.322400526130865 141.246
7.344745183422596 87.9368
7.367107550224791 60.8498
7.389452767901992 55.5686
7.411815697249891 54.6708
7.434161478756298 54.0697
7.456524974096713 53.8163
7.478888753837185 53.6212
7.501235387657368 53.7951
7.523599738562711 53.8342
7.545946944825532 53.9373
7.568311870344528 54.0295
7.5906770845765665 54.4364
7.613025156078678 56.0279
7.635390950099687 57.3022
7.657739602662809 56.4396
7.680105979923558 55.1877
7.702472650212829 55.5114
7.724822180948224 55.1595
7.747189439655568 55.1826
7.769539560075357 55.4448
7.791907410653562 55.5961
7.81425812420825 55.6822
7.836626570110925 55.6347
7.858995315087906 56.605
7.881346924933401 56.6785
7.903716270417482 57.4257
7.926068482028405 57.7108
7.948438431475253 58.3845
7.9708086843180235 58.7211
7.993161805171116 59.1615
8.015532667162402 59.7796
8.037886398416653 60.9401
8.060257873014221 60.8701
8.082629655331942 61.8268
8.104984308787587 62.9531
8.127356708900503 65.9901
8.149711981398308 71.6164
8.172085002766314 73.66
8.194458336181368 70.7452
8.216814543847752 68.1051
8.23918850371002 68.3603
8.26154533906492 69.2612
8.283919928836452 70.5148
8.306277395339652 71.5215
8.328652618483376 72.7356
8.351028159736202 74.1815
8.373386579575245 76.3027
8.395762759396959 78.3298
8.418121819038275 82.9033
8.440498640894003 95.3221
8.462875785192262 108.306
8.485235811156207 116.475
8.507613602688501 143.325
8.529974277114228 214.56099999999998
8.552352719347912 333.801
8.574731488360351 581.399
8.59709314210385 1142.15
8.619472567021075 1895.86
8.64183487789147 2295.07
8.664214962183097 1811.71
8.686577933647762 931.812
8.708958680784317 355.56699999999995
8.731339760774953 158.95
8.753703729764451 108.059
8.77608547780821 96.6904
8.798450116065078 93.0433
8.820832535634787 90.2617
8.843215292401656 88.7388
8.865580941199045 87.8401
8.887964374703538 87.2038
8.910330701447199 88.1164
8.932714815164482 90.3583
8.955099270424924 89.7926
8.977466620733543 87.0451
8.999851761421976 83.8693
9.022219798361645 82.3395
9.04460562795561 82.0802
9.066991803441677 81.6452
9.089360876979615 81.3498
9.111747746589993 81.0928
9.13411751544971 80.5402
9.156505082664324 80.4327
9.178875550323522 80.6967
9.20126381862328 80.8463
9.223652438908596 81.5139
9.246023961427412 81.2657
9.26841328802173 80.7769
9.290785518039224 80.5533
9.313175554425882 80.8327
9.335565947154315 81.2897
9.357939245086508 81.5586
9.380330352834827 81.6082
9.40270436697103 81.8632
9.425096193225055 81.3846
9.447488380180165 81.9762
9.469863475295412 82.5534
9.492256385987508 83.0353
9.514632206018318 83.67299999999999
9.537025843935714 83.8169
9.559402392368193 84.5682
9.581796761000229 85.6965
9.604191496441521 86.5313
9.626569144158516 89.8008
9.648964615551032 94.1161
9.671343000390081 95.6821
9.693739211225699 94.2118
9.716135793237463 91.9393
9.738515290448102 91.1232
9.760912617143402 91.79700000000001
9.783292860202891 92.7947
9.805690935076182 94.0228
9.828089385495742 95.4259
9.850470754023561 97.8516
9.872869957865444 105.355
9.89525208097539 119.835
9.917652041736662 131.648
9.940052382417589 130.124
9.962435644102392 131.233
9.984836746950979 155.74200000000002
10.007220771957746 210.335
10.029622640473708 300.552
10.052007432299963 472.884
10.074410069984072 770.834
10.096813093716005 1274.53
10.119199042482517 1800.51
10.141602840636468 1993.96
10.163989564971628 1532.42
10.186394141051062 841.673
10.208799107559706 362.244
10.231187001965623 176.03900000000002
10.253592751657669 121.913
10.275981430388155 109.946
10.298387966769793 109.757
10.320794897965431 112.506
10.343184759907361 111.171
10.36559248305461 106.012
10.387983138083852 101.85799999999999
10.410391656691655 102.854
10.432800574501677 110.315
10.455192425893369 123.86399999999999
10.47760214443012 148.446
10.499994797678786 190.695
10.522405320453982 272.467
10.54479877906917 407.039
10.567210109595656 525.012
10.5896218454736 586.914
10.612016518879773 501.4
10.634429067781074 346.815
10.656824555333241 197.649
10.679237920773568 122.662
10.701651695961992 95.0556
10.724048411481384 87.5208
10.746463008485165 84.8136
10.768860546937125 83.1355
10.791275969274796 81.3301
10.81369180576079 80.7448
10.836090585366925 79.5912
10.858507252467449 78.5806
10.88090686379991 77.4594
10.903324365036394 77.1441
10.925724811614439 76.8344
10.948143150509463 78.0758
10.970561909719066 77.2612
10.992963615930844 75.4889
11.015383218085756 73.3938
11.037785768347074 71.9301
11.06020621697282 71.4809
11.082627090322113 71.0597
11.105030913430326 70.6916
11.12745263854165 70.8961
11.149857314510728 74.4355
11.172279894912576 80.289
11.194702904450653 81.1655
11.217108866490921 77.042
11.239532736615194 72.6751
11.26193956033512 70.7194
11.284364294577085 68.936
11.306789462371718 66.9234
11.329197585398376 66.017
11.351623622610898 65.9171
11.37403261614354 64.8203
11.396459526308487 64.7023
11.418869393879497 64.3949
11.441297180532617 64.0931
11.463725406927658 64.0896
11.486136592353875 63.4884
11.508565700543707 64.1734
11.530977768845315 66.2141
11.553407762368774 66.9323
11.575838200059769 66.1974
11.598251599479612 64.3174
11.620682927815501 62.8699
11.64309721895548 62.3868
11.665529441478206 61.8917
11.687962112597958 61.5247
11.710377748130886 61.5015
11.732811318753434 61.846000000000004
11.755227854859067 61.7497
11.777662328529495 61.6941
11.800079768750786 61.425
11.822515149015453 60.8176
11.844950984084935 61.4019
11.867369787303163 60.9333
11.889806534289491 61.2411
11.912226250487029 61.6376
11.934663912939751 61.7878
11.9571020346363 61.7452
11.979523127133968 61.54
12.001962169624331 62.0123
12.024384183972964 62.7254
12.046824150809913 65.2853
12.069264581333726 69.5171
12.091687985297767 75.2041
12.11412934550045 83.6794
12.136553680195208 98.527
12.158995973632788 122.618
12.181438735204349 154.507
12.20386447284199 188.577
12.226308172985636 208.18599999999998
12.24873485024193 197.882
12.271179492516982 161.151
12.293607112949127 122.55
12.316052700916226 95.6986
12.338498763250042 77.1276
12.360927805303868 69.118
12.383374818673879 65.2781
12.405804812803074 63.5905
12.428252780773262 63.1627
12.45070122756722 63.198
12.473132656675375 62.8152
12.49558206341869 63.2388
12.518014453510101 63.056999999999995
12.540464823770117 63.3949
12.562915677315177 63.5456
12.58534951575545 64.3208
12.607801338171472 66.4988
12.630236146511358 71.4471
12.652688941369085 76.0884
12.675124723177234 76.4705
12.697578494048786 72.6975
12.720032754458185 68.3864
12.742470003354093 66.7435
12.764925245138771 66.3461
12.787363476431278 66.6239
12.809819703166806 66.8896
12.83227642391173 67.5734
12.854716135692716 68.3026
12.877173846755147 69.6299
12.899614549869717 69.6338
12.9220732548287 70.1361
12.94453245827299 70.5638
12.966974655289818 71.7013
12.989434858002571 72.4777
13.011878055298721 72.9198
13.034339260862497 73.9434
13.056800969391883 75.2524
13.079245674017244 76.9509
13.101708390774869 78.5355
13.12415410463411 83.84200000000001
13.146617833206086 93.494
13.169064559883248 104.204
13.191529303857127 117.898
13.213994557076367 138.74200000000002
13.236442809902437 175.15599999999998
13.258909083908291 232.957
13.28135835851934 305.768
13.30382565690295 380.39300000000003
13.326293469022952 430.81
13.348744283242008 423.398
13.371213125129904 344.875
13.39366497011003 246.455
13.416134845360597 166.80599999999998
13.438605238843131 119.037
13.46105863690397 101.027
13.483530069144786 99.8721
13.505984506951902 104.03399999999999
13.528456981549432 112.678
13.550929978879088 126.676
13.573385983253365 149.89600000000002
13.595860028340867 190.422
13.618317081455832 248.553
13.64079217790333 311.888
13.663250283359057 360.505
13.685726434770173 376.421
13.708203115221277 328.832
13.730662806148091 251.47099999999998
13.75314054697177 178.41400000000002
13.775601299246777 123.87899999999999
13.798080104050406 94.9522
13.820559442405358 83.7096
13.843021793671388 80.0458
13.865502201420897 78.4581
13.887965623051947 77.9643
13.910447103807167 76.8505
13.932929122629764 75.4271
13.955394156785959 75.2369
13.977877254034569 74.3633
14.000343367582113 73.6069
14.022827546871707 73.22399999999999
14.045294743423524 72.2999
14.06778000837062 71.5637
14.090265817715476 71.6339
14.112734645763819 71.0612
14.13522154619454 71.0388
14.157691466286913 70.8948
14.180179461423874 70.7365
14.202668005486178 70.0061
14.22513957064374 69.2808
14.247629214846473 69.1041
14.270101881097517 68.5907
14.29259262906496 69.1668
14.315083930490205 69.9044
14.337558255389705 69.8384
14.360050666019726 69.6801
14.382526101071944 68.5619
14.405019624534942 67.9694
14.427513705993134 67.3686
14.449990813291825 67.3136
14.47248601302899 67.258
14.49496423954951 67.3634
14.517460561197822 67.3376
14.539939910570322 67.1373
14.562437357763558 67.7463
14.58493536931253 68.803
14.607416409993311 69.7067
14.62991555254159 70.391
14.652397725157423 70.2015
14.674898002342799 69.581
14.697398848433282 69.1088
14.719882725991326 69.378
14.74238471217934 69.7688
14.764869730765593 72.1589
14.787372860692983 74.9925
14.809876564079925 79.1414
14.83236330125751 84.3699
14.854868153850365 92.2344
14.877356041159485 106.042
14.899862046604186 125.322
14.922351087688757 152.233
14.944858249632887 184.52599999999998
14.967365991421232 213.456
14.989856770231246 228.572
15.012365673994204 217.518
15.03485761569738 185.30200000000002
15.05736768508665 145.94
15.07987833888692 111.116
15.102372032001655 87.743
15.124883856909658 75.1525
15.14737872204565 70.8624
15.169891721717274 69.1489
15.192405310371893 68.9247
15.214901940621196 69.4266
15.237416709527137 69.5654
15.259914520936249 69.4585
15.282430473753607 68.9338
15.304947020131227 67.767
15.327446610371178 66.6426
15.349964346154254 65.8313
15.372465126703139 65.4507
15.394984055556009 64.9722
15.417486030076159 65.0522
15.44000615566487 64.7191
15.462526881230803 64.7622
15.485030653812652 64.977
15.507552581617434 65.0124
15.530057557334603 64.9826
15.55258069104857 64.7434
15.575104429329837 64.8375
15.597611216864632 64.2946
15.620136166564563 64.3585
15.6426441664095 64.8416
15.665170331202765 66.4946
15.687697105158826 69.0249
15.710206930593545 72.1592
15.732734925158933 76.1454
15.755245972089478 82.1195
15.77777519094324 90.7379
15.800287463046663 104.209
15.822817909869592 124.671
15.84534897229804 148.821
15.867863089299354 175.016
15.890395385222186 191.36700000000002
15.912910736597423 196.41400000000002
15.935444269699861 181.28
15.957978423016485 150.72799999999998
15.980495633101265 119.598
16.003031029129367 93.8662
16.02554948280019 75.5277
16.048086125229432 66.6386
16.070623392487107 64.0187
16.09314371869582 63.3603
16.11568223789321 62.519
16.13820381691126 61.449
16.160743591742527 60.5167
16.183283996022084 59.4275
16.205807461423195 58.312
16.228349126881973 57.7603
16.25087385432698 57.8624
16.27341678466365 57.2646
16.29594277784926 57.2269
16.31848697676433 57.4777
16.341031811604868 57.799
16.36355971058487 57.9741
16.3861058195587 57.8264
16.40863499352978 56.5463
16.431182380342005 55.9093
16.453730407713202 55.2153
16.476261501364792 54.8474
16.498810812136167 54.4999
16.52134319004079 54.5118
16.54389378792203 54.2044
16.566445031001553 54.1642
16.588979342490088 54.3612
16.61153187824822 53.8909
16.634067483263312 53.8224
16.656621315414416 53.6609
16.679175797408888 53.1255
16.701713349928728 53.5487
16.72426913389191 53.7853
16.74680798922351 53.7897
16.76936507887444 53.8087
16.791905240734874 53.8707
16.814463639794468 53.8121
16.837022695210294 53.948
16.859564824093756 54.0623
16.882125194503903 54.6984
16.904668639217885 55.5637
16.927230328348003 55.6548
16.949792678493612 55.5594
16.972338104193863 54.9535
16.994901778652235 54.6436
17.017448529496576 54.4178
17.040013531998152 54.5632
17.06257920018044 55.0075
17.0851279459922 55.6448
17.107694947817667 56.3341
17.130245028099072 56.9752
17.15281336730298 58.3433
17.17536478578733 59.7515
17.19793446610687 62.2603
17.220504818648422 65.1317
17.243058251703697 68.8803
17.265629950971032 73.6757
17.288184731571736 78.8221
17.310757781306908 82.5953
17.33333150794385 82.9952
17.355888317140174 80.5193
17.37846339986244 75.3897
17.401021565958885 69.0622
17.42359800851343 64.0528
17.44617513265564 60.7429
17.468735341390783 58.6885
17.491261035594565 57.9803
17.51396340099364 57.7281
17.536490463869136 57.7757
17.559018209820174 57.8872
17.58154663977963 57.9329
17.604251766089718 58.093
17.626781572227713 58.3709
17.64931206518155 58.7183
17.671843245885103 59.1231
17.69455114821572 59.3878
17.717083712612634 59.4908
17.739616967569667 59.4946
17.762150914021706 59.8767
17.78486160749854 59.9958
17.807396945166804 60.5219
17.829932977143503 61.1028
17.85246970436452 62.3627
17.875183204129467 64.0557
17.897721330097664 65.6973
17.920260154126645 67.9231
17.942799677153296 70.8651
17.9655159983646 74.4205
17.988056927677544 79.783
18.010598558807683 87.5691
18.033140892692916 98.7275
18.05586005052525 110.866
18.07840379824407 123.74
18.10094825154059 132.509
18.12366954819864 137.86
18.146215420998306 135.744
18.16876200220057 125.35
18.191309292745153 112.26100000000001
18.214033452627167 99.5243
18.236582170236648 88.5541
18.259131600016456 83.7099
18.281681742907335 84.5961
18.304408781233683 89.8371
18.32696035875955 95.9865
18.349512652227624 101.226
18.372065662579683 105.368
18.394795594587553 105.855
18.41735004715306 101.06299999999999
18.43990521943684 94.0372
18.46246111238171 84.4251
18.485193953325208 75.3094
18.507751296070428 68.6497
18.530309362314178 64.4912
18.552868153000343 62.2768
18.57560391815056 61.0149
18.59816416623245 60.7031
18.620725141597372 60.1737
18.643286845190268 59.6142
18.666025549835414 59.1821
18.688588718427933 58.7074
18.711152618092243 58.5719
18.73389353884365 58.2205
18.75645890921984 57.8128
18.77902501351406 57.3938
18.801591852673102 57.4218
18.824335739722738 57.1309
18.846904057212626 56.9192
18.8694731124168 56.5322
18.89204290628315 56.7553
18.914789774966803 56.4166
18.937361054791623 56.143
18.959933076131318 55.9192
18.982505839934877 55.7788
19.00525570560582 55.9907
19.027829963004184 55.8638
19.05040496572238 55.856
19.072980714710468 55.5254
19.095733592739563 55.9405
19.11831084296757 56.1843
19.140888842324735 56.5049
19.16346759176222 56.8348
19.18622349753803 57.4126
19.208803755869358 58.1304
19.231384767143577 59.2581
19.253966532312948 60.8614
19.276725481241822 63.0505
19.29930876296784 65.7001
19.3218928014549 69.1013
19.34465404436217 72.0109
19.36723960516257 74.7137
19.389825925592426 75.0935
19.412413006605938 74.314
19.43517731967805 70.3308
19.457765930683355 65.8522
19.48035530514408 61.4906
19.50294544401556 57.8191
19.525712842708348 55.5681
19.54830451925909 54.1065
19.570896963095727 53.0176
19.593490175174704 52.875
19.616260674962184 52.8201
19.638855432416964 52.5093
19.661450960992624 52.6246
19.68404726164677 52.4335
19.706820878021247 52.3979
19.729418731756834 52.4165
19.752017360452857 52.1517
19.77461676506804 52.3359
19.797393513540218 52.4008
19.819994478951667 52.7191
19.84259622316767 53.1588
19.8651987471481 53.4219
19.887978643247177 53.638000000000005
19.91058273574792 54.1611
19.933187610901943 54.8582
19.955969879466828 56.0283
19.97857632894404 57.7221
20.00118356396599 59.3625
20.023791585494575 61.6622
20.046577028914875 64.6057
20.069186632506966 66.8526
20.091797025500632 68.3588
20.114408208858933 68.7323
20.137196842715273 67.8622
20.159809615886765 66.1162
20.18242318232135 63.67100000000001
20.20503754298326 62.0881
20.227829382875154 61.1675
20.250445341109344 61.2748
20.27306209647285 62.1111
20.29567964993108 63.6532
20.31847471147704 64.2623
20.34109387027612 65.1438
20.363713830075454 64.6352
20.386334591841646 62.7697
20.409132890679302 59.8782
20.431755265564437 57.286
20.454378445325528 54.526
20.477002430930366 52.4938
20.499803982716553 51.3621
20.522429589228004 50.6601
20.54505600449589 50.0984
20.567683229489194 49.9101
20.590488049900088 49.5776
20.61311690359731 49.2061
20.63574656993626 49.2141
20.658553853717297 48.7747
20.681185154618298 48.8409
20.703817271080066 48.6469
20.72645020407368 48.1149
20.749260783967177 48.3273
20.771895359337133 48.3005
20.794530754161617 48.1327
20.817166969412938 47.8339
20.83998086114876 47.8643
20.86261872660049 47.6712
20.885257415405402 47.724
20.90789692853701 47.708
20.930714147864748 47.508
20.953355319030678 47.532
20.97599731745334 47.681999999999995
20.99864014410749 47.5404
21.021460706796564 47.6491
21.044105199328826 47.7981
21.06675052302631 47.9845
21.089396678865015 48.1823
21.112220600704806 48.4608
21.134868430275347 48.7426
21.15751709492456 49.2301
21.180166595629693 49.7005
21.202993892429635 50.0545
21.22564507473034 50.5947
21.24829709602816 50.6484
21.27112693608965 50.4522
21.293780644891275 50.302
21.316435195634053 49.6722
21.339090589297417 48.9199
21.361923832041875 48.5206
21.384580921090404 47.7807
21.407238856007325 47.5154
21.429897637773326 47.5478
21.45273429906592 47.5659
21.475394784108598 47.466
21.498056118951983 47.3167
21.520718304578022 47.6227
21.543558400304388 47.4609
21.566222297108816 47.6086
21.58888704765135 47.8897
21.61155265291521 48.0634
21.63439619898156 48.5849
21.657063523335786 48.6364
21.67973170537063 49.1936
21.7024007460706 49.5815
21.72524775840385 50.3715
21.747918526116475 51.4882
21.770590155457388 52.6533
21.79326264741238 54.2586
21.816113141960237 56.1434
21.838787368860547 58.2769
21.861462461341976 60.3697
21.884315579735777 62.4184
21.90699241312273 63.5616
21.92967011506078 63.653
21.95234868653799 63.098
21.9752053151131 61.7246
21.997885635446785 59.7267
22.020566828293532 58.1966
22.04324889464272 56.6708
22.066109049404666 55.5891
22.088792872571794 55.2703
22.111477572219204 55.3323
22.1341631493376 55.2069
22.157026846313123 54.832
22.179714188221507 54.0111
22.202402410582668 53.0852
22.22509151438863 51.6992
22.24795876962584 50.2942
22.270649646204486 49.2786
22.293341407213727 48.8872
22.316034053646906 48.4201
22.338904883215342 48.2331
22.36159931041458 48.1284
22.38429462602756 48.1105
22.40699083104897 47.952
22.429865251039757 47.946999999999996
22.452563244831367 47.9432
22.47526213102522 47.9747
22.49813925616515 47.9037
22.520839937143307 47.5971
22.543541513520587 47.4682
22.56624398629403 47.5331
22.589124730075895 47.4695
22.611829005656723 47.5657
22.63453418063466 47.5739
22.657240256008077 47.8256
22.680124634582935 47.9509
22.70283252079775 48.1603
22.725541310413075 48.2507
22.74825100442868 48.5491
22.771139033969575 48.9394
22.79385054687155 49.2047
22.81656296718292 49.9925
22.83927629590484 50.9638
22.862167992606945 51.8683
22.88488314827121 53.1634
22.907599215359284 54.3534
22.93031619487366 55.519
22.953211574954405 56.3463
22.975930389478226 56.8732
22.998650119445763 56.8838
23.02137076586092 56.1243
23.044269845560063 54.8028
23.06699233506288 53.3042
23.089715744034912 51.721000000000004
23.112617610931565 49.9851
23.135342869061212 48.8811
23.158069049684816 48.1134
23.1807961538087 47.7841
23.20370174880544 47.7163
23.226430710184808 47.7742
23.249160598093425 47.7916
23.271891413539002 47.8268
23.294800752937697 47.8072
23.31753343374794 47.9678
23.340267045128353 48.0134
23.36300158808808 48.3985
23.38591468821339 48.8149
23.408651104658304 49.0217
23.431388455719986 49.617
23.454126742409 50.5808
23.4770436196085 51.7604
23.499783787914662 53.174
23.522524894889884 54.3429
23.54526694154616 55.4644
23.56818761219047 56.4137
23.59093154860734 56.882
23.613676427751283 56.9566
23.636422250635754 55.919
23.659346731118656 54.5037
23.68209445191868 52.6544
23.704843119509587 50.63399999999999
23.72759273490623 48.7302
23.750521041644767 47.3461
23.77327256312355 46.4738
23.796025035462787 45.8719
23.818956224555475 45.3418
23.841710609113413 45.1205
23.86446594758979 44.8702
23.887222241002014 44.6571
23.910157285144578 44.1687
23.932915498962537 44.3192
23.955674670778713 44.2321
23.978434801611975 43.9175
24.001373717286125 43.8187
24.024135776723917 43.8142
24.046898798245582 43.7726
24.06966278287146 43.532
24.092605586582614 43.3392
24.115371508023642 43.2856
24.1381383956401 43.2237
24.16090625045381 43.1662
24.183852958731244 43.203
24.206622758582608 43.0663
24.229393528706886 42.9195
24.252165270127392 42.9927
24.27511589952438 42.747
24.297889594216997 42.559
24.32066426328598 42.4453
24.34343990775613 42.5699
24.36639447485003 42.2701
24.38917208083877 42.3558
24.41195066531332 42.2962
24.43490819850244 42.2574
24.457688750692377 42.2492
24.48047028445616 42.2251
24.503252800821233 42.2804
24.526214300784112 42.1854
24.548998793132213 42.293
24.57178427117417 42.2903
24.59457073593893 42.1428
24.617536219319863 42.1022
24.64032466834748 42.1112
24.663114107195035 42.0898
24.685904536893013 41.777
24.708874020360852 41.6661
24.731666442613744 41.7204
24.754459858818787 41.578
24.777254270007962 41.4265
24.80022777025625 41.4188
24.82302418230472 41.3599
24.845821592443674 41.4576
24.86862000170663 41.4996
24.891597535453727 41.2431
24.914397953892728 41.4874
24.93719937456671 41.345
24.96000179851076 41.4031
24.98298338249997 41.6567
25.00578782394922 41.9044
25.028593271784167 41.9173
25.05157790644186 42.3206
25.07438537804115 42.6475
25.097193859145293 42.788999999999994
25.120003350792075 42.965
25.142992065061257 43.4464
25.165803588823465 43.5023
25.18861612625217 43.7071
25.211429678386736 43.9288
25.234422489079968 43.8721
25.257238081693636 44.0738
25.280054692141732 44.4841
25.3028723214652 44.339
25.325869245420463 44.306999999999995
25.348688923599397 44.2922
25.371509623787006 44.114
25.394331347025812 43.6835
25.41733240110666 43.161
25.440156181590016 42.3484
25.46298098826268 42.1455
25.48580682216873 41.6419
25.50881202326435 40.9477
25.53163992281684 40.6695
25.55446885274561 40.4559
25.577298814096377 40.1083
25.600308179121807 40.0227
25.623140214533745 40.1773
25.64597328451537 39.9191
25.66898578564376 39.8092
25.691820936010206 39.8891
25.714657124097695 39.7313
25.737494350954734 39.7006
25.760511045684957 39.7524
25.783350361364224 39.7386
25.806190718969255 39.6397
25.82903211955018 39.8595
25.852053024868923 39.9535
25.874896522722523 39.9296
25.897741066713106 39.7393
25.920586657892454 39.9363
25.943611790812668 40.0362
25.966459487728237 40.2271
25.989308234998564 40.3609
26.01215803367705 40.6674
26.03518741123814 40.7868
26.05803932412957 40.85
26.080892291600094 40.9371
26.10374631470478 40.8374
26.12677995397268 41.0121
26.14963609978026 40.8314
26.172493304397875 40.5662
26.19535156888223 40.5321
26.218389486949604 40.0453
26.241249882640123 39.772
26.26411134137826 39.5436
26.28715248187403 39.5257
26.31001607820869 39.3077
26.3328807407756 39.2049
26.35574647063438 39.2973
26.37879191991473 39.0984
26.401659795896734 39.3245
26.424528742360263 39.3848
26.447398760366614 39.6907
26.470448535598294 39.8497
26.49332070826805 39.945
26.516193955675355 40.2366
26.53906827888316 40.586
26.562122397260108 40.6295
26.584998883685063 40.9795
26.607876449110325 41.2455
26.63075509460056 41.3394
26.65381357334404 41.3872
26.67669439061878 41.43600000000001
26.699576291163382 41.3094
26.722459276044212 41.373999999999995
26.745522132402975 40.8806
26.768407297649354 40.6101
26.791293550442003 40.3738
26.814180891848974 40.2566
26.837248143099337 39.8624
26.860137673466657 39.7416
26.88302829566349 39.4007
26.90592001075963 39.1606
26.92899167420566 39.2722
26.951885586870763 38.8487
26.974780595655517 38.6411
26.99785558178161 38.4823
27.020752794605112 38.3066
27.043651106772522 38.1781
27.06655051935668 38.1638
27.089629948036183 37.8984
27.112531573292053 37.9735
27.135434302194138 38.0026
27.158338135817015 37.8208
27.181422024430987 37.785
27.204328079372566 37.6647
27.22723524226965 37.6898
27.250143514198573 37.7698
27.273231880156334 37.8273
27.296142382065014 37.6977
27.319053996245536 37.5859
27.341966723775965 37.7144
27.365059584515222 37.7509
27.38797455070062 37.8652
27.410890633481237 37.7596
27.433807833936918 37.7043
27.456905206923906 37.7806
27.47982465472398 37.9088
27.502745223449743 37.8867
27.525666914182825 38.0107
27.548768816912457 37.9038
27.571692763693633 37.8091
27.59461783573812 37.7054
27.617723149491244 37.5014
27.640650484125285 37.5221
27.66357894728264 37.4644
27.686508540048052 37.3581
27.709618414237887 37.1731
27.732550278321757 37.2041
27.755483275279115 37.1341
27.778417406196485 37.1559
27.801531858397514 37.2087
27.824468269376716 37.2589
27.847405817586786 37.0397
27.870344504116094 37.1033
27.893463551932008 37.4715
27.916404527281053 37.6283
27.93934664422563 37.7255
27.962289903855886 37.7892
27.98541356491974 38.0426
28.00835912214229 38.1896
28.03130582533231 38.4606
28.054253675581805 38.4759
28.077381967556104 38.2773
28.100332124185126 38.3174
28.123283431160893 38.1373
28.146235889577238 38.1066
28.169368830154156 37.9874
28.192323603752033 37.7464
28.215279532083304 37.4647
28.238415973016764 37.2817
28.261374223145094 37.1452
28.284333631303806 36.9525
28.307294198589954 36.9362
28.330435319167677 36.4967
28.353398217078915 36.2518
28.376362277420153 36.098
28.39932750129032 35.9349
28.422473319286713 35.7248
28.44544088262495 35.6121
28.468409612800283 35.5856
28.491379510913497 35.4029
28.51453004413313 35.3133
28.53750229057244 35.3114
28.56047570826344 35.2682
28.583450298308804 35.1823
28.606605564586562 35.0312
28.629582511831156 35.185
28.65256063474956 34.9839
28.675539934446338 34.9722
28.698699951647605 34.9585
28.72168161743193 34.9069
28.74466446331978 34.8785
28.767648490417624 34.8743
28.790813276438353 34.8576
28.813799678527303 34.8022
28.836787265157085 34.8347
28.859955641890075 34.861999999999995
28.882945610203045 34.9171
28.905936766392035 34.7316
28.928929111566863 34.6647
28.952102288520145 34.5958
28.975097024308607 34.4946
28.998092952423807 34.2563
29.021090073977508 34.2181
29.04426806913204 34.1528
29.067267590245258 34.0806
29.090268308143695 34.0146
29.11327022394099 33.9219
29.13645305530891 33.8368
29.159457379627167 33.7559
29.18246290519685 33.6036
29.20546963313352 33.6756
29.22865731875826 33.6467
29.25166646419296 33.6769
29.27467681535305 33.645
29.29768837335608 33.7174
29.320880931312562 33.7249
29.34389491580634 33.6862
29.366910110507334 33.6771
29.38992651653503 33.6757
29.41312396492981 33.4705
29.436142806456754 33.4046
29.45916286268059 33.3443
29.48236399319994 33.283
29.50538649169417 33.1939
29.528410208259935 33.1551
29.55143514402014 32.9588
29.574641196749695 32.8168
29.597668583816574 32.7488
29.6206971934585 32.6025
29.64372702680042 32.5962
29.666938019934474 32.4889
29.689970313635285 32.4657
29.713003834422636 32.4636
29.73603858342347 32.3848
29.759254535188578 32.2639
29.78229175361658 32.3844
29.80533020365064 32.3097
29.82836988641968 32.3178
29.85159081507472 32.1259
29.874632976355343 32.0981
29.89767637376955 32.1983
29.920721008448314 32.0961
29.9439469322847 32.0338
29.96699405457564 32.0246
29.9900424175358 31.8839
30.013092022298157 31.9007
30.03632295963995 31.8023
30.059375061131373 31.8635
30.08242840783577 31.8484
30.105483000888153 31.9473
30.128718970092244 31.7935
30.151776069006917 31.7916
30.17483441768648 31.8328
30.198074175317235 31.7549
30.221135036724256 31.8219
30.24419715131772 31.7617
30.267260520236203 31.7451
30.290505341942243 31.7378
30.313571232750228 31.7775
30.336638381310948 31.791999999999998
30.35970678876503 31.6463
30.38295669299435 31.537
30.40602763151657 31.5647
30.429099832366074 31.5099
30.452173296685572 31.4689
30.47542830191959 31.3913
30.498504306502497 31.4525
30.521581577995562 31.5217
30.544660117543582 31.5807
30.56792024229725 31.6142
30.59100133132069 31.5414
30.614083691845494 31.6652
30.637167325018545 31.6357
30.660432587840603 31.6578
30.683518779717886 31.6017
30.70660624769615 31.6633
30.729694992924372 31.6998
30.75296541239743 31.6169
30.77605672557558 31.4985
30.799149319462742 31.5107
30.8224236211637 31.4396
30.845518789950724 31.2633
30.868615242910597 31.2149
30.891712981195973 31.154
30.91499247215866 31.0138
30.938092794619365 31.1603
30.96119440587579 30.8799
30.984297307082752 30.8189
31.00758200598383 30.7806
31.030687500658694 30.7071
31.053794288760695 30.5694
31.076902371446767 30.5576
31.100192296997445 30.5734
31.12330298246119 30.4394
31.14641496599209 30.3817
31.169528248749216 30.4267
31.19282341969534 30.3597
31.215939314557186 30.3827
31.239056512134788 30.3939
31.262175013589378 30.305999999999997
31.28547544871168 30.1764
31.30859657161541 30.215999999999998
31.331719001892175 30.2714
31.35484274070538 30.3593
31.378148458819545 30.3786
31.401274828443725 30.3365
31.424402510106933 30.3453
31.447712205419993 30.4028
31.470842524931633 30.1898
31.493974159989783 30.2864
31.51710711176168 30.2414
31.54042212308802 30.3444
31.563557722100917 30.180999999999997
31.586694641341655 30.0588
31.609832881979628 29.9091
31.63315322823208 29.8276
31.656294125521327 29.7452
31.679436347728515 29.8123
31.70257989602529 29.7966
31.725905596152327 29.6606
31.74905181052835 29.5765
31.772199354521323 29.6295
31.79534822930507 29.589000000000002
31.818679302290967 29.639
31.84183085259981 29.6378
31.864983737233473 29.6174
31.88813795736804 29.6633
31.911474422233013 29.4882
31.934631327356435 29.6021
31.9577895715215 29.533
31.980949155906522 29.5698
32.004291031706956 29.4153
32.027453310562606 29.309
32.05061693318573 29.2749
32.07396288236386 29.307
32.09712920658542 29.2033
32.12029687812702 29.0521
32.14346589817093 29.0195
32.166817291729984 28.8627
32.18998902288583 28.8422
32.21316210610336 28.8739
32.23633654256711 28.7495
32.259693399663725 28.7105
32.282870556771144 28.633000000000003
32.30604907069099 28.6883
32.329228942610065 28.666999999999998
32.35259128243769 28.6166
32.375773884550505 28.4903
32.398957848235646 28.4602
32.422143174682176 28.4101
32.445511016471215 28.3411
32.468699082679954 28.2473
32.49188851523011 28.2651
32.51507931531304 28.1592
32.538452678331 28.2079
32.56164622776311 28.0448
32.58484114831493 27.925
32.60803744118015 28.0206
32.631416344731896 27.976
32.654615396551876 27.9396
32.67781582427913 27.9494
32.701198898634416 27.7646
32.72440209253756 27.7081
32.747606665947124 27.7349
32.77081262006088 27.608
32.79420126883317 27.6224
32.81740999876112 27.7197
32.840620112999424 27.6677
32.86383161274818 27.4662
32.88722585534586 27.6046
32.91044014056596 27.5524
32.933655814909734 27.4949
32.95687287957963 27.4868
32.98027273544904 27.4044
33.00349259526636 27.3786
33.026713849030116 27.3756
33.04993649794511 27.3199
33.073341986570746 27.2899
33.09656744032826 27.2794
33.11979429286444 27.2345
33.14302254538647 27.2932
33.166433686291185 27.1688
33.18966475336992 27.1761
33.212897224069096 27.122
33.23613109959831 27.0793
33.259547912343415 27.0417
33.2827846121627 27.1905
33.306022720453775 27.0809
33.32926223842861 26.8794
33.352684742614166 26.9505
33.37592709463173 26.9223
33.399170859982064 26.7867
33.422597648419426 26.7411
33.44584425514446 26.5715
33.46909227885668 26.6142
33.4923417207723 26.5188
33.51577423505344 26.4757
33.539026528130385 26.3514
33.56228024307245 26.4301
33.585535381098246 26.2345
33.60897364093058 26.2187
33.63223163992385 26.2643
33.6554910656699 26.2172
33.678751919389796 26.2223
33.702195944520106 26.1892
33.72545966903325 26.1274
33.74872482519663 26.0466
33.771991414233746 26.0537
33.79544122444841 26.0088
33.81871069412428 25.9549
33.84198160035767 25.9162
33.86525394437455 25.9356
33.88870955949969 25.8119
33.911984794020626 25.8207
33.93526147001624 25.7967
33.958539588715006 25.7654
33.98200102861669 25.711
34.0052820477047 25.5292
34.02856451319451 25.588
34.05203033759056 25.5839
34.07531571090147 25.3902
34.09860253431845 25.3995
34.121890809074316 25.5206
34.145362493118924 25.4255
34.16865368561615 25.3276
34.191946333164054 25.3429
34.21524043699793 25.3943
34.23871800066799 25.2953
34.26201503218366 25.2014
34.28531352370466 25.1847
34.30861347646881 25.1228
34.33209693978188 25.1561
34.3553998301885 25.1371
34.378704185565205 24.9514
34.402010007152356 24.9818
34.42549939016683 24.9205
34.44880815937748 24.8032
34.472118398533134 24.8493
34.49543010887669 24.8606
34.51892543169198 24.6839
34.54224009966052 24.7487
34.56555624255917 24.7759
34.58887386163339 24.619
34.61237514439016 24.4587
34.6356957311114 24.5562
34.65901779775809 24.464000000000002
34.68252356662995 24.5126
34.705848608458616 24.4873
34.72917513396849 24.4245
34.75250314440949 24.3088
34.77601490857862 24.3134
34.799345904259795 24.3277
34.82267838863559 24.3318
34.846012362958525 24.2706
34.869530142679984 24.2168
34.89286711232212 24.141
34.91620557568269 24.1367
34.93954553401677 24.1165
34.9630693495876 24.0348
34.986412313340814 24.1069
35.00975677584668 24.0041
35.033102738362956 23.9701
35.05663261012228 23.877
35.0799815881786 23.8275
35.10333207003229 23.7682
35.12668405694369 23.7909
35.150220005273056 23.8128
35.17357501786656 23.8513
35.19693153931268 23.7828
35.220289570874385 23.6921
35.24383161619786 23.6774
35.267192683604904 23.7042
35.290555264930376 23.6668
35.314101899412165 23.6513
35.33746752422433 23.6001
35.36083466676374 23.5913
35.38420332829803 23.5865
35.407756095629054 23.5697
35.43112781085063 23.6056
35.45450104888391 23.5593
35.477875810999194 23.5076
35.50143473172161 23.4646
35.52481255774625 23.4586
35.54819191167777 23.3638
35.57157279478914 23.366
35.595137889488406 23.3463
35.61852184675279 23.2138
35.641907337029984 23.2453
35.665294361595684 23.1353
35.68886565090076 23.1257
35.7122557598848 23.1236
35.73564740699838 23.1196
35.759040593519934 23.0829
35.78261809810353 23.0163
35.80601437933051 22.9451
35.829412203814705 22.8946
35.85281157283719 22.8369
35.876395313415884 22.8755
35.8997977874528 22.8331
35.92320180988546 22.8077
35.946790244133936 22.7189
35.97019737933222 22.7139
35.993606066789866 22.6973
36.01701630779276 22.6801
36.04061101440684 22.6321
36.06402437852291 22.5926
36.08743930005611 22.6236
36.1108557802951 22.5327
36.13445678011326 22.4783
36.15787639383515 22.4185
36.18129757014299 22.4836
36.20472031032821 22.3262
36.22832762423364 22.3886
36.25175350829375 22.3207
36.275180960119776 22.2087
36.298609981005924 22.2276
36.32222362992669 22.241999999999997
36.34565580510207 22.1399
36.36908955323448 22.1042
36.39252487562093 22.0461
36.416144880530226 22.0524
36.43958336764275 22.0669
36.463023432914625 22.0152
36.486465077645676 21.9769
36.51009145956204 22.0522
36.53353627947859 21.9833
36.55698268276811 22.0545
36.58043067073321 21.8455
36.60406345072071 21.8195
36.62751462435344 21.7729
36.65096738658405 21.8036
36.67460498210655 21.7183
36.69806093788647 21.7558
36.72151848619297 21.6625
36.744977628333636 21.6477
36.76862165890998 21.5373
36.79208400512205 21.6228
36.81554794910557 21.6673
36.83901349217101 21.4564
36.862663978991606 21.4464
36.88613273667352 21.4355
36.90960309738324 21.4242
36.933075062434064 21.313000000000002
36.95673202673572 21.3016
36.98020721697122 21.2735
37.003684015502365 21.2149
37.027162423645365 21.2002
37.050825886711465 21.1791
37.07430753063053 21.1268
37.09779078812467 21.1074
37.121275660513014 21.1211
37.144945643673694 21.0443
37.16843376245278 21.0306
37.19192350009803 21.070999999999998
37.215414857931435 20.9474
37.239091382563885 20.9212
37.262585997426164 20.8703
37.28608223645736 20.909000000000002
37.309763684451696 20.7638
37.33326318851098 20.7631
37.356764320726555 20.7841
37.380267082425526 20.8175
37.40395510942588 20.7375
37.42746114683234 20.6733
37.45096881771841 20.5111
37.474478123414166 20.6389
37.49817275092816 20.6005
37.52168534303452 20.5421
37.54519957395567 20.4819
37.568715445024665 20.4948
37.592416694607714 20.430999999999997
37.61593586281424 20.5288
37.63945667518264 20.5651
37.66297913304891 20.3784
37.68668702630454 20.3508
37.710212792059274 20.2672
37.733740207334854 20.1892
37.757269273470364 20.1868
37.780983832050374 20.1604
37.80451621684926 20.169
37.82805025654007 20.0623
37.851585952464795 20.0834
37.8753071980695 20.0152
37.89884622345676 19.9643
37.92238690911902 19.9606
37.94611318753442 19.8773
37.969657210779765 19.9402
37.99320289834801 19.9333
38.016750251586465 19.8497
38.04048325513017 19.8525
38.06403395679343 19.768
38.087586328183946 19.7718
38.11114037065203 19.7081
38.13488012115898 19.7484
38.1584375229181 19.6625
38.181996599821 19.5749
38.205557353221124 19.5974
38.229303872575656 19.5711
38.2528679961576 19.5176
38.27643380031219 19.5396
38.30000128639589 19.5383
38.32375459653193 19.5096
38.34732546371299 19.4417
38.37089801690786 19.366
38.39447225747609 19.3058
38.418232380377425 19.2799
38.441810012983396 19.2729
38.46538933705673 19.3089
38.488970353960084 19.2339
38.51273731166058 19.2575
38.536321731567014 19.1811
38.55990784840681 19.1217
38.58367995004091 19.1179
38.60726947812959 19.0412
38.63086070726198 19.0751
38.654453638806274 19.0836
38.678232613930824 19.0009
38.70182896773327 18.928
38.72542702806741 18.8518
38.7490267963045 18.9283
38.77281266709232 18.8786
38.79641586862214 18.8306
38.8200207821842 18.8404
38.843627409152944 18.8648
38.86742019782782 18.791
38.891030269149255 18.6823
38.914642058016156 18.6887
38.938255565806124 18.6933
38.96205529464307 18.6815
38.98567225787121 18.6588
39.00929094417078 18.648
39.03291135492255 18.6197
39.05671804624804 18.5011
39.080341923549106 18.527
39.103967529460334 18.4882
39.127594865365744 18.3733
39.15140854155791 18.3826
39.17503935514948 18.3464
39.19867190290282 18.3574
39.22249083587951 18.2666
39.24612686969409 18.3042
39.269764641845306 18.2515
39.293404153722804 18.2699
39.317230110864074 18.2021
39.34087311998506 18.0964
39.36451787301696 18.1246
39.388164371352595 18.1442
39.41199737518003 18.0749
39.43564738196752 18.0315
39.45929913825317 18.0506
39.48295264543308 17.9977
39.506792718520884 17.9603
39.530449745387216 17.9038
39.55410852735203 17.919
39.57776906581474 17.934
39.60161623079 17.8488
39.625280300200025 17.8213
39.64894613032202 17.7788
39.67261372255866 17.7649
39.6964680021016 17.7724
39.72013913657293 17.7533
39.74381203738292 17.6914
39.76748670593756 17.7089
39.79134812278169 17.6982
39.81502634488497 17.6164
39.83870633896685 17.6295
39.862388106436654 17.5524
39.88625668336918 17.5497
39.90994201572829 17.5519
39.933629125719285 17.4721
39.957503091207826 17.4245
39.9811937746168 17.3842
40.00488623990914 17.3755
40.02858048850006 17.3241
40.05246165409549 17.2728
40.076159487492085 17.213
40.099859108448875 17.288
40.123560518384345 17.3074
40.1474489070226 17.1931
40.171153913178564 17.1822
40.194860712584955 17.1731
40.2185693066637 17.1846
40.242464941335314 17.0938
40.26617714307655 17.0732
40.289891143772046 17.0344
40.3136069448471 17.0562
40.33750984859743 17.0388
40.3612292688043 16.9407
40.3849504936829 16.923
40.40867352466194 16.9203
40.43258372059144 16.8925
40.45631038219906 16.9405
40.48003885420956 16.8518
40.503769138055105 16.8246
40.52768664931955 16.7742
40.55142057531802 16.7856
40.57515631746428 16.7789
40.599079334038514 16.7103
40.62281872700477 16.6107
40.64655994043941 16.628
40.67030297578061 16.6239
40.69423334835778 16.6241
40.71798004609188 16.6061
40.74172857006355 16.5907
40.76547892171441 16.5134
40.7894166736039 16.4514
40.813170699248566 16.3942
40.83692655691388 16.4259
40.86068424804498 16.4343
40.884629402612525 16.3858
40.908390779366385 16.3838
40.932153993938 16.3466
40.95591904777605 16.3002
40.979871628443995 16.2721
41.003640379561936 16.2958
41.02741097430883 16.249000000000002
41.05118341413683 16.2501
41.075143444384416 16.2001
41.098919593177826 16.1378
41.1226975914255 16.1755
41.14647744058318 16.1679
41.170444943946755 16.0404
41.19422851378379 16.0173
41.218013938914645 16.021
41.24198706625173 15.9598
41.26577622087193 15.9723
41.289567235177785 15.9465
41.31336011063129 15.9098
41.337340752422875 15.9003
41.361137369129835 15.9362
41.38493585138705 15.8601
41.40873620066004 15.8166
41.43272438060107 15.7543
41.45652848292052 15.7363
41.48033445666918 15.7046
41.50414230331616 15.6753
41.528138045159764 15.672
41.551949656675205 15.6395
41.575763145513235 15.5779
41.59957851314666 15.6153
41.62358184070442 15.6029
41.64740098505737 15.4906
41.6712220126409 15.5214
41.69504492493139 15.5078
41.71905586207357 15.4302
41.74288256296395 15.4572
41.766711153007456 15.3646
41.79054163368412 15.3422
41.814560204340054 15.362
41.838394485526365 15.4141
41.86223066180303 15.3652
41.88625497706819 15.3089
41.910094962812 15.2404
41.93393684811168 15.2327
41.95778063445365 15.1671
41.981812625263366 15.1679
42.00566023303407 15.1818
42.029509746323676 15.1534
42.05336116662236 15.0879
42.077400857069705 15.1023
42.10125611078846 15.0278
42.12511327600405 15.0341
42.14897235421036 15.036
42.173019768448455 14.9514
42.19688269209613 14.9056
42.22074753323349 14.9662
42.24461429335818 14.9318
42.268669455600495 14.8825
42.292540073217886 14.8384
42.31641261433284 14.8725
42.34028708044675 14.8031
42.36435001496739 14.8229
42.38822835065557 14.8285
42.41210861586426 14.7476
42.4359908120986 14.7244
42.46006154323262 14.7077
42.48394762115317 14.6392
42.507835634632315 14.6747
42.531912233047436 14.655
42.55580413732265 14.5855
42.579697981698 14.5363
42.60359376768525 14.4915
42.62767820545945 14.5324
42.65157789440821 14.5101
42.67547952952185 14.4714
42.699383112316 14.495999999999999
42.72347541395347 14.4564
42.74738291190531 14.4414
42.771292362102166 14.4487
42.795203766063516 14.3889
42.819303956130405 14.3546
42.843219287476536 14.3251
42.86713657716324 14.2545
42.89105582671383 14.1992
42.91516392983864 14.2669
42.939087119032166 14.2242
42.963012272677304 14.1959
42.98693939230129 14.1496
43.01105543317513 14.1054
43.034986504731386 14.0913
43.05891954686589 14.0598
43.08285456110972 14.0566
43.10697856448665 13.9501
43.130917542983475 13.9295
43.15485849820081 13.9699
43.17880143167367 13.9501
43.20293342237094 13.9254
43.226880332449 13.8845
43.25082922540554 13.9114
43.27496722682525 13.8779
43.29892010567796 13.8827
43.32287497204102 13.8104
43.34683182745632 13.845999999999998
43.370977859791836 13.7058
43.39493871351105 13.7295
43.41890156092628 13.7521
43.44286640358341 13.7151
43.46702049182749 13.6769
43.49098934522816 13.655
43.51496019852649 13.6637
43.5389330532723 13.634
43.56309522248204 13.5855
43.58707210044314 13.5472
43.61105098451946 13.5532
43.63503187626491 13.509
43.659202151562134 13.4637
43.68318707902681 13.4431
43.70717401884041 13.4446
43.731162972560874 13.3908
43.75534137913236 13.3498
43.779334381108384 13.3781
43.803329401683186 13.3521
43.82732644241872 13.3672
43.8515130055166 13.3292
43.87551410707659 13.2408
43.89951723350145 13.2619
43.923709934595614 13.2158
43.94771713129917 13.235999999999999
43.97172635758096 13.2014
43.99573761501002 13.186
44.0199385169922 13.1344
44.04395385732619 13.1387
44.067971233533086 13.1255
44.09199064718605 13.0588
44.11619977548961 13.052999999999999
44.14022328470671 13.0145
44.16424883610785 13.0533
44.18827643127035 13.0227
44.21249381139513 12.9765
44.236525514814076 12.9307
44.26055926674478 12.9185
44.28459506876863 12.9243
44.3088207262813 12.839
44.33286064928722 12.7948
44.35690262714919 12.8177
44.38094666145278 12.7717
44.4051806219871 12.7769
44.42922879003185 12.7602
44.45327901929361 12.7389
44.477331311362136 12.7456
44.501573600619416 12.6755
44.525630039221795 12.6547
44.54968854541895 12.6505
44.573937102200176 12.6356
44.5979997645541 12.6191
44.622064499300315 12.549000000000001
44.64613130803592 12.5835
44.67038823869318 12.5514
44.69445921643748 12.5105
44.718532272981385 12.484000000000002
44.742607409926194 12.4818
44.76687274034801 12.4606
44.79095205918753 12.4061
44.81503346325094 12.3913
44.839116954143876 12.4126
44.86339071028742 12.3258
44.88747839599524 12.3252
44.91156817336837 12.2697
44.93566004401666 12.3355
44.959942251908146 12.269
44.984038330325966 12.2347
45.00813650686762 12.2223
45.03223678314731 12.2373
45.05652746888232 12.2084
45.08063196592069 12.1548
45.104738567558705 12.1222
45.128847275414856 12.1031
45.15314646515866 12.0651
45.17725940679741 12.089
45.20137445952892 12.1057
45.22568004865265 12.0389
45.24979934496396 12.0482
45.27392075725247 11.9727
45.29804428714431 11.9488
45.322358426247604 11.9406
45.346486212804315 11.963
45.370616121861914 11.9671
45.39474815505086 11.8757
45.41907087049246 11.8463
45.4432071734666 11.8505
45.46734560548283 11.863
45.49148616817604 11.8513
45.51581748638564 11.8091
45.5399623320197 11.7827
45.56410931325473 11.7171
45.58825843173002 11.7507
45.61259837920865 11.6675
45.636751793816 11.7156
45.66090735060093 11.6871
45.68506505120716 11.6335
45.7094136545275 11.6163
45.73357566449271 11.5697
45.75773982322992 11.5639
45.78190613238733 11.5637
45.806263418194064 11.4829
45.83043404997326 11.5443
45.85460683713677 11.5018
45.87897065658495 11.5235
45.90314777634752 11.4178
45.92732705646868 11.4061
45.9515084986045 11.3756
45.97588104735473 11.3817
46.00006683541565 11.3627
46.02425479047904 11.3541
46.04844491420549 11.3442
46.0728262191024 11.3423
46.09702070211635 11.3054
46.12121735879483 11.2558
46.14541619080294 11.27
46.169806278764455 11.2173
46.194009483459034 11.232999999999999
46.21821486849841 11.2337
46.24242243555223 11.1862
46.266821333570014 11.1429
46.29103328674601 11.1277
46.31524742696538 11.1392
46.33946375590237 11.0729
46.36387149104216 11.1077
46.38809221957392 11.0299
46.41231514186606 11.027000000000001
46.436540259597464 11.0191
46.460956858999374 11.0142
46.48518638983522 10.9893
46.509418121166966 10.9427
46.533652054678114 10.9162
46.55807754555709 10.8899
46.58231590571962 10.9004
46.60655647313217 10.8684
46.630988654873654 10.8381
46.655233659129024 10.8439
46.67948087571551 10.8245
46.70373030632484 10.8056
46.72817142736393 10.7913
46.752425308428684 10.7285
46.77668140861147 10.7469
46.80093972960865 10.7006
46.82538981736788 10.7001
46.849652602470904 10.6746
46.87391761349769 10.6821
46.8981848521493 10.6112
46.9226439341274 10.6178
46.946915650573224 10.6251
46.97118959976749 10.5784
46.99546578341598 10.5126
47.019933887188216 10.5007
47.04421456235744 10.5132
47.06849747711879 10.5096
47.09278263318286 10.5048
47.11725978640143 10.4115
47.14154944775105 10.4296
47.165841355555656 10.3862
47.1901355115306 10.411
47.214621741924994 10.4228
47.23892041698887 10.3614
47.26322134538975 10.3258
47.28771440635075 10.3037
47.31201986422527 10.3221
47.33632758061436 10.2655
47.360637557241866 10.2442
47.38513974410611 10.2362
47.40945426407847 10.1854
47.43377104948137 10.227
47.45809010204344 10.1961
47.48260144275502 10.1728
47.506925052572285 10.1228
47.53125093475548 10.1149
47.55557909103813 10.0509
47.58009961361992 10.0692
47.60443234110732 10.0892
47.62876734791564 10.0704
47.65310463578333 10.0284
47.6776343683373 10.0231
47.7019762413987 9.97277
47.72632040075572 9.993219999999999
47.75066684815169 9.97991
47.77520581885936 9.92457
47.799556865477655 9.87814
47.823910205386 9.88856
47.84826584033272 9.8433
47.87281407745551 9.8014
47.89717432569297 9.86261
47.92153687423484 9.8183
47.94609208429692 9.817739999999999
47.97045925671401 9.815
47.99482873471275 9.76207
48.01920052005013 9.76171
48.04376504619224 9.73316
48.068141469543484 9.776580000000001
48.09252020552573 9.71927
48.11690125590099 9.6964
48.1414751266064 9.68142
48.16586082917454 9.65494
48.19024885144316 9.64012
48.2146391951793 9.619660000000001
48.239222439012764 9.60613
48.26361744916137 9.6129
48.28801478610016 9.57896
48.31241445160131 9.58352
48.337007097209366 9.557139999999999
48.36141144338331 9.512189999999999
48.38581812345755 9.492560000000001
48.41022713920929 9.509780000000001
48.434829215320704 9.45825
48.45924292604658 9.48066
48.48365897780325 9.4768
48.50807737237308 9.41832
48.532688907799276 9.420630000000001
48.55711201168574 9.4461
48.581537463754074 9.37241
48.60615611725119 9.404580000000001
48.63058628942721 9.37504
48.65501881516546 9.32572
48.6794536962573 9.315489999999999
48.70408185970339 9.28348
48.72852147531801 9.24308
48.75296345168211 9.251380000000001
48.77740779059232 9.23185
48.80204549302823 9.22449
48.82649458091802 9.184330000000001
48.85094603676547 9.19282
48.87539986237231 9.169839999999999
48.90004713292306 9.17048
48.92450572200832 9.152289999999999
48.94896668628025 9.08977
48.97343002754588 9.08058
48.99808689542115 9.08699
49.02255501470614 9.07872
49.04702551642794 9.035160000000001
49.0714984023988 9.018939999999999
49.096164896893235 9.02183
49.120642575466796 9.05954
49.145122643748394 8.99521
49.16960510355558 8.94705
49.19428125404938 8.97157
49.2187685210852 8.934239999999999
49.243258185121555 8.92157
49.26794160167084 8.88138
49.2924360839405 8.84839
49.31693296869764 8.83988
49.34143225776915 8.8644
49.36612538195438 8.84956
49.39062950396021 8.800839999999999
49.41513603578346 8.78417
49.4396449792564 8.718960000000001
49.46434784069503 8.75487
49.488861631846454 8.72085
49.513377840166804 8.69028
49.537896467493745 8.67116
49.56260909589029 8.660839999999999
49.587132585683285 8.65563
49.611658500018365 8.63165
49.636186840738596 8.61491
49.66090926588511 8.63388
49.685442483902584 8.57685
49.70997813385706 8.56347
49.734516217597076 8.559460000000001
49.75924846937352 8.51835
49.7837914452858 8.55056
49.80833686055187 8.48697
49.83288471702571 8.50015
49.85762682540054 8.47707
49.882179588965734 8.47146
49.9067347993235 8.45978
49.93129245833333 8.44018
49.95604445336378 8.40916
49.98060703442832 8.38845
50.005172069746266 8.38068
50.02993150438364 8.3734
50.05450147301533 8.39839
50.07907390151433 8.34126
50.10364879174981 8.31148
50.12841816587289 8.315610000000001
50.1529980044635 8.28425
50.17758031042124 8.28011
50.20216508562089 8.28022
50.22694442953363 8.24521
50.25153416817468 8.226939999999999
50.27612638170508 8.236889999999999
50.300721072005196 8.1608
50.325510416102105 8.157760000000001
50.350110084975064 8.1477
50.37471223628208 8.1291
50.39931687190919 8.122689999999999
50.424116246675766 8.13301
50.44872587605249 8.13851
50.47333799543065 8.0967
50.49795260670191 8.06366
50.52276204271512 8.042069999999999
50.54738166295838 8.09698
50.57200378079314 8.048860000000001
50.596628398116835 8.005980000000001
50.62144792604559 8.02563
50.646077567609396 7.996239999999999
50.670709714377715 7.972860000000001
50.69553683636198 7.94498
50.72017401885922 7.92047
50.7448137122895 7.906680000000001
50.76945591856022 7.889589999999999
50.79429318636823 7.864
50.818940443716784 7.88055
50.84359021965163 7.8095
50.868242516085964 7.85105
50.893089960641895 7.8387199999999995
50.917747323549435 7.79016
50.94240721271973 7.7976399999999995
50.96706963007175 7.77043
50.99192728239342 7.77235
51.01659478166073 7.748360000000001
51.04126481489051 7.7446
51.06593738400761 7.725169999999999
51.090805275207074 7.7415
51.11548294172845 7.7024
51.14016314993547 7.710489999999999
51.164845901758845 7.6231800000000005
51.18972406304274 7.66149
51.21441192780656 7.6397
51.23910234200271 7.6276
51.2637953075678 7.59019
51.288683770237945 7.57567
51.31338186432707 7.56826
51.33808251561888 7.5393300000000005
51.362978729967345 7.532660000000001
51.387684521509755 7.525289999999999
51.41239287610203 7.48693
51.437103795691165 7.4745
51.46201036644977 7.49262
51.486726441956634 7.47587
51.51144508832545 7.428139999999999
51.536166307509156 7.46148
51.56108326624387 7.40867
51.58580965706056 7.417269999999999
51.61053862657523 7.380889999999999
51.635270176746864 7.35555
51.66019755512065 7.363360000000001
51.68493429268881 7.33621
51.70967361681515 7.33379
51.73441552946465 7.30282
51.759353359237934 7.27981
51.7841004750961 7.31071
51.80885018539685 7.26722
51.833602492111254 7.273810000000001
51.8585508051424 7.19923
51.883308330926425 7.210439999999999
51.90806845906181 7.180839999999999
51.932831191525715 7.17205
51.95779001977161 7.13421
51.98255798721516 7.119730000000001
52.00732856494335 7.1310899999999995
52.03229530577543 7.097510000000001
52.057071130455945 7.10009
52.081849571391054 7.100639999999999
52.106630630568695 7.0983600000000004
52.13160794279417 7.02319
52.15639426492067 7.03101
52.18118321127822 7.0281
52.205974783860896 7.0243
52.23096269971011 6.96963
52.255759551287994 6.98378
52.280559035098186 6.97491
52.30536115314103 6.966260000000001
52.33035970494467 6.95062
52.35516711807904 6.94853
52.37997717147198 6.915839999999999
52.40478986713005 6.942310000000001
52.42979908731974 6.88857
52.454617094216 6.8761600000000005
52.47943774942214 6.88179
52.50426105495102 6.87375
52.529280976059844 6.839930000000001
52.554109609024096 6.8223899999999995
52.57894089837482 6.81137
52.60377484613117 6.835560000000001
52.62880550079408 6.80967
52.65364479223379 6.777489999999999
52.67848674816189 6.7588
52.70352547971946 6.7422699999999995
52.72837279155837 6.74555
52.753222773982785 6.681089999999999
52.778075429022984 6.64083
52.80312495150885 6.72848
52.827982978797436 6.68197
52.85284368481815 6.6349100000000005
52.87770707160767 6.64318
52.90276741793998 6.6052100000000005
52.92763619336701 6.576039999999999
52.952507655698504 6.594530000000001
52.977381806977576 6.587160000000001
53.00245301017842 6.596310000000001
53.02733256653592 6.565110000000001
53.052214817996074 6.53734
53.077099766608484 6.53604
53.102181859804446 6.51657
53.127072229988265 6.50681
53.15196530349892 6.51161
53.17686108239249 6.48583
53.20195409881522 6.46339
53.22685531582556 6.46552
53.25175924441303 6.387490000000001
53.27666588664027 6.4387300000000005
53.30176985962693 6.484
53.3266819565689 6.4189099999999994
53.35159677336455 6.42359
53.376514312083096 6.36285
53.40162927507703 6.33772
53.42655228516116 6.3344
53.45147802340193 6.32754
53.47660125628886 6.311780000000001
53.50153247842639 6.31266
53.52646643496923 6.24831
53.55140312799818 6.23821
53.576537409691696 6.27227
53.60147960336152 6.27082
53.626424539786164 6.21655
53.65137222105307 6.2622599999999995
53.67651758529126 6.19706
53.70147078399681 6.16936
53.72642673383343 6.160880000000001
53.75138543689533 6.14826
53.776541917524526 6.172619999999999
53.801506154876755 6.17117
53.826473151763246 6.17172
53.851442910284916 6.074990000000001
53.87661054126026 6.0677900000000005
53.9015858509782 6.08709
53.92656392866066 6.03306
53.95154477641532 6.03434
53.976723591801296 6.05075
54.00171000771266 6.00914
54.02669920004598 6.02766
54.051691170915745 5.9833
54.076881204886796 5.99594
54.101878760928514 5.997380000000001
54.12687910187696 5.94902
54.152077577768296 5.92439
54.1770835166946 5.88232
54.20209224691339 5.92662
54.22710377055121 5.91404
54.25231352511594 5.9040099999999995
54.27733066384342 5.87833
54.30235060239643 5.86492
54.32737334290836 5.83694
54.35259441062629 5.8217099999999995
54.377622783395324 5.80469
54.40265396455061 5.79552
54.42768795623251 5.775919999999999
54.45292037169559 5.76464
54.477960012857906 5.737019999999999
54.50300247099511 5.7500800000000005
54.52804774825457 5.7299
54.55329154616743 5.70716
54.57834249018678 5.69727
54.6033962597977 5.66449
54.6284528571545 5.63321
54.653708072335164 5.577030000000001
54.67877035378786 5.624140000000001
54.70383546947698 5.57549
54.72890342156389 5.57324
54.7541700889442 5.53149
54.77924374251975 5.45747
54.8043202390049 5.48209
54.82959552413022 5.44554
54.8546777351945 5.4360800000000005
54.87976279569621 5.40914
54.90485070780914 5.43171
54.930137506558005 5.37477
54.95523115074295 5.38055
54.98032765308844 5.35608
55.005427015775496 5.35301
55.03072536339621 5.34788
55.05583047570572 5.34158
55.080938454927676 5.26751
55.10604930325027 5.20132
55.131359235107396 5.229030000000001
55.15647585066083 5.19626
55.181595341907496 5.18774
55.20671771104285 5.17132
55.232039262617704 5.17256
55.25716741665048 5.21582
55.28229845518636 5.16739
55.30743238042802 5.0695
55.33276558731939 5.02655
55.357905315183636 5.03683
55.383047936390035 5.03871
55.40819345314859 4.9945699999999995
55.433538351073295 4.9999400000000005
55.458689688238415 4.95524
55.483843927614096 4.90875
55.509197623043605 4.9132
55.53435769621134 4.82025
55.55952067826466 4.84592
55.5846865714265 4.866230000000001
55.61005202069737 4.83831
55.63522376553902 4.86123
55.66039842818645 4.796209999999999
55.68557601087004 4.743519999999999
55.7109532500271 4.76714
55.73613670233794 4.76169
