TT I
1.2716486653135266 7.33322
1.2939594142134223 7.3031
1.3162702121660406 6.63157
1.3385810600174564 6.54781
1.3608919586137629 6.75237
1.383202908801069 6.36615
1.405513911425503 5.81151
1.4278249673332093 6.18164
1.4501343378461518 6.03753
1.4724455028545926 5.94177
1.4947567236847858 5.9937
1.517068001182951 6.01144
1.5393793361953272 5.92623
1.5616907295681737 5.4906
1.5840021821477681 5.2843
1.60631369478041 5.08293
1.6286252683124185 4.5503
1.6509369035901333 4.36885
1.6732468618895553 5.01583
1.695558623192809 4.83991
1.7178704487808514 5.737419999999999
1.7401823395001077 5.00362
1.7625012545597203 4.56647
1.7848028405262486 4.64456
1.8071218901122095 4.34455
1.8294236121921872 4.41338
1.8517427996910911 4.18403
1.8740620574440425 4.78296
1.8963639900671978 4.812119999999999
1.9186833908139995 4.27703
1.9409854680117449 4.59134
1.9633050151394713 5.548719999999999
1.9856246367570705 4.78664
2.0079269371922672 4.17813
2.03024671027244 4.20936
2.0525491637446027 4.94763
2.074869091674931 4.73726
2.097171701569106 4.9748
2.1194917877373847 4.75188
2.141811954326636 4.30037
2.164114805233074 4.371230000000001
2.186435135143035 5.25304
2.208738150935709 10.5713
2.231058647554722 18.1043
2.2533792288321184 14.4561
2.275682498336085 7.09589
2.298003251406138 5.61868
2.3203066942619714 5.49291
2.3426276225136022 5.39163
2.3649486396617507 5.9583
2.387252348930071 5.63505
2.4095735463442893 6.272819999999999
2.4318774374315884 6.24146
2.4541988185014043 6.28252
2.476502894794693 6.91593
2.498824462909887 6.428669999999999
2.521146125856138 6.662139999999999
2.5434504863470337 7.218030000000001
2.5657723414244717 7.1067
2.588076895590662 7.269239999999999
2.610398946189713 8.098360000000001
2.6327210958598384 7.3763
2.6550259469304716 7.681439999999999
2.6773482972090137 8.06223
2.6996533504259 7.76386
2.7219759047039602 8.3638
2.744298562293959 7.263960000000001
2.7666039251246595 7.60376
2.7889267918020164 8.488710000000001
2.8112323652516555 8.4631
2.833555444408179 8.462539999999999
2.8558786311183852 8.150960000000001
2.8781845268938557 8.63597
2.9005079311721484 9.02537
2.9228140460410397 9.69668
2.9451376712799635 9.38851
2.967444008632326 9.569980000000001
2.9897678582247247 10.1804
3.0120918213106695 10.7109
3.0343984987899373 10.6635
3.0567226913198637 10.7524
3.079029599759726 11.704
3.101354025127254 12.3417
3.123678568232338 13.1256
3.145985829517914 12.6406
3.16831061055229 12.9455
3.1906181112775593 14.0131
3.212943133635653 14.8877
3.2352682779763207 15.1854
3.2575761442691227 15.1441
3.2799015350264273 15.7901
3.302209649240067 16.0777
3.3245352898092655 16.4007
3.3468436553365257 17.1249
3.369169549113219 17.5172
3.3914955708171384 18.6556
3.413804319727358 18.4821
3.4361305997334863 19.288
3.4584396084414553 19.9544
3.4807661501462652 20.2899
3.503092824025881 20.2752
3.5254022288463154 21.0412
3.5477291695206588 21.609
3.5700388426251948 22.2891
3.5923660534916446 23.05
3.6146934007816114 32.0113
3.637003482731501 59.9234
3.6593311053109985 65.8839
3.681641464033634 42.6199
3.7039693653009733 27.6125
3.726297407241705 25.4833
3.7486081875460804 25.4839
3.7709365132734978 26.0563
3.793247578841633 26.7966
3.8155761917550093 26.2666
3.8378875459837216 27.096999999999998
3.8602164494827234 27.4229
3.882545499606844 27.7887
3.9048572932539183 28.4733
3.9271866390645718 29.112
3.9494987298666713 29.6172
3.971828374764527 30.4513
3.9941581705403255 30.7483
4.016470713506008 31.3547
4.038800813471445 32.3076
4.061113662089144 32.8824
4.0834440696459176 33.2494
4.105774632334751 33.7782
4.128087945865126 34.1873
4.150418821249301 35.2346
4.172732448931298 36.1532
4.195063640413578 37.5178
4.2173775856475215 40.8172
4.239709096631102 59.7348
4.262040768704612 151.457
4.284355196706267 197.04
4.306687193387355 131.078
4.329001947444346 63.0921
4.35133427213731 45.5679
4.373666762177566 44.0772
4.395982011761091 44.4078
4.418314834921175 45.5871
4.44063041906622 50.5221
4.4629635787515625 57.0453
4.4852969080429785 57.0509
4.5076130004776225 52.5014
4.529946671403969 52.4281
4.552263106909177 53.8862
4.574597122877047 53.4209
4.596931312711224 53.0616
4.619248269273446 53.8038
4.6415828092605835 54.76
4.663900117405352 55.9463
4.686235010953232 57.6908
4.708552674085913 58.7185
4.730887924602802 60.1496
4.753223354952695 62.1276
4.775541557023902 63.8397
4.797877349456786 66.5313
4.820195915032126 67.4788
4.842532072957498 67.8971
4.864868414979744 70.2644
4.88718753227192 73.5914
4.909524244902505 75.4732
4.931843734218147 76.4171
4.954180820867835 78.3258
4.976518095879839 81.955
4.998838149695359 84.9949
5.021175803844231 88.6932
5.043496238205739 92.2244
5.065834274903528 96.3779
5.088172504230693 102.061
5.1104935158799565 109.021
5.132832132875765 127.905
5.155153533596801 163.687
5.1774925416746225 212.59400000000002
5.199814334878411 459.033
5.2221537374521505 1254.81
5.244493338631803 3210.03
5.266815727034316 7798.66
5.289155727832427 12303.4
5.311478517248165 8412.49
5.333818921080011 2823.81
5.356159527788849 581.687
5.3784829252032536 196.77900000000002
5.400823940070432 150.691
5.423147747031976 131.67600000000002
5.445489173474152 121.391
5.467830807066149 116.956
5.490155234831516 113.814
5.512497285125229 109.51700000000001
5.534822130975162 106.176
5.557164601388673 103.51799999999999
5.579489868738879 100.65700000000001
5.601832762690846 99.167
5.6241758697774475 98.1698
5.646501775867269 97.0715
5.668845311622074 95.7975
5.691171647754637 95.4072
5.713515615597765 94.4111
5.735859800852677 93.7945
5.758186788542988 93.7966
5.780531411018185 94.8521
5.802858837297399 94.5466
5.825203900414495 94.8934
5.8475491852224 96.1588
5.869877275883075 96.6357
5.892223006467101 96.5075
5.914551544266608 97.3024
5.936897724049891 100.552
5.959244129804903 108.426
5.981573344815301 139.20600000000002
6.0039202049061 265.36
6.026249875609095 550.472
6.04859719346037 1109.08
6.070927323278297 2374.3
6.093275102315365 4488.24
6.115623113320588 5530.83
6.137953938319995 3389.19
6.160302415650845 1056.55
6.182633708324452 247.98
6.2049826554078376 115.51799999999999
6.227331838745022 93.7396
6.249663839443684 85.9836
6.27201349767565 82.2981
6.294345974611799 84.375
6.316696111167083 89.7511
6.339046488263839 86.1486
6.361379686074702 76.5891
6.383730546639482 71.5475
6.406064229255215 69.8091
6.428415576718203 69.5181
6.450749747566656 68.4214
6.47310158535871 66.9478
6.495453669698332 65.4081
6.517788579421056 64.82
6.540141159237969 63.773999999999994
6.562476565766648 63.2299
6.5848296444934045 62.778
6.607182974060425 62.3534
6.6295191323281015 62.5855
6.651872965955752 64.4303
6.6742096296068985 78.9885
6.6965639707294615 104.749
6.71891856698715 105.304
6.741255995248479 79.4928
6.763611104154477 64.007
6.785949046381137 59.6228
6.808304671371482 58.8963
6.8306605557940046 59.0537
6.852999275508618 57.968
6.875355681171544 57.3849
6.897694923437771 56.8573
6.92005185377892 56.6432
6.9423916220322655 56.9493
6.964749080490181 55.93
6.987106804399774 55.6729
7.009447368180821 56.0043
7.031805625367033 55.5118
7.054146723727803 55.7329
7.076505517631004 55.3198
7.098864581288365 55.346000000000004
7.121206488070854 55.1074
7.143566093607822 54.9201
7.165908543567245 55.4779
7.188268694426048 55.7206
7.2106291193438095 55.5028
7.232972390625943 56.1304
7.255333366030969 63.5642
7.277677189091925 93.5916
7.300038718428332 121.059
7.322400526130865 105.742
7.344745183422596 74.3813
7.367107550224791 58.5624
7.389452767901992 55.7199
7.411815697249891 54.9496
7.434161478756298 54.4468
7.456524974096713 54.1536
7.478888753837185 54.0909
7.501235387657368 54.8183
7.523599738562711 54.6445
7.545946944825532 54.9203
7.568311870344528 55.3003
7.5906770845765665 55.4496
7.613025156078678 56.2464
7.635390950099687 57.0032
7.657739602662809 56.6148
7.680105979923558 55.8897
7.702472650212829 56.6408
7.724822180948224 56.4517
7.747189439655568 56.6461
7.769539560075357 56.1495
7.791907410653562 56.7402
7.81425812420825 56.8038
7.836626570110925 56.9564
7.858995315087906 57.8707
7.881346924933401 58.037
7.903716270417482 58.7121
7.926068482028405 58.7199
7.948438431475253 59.5442
7.9708086843180235 59.9026
7.993161805171116 60.7497
8.015532667162402 61.1818
8.037886398416653 62.3927
8.060257873014221 62.6432
8.082629655331942 63.6291
8.104984308787587 64.2445
8.127356708900503 66.7756
8.149711981398308 70.6184
8.172085002766314 72.5911
8.194458336181368 70.5815
8.216814543847752 69.4848
8.23918850371002 70.0509
8.26154533906492 70.9089
8.283919928836452 72.2402
8.306277395339652 73.4493
8.328652618483376 75.0202
8.351028159736202 77.0067
8.373386579575245 79.2065
8.395762759396959 80.9499
8.418121819038275 85.2775
8.440498640894003 94.8385
8.462875785192262 107.645
8.485235811156207 132.879
8.507613602688501 193.201
8.529974277114228 292.379
8.552352719347912 437.17199999999997
8.574731488360351 715.55
8.59709314210385 1226.84
8.619472567021075 1869.35
8.64183487789147 2173.14
8.664214962183097 1766.01
8.686577933647762 941.1030000000001
8.708958680784317 378.349
8.731339760774953 163.437
8.753703729764451 111.574
8.77608547780821 100.17200000000001
8.798450116065078 96.3403
8.820832535634787 93.5113
8.843215292401656 92.1891
8.865580941199045 91.0843
8.887964374703538 89.5084
8.910330701447199 90.4908
8.932714815164482 90.9868
8.955099270424924 89.773
8.977466620733543 87.5205
8.999851761421976 85.7076
9.022219798361645 84.4565
9.04460562795561 84.2077
9.066991803441677 83.9997
9.089360876979615 83.5947
9.111747746589993 83.6124
9.13411751544971 82.9239
9.156505082664324 82.2202
9.178875550323522 82.89
9.20126381862328 82.772
9.223652438908596 82.8515
9.246023961427412 83.3035
9.26841328802173 83.1574
9.290785518039224 82.9455
9.313175554425882 83.9526
9.335565947154315 84.4279
9.357939245086508 84.3964
9.380330352834827 84.6655
9.40270436697103 84.695
9.425096193225055 84.4456
9.447488380180165 85.3273
9.469863475295412 84.9456
9.492256385987508 84.6969
9.514632206018318 85.3456
9.537025843935714 86.4272
9.559402392368193 87.3727
9.581796761000229 88.7733
9.604191496441521 89.8806
9.626569144158516 92.4654
9.648964615551032 95.3465
9.671343000390081 96.0897
9.693739211225699 95.381
9.716135793237463 93.8989
9.738515290448102 93.8813
9.760912617143402 95.1011
9.783292860202891 96.6862
9.805690935076182 98.3829
9.828089385495742 99.1504
9.850470754023561 101.22
9.872869957865444 106.85700000000001
9.89525208097539 116.22399999999999
9.917652041736662 125.425
9.940052382417589 132.32299999999998
9.962435644102392 157.46200000000002
9.984836746950979 207.528
10.007220771957746 273.656
10.029622640473708 380.13699999999994
10.052007432299963 568.721
10.074410069984072 856.702
10.096813093716005 1274.84
10.119199042482517 1708.22
10.141602840636468 1895.71
10.163989564971628 1517.84
10.186394141051062 854.3839999999999
10.208799107559706 371.825
10.231187001965623 181.58
10.253592751657669 125.764
10.275981430388155 113.397
10.298387966769793 111.652
10.320794897965431 112.064
10.343184759907361 110.929
10.36559248305461 107.211
10.387983138083852 106.291
10.410391656691655 113.221
10.432800574501677 126.725
10.455192425893369 143.619
10.47760214443012 170.5
10.499994797678786 216.998
10.522405320453982 298.407
10.54479877906917 412.712
10.567210109595656 523.354
10.5896218454736 567.413
10.612016518879773 501.469
10.634429067781074 332.845
10.656824555333241 192.335
10.679237920773568 120.277
10.701651695961992 95.6451
10.724048411481384 89.5253
10.746463008485165 86.9754
10.768860546937125 85.3254
10.791275969274796 83.6723
10.81369180576079 82.6976
10.836090585366925 81.5675
10.858507252467449 80.2152
10.88090686379991 79.3261
10.903324365036394 78.5881
10.925724811614439 78.089
10.948143150509463 78.9434
10.970561909719066 78.3125
10.992963615930844 76.9135
11.015383218085756 75.2647
11.037785768347074 73.4013
11.06020621697282 73.0391
11.082627090322113 72.3742
11.105030913430326 72.122
11.12745263854165 72.4834
11.149857314510728 73.7773
11.172279894912576 77.0446
11.194702904450653 76.8714
11.217108866490921 74.3425
11.239532736615194 71.7972
11.26193956033512 70.2117
11.284364294577085 69.6853
11.306789462371718 68.324
11.329197585398376 67.509
11.351623622610898 67.3659
11.37403261614354 66.1589
11.396459526308487 66.3757
11.418869393879497 65.8319
11.441297180532617 65.4945
11.463725406927658 64.9101
11.486136592353875 64.9664
11.508565700543707 65.0724
11.530977768845315 66.173
11.553407762368774 66.5402
11.575838200059769 66.3547
11.598251599479612 65.0039
11.620682927815501 64.1348
11.64309721895548 63.8279
11.665529441478206 63.6258
11.687962112597958 63.4989
11.710377748130886 63.2998
11.732811318753434 63.1878
11.755227854859067 63.2517
11.777662328529495 63.0042
11.800079768750786 62.7615
11.822515149015453 62.8417
11.844950984084935 63.17100000000001
11.867369787303163 62.7833
11.889806534289491 62.7272
11.912226250487029 63.1847
11.934663912939751 63.4565
11.9571020346363 63.6304
11.979523127133968 63.3632
12.001962169624331 64.6513
12.024384183972964 66.5796
12.046824150809913 70.1069
12.069264581333726 75.2641
12.091687985297767 82.0278
12.11412934550045 91.5946
12.136553680195208 106.346
12.158995973632788 129.362
12.181438735204349 156.07399999999998
12.20386447284199 184.96400000000003
12.226308172985636 201.792
12.24873485024193 197.202
12.271179492516982 161.221
12.293607112949127 119.68
12.316052700916226 89.8053
12.338498763250042 74.9208
12.360927805303868 68.2217
12.383374818673879 65.6962
12.405804812803074 64.8231
12.428252780773262 64.59100000000001
12.45070122756722 64.5238
12.473132656675375 64.4227
12.49558206341869 64.8455
12.518014453510101 65.0675
12.540464823770117 65.0542
12.562915677315177 65.0392
12.58534951575545 65.5588
12.607801338171472 66.499
12.630236146511358 70.0139
12.652688941369085 72.4221
12.675124723177234 73.0375
12.697578494048786 71.3864
12.720032754458185 69.1737
12.742470003354093 68.1271
12.764925245138771 68.0239
12.787363476431278 68.4906
12.809819703166806 68.8842
12.83227642391173 69.691
12.854716135692716 70.0771
12.877173846755147 71.223
12.899614549869717 71.7326
12.9220732548287 72.5856
12.94453245827299 73.0558
12.966974655289818 74.1571
12.989434858002571 75.0518
13.011878055298721 75.6873
13.034339260862497 76.757
13.056800969391883 77.9682
13.079245674017244 80.7966
13.101708390774869 84.9547
13.12415410463411 94.2718
13.146617833206086 106.198
13.169064559883248 117.684
13.191529303857127 133.107
13.213994557076367 158.159
13.236442809902437 196.977
13.258909083908291 250.774
13.28135835851934 308.945
13.30382565690295 373.686
13.326293469022952 424.414
13.348744283242008 423.879
13.371213125129904 345.51199999999994
13.39366497011003 251.77900000000002
13.416134845360597 167.11599999999999
13.438605238843131 121.973
13.46105863690397 108.74600000000001
13.483530069144786 110.712
13.505984506951902 116.45299999999999
13.528456981549432 126.993
13.550929978879088 143.174
13.573385983253365 168.13400000000001
13.595860028340867 206.733
13.618317081455832 256.653
13.64079217790333 308.466
13.663250283359057 353.029
13.685726434770173 366.67800000000005
13.708203115221277 333.94800000000004
13.730662806148091 255.201
13.75314054697177 181.767
13.775601299246777 125.80799999999999
13.798080104050406 96.6032
13.820559442405358 85.2577
13.843021793671388 82.1549
13.865502201420897 80.6548
13.887965623051947 79.9412
13.910447103807167 78.8009
13.932929122629764 77.6584
13.955394156785959 77.3939
13.977877254034569 76.48
14.000343367582113 75.6262
14.022827546871707 74.982
14.045294743423524 74.165
14.06778000837062 73.7558
14.090265817715476 73.5285
14.112734645763819 73.0109
14.13522154619454 72.671
14.157691466286913 72.6099
14.180179461423874 72.2887
14.202668005486178 71.7407
14.22513957064374 70.9795
14.247629214846473 71.097
14.270101881097517 70.6432
14.29259262906496 70.7158
14.315083930490205 71.0726
14.337558255389705 71.227
14.360050666019726 71.1221
14.382526101071944 70.3457
14.405019624534942 69.6252
14.427513705993134 69.4105
14.449990813291825 69.3754
14.47248601302899 69.4336
14.49496423954951 69.4092
14.517460561197822 69.333
14.539939910570322 68.9915
14.562437357763558 69.3418
14.58493536931253 70.2654
14.607416409993311 70.7125
14.62991555254159 71.2852
14.652397725157423 71.6487
14.674898002342799 71.3392
14.697398848433282 71.1574
14.719882725991326 72.4541
14.74238471217934 74.4272
14.764869730765593 78.8453
14.787372860692983 82.1364
14.809876564079925 86.4921
14.83236330125751 92.4883
14.854868153850365 101.777
14.877356041159485 116.221
14.899862046604186 134.77100000000002
14.922351087688757 158.225
14.944858249632887 185.52
14.967365991421232 210.449
14.989856770231246 223.463
15.012365673994204 218.253
15.03485761569738 185.657
15.05736768508665 145.311
15.07987833888692 111.117
15.102372032001655 88.7336
15.124883856909658 76.7091
15.14737872204565 72.37899999999999
15.169891721717274 70.6286
15.192405310371893 70.4781
15.214901940621196 70.5011
15.237416709527137 70.41199999999999
15.259914520936249 70.5569
15.282430473753607 69.4536
15.304947020131227 68.7022
15.327446610371178 68.1505
15.349964346154254 67.3833
15.372465126703139 67.1787
15.394984055556009 66.8726
15.417486030076159 66.7261
15.44000615566487 66.5813
15.462526881230803 66.4601
15.485030653812652 66.6035
15.507552581617434 66.2724
15.530057557334603 66.5619
15.55258069104857 66.5974
15.575104429329837 66.8774
15.597611216864632 66.3474
15.620136166564563 67.3085
15.6426441664095 68.8002
15.665170331202765 71.735
15.687697105158826 74.7695
15.710206930593545 78.3418
15.732734925158933 82.4845
15.755245972089478 89.2531
15.77777519094324 99.2224
15.800287463046663 112.65899999999999
15.822817909869592 130.997
15.84534897229804 150.41899999999998
15.867863089299354 172.793
15.890395385222186 189.638
15.912910736597423 194.206
15.935444269699861 180.326
15.957978423016485 151.414
15.980495633101265 120.037
16.003031029129367 94.4289
16.02554948280019 75.5668
16.048086125229432 67.3574
16.070623392487107 64.77
16.09314371869582 63.952
16.11568223789321 63.0795
16.13820381691126 62.1365
16.160743591742527 61.4602
16.183283996022084 60.7713
16.205807461423195 59.6501
16.228349126881973 58.982
16.25087385432698 59.0155
16.27341678466365 58.6069
16.29594277784926 58.4688
16.31848697676433 58.4885
16.341031811604868 58.4911
16.36355971058487 58.5006
16.3861058195587 58.0334
16.40863499352978 57.3412
16.431182380342005 56.6982
16.453730407713202 56.4068
16.476261501364792 56.0652
16.498810812136167 55.824
16.52134319004079 56.0143
16.54389378792203 55.8056
16.566445031001553 55.6529
16.588979342490088 55.4956
16.61153187824822 55.3363
16.634067483263312 55.236000000000004
16.656621315414416 55.2332
16.679175797408888 54.6499
16.701713349928728 54.8694
16.72426913389191 55.0948
16.74680798922351 55.2185
16.76936507887444 55.0262
16.791905240734874 55.14
16.814463639794468 55.0875
16.837022695210294 55.0583
16.859564824093756 55.3735
16.882125194503903 55.8046
16.904668639217885 56.2923
16.927230328348003 56.5067
16.949792678493612 56.6822
16.972338104193863 56.3358
16.994901778652235 56.0793
17.017448529496576 55.9964
17.040013531998152 56.4627
17.06257920018044 57.2466
17.0851279459922 57.9223
17.107694947817667 58.5814
17.130245028099072 59.285
17.15281336730298 61.0136
17.17536478578733 62.628
17.19793446610687 64.8511
17.220504818648422 67.8889
17.243058251703697 71.1875
17.265629950971032 75.13
17.288184731571736 79.1559
17.310757781306908 82.9873
17.33333150794385 83.8739
17.355888317140174 81.9273
17.37846339986244 77.4527
17.401021565958885 71.0546
17.42359800851343 65.7423
17.44617513265564 62.2094
17.468735341390783 60.565
17.491261035594565 59.5815
17.51396340099364 59.2797
17.536490463869136 59.475
17.559018209820174 59.441
17.58154663977963 59.6423
17.604251766089718 60.0683
17.626781572227713 60.253
17.64931206518155 60.3222
17.671843245885103 60.7114
17.69455114821572 60.881
17.717083712612634 61.1444
17.739616967569667 61.2668
17.762150914021706 61.9156
17.78486160749854 62.0828
17.807396945166804 62.9956
17.829932977143503 64.4508
17.85246970436452 66.1581
17.875183204129467 68.0379
17.897721330097664 70.0127
17.920260154126645 72.3761
17.942799677153296 75.5851
17.9655159983646 79.7406
17.988056927677544 85.395
18.010598558807683 93.1793
18.033140892692916 102.977
18.05586005052525 112.727
18.07840379824407 123.76
18.10094825154059 134.983
18.12366954819864 141.784
18.146215420998306 141.395
18.16876200220057 132.786
18.191309292745153 117.551
18.214033452627167 102.96799999999999
18.236582170236648 91.7941
18.259131600016456 87.4125
18.281681742907335 87.9734
18.304408781233683 92.0361
18.32696035875955 96.9661
18.349512652227624 101.32600000000001
18.372065662579683 105.412
18.394795594587553 106.345
18.41735004715306 102.288
18.43990521943684 95.369
18.46246111238171 86.2478
18.485193953325208 76.8011
18.507751296070428 69.6654
18.530309362314178 65.8011
18.552868153000343 63.8135
18.57560391815056 62.6832
18.59816416623245 62.0278
18.620725141597372 61.5861
18.643286845190268 61.0198
18.666025549835414 60.672
18.688588718427933 60.0074
18.711152618092243 59.9397
18.73389353884365 59.7672
18.75645890921984 59.3168
18.77902501351406 59.12
18.801591852673102 59.1161
18.824335739722738 58.4992
18.846904057212626 58.3525
18.8694731124168 57.9627
18.89204290628315 58.0487
18.914789774966803 58.0396
18.937361054791623 57.6517
18.959933076131318 57.2807
18.982505839934877 57.4013
19.00525570560582 57.52
19.027829963004184 57.3162
19.05040496572238 57.4812
19.072980714710468 57.722
19.095733592739563 57.9025
19.11831084296757 58.0006
19.140888842324735 58.3611
19.16346759176222 58.489
19.18622349753803 59.0071
19.208803755869358 60.3089
19.231384767143577 61.5232
19.253966532312948 63.0329
19.276725481241822 65.2646
19.29930876296784 67.4602
19.3218928014549 70.41199999999999
19.34465404436217 72.9501
19.36723960516257 75.4193
19.389825925592426 76.3363
19.412413006605938 75.3065
19.43517731967805 72.1429
19.457765930683355 67.4156
19.48035530514408 63.1765
19.50294544401556 59.3582
19.525712842708348 56.563
19.54830451925909 55.3128
19.570896963095727 54.5076
19.593490175174704 54.1888
19.616260674962184 54.1399
19.638855432416964 53.9328
19.661450960992624 54.114
19.68404726164677 53.7593
19.706820878021247 53.7129
19.729418731756834 54.0148
19.752017360452857 53.6791
19.77461676506804 54.0027
19.797393513540218 54.1757
19.819994478951667 54.5617
19.84259622316767 55.0767
19.8651987471481 55.3234
19.887978643247177 55.5142
19.91058273574792 56.1659
19.933187610901943 57.0521
19.955969879466828 58.3952
19.97857632894404 59.7584
20.00118356396599 61.336000000000006
20.023791585494575 63.486999999999995
20.046577028914875 65.9151
20.069186632506966 68.0677
20.091797025500632 69.7901
20.114408208858933 70.5078
20.137196842715273 70.0855
20.159809615886765 68.5022
20.18242318232135 66.0317
20.20503754298326 63.8412
20.227829382875154 62.6966
20.250445341109344 62.6808
20.27306209647285 63.2793
20.29567964993108 64.3821
20.31847471147704 65.22399999999999
20.34109387027612 65.9366
20.363713830075454 65.5019
20.386334591841646 63.9352
20.409132890679302 61.4297
20.431755265564437 58.3274
20.454378445325528 55.5657
20.477002430930366 53.5178
20.499803982716553 52.5037
20.522429589228004 51.8607
20.54505600449589 51.1989
20.567683229489194 51.083999999999996
20.590488049900088 50.6803
20.61311690359731 50.4213
20.63574656993626 50.3746
20.658553853717297 50.0356
20.681185154618298 49.8987
20.703817271080066 49.8562
20.72645020407368 49.4966
20.749260783967177 49.4403
20.771895359337133 49.1902
20.794530754161617 49.2388
20.817166969412938 49.0411
20.83998086114876 49.141999999999996
20.86261872660049 49.0773
20.885257415405402 49.0246
20.90789692853701 48.8398
20.930714147864748 49.052
20.953355319030678 49.0173
20.97599731745334 49.1286
20.99864014410749 48.8144
21.021460706796564 48.9609
21.044105199328826 49.2694
21.06675052302631 49.3377
21.089396678865015 49.372
21.112220600704806 49.9822
21.134868430275347 50.4352
21.15751709492456 50.4457
21.180166595629693 50.8065
21.202993892429635 51.1492
21.22564507473034 51.5713
21.24829709602816 51.7047
21.27112693608965 51.8122
21.293780644891275 51.7148
21.316435195634053 51.0229
21.339090589297417 50.25
21.361923832041875 49.8461
21.384580921090404 49.2808
21.407238856007325 48.7384
21.429897637773326 48.7068
21.45273429906592 48.7104
21.475394784108598 48.7816
21.498056118951983 48.6715
21.520718304578022 48.8769
21.543558400304388 49.0016
21.566222297108816 49.5104
21.58888704765135 49.518
21.61155265291521 50.0651
21.63439619898156 50.3218
21.657063523335786 50.3687
21.67973170537063 51.0589
21.7024007460706 51.5668
21.72524775840385 52.2141
21.747918526116475 53.4386
21.770590155457388 54.8063
21.79326264741238 56.3612
21.816113141960237 58.0599
21.838787368860547 59.6629
21.861462461341976 61.5284
21.884315579735777 63.4611
21.90699241312273 64.5486
21.92967011506078 65.2697
21.95234868653799 64.7981
21.9752053151131 63.6343
21.997885635446785 61.7563
22.020566828293532 59.7924
22.04324889464272 57.9071
22.066109049404666 56.711000000000006
22.088792872571794 56.0659
22.111477572219204 56.2588
22.1341631493376 56.5321
22.157026846313123 56.2913
22.179714188221507 55.4262
22.202402410582668 54.3182
22.22509151438863 52.7202
22.24795876962584 51.757
22.270649646204486 50.8297
22.293341407213727 50.0283
22.316034053646906 49.5485
22.338904883215342 49.3445
22.36159931041458 49.4779
22.38429462602756 49.0988
22.40699083104897 48.8684
22.429865251039757 49.2219
22.452563244831367 49.1328
22.47526213102522 49.1289
22.49813925616515 48.9902
22.520839937143307 48.983999999999995
22.543541513520587 48.9869
22.56624398629403 48.8942
22.589124730075895 48.7959
22.611829005656723 49.0502
22.63453418063466 49.3095
22.657240256008077 49.472
22.680124634582935 49.4838
22.70283252079775 49.6099
22.725541310413075 49.9551
22.74825100442868 50.2668
22.771139033969575 50.8142
22.79385054687155 50.9833
22.81656296718292 51.7707
22.83927629590484 52.784
22.862167992606945 53.7257
22.88488314827121 54.7655
22.907599215359284 55.6473
22.93031619487366 56.6361
22.953211574954405 57.4295
22.975930389478226 58.1895
22.998650119445763 58.373999999999995
23.02137076586092 57.3976
23.044269845560063 56.3411
23.06699233506288 54.3328
23.089715744034912 52.747
23.112617610931565 51.1651
23.135342869061212 50.1417
23.158069049684816 49.3976
23.1807961538087 49.1674
23.20370174880544 49.1257
23.226430710184808 49.2732
23.249160598093425 49.3737
23.271891413539002 49.512
23.294800752937697 49.175
23.31753343374794 49.4928
23.340267045128353 49.678999999999995
23.36300158808808 50.0032
23.38591468821339 50.3694
23.408651104658304 50.7589
23.431388455719986 51.5813
23.454126742409 52.3615
23.4770436196085 53.3214
23.499783787914662 54.4325
23.522524894889884 55.4608
23.54526694154616 56.316
23.56818761219047 57.4099
23.59093154860734 57.9454
23.613676427751283 58.0506
23.636422250635754 57.3794
23.659346731118656 55.8304
23.68209445191868 53.7345
23.704843119509587 51.6607
23.72759273490623 49.7175
23.750521041644767 48.4653
23.77327256312355 47.3844
23.796025035462787 46.8068
23.818956224555475 46.3777
23.841710609113413 46.2303
23.86446594758979 46.0816
23.887222241002014 45.8013
23.910157285144578 45.5029
23.932915498962537 45.5991
23.955674670778713 45.443999999999996
23.978434801611975 45.1022
24.001373717286125 44.9431
24.024135776723917 44.9392
24.046898798245582 44.8143
24.06966278287146 44.672
24.092605586582614 44.445
24.115371508023642 44.4006
24.1381383956401 44.3747
24.16090625045381 44.2898
24.183852958731244 44.2079
24.206622758582608 44.1431
24.229393528706886 43.9831
24.252165270127392 44.2304
24.27511589952438 43.9564
24.297889594216997 43.7541
24.32066426328598 43.5501
24.34343990775613 43.6609
24.36639447485003 43.5953
24.38917208083877 43.5869
24.41195066531332 43.3861
24.43490819850244 43.4657
24.457688750692377 43.2423
24.48047028445616 43.3749
24.503252800821233 43.5544
24.526214300784112 43.3527
24.548998793132213 43.2987
24.57178427117417 43.1934
24.59457073593893 43.3124
24.617536219319863 43.1894
24.64032466834748 43.1047
24.663114107195035 43.1871
24.685904536893013 42.7715
24.708874020360852 42.7988
24.731666442613744 42.7209
24.754459858818787 42.6681
24.777254270007962 42.6652
24.80022777025625 42.4423
24.82302418230472 42.4631
24.845821592443674 42.7147
24.86862000170663 42.4505
24.891597535453727 42.2874
24.914397953892728 42.6863
24.93719937456671 42.4627
24.96000179851076 42.653999999999996
24.98298338249997 43.0032
25.00578782394922 43.1921
25.028593271784167 43.3351
25.05157790644186 43.6676
25.07438537804115 43.721000000000004
25.097193859145293 43.8226
25.120003350792075 44.0797
25.142992065061257 44.498999999999995
25.165803588823465 44.7157
25.18861612625217 44.9896
25.211429678386736 45.0704
25.234422489079968 45.0939
25.257238081693636 45.1151
25.280054692141732 45.1518
25.3028723214652 45.1676
25.325869245420463 45.2054
25.348688923599397 45.1777
25.371509623787006 45.1446
25.394331347025812 44.9394
25.41733240110666 44.3669
25.440156181590016 43.6291
25.46298098826268 43.175
25.48580682216873 42.5364
25.50881202326435 41.9387
25.53163992281684 41.7062
25.55446885274561 41.4221
25.577298814096377 41.0996
25.600308179121807 41.0653
25.623140214533745 41.2646
25.64597328451537 41.1319
25.66898578564376 40.8589
25.691820936010206 40.8428
25.714657124097695 40.8373
25.737494350954734 40.7184
25.760511045684957 40.6707
25.783350361364224 40.8397
25.806190718969255 40.7079
25.82903211955018 40.9124
25.852053024868923 40.9547
25.874896522722523 41.0192
25.897741066713106 40.9068
25.920586657892454 41.0848
25.943611790812668 41.2266
25.966459487728237 41.3201
25.989308234998564 41.2739
26.01215803367705 41.6534
26.03518741123814 41.7825
26.05803932412957 41.9655
26.080892291600094 41.9174
26.10374631470478 41.9072
26.12677995397268 42.0842
26.14963609978026 41.953
26.172493304397875 41.7961
26.19535156888223 41.4315
26.218389486949604 41.0786
26.241249882640123 40.7474
26.26411134137826 40.4378
26.28715248187403 40.5312
26.31001607820869 40.3795
26.3328807407756 40.2519
26.35574647063438 40.3639
26.37879191991473 40.4955
26.401659795896734 40.4762
26.424528742360263 40.6774
26.447398760366614 40.8583
26.470448535598294 40.9896
26.49332070826805 41.1951
26.516193955675355 41.4113
26.53906827888316 41.5963
26.562122397260108 41.6627
26.584998883685063 42.0917
26.607876449110325 42.3151
26.63075509460056 42.4195
26.65381357334404 42.4924
26.67669439061878 42.535
26.699576291163382 42.3764
26.722459276044212 42.2997
26.745522132402975 41.9889
26.768407297649354 41.6359
26.791293550442003 41.2425
26.814180891848974 41.0615
26.837248143099337 40.7294
26.860137673466657 40.7268
26.88302829566349 40.4634
26.90592001075963 40.3624
26.92899167420566 40.1355
26.951885586870763 39.7685
26.974780595655517 39.4314
26.99785558178161 39.4533
27.020752794605112 39.209
27.043651106772522 39.1045
27.06655051935668 39.2416
27.089629948036183 39.0896
27.112531573292053 39.0766
27.135434302194138 39.0116
27.158338135817015 38.8358
27.181422024430987 38.8857
27.204328079372566 38.6813
27.22723524226965 38.8589
27.250143514198573 38.9269
27.273231880156334 38.8312
27.296142382065014 38.7539
27.319053996245536 38.7158
27.341966723775965 38.8752
27.365059584515222 38.896
27.38797455070062 38.8435
27.410890633481237 38.7681
27.433807833936918 38.6685
27.456905206923906 38.8475
27.47982465472398 38.8565
27.502745223449743 38.7443
27.525666914182825 39.0126
27.548768816912457 38.9555
27.571692763693633 38.8944
27.59461783573812 38.7174
27.617723149491244 38.5798
27.640650484125285 38.4642
27.66357894728264 38.4754
27.686508540048052 38.3413
27.709618414237887 38.3594
27.732550278321757 38.1165
27.755483275279115 38.1306
27.778417406196485 38.2837
27.801531858397514 38.2036
27.824468269376716 38.111
27.847405817586786 38.004
27.870344504116094 38.3244
27.893463551932008 38.364000000000004
27.916404527281053 38.5835
27.93934664422563 38.5338
27.962289903855886 38.806999999999995
27.98541356491974 38.8821
28.00835912214229 39.0397
28.03130582533231 39.3468
28.054253675581805 39.3875
28.077381967556104 39.3094
28.100332124185126 39.2919
28.123283431160893 39.1531
28.146235889577238 39.0439
28.169368830154156 39.0029
28.192323603752033 38.7201
28.215279532083304 38.391
28.238415973016764 38.2575
28.261374223145094 38.1576
28.284333631303806 37.902
28.307294198589954 37.6966
28.330435319167677 37.381
28.353398217078915 37.2222
28.376362277420153 36.9276
28.39932750129032 36.9609
28.422473319286713 36.6408
28.44544088262495 36.6127
28.468409612800283 36.5265
28.491379510913497 36.3399
28.51453004413313 36.1504
28.53750229057244 36.1945
28.56047570826344 36.0257
28.583450298308804 36.0846
28.606605564586562 35.9198
28.629582511831156 36.0263
28.65256063474956 35.8815
28.675539934446338 36.0015
28.698699951647605 35.93
28.72168161743193 35.7175
28.74466446331978 35.7684
28.767648490417624 35.6534
28.790813276438353 35.69
28.813799678527303 35.714
28.836787265157085 35.7756
28.859955641890075 35.6885
28.882945610203045 35.6715
28.905936766392035 35.5982
28.928929111566863 35.5231
28.952102288520145 35.5078
28.975097024308607 35.4162
28.998092952423807 35.2276
29.021090073977508 35.1267
29.04426806913204 35.2076
29.067267590245258 34.9499
29.090268308143695 34.8748
29.11327022394099 34.7821
29.13645305530891 34.6633
29.159457379627167 34.678000000000004
29.18246290519685 34.5809
29.20546963313352 34.59
29.22865731875826 34.6662
29.25166646419296 34.669000000000004
29.27467681535305 34.4896
29.29768837335608 34.4901
29.320880931312562 34.6252
29.34389491580634 34.5398
29.366910110507334 34.4781
29.38992651653503 34.3937
29.41312396492981 34.3423
29.436142806456754 34.3202
29.45916286268059 34.238
29.48236399319994 34.216
29.50538649169417 34.0321
29.528410208259935 33.8998
29.55143514402014 33.7558
29.574641196749695 33.6413
29.597668583816574 33.496
29.6206971934585 33.2922
29.64372702680042 33.3925
29.666938019934474 33.2839
29.689970313635285 33.2556
29.713003834422636 33.2191
29.73603858342347 33.2617
29.759254535188578 33.1213
29.78229175361658 33.105
29.80533020365064 33.1384
29.82836988641968 33.1237
29.85159081507472 32.9997
29.874632976355343 33.0316
29.89767637376955 32.9605
29.920721008448314 32.7837
29.9439469322847 32.8365
29.96699405457564 32.8049
29.9900424175358 32.8483
30.013092022298157 32.7711
30.03632295963995 32.8139
30.059375061131373 32.7395
30.08242840783577 32.796
30.105483000888153 32.7388
30.128718970092244 32.5977
30.151776069006917 32.6233
30.17483441768648 32.6783
30.198074175317235 32.6035
30.221135036724256 32.6163
30.24419715131772 32.4965
30.267260520236203 32.5298
30.290505341942243 32.6393
30.313571232750228 32.5901
30.336638381310948 32.5814
30.35970678876503 32.5239
30.38295669299435 32.376999999999995
30.40602763151657 32.3773
30.429099832366074 32.3431
30.452173296685572 32.2913
30.47542830191959 32.3327
30.498504306502497 32.2443
30.521581577995562 32.3922
30.544660117543582 32.3949
30.56792024229725 32.4017
30.59100133132069 32.3218
30.614083691845494 32.442
30.637167325018545 32.393
30.660432587840603 32.468
30.683518779717886 32.4383
30.70660624769615 32.5868
30.729694992924372 32.3819
30.75296541239743 32.4015
30.77605672557558 32.3718
30.799149319462742 32.2719
30.8224236211637 32.1922
30.845518789950724 32.0431
30.868615242910597 31.9972
30.891712981195973 31.8797
30.91499247215866 31.9206
30.938092794619365 31.8108
30.96119440587579 31.676
30.984297307082752 31.5785
31.00758200598383 31.502
31.030687500658694 31.4774
31.053794288760695 31.4054
31.076902371446767 31.3082
31.100192296997445 31.3437
31.12330298246119 31.2953
31.14641496599209 31.2526
31.169528248749216 31.2798
31.19282341969534 31.2336
31.215939314557186 31.1984
31.239056512134788 31.2099
31.262175013589378 31.0816
31.28547544871168 31.0984
31.30859657161541 31.0318
31.331719001892175 31.0768
31.35484274070538 31.311999999999998
31.378148458819545 31.1581
31.401274828443725 31.146
31.424402510106933 31.1597
31.447712205419993 31.1648
31.470842524931633 31.0787
31.493974159989783 31.1067
31.51710711176168 30.9501
31.54042212308802 31.0429
31.563557722100917 31.011
31.586694641341655 30.8431
31.609832881979628 30.7232
31.63315322823208 30.7301
31.656294125521327 30.5876
31.679436347728515 30.5211
31.70257989602529 30.5521
31.725905596152327 30.4072
31.74905181052835 30.328000000000003
31.772199354521323 30.4068
31.79534822930507 30.4857
31.818679302290967 30.3726
31.84183085259981 30.3615
31.864983737233473 30.2972
31.88813795736804 30.4189
31.911474422233013 30.2533
31.934631327356435 30.2469
31.9577895715215 30.2302
31.980949155906522 30.2829
32.004291031706956 30.2882
32.027453310562606 30.109
32.05061693318573 29.9848
32.07396288236386 30.0187
32.09712920658542 29.9874
32.12029687812702 29.8287
32.14346589817093 29.7367
32.166817291729984 29.7266
32.18998902288583 29.6723
32.21316210610336 29.5765
32.23633654256711 29.5227
32.259693399663725 29.5642
32.282870556771144 29.4536
32.30604907069099 29.4057
32.329228942610065 29.3319
32.35259128243769 29.2016
32.375773884550505 29.0929
32.398957848235646 29.0691
32.422143174682176 29.0932
32.445511016471215 28.9773
32.468699082679954 28.9175
32.49188851523011 28.8575
32.51507931531304 28.8745
32.538452678331 28.9085
32.56164622776311 28.8132
32.58484114831493 28.6901
32.60803744118015 28.7974
32.631416344731896 28.7849
32.654615396551876 28.7173
32.67781582427913 28.5832
32.701198898634416 28.5356
32.72440209253756 28.436
32.747606665947124 28.4662
32.77081262006088 28.39
32.79420126883317 28.3449
32.81740999876112 28.4204
32.840620112999424 28.3012
32.86383161274818 28.3081
32.88722585534586 28.2359
32.91044014056596 28.208000000000002
32.933655814909734 28.1766
32.95687287957963 28.2082
32.98027273544904 28.1222
33.00349259526636 28.0868
33.026713849030116 28.1372
33.04993649794511 28.0834
33.073341986570746 28.0258
33.09656744032826 28.0256
33.11979429286444 28.0227
33.14302254538647 27.9148
33.166433686291185 27.8865
33.18966475336992 27.8892
33.212897224069096 27.855999999999998
33.23613109959831 27.8147
33.259547912343415 27.7409
33.2827846121627 27.7755
33.306022720453775 27.7106
33.32926223842861 27.6054
33.352684742614166 27.5395
33.37592709463173 27.4861
33.399170859982064 27.4722
33.422597648419426 27.408
33.44584425514446 27.3242
33.46909227885668 27.331999999999997
33.4923417207723 27.2343
33.51577423505344 27.1891
33.539026528130385 27.1183
33.56228024307245 27.1104
33.585535381098246 26.9408
33.60897364093058 26.9849
33.63223163992385 26.9977
33.6554910656699 26.9129
33.678751919389796 26.8901
33.702195944520106 26.8284
33.72545966903325 26.831
33.74872482519663 26.7038
33.771991414233746 26.7187
33.79544122444841 26.6651
33.81871069412428 26.5829
33.84198160035767 26.5841
33.86525394437455 26.5286
33.88870955949969 26.4584
33.911984794020626 26.4122
33.93526147001624 26.5062
33.958539588715006 26.4398
33.98200102861669 26.3423
34.0052820477047 26.1459
34.02856451319451 26.3067
34.05203033759056 26.226999999999997
34.07531571090147 26.1388
34.09860253431845 26.1638
34.121890809074316 26.0577
34.145362493118924 26.0783
34.16865368561615 26.0136
34.191946333164054 26.0248
34.21524043699793 26.0451
34.23871800066799 25.9791
34.26201503218366 25.750999999999998
34.28531352370466 25.854
34.30861347646881 25.7335
34.33209693978188 25.6345
34.3553998301885 25.6721
34.378704185565205 25.5556
34.402010007152356 25.5609
34.42549939016683 25.5633
34.44880815937748 25.4527
34.472118398533134 25.4519
34.49543010887669 25.4519
34.51892543169198 25.2621
34.54224009966052 25.3977
34.56555624255917 25.2771
34.58887386163339 25.237
34.61237514439016 25.1426
34.6356957311114 25.1948
34.65901779775809 25.1968
34.68252356662995 25.1036
34.705848608458616 25.0482
34.72917513396849 24.9915
34.75250314440949 24.9367
34.77601490857862 24.9367
34.799345904259795 24.8667
34.82267838863559 24.8043
34.846012362958525 24.7539
34.869530142679984 24.7799
34.89286711232212 24.8077
34.91620557568269 24.791
34.93954553401677 24.7788
34.9630693495876 24.6697
34.986412313340814 24.7429
35.00975677584668 24.6756
35.033102738362956 24.581999999999997
35.05663261012228 24.4622
35.0799815881786 24.5528
35.10333207003229 24.4432
35.12668405694369 24.4163
35.150220005273056 24.4349
35.17357501786656 24.3776
35.19693153931268 24.3128
35.220289570874385 24.3403
35.24383161619786 24.3285
35.267192683604904 24.3698
35.290555264930376 24.2425
35.314101899412165 24.2257
35.33746752422433 24.2768
35.36083466676374 24.1899
35.38420332829803 24.1006
35.407756095629054 24.1086
35.43112781085063 24.1065
35.45450104888391 24.0295
35.477875810999194 24.1439
35.50143473172161 24.0499
35.52481255774625 24.0769
35.54819191167777 23.995
35.57157279478914 23.9557
35.595137889488406 23.9495
35.61852184675279 23.9138
35.641907337029984 23.7824
35.665294361595684 23.7967
35.68886565090076 23.7413
35.7122557598848 23.6983
35.73564740699838 23.7312
35.759040593519934 23.6484
35.78261809810353 23.6034
35.80601437933051 23.5323
35.829412203814705 23.5217
35.85281157283719 23.43
35.876395313415884 23.4452
35.8997977874528 23.3996
35.92320180988546 23.3685
35.946790244133936 23.2735
35.97019737933222 23.3222
35.993606066789866 23.2076
36.01701630779276 23.2269
36.04061101440684 23.1673
36.06402437852291 23.1205
36.08743930005611 23.1406
36.1108557802951 23.0385
36.13445678011326 23.0395
36.15787639383515 23.0025
36.18129757014299 22.8999
36.20472031032821 22.8938
36.22832762423364 22.872
36.25175350829375 22.9239
36.275180960119776 22.8156
36.298609981005924 22.9073
36.32222362992669 22.8005
36.34565580510207 22.7732
36.36908955323448 22.6777
36.39252487562093 22.5547
36.416144880530226 22.5405
36.43958336764275 22.5493
36.463023432914625 22.5849
36.486465077645676 22.5442
36.51009145956204 22.566
36.53353627947859 22.566
36.55698268276811 22.4716
36.58043067073321 22.4094
36.60406345072071 22.3675
36.62751462435344 22.3174
36.65096738658405 22.3653
36.67460498210655 22.3365
36.69806093788647 22.2365
36.72151848619297 22.1427
36.744977628333636 22.2218
36.76862165890998 22.1173
36.79208400512205 22.1042
36.81554794910557 22.0615
36.83901349217101 22.0266
36.862663978991606 21.9644
36.88613273667352 21.9594
36.90960309738324 21.9795
36.933075062434064 21.9043
36.95673202673572 21.9128
36.98020721697122 21.8327
37.003684015502365 21.8063
37.027162423645365 21.7502
37.050825886711465 21.8048
37.07430753063053 21.779
37.09779078812467 21.6768
37.121275660513014 21.6546
37.144945643673694 21.5991
37.16843376245278 21.5269
37.19192350009803 21.4805
37.215414857931435 21.5587
37.239091382563885 21.3879
37.262585997426164 21.3672
37.28608223645736 21.3392
37.309763684451696 21.3697
37.33326318851098 21.2904
37.356764320726555 21.3055
37.380267082425526 21.2499
37.40395510942588 21.215999999999998
37.42746114683234 21.1102
37.45096881771841 21.1076
37.474478123414166 21.1282
37.49817275092816 21.0599
37.52168534303452 21.1084
37.54519957395567 20.9873
37.568715445024665 20.9521
37.592416694607714 20.9131
37.61593586281424 20.9229
37.63945667518264 20.9996
37.66297913304891 20.8833
37.68668702630454 20.8328
37.710212792059274 20.7601
37.733740207334854 20.7606
37.757269273470364 20.7201
37.780983832050374 20.7387
37.80451621684926 20.6856
37.82805025654007 20.6109
37.851585952464795 20.559
37.8753071980695 20.5112
37.89884622345676 20.4674
37.92238690911902 20.4849
37.94611318753442 20.4806
37.969657210779765 20.398
37.99320289834801 20.3539
38.016750251586465 20.3582
38.04048325513017 20.3372
38.06403395679343 20.2515
38.087586328183946 20.262
38.11114037065203 20.2488
38.13488012115898 20.1948
38.1584375229181 20.151
38.181996599821 20.0883
38.205557353221124 20.067
38.229303872575656 19.9959
38.2528679961576 20.063
38.27643380031219 19.987000000000002
38.30000128639589 19.9877
38.32375459653193 19.9917
38.34732546371299 19.9759
38.37089801690786 19.8546
38.39447225747609 19.8467
38.418232380377425 19.8291
38.441810012983396 19.7922
38.46538933705673 19.7423
38.488970353960084 19.7657
38.51273731166058 19.6295
38.536321731567014 19.6174
38.55990784840681 19.5656
38.58367995004091 19.5526
38.60726947812959 19.4786
38.63086070726198 19.6068
38.654453638806274 19.5048
38.678232613930824 19.5364
38.70182896773327 19.4557
38.72542702806741 19.3843
38.7490267963045 19.3462
38.77281266709232 19.3577
38.79641586862214 19.3921
38.8200207821842 19.2761
38.843627409152944 19.2914
38.86742019782782 19.1861
38.891030269149255 19.1205
38.914642058016156 19.1364
38.938255565806124 19.1648
38.96205529464307 19.0096
38.98567225787121 19.0813
39.00929094417078 19.0532
39.03291135492255 18.9314
39.05671804624804 18.9451
39.080341923549106 18.9606
39.103967529460334 18.8898
39.127594865365744 18.8538
39.15140854155791 18.7937
39.17503935514948 18.8071
39.19867190290282 18.7597
39.22249083587951 18.7914
39.24612686969409 18.8295
39.269764641845306 18.7753
39.293404153722804 18.7563
39.317230110864074 18.6629
39.34087311998506 18.5943
39.36451787301696 18.6196
39.388164371352595 18.5437
39.41199737518003 18.4749
39.43564738196752 18.4513
39.45929913825317 18.4418
39.48295264543308 18.4336
39.506792718520884 18.371
39.530449745387216 18.3573
39.55410852735203 18.3418
39.57776906581474 18.367
39.60161623079 18.2897
39.625280300200025 18.2689
39.64894613032202 18.2314
39.67261372255866 18.1939
39.6964680021016 18.0827
39.72013913657293 18.1724
39.74381203738292 18.1719
39.76748670593756 18.1648
39.79134812278169 18.0349
39.81502634488497 18.0658
39.83870633896685 18.0069
39.862388106436654 17.9581
39.88625668336918 17.9865
39.90994201572829 18.0174
39.933629125719285 17.9161
39.957503091207826 17.8532
39.9811937746168 17.8534
40.00488623990914 17.8164
40.02858048850006 17.7935
40.05246165409549 17.7294
40.076159487492085 17.6563
40.099859108448875 17.694000000000003
40.123560518384345 17.6643
40.1474489070226 17.6562
40.171153913178564 17.5976
40.194860712584955 17.5795
40.2185693066637 17.5809
40.242464941335314 17.484
40.26617714307655 17.4384
40.289891143772046 17.5192
40.3136069448471 17.4624
40.33750984859743 17.4044
40.3612292688043 17.3637
40.3849504936829 17.3215
40.40867352466194 17.377
40.43258372059144 17.339000000000002
40.45631038219906 17.332
40.48003885420956 17.2117
40.503769138055105 17.1906
40.52768664931955 17.2549
40.55142057531802 17.255
40.57515631746428 17.1543
40.599079334038514 17.1274
40.62281872700477 17.0794
40.64655994043941 17.0608
40.67030297578061 17.0098
40.69423334835778 16.9791
40.71798004609188 16.9354
40.74172857006355 16.9151
40.76547892171441 16.9875
40.7894166736039 16.8781
40.813170699248566 16.8627
40.83692655691388 16.8643
40.86068424804498 16.8137
40.884629402612525 16.7389
40.908390779366385 16.7289
40.932153993938 16.7444
40.95591904777605 16.7208
40.979871628443995 16.6922
41.003640379561936 16.6713
41.02741097430883 16.6131
41.05118341413683 16.6145
41.075143444384416 16.5795
41.098919593177826 16.5608
41.1226975914255 16.5368
41.14647744058318 16.497
41.170444943946755 16.4831
41.19422851378379 16.4769
41.218013938914645 16.4195
41.24198706625173 16.3701
41.26577622087193 16.3561
41.289567235177785 16.3558
41.31336011063129 16.3216
41.337340752422875 16.2537
41.361137369129835 16.2304
41.38493585138705 16.2707
41.40873620066004 16.1604
41.43272438060107 16.1249
41.45652848292052 16.0658
41.48033445666918 16.0721
41.50414230331616 16.073
41.528138045159764 16.0336
41.551949656675205 15.9793
41.575763145513235 15.9921
41.59957851314666 15.9522
41.62358184070442 15.9551
41.64740098505737 15.8858
41.6712220126409 15.8699
41.69504492493139 15.8862
41.71905586207357 15.8322
41.74288256296395 15.8304
41.766711153007456 15.8023
41.79054163368412 15.7409
41.814560204340054 15.751
41.838394485526365 15.7507
41.86223066180303 15.6408
41.88625497706819 15.6513
41.910094962812 15.6024
41.93393684811168 15.5869
41.95778063445365 15.5715
41.981812625263366 15.61
42.00566023303407 15.6002
42.029509746323676 15.5076
42.05336116662236 15.4464
42.077400857069705 15.4699
42.10125611078846 15.4482
42.12511327600405 15.3658
42.14897235421036 15.3535
42.173019768448455 15.3573
42.19688269209613 15.306
42.22074753323349 15.3092
42.24461429335818 15.2659
42.268669455600495 15.2286
42.292540073217886 15.2355
42.31641261433284 15.2191
42.34028708044675 15.159
42.36435001496739 15.1271
42.38822835065557 15.0943
42.41210861586426 15.0688
42.4359908120986 15.0573
42.46006154323262 15.025
42.48394762115317 15.0136
42.507835634632315 14.9844
42.531912233047436 14.9567
42.55580413732265 14.9545
42.579697981698 14.9031
42.60359376768525 14.8516
42.62767820545945 14.8372
42.65157789440821 14.8553
42.67547952952185 14.8424
42.699383112316 14.7732
42.72347541395347 14.7401
42.74738291190531 14.7271
42.771292362102166 14.7261
42.795203766063516 14.6876
42.819303956130405 14.6331
42.843219287476536 14.6233
42.86713657716324 14.5673
42.89105582671383 14.5962
42.91516392983864 14.5638
42.939087119032166 14.5571
42.963012272677304 14.5055
42.98693939230129 14.4856
43.01105543317513 14.4151
43.034986504731386 14.4289
43.05891954686589 14.3974
43.08285456110972 14.4116
43.10697856448665 14.3142
43.130917542983475 14.3053
43.15485849820081 14.3335
43.17880143167367 14.2788
43.20293342237094 14.2228
43.226880332449 14.200999999999999
43.25082922540554 14.2428
43.27496722682525 14.1959
43.29892010567796 14.1855
43.32287497204102 14.1498
43.34683182745632 14.1142
43.370977859791836 14.0849
43.39493871351105 14.0527
43.41890156092628 14.017000000000001
43.44286640358341 14.0604
43.46702049182749 13.9897
43.49098934522816 13.9302
43.51496019852649 13.9469
43.5389330532723 13.9064
43.56309522248204 13.8856
43.58707210044314 13.8693
43.61105098451946 13.7578
43.63503187626491 13.8081
43.659202151562134 13.7603
43.68318707902681 13.7711
43.70717401884041 13.7489
43.731162972560874 13.7439
43.75534137913236 13.6566
43.779334381108384 13.6473
43.803329401683186 13.6329
43.82732644241872 13.6374
43.8515130055166 13.5832
43.87551410707659 13.567
43.89951723350145 13.5656
43.923709934595614 13.5115
43.94771713129917 13.4953
43.97172635758096 13.5489
43.99573761501002 13.5066
44.0199385169922 13.4819
44.04395385732619 13.4137
44.067971233533086 13.4231
44.09199064718605 13.3946
44.11619977548961 13.3398
44.14022328470671 13.3056
44.16424883610785 13.3275
44.18827643127035 13.3101
44.21249381139513 13.2822
44.236525514814076 13.2211
44.26055926674478 13.2005
44.28459506876863 13.2246
44.3088207262813 13.1778
44.33286064928722 13.1544
44.35690262714919 13.1128
44.38094666145278 13.1288
44.4051806219871 13.1271
44.42922879003185 13.0442
44.45327901929361 13.0131
44.477331311362136 13.0106
44.501573600619416 12.9468
44.525630039221795 12.9438
44.54968854541895 12.9316
44.573937102200176 12.8898
44.5979997645541 12.8914
44.622064499300315 12.8623
44.64613130803592 12.8575
44.67038823869318 12.8352
44.69445921643748 12.7678
44.718532272981385 12.7431
44.742607409926194 12.7666
44.76687274034801 12.7642
44.79095205918753 12.6932
44.81503346325094 12.6884
44.839116954143876 12.6507
44.86339071028742 12.6522
44.88747839599524 12.6405
44.91156817336837 12.5489
44.93566004401666 12.537
44.959942251908146 12.5301
44.984038330325966 12.5173
45.00813650686762 12.4829
45.03223678314731 12.4918
45.05652746888232 12.43
45.08063196592069 12.4374
45.104738567558705 12.4225
45.128847275414856 12.4063
45.15314646515866 12.3157
45.17725940679741 12.3296
45.20137445952892 12.3535
45.22568004865265 12.3718
45.24979934496396 12.3311
45.27392075725247 12.2905
45.29804428714431 12.2525
45.322358426247604 12.2837
45.346486212804315 12.2177
45.370616121861914 12.1725
45.39474815505086 12.1794
45.41907087049246 12.1472
45.4432071734666 12.1221
45.46734560548283 12.1107
45.49148616817604 12.1273
45.51581748638564 12.0439
45.5399623320197 12.0247
45.56410931325473 12.0165
45.58825843173002 12.0413
45.61259837920865 11.9469
45.636751793816 11.9565
45.66090735060093 11.9601
45.68506505120716 11.9051
45.7094136545275 11.876
45.73357566449271 11.8303
45.75773982322992 11.8473
45.78190613238733 11.8212
45.806263418194064 11.7837
45.83043404997326 11.8115
45.85460683713677 11.7906
45.87897065658495 11.6945
45.90314777634752 11.6683
45.92732705646868 11.7041
45.9515084986045 11.7118
45.97588104735473 11.6681
46.00006683541565 11.6308
46.02425479047904 11.610999999999999
46.04844491420549 11.6315
46.0728262191024 11.5844
46.09702070211635 11.5746
46.12121735879483 11.5408
46.14541619080294 11.5263
46.169806278764455 11.5173
46.194009483459034 11.5022
46.21821486849841 11.4343
46.24242243555223 11.5093
46.266821333570014 11.4278
46.29103328674601 11.3862
46.31524742696538 11.3753
46.33946375590237 11.3446
46.36387149104216 11.3317
46.38809221957392 11.2646
46.41231514186606 11.2784
46.436540259597464 11.276
46.460956858999374 11.2168
46.48518638983522 11.1975
46.509418121166966 11.1816
46.533652054678114 11.1817
46.55807754555709 11.1453
46.58231590571962 11.1513
46.60655647313217 11.1159
46.630988654873654 11.0791
46.655233659129024 11.0701
46.67948087571551 11.0422
46.70373030632484 11.0791
46.72817142736393 11.0605
46.752425308428684 11.0161
46.77668140861147 10.9885
46.80093972960865 10.9387
46.82538981736788 10.9098
46.849652602470904 10.9264
46.87391761349769 10.8854
46.8981848521493 10.8485
46.9226439341274 10.855
46.946915650573224 10.8155
46.97118959976749 10.8159
46.99546578341598 10.802
47.019933887188216 10.7838
47.04421456235744 10.758
47.06849747711879 10.7174
47.09278263318286 10.7001
47.11725978640143 10.6838
47.14154944775105 10.6641
47.165841355555656 10.6259
47.1901355115306 10.6466
47.214621741924994 10.6364
47.23892041698887 10.6432
47.26322134538975 10.5905
47.28771440635075 10.5538
47.31201986422527 10.5651
47.33632758061436 10.515999999999998
47.360637557241866 10.4756
47.38513974410611 10.4751
47.40945426407847 10.462
47.43377104948137 10.4437
47.45809010204344 10.4639
47.48260144275502 10.4116
47.506925052572285 10.4174
47.53125093475548 10.3373
47.55557909103813 10.3118
47.58009961361992 10.3217
47.60443234110732 10.2926
47.62876734791564 10.2742
47.65310463578333 10.2558
47.6776343683373 10.2424
47.7019762413987 10.1972
47.72632040075572 10.1799
47.75066684815169 10.2077
47.77520581885936 10.1543
47.799556865477655 10.1499
47.823910205386 10.1595
47.84826584033272 10.1237
47.87281407745551 10.1112
47.89717432569297 10.1177
47.92153687423484 10.0801
47.94609208429692 10.0477
47.97045925671401 9.99803
47.99482873471275 10.0073
48.01920052005013 10.0168
48.04376504619224 10.0131
48.068141469543484 10.01
48.09252020552573 9.91687
48.11690125590099 9.9136
48.1414751266064 9.89573
48.16586082917454 9.90664
48.19024885144316 9.84644
48.2146391951793 9.80953
48.239222439012764 9.81601
48.26361744916137 9.80526
48.28801478610016 9.81284
48.31241445160131 9.79899
48.337007097209366 9.7557
48.36141144338331 9.755460000000001
48.38581812345755 9.7266
48.41022713920929 9.732289999999999
48.434829215320704 9.68806
48.45924292604658 9.67683
48.48365897780325 9.704130000000001
48.50807737237308 9.64805
48.532688907799276 9.64066
48.55711201168574 9.606530000000001
48.581537463754074 9.5692
48.60615611725119 9.616530000000001
48.63058628942721 9.56419
48.65501881516546 9.5385
48.6794536962573 9.54983
48.70408185970339 9.52374
48.72852147531801 9.501669999999999
48.75296345168211 9.457989999999999
48.77740779059232 9.43396
48.80204549302823 9.46557
48.82649458091802 9.45071
48.85094603676547 9.418330000000001
48.87539986237231 9.394060000000001
48.90004713292306 9.401580000000001
48.92450572200832 9.339960000000001
48.94896668628025 9.30383
48.97343002754588 9.312710000000001
48.99808689542115 9.319939999999999
49.02255501470614 9.28002
49.04702551642794 9.241719999999999
49.0714984023988 9.2244
49.096164896893235 9.22493
49.120642575466796 9.194189999999999
49.145122643748394 9.205869999999999
49.16960510355558 9.17952
49.19428125404938 9.1615
49.2187685210852 9.15648
49.243258185121555 9.12247
49.26794160167084 9.08582
49.2924360839405 9.085289999999999
49.31693296869764 9.08173
49.34143225776915 9.07597
49.36612538195438 9.01335
49.39062950396021 8.99341
49.41513603578346 9.002989999999999
49.4396449792564 8.99815
49.46434784069503 8.94824
49.488861631846454 8.914489999999999
49.513377840166804 8.90338
49.537896467493745 8.88292
49.56260909589029 8.83474
49.587132585683285 8.85938
49.611658500018365 8.848339999999999
49.636186840738596 8.85471
49.66090926588511 8.81966
49.685442483902584 8.78558
49.70997813385706 8.78215
49.734516217597076 8.7449
49.75924846937352 8.75431
49.7837914452858 8.750210000000001
49.80833686055187 8.70289
49.83288471702571 8.68882
49.85762682540054 8.68292
49.882179588965734 8.65812
49.9067347993235 8.65029
49.93129245833333 8.63083
49.95604445336378 8.614360000000001
49.98060703442832 8.59682
50.005172069746266 8.591560000000001
50.02993150438364 8.56679
50.05450147301533 8.55139
50.07907390151433 8.52087
50.10364879174981 8.5046
50.12841816587289 8.51177
50.1529980044635 8.438089999999999
50.17758031042124 8.46531
50.20216508562089 8.45059
50.22694442953363 8.42215
50.25153416817468 8.43459
50.27612638170508 8.39378
50.300721072005196 8.37497
50.325510416102105 8.37665
50.350110084975064 8.32887
50.37471223628208 8.33762
50.39931687190919 8.341339999999999
50.424116246675766 8.29922
50.44872587605249 8.27487
50.47333799543065 8.264610000000001
50.49795260670191 8.24484
50.52276204271512 8.25367
50.54738166295838 8.25531
50.57200378079314 8.2086
50.596628398116835 8.18019
50.62144792604559 8.18554
50.646077567609396 8.147219999999999
50.670709714377715 8.1441
50.69553683636198 8.129380000000001
50.72017401885922 8.14058
50.7448137122895 8.131860000000001
50.76945591856022 8.08215
50.79429318636823 8.09556
50.818940443716784 8.048630000000001
50.84359021965163 8.0556
50.868242516085964 8.0434
50.893089960641895 7.9931600000000005
50.917747323549435 7.992369999999999
50.94240721271973 7.987480000000001
50.96706963007175 7.9564699999999995
50.99192728239342 7.97382
51.01659478166073 7.956239999999999
51.04126481489051 7.90544
51.06593738400761 7.883380000000001
51.090805275207074 7.898910000000001
51.11548294172845 7.85763
51.14016314993547 7.8462
51.164845901758845 7.833019999999999
51.18972406304274 7.832789999999999
51.21441192780656 7.802160000000001
51.23910234200271 7.79175
51.2637953075678 7.7770399999999995
51.288683770237945 7.74955
51.31338186432707 7.715439999999999
51.33808251561888 7.72422
51.362978729967345 7.69675
51.387684521509755 7.680389999999999
51.41239287610203 7.67132
51.437103795691165 7.65561
51.46201036644977 7.628419999999999
51.486726441956634 7.60284
51.51144508832545 7.616789999999999
51.536166307509156 7.59289
51.56108326624387 7.596089999999999
51.58580965706056 7.57834
51.61053862657523 7.5087
51.635270176746864 7.53141
51.66019755512065 7.51508
51.68493429268881 7.487369999999999
51.70967361681515 7.501710000000001
51.73441552946465 7.499
51.759353359237934 7.453930000000001
51.7841004750961 7.429060000000001
51.80885018539685 7.41587
51.833602492111254 7.425089999999999
51.8585508051424 7.399310000000001
51.883308330926425 7.384110000000001
51.90806845906181 7.3585
51.932831191525715 7.3609100000000005
51.95779001977161 7.3051
51.98255798721516 7.29323
52.00732856494335 7.3112699999999995
52.03229530577543 7.283589999999999
52.057071130455945 7.26006
52.081849571391054 7.23612
52.106630630568695 7.24494
52.13160794279417 7.2039100000000005
52.15639426492067 7.2070300000000005
52.18118321127822 7.214510000000001
52.205974783860896 7.1799
52.23096269971011 7.17771
52.255759551287994 7.156219999999999
52.280559035098186 7.1251
52.30536115314103 7.12471
52.33035970494467 7.0953100000000004
52.35516711807904 7.10193
52.37997717147198 7.08035
52.40478986713005 7.07218
52.42979908731974 7.06648
52.454617094216 7.05045
52.47943774942214 6.9958100000000005
52.50426105495102 7.011019999999999
52.529280976059844 7.027589999999999
52.554109609024096 6.9832399999999994
52.57894089837482 6.96285
52.60377484613117 6.9134199999999995
52.62880550079408 6.947030000000001
52.65364479223379 6.91449
52.67848674816189 6.867139999999999
52.70352547971946 6.919910000000001
52.72837279155837 6.90228
52.753222773982785 6.858110000000001
52.778075429022984 6.844410000000001
52.80312495150885 6.85411
52.827982978797436 6.815010000000001
52.85284368481815 6.78793
52.87770707160767 6.817639999999999
52.90276741793998 6.73999
52.92763619336701 6.7474
52.952507655698504 6.7281699999999995
52.977381806977576 6.756760000000001
53.00245301017842 6.7544699999999995
53.02733256653592 6.7082
53.052214817996074 6.6477699999999995
53.077099766608484 6.68893
53.102181859804446 6.675330000000001
53.127072229988265 6.68553
53.15196530349892 6.648860000000001
53.17686108239249 6.64318
53.20195409881522 6.604080000000001
53.22685531582556 6.6013399999999995
53.25175924441303 6.553059999999999
53.27666588664027 6.54199
53.30176985962693 6.52775
53.3266819565689 6.47004
53.35159677336455 6.51615
53.376514312083096 6.52275
53.40162927507703 6.51653
53.42655228516116 6.472090000000001
53.45147802340193 6.4656199999999995
53.47660125628886 6.4323
53.50153247842639 6.4356
53.52646643496923 6.44234
53.55140312799818 6.45597
53.576537409691696 6.41107
53.60147960336152 6.36241
53.626424539786164 6.40415
53.65137222105307 6.32199
53.67651758529126 6.32597
53.70147078399681 6.30656
53.72642673383343 6.30706
53.75138543689533 6.30461
53.776541917524526 6.28346
53.801506154876755 6.29515
53.826473151763246 6.26641
53.851442910284916 6.22809
53.87661054126026 6.21128
53.9015858509782 6.19975
53.92656392866066 6.204359999999999
53.95154477641532 6.19641
53.976723591801296 6.16165
54.00171000771266 6.1870400000000005
54.02669920004598 6.1477900000000005
54.051691170915745 6.11908
54.076881204886796 6.13289
54.101878760928514 6.11287
54.12687910187696 6.12911
54.152077577768296 6.11223
54.1770835166946 6.06951
54.20209224691339 6.02843
54.22710377055121 5.98498
54.25231352511594 5.98079
54.27733066384342 5.96338
54.30235060239643 6.01162
54.32737334290836 6.00577
54.35259441062629 5.92056
54.377622783395324 5.927219999999999
54.40265396455061 5.94002
54.42768795623251 5.91426
54.45292037169559 5.92692
54.477960012857906 5.86877
54.50300247099511 5.87237
54.52804774825457 5.86311
54.55329154616743 5.81493
54.57834249018678 5.830419999999999
54.6033962597977 5.79229
54.6284528571545 5.7416599999999995
54.653708072335164 5.70115
54.67877035378786 5.7302599999999995
54.70383546947698 5.6927
54.72890342156389 5.660419999999999
54.7541700889442 5.6368599999999995
54.77924374251975 5.595940000000001
54.8043202390049 5.61107
54.82959552413022 5.6205300000000005
54.8546777351945 5.58164
54.87976279569621 5.55837
54.90485070780914 5.58472
54.930137506558005 5.53797
54.95523115074295 5.53354
54.98032765308844 5.49445
55.005427015775496 5.4378
55.03072536339621 5.45017
55.05583047570572 5.435309999999999
55.080938454927676 5.37231
55.10604930325027 5.372669999999999
55.131359235107396 5.40029
55.15647585066083 5.34903
55.181595341907496 5.35168
55.20671771104285 5.28667
55.232039262617704 5.21025
55.25716741665048 5.22496
55.28229845518636 5.261430000000001
55.30743238042802 5.18797
55.33276558731939 5.17162
55.357905315183636 5.1650599999999995
55.383047936390035 5.12556
55.40819345314859 5.09282
55.433538351073295 5.10548
55.458689688238415 5.12124
55.483843927614096 5.008780000000001
55.509197623043605 5.03061
55.53435769621134 5.01368
55.55952067826466 4.9728
55.5846865714265 4.95115
55.61005202069737 4.95136
55.63522376553902 4.915690000000001
55.66039842818645 4.8913199999999994
55.68557601087004 4.88459
55.7109532500271 4.84863
55.73613670233794 4.82521
