TT I
1.2716486653135266 8.05958
1.2939594142134223 7.333410000000001
1.3162702121660406 7.06893
1.3385810600174564 6.83935
1.3608919586137629 7.66753
1.383202908801069 6.87586
1.405513911425503 7.1017600000000005
1.4278249673332093 7.255139999999999
1.4501343378461518 6.65302
1.4724455028545926 6.084919999999999
1.4947567236847858 6.133780000000001
1.517068001182951 6.26967
1.5393793361953272 6.14289
1.5616907295681737 5.27925
1.5840021821477681 5.61966
1.60631369478041 5.6763699999999995
1.6286252683124185 5.6102300000000005
1.6509369035901333 4.9263699999999995
1.6732468618895553 5.56893
1.695558623192809 5.092969999999999
1.7178704487808514 5.6138900000000005
1.7401823395001077 4.97729
1.7625012545597203 5.1782699999999995
1.7848028405262486 5.43127
1.8071218901122095 5.48648
1.8294236121921872 5.312819999999999
1.8517427996910911 5.0813
1.8740620574440425 5.383830000000001
1.8963639900671978 5.6170800000000005
1.9186833908139995 5.38863
1.9409854680117449 5.36543
1.9633050151394713 4.880269999999999
1.9856246367570705 4.17586
2.0079269371922672 4.99001
2.03024671027244 5.15399
2.0525491637446027 4.591
2.074869091674931 4.78843
2.097171701569106 4.59819
2.1194917877373847 4.84227
2.141811954326636 5.06425
2.164114805233074 4.51348
2.186435135143035 5.0465
2.208738150935709 5.0147699999999995
2.231058647554722 4.4657599999999995
2.2533792288321184 4.62125
2.275682498336085 4.31859
2.298003251406138 4.07831
2.3203066942619714 4.05806
2.3426276225136022 4.79012
2.3649486396617507 4.67724
2.387252348930071 4.560980000000001
2.4095735463442893 4.07569
2.4318774374315884 3.9524800000000004
2.4541988185014043 4.44715
2.476502894794693 4.26919
2.498824462909887 4.73643
2.521146125856138 4.45484
2.5434504863470337 4.69212
2.5657723414244717 4.832269999999999
2.588076895590662 5.18356
2.610398946189713 6.04631
2.6327210958598384 6.117780000000001
2.6550259469304716 5.4205
2.6773482972090137 5.80178
2.6996533504259 5.87588
2.7219759047039602 6.77302
2.744298562293959 6.44418
2.7666039251246595 6.74004
2.7889267918020164 7.0087
2.8112323652516555 7.4727
2.833555444408179 7.53521
2.8558786311183852 7.79367
2.8781845268938557 7.95937
2.9005079311721484 8.56373
2.9228140460410397 8.52104
2.9451376712799635 9.088189999999999
2.967444008632326 9.587589999999999
2.9897678582247247 10.0548
3.0120918213106695 10.8472
3.0343984987899373 10.677999999999999
3.0567226913198637 11.4059
3.079029599759726 12.2357
3.101354025127254 12.5266
3.123678568232338 13.2874
3.145985829517914 13.7714
3.16831061055229 13.8522
3.1906181112775593 14.3027
3.212943133635653 14.5925
3.2352682779763207 14.912
3.2575761442691227 15.7837
3.2799015350264273 15.7346
3.302209649240067 15.9985
3.3245352898092655 16.6042
3.3468436553365257 17.4868
3.369169549113219 17.7903
3.3914955708171384 18.4435
3.413804319727358 18.8317
3.4361305997334863 19.1279
3.4584396084414553 19.6382
3.4807661501462652 20.0113
3.503092824025881 20.6485
3.5254022288463154 20.4793
3.5477291695206588 20.9064
3.5700388426251948 21.5023
3.5923660534916446 22.1002
3.6146934007816114 22.2458
3.637003482731501 22.6488
3.6593311053109985 22.8984
3.681641464033634 23.3894
3.7039693653009733 23.9028
3.726297407241705 24.4376
3.7486081875460804 24.8618
3.7709365132734978 25.0946
3.793247578841633 25.6635
3.8155761917550093 25.9969
3.8378875459837216 26.5284
3.8602164494827234 26.678
3.882545499606844 27.5991
3.9048572932539183 27.875
3.9271866390645718 28.305
3.9494987298666713 28.839000000000002
3.971828374764527 29.061
3.9941581705403255 29.9116
4.016470713506008 30.191999999999997
4.038800813471445 31.0735
4.061113662089144 31.151999999999997
4.0834440696459176 31.9314
4.105774632334751 32.3049
4.128087945865126 33.0931
4.150418821249301 33.5018
4.172732448931298 34.2112
4.195063640413578 34.8938
4.2173775856475215 35.7786
4.239709096631102 36.5289
4.262040768704612 36.3907
4.284355196706267 36.8829
4.306687193387355 37.7622
4.329001947444346 39.1822
4.35133427213731 39.9972
4.373666762177566 40.6055
4.395982011761091 41.3825
4.418314834921175 42.4593
4.44063041906622 43.7924
4.4629635787515625 44.0869
4.4852969080429785 45.2123
4.5076130004776225 46.5045
4.529946671403969 47.0076
4.552263106909177 48.3433
4.574597122877047 49.3532
4.596931312711224 50.2237
4.619248269273446 51.5607
4.6415828092605835 52.7321
4.663900117405352 53.9914
4.686235010953232 55.4722
4.708552674085913 56.8905
4.730887924602802 58.3367
4.753223354952695 60.0658
4.775541557023902 61.4228
4.797877349456786 62.9513
4.820195915032126 65.1889
4.842532072957498 66.7059
4.864868414979744 68.4079
4.88718753227192 70.9693
4.909524244902505 73.3298
4.931843734218147 75.7232
4.954180820867835 78.8275
4.976518095879839 82.2738
4.998838149695359 86.2797
5.021175803844231 90.9485
5.043496238205739 95.4284
5.065834274903528 101.045
5.088172504230693 107.741
5.1104935158799565 116.773
5.132832132875765 130.19899999999998
5.155153533596801 152.406
5.1774925416746225 203.954
5.199814334878411 521.611
5.2221537374521505 1869.29
5.244493338631803 3740.07
5.266815727034316 5569.82
5.289155727832427 8560.67
5.311478517248165 9759.65
5.333818921080011 6103.8
5.356159527788849 1796.87
5.3784829252032536 414.176
5.400823940070432 205.153
5.423147747031976 159.672
5.445489173474152 138.386
5.467830807066149 126.552
5.490155234831516 119.462
5.512497285125229 113.955
5.534822130975162 110.7
5.557164601388673 107.58
5.579489868738879 103.75200000000001
5.601832762690846 101.944
5.6241758697774475 99.9403
5.646501775867269 99.1832
5.668845311622074 98.1592
5.691171647754637 97.4617
5.713515615597765 96.3214
5.735859800852677 95.7852
5.758186788542988 94.6291
5.780531411018185 94.9785
5.802858837297399 94.6283
5.825203900414495 95.5822
5.8475491852224 96.7064
5.869877275883075 98.387
5.892223006467101 100.835
5.914551544266608 104.70700000000001
5.936897724049891 111.07
5.959244129804903 122.742
5.981573344815301 151.546
6.0039202049061 279.79200000000003
6.026249875609095 732.068
6.04859719346037 1371.62
6.070927323278297 1963.38
6.093275102315365 2858.45
6.115623113320588 3942.97
6.137953938319995 4036.22
6.160302415650845 2183.75
6.182633708324452 650.909
6.2049826554078376 203.092
6.227331838745022 119.48100000000001
6.249663839443684 98.4335
6.27201349767565 88.8392
6.294345974611799 83.1735
6.316696111167083 78.5825
6.339046488263839 75.3997
6.361379686074702 72.967
6.383730546639482 70.5462
6.406064229255215 68.6601
6.428415576718203 67.7656
6.450749747566656 66.734
6.47310158535871 65.4187
6.495453669698332 64.4352
6.517788579421056 64.0967
6.540141159237969 62.5602
6.562476565766648 62.3094
6.5848296444934045 61.4499
6.607182974060425 60.7278
6.6295191323281015 60.2041
6.651872965955752 59.0714
6.6742096296068985 58.7475
6.6965639707294615 58.6476
6.71891856698715 57.7617
6.741255995248479 57.1511
6.763611104154477 56.9033
6.785949046381137 56.7855
6.808304671371482 56.2238
6.8306605557940046 55.9424
6.852999275508618 55.343
6.875355681171544 55.0226
6.897694923437771 54.9819
6.92005185377892 54.4862
6.9423916220322655 54.6188
6.964749080490181 53.6536
6.987106804399774 54.1362
7.009447368180821 53.8502
7.031805625367033 53.5492
7.054146723727803 53.3417
7.076505517631004 52.8312
7.098864581288365 53.1609
7.121206488070854 53.0334
7.143566093607822 52.6634
7.165908543567245 52.9331
7.188268694426048 52.4706
7.2106291193438095 52.1958
7.232972390625943 52.365
7.255333366030969 52.5766
7.277677189091925 52.1348
7.300038718428332 52.4611
7.322400526130865 52.158
7.344745183422596 52.4323
7.367107550224791 52.3894
7.389452767901992 52.6885
7.411815697249891 52.3305
7.434161478756298 51.8301
7.456524974096713 52.033
7.478888753837185 52.2703
7.501235387657368 53.411
7.523599738562711 55.4553
7.545946944825532 60.9921
7.568311870344528 61.9515
7.5906770845765665 58.5079
7.613025156078678 55.3119
7.635390950099687 53.9482
7.657739602662809 53.5958
7.680105979923558 53.5636
7.702472650212829 54.2684
7.724822180948224 54.3033
7.747189439655568 54.5439
7.769539560075357 54.3961
7.791907410653562 55.3215
7.81425812420825 54.9016
7.836626570110925 55.2339
7.858995315087906 56.1703
7.881346924933401 56.5199
7.903716270417482 56.7944
7.926068482028405 57.1882
7.948438431475253 58.0484
7.9708086843180235 58.8232
7.993161805171116 59.2619
8.015532667162402 59.5706
8.037886398416653 60.269
8.060257873014221 60.9697
8.082629655331942 62.0698
8.104984308787587 62.2539
8.127356708900503 62.885
8.149711981398308 63.8292
8.172085002766314 64.828
8.194458336181368 65.8696
8.216814543847752 66.7655
8.23918850371002 68.12100000000001
8.26154533906492 69.2182
8.283919928836452 71.1179
8.306277395339652 72.3563
8.328652618483376 73.9213
8.351028159736202 76.1805
8.373386579575245 78.7609
8.395762759396959 80.6679
8.418121819038275 83.6466
8.440498640894003 88.48
8.462875785192262 95.5888
8.485235811156207 109.51299999999999
8.507613602688501 170.00599999999997
8.529974277114228 358.671
8.552352719347912 589.7180000000001
8.574731488360351 772.6289999999999
8.59709314210385 915.6410000000001
8.619472567021075 1163.9
8.64183487789147 1573.13
8.664214962183097 1876.34
8.686577933647762 1636.67
8.708958680784317 924.927
8.731339760774953 390.159
8.753703729764451 170.226
8.77608547780821 115.234
8.798450116065078 102.79799999999999
8.820832535634787 97.1067
8.843215292401656 94.0287
8.865580941199045 91.7729
8.887964374703538 89.9642
8.910330701447199 88.0498
8.932714815164482 86.9767
8.955099270424924 85.6271
8.977466620733543 84.9825
8.999851761421976 84.3476
9.022219798361645 83.7885
9.04460562795561 83.4407
9.066991803441677 83.2739
9.089360876979615 82.7991
9.111747746589993 82.3587
9.13411751544971 81.7847
9.156505082664324 81.6547
9.178875550323522 81.8721
9.20126381862328 82.5295
9.223652438908596 86.7271
9.246023961427412 93.8662
9.26841328802173 94.9547
9.290785518039224 90.8726
9.313175554425882 86.2209
9.335565947154315 83.0238
9.357939245086508 82.68700000000001
9.380330352834827 82.5924
9.40270436697103 82.4171
9.425096193225055 82.2251
9.447488380180165 83.2988
9.469863475295412 83.8893
9.492256385987508 84.3004
9.514632206018318 84.5103
9.537025843935714 85.038
9.559402392368193 85.3261
9.581796761000229 86.4655
9.604191496441521 86.8872
9.626569144158516 87.1213
9.648964615551032 88.0382
9.671343000390081 89.3003
9.693739211225699 90.265
9.716135793237463 91.0399
9.738515290448102 92.1327
9.760912617143402 93.1765
9.783292860202891 94.3892
9.805690935076182 95.9838
9.828089385495742 97.1488
9.850470754023561 98.9644
9.872869957865444 101.641
9.89525208097539 104.52799999999999
9.917652041736662 108.089
9.940052382417589 113.977
9.962435644102392 129.592
9.984836746950979 182.78599999999997
10.007220771957746 336.26099999999997
10.029622640473708 535.3330000000001
10.052007432299963 676.15
10.074410069984072 751.957
10.096813093716005 860.1519999999999
10.119199042482517 1081.54
10.141602840636468 1434.41
10.163989564971628 1713.17
10.186394141051062 1543.56
10.208799107559706 947.0219999999999
10.231187001965623 458.79900000000004
10.253592751657669 207.18
10.275981430388155 132.54
10.298387966769793 116.262
10.320794897965431 111.535
10.343184759907361 107.943
10.36559248305461 105.72399999999999
10.387983138083852 104.87700000000001
10.410391656691655 106.663
10.432800574501677 120.835
10.455192425893369 162.753
10.47760214443012 212.782
10.499994797678786 247.261
10.522405320453982 266.329
10.54479877906917 293.08
10.567210109595656 343.62
10.5896218454736 422.76800000000003
10.612016518879773 495.19300000000004
10.634429067781074 494.074
10.656824555333241 364.154
10.679237920773568 223.31900000000002
10.701651695961992 133.07299999999998
10.724048411481384 100.425
10.746463008485165 90.40700000000001
10.768860546937125 86.87
10.791275969274796 83.9866
10.81369180576079 82.1977
10.836090585366925 81.1389
10.858507252467449 79.7017
10.88090686379991 78.3246
10.903324365036394 77.5231
10.925724811614439 76.2739
10.948143150509463 75.8343
10.970561909719066 74.77
10.992963615930844 73.9058
11.015383218085756 73.2415
11.037785768347074 72.0983
11.06020621697282 71.8942
11.082627090322113 70.9602
11.105030913430326 70.3899
11.12745263854165 69.893
11.149857314510728 69.1828
11.172279894912576 69.4744
11.194702904450653 68.1215
11.217108866490921 67.2087
11.239532736615194 66.997
11.26193956033512 66.6499
11.284364294577085 66.7158
11.306789462371718 66.2284
11.329197585398376 65.9992
11.351623622610898 65.5572
11.37403261614354 64.8303
11.396459526308487 65.0892
11.418869393879497 64.403
11.441297180532617 64.2647
11.463725406927658 64.075
11.486136592353875 63.4724
11.508565700543707 63.0602
11.530977768845315 63.2167
11.553407762368774 62.6399
11.575838200059769 62.7367
11.598251599479612 62.4487
11.620682927815501 62.4167
11.64309721895548 62.4752
11.665529441478206 62.0541
11.687962112597958 61.8631
11.710377748130886 62.1157
11.732811318753434 61.7563
11.755227854859067 61.6117
11.777662328529495 61.6598
11.800079768750786 61.358999999999995
11.822515149015453 61.4824
11.844950984084935 61.7473
11.867369787303163 61.7459
11.889806534289491 61.6731
11.912226250487029 62.3826
11.934663912939751 64.2179
11.9571020346363 65.567
11.979523127133968 65.5269
12.001962169624331 65.1765
12.024384183972964 65.0104
12.046824150809913 67.6547
12.069264581333726 77.459
12.091687985297767 90.3983
12.11412934550045 101.516
12.136553680195208 108.10700000000001
12.158995973632788 113.906
12.181438735204349 120.913
12.20386447284199 133.64600000000002
12.226308172985636 156.095
12.24873485024193 180.59599999999998
12.271179492516982 194.53599999999997
12.293607112949127 175.979
12.316052700916226 134.97799999999998
12.338498763250042 96.2675
12.360927805303868 74.3522
12.383374818673879 66.8145
12.405804812803074 64.4653
12.428252780773262 63.8628
12.45070122756722 63.5574
12.473132656675375 63.5268
12.49558206341869 63.4885
12.518014453510101 63.1985
12.540464823770117 63.38399999999999
12.562915677315177 63.3045
12.58534951575545 64.112
12.607801338171472 63.7041
12.630236146511358 64.5957
12.652688941369085 64.6202
12.675124723177234 64.7149
12.697578494048786 65.5044
12.720032754458185 65.53699999999999
12.742470003354093 65.9842
12.764925245138771 66.2064
12.787363476431278 66.6514
12.809819703166806 67.2961
12.83227642391173 67.9715
12.854716135692716 68.7133
12.877173846755147 69.7104
12.899614549869717 69.9504
12.9220732548287 71.0009
12.94453245827299 71.4265
12.966974655289818 72.6152
12.989434858002571 73.5338
13.011878055298721 74.4566
13.034339260862497 75.4675
13.056800969391883 76.983
13.079245674017244 79.3164
13.101708390774869 81.6322
13.12415410463411 86.5438
13.146617833206086 102.31200000000001
13.169064559883248 132.24
13.191529303857127 162.651
13.213994557076367 185.321
13.236442809902437 198.415
13.258909083908291 209.52599999999998
13.28135835851934 226.06900000000002
13.30382565690295 255.66299999999998
13.326293469022952 304.622
13.348744283242008 363.476
13.371213125129904 399.75199999999995
13.39366497011003 378.075
13.416134845360597 298.615
13.438605238843131 203.673
13.46105863690397 140.66899999999998
13.483530069144786 118.60799999999999
13.505984506951902 129.066
13.528456981549432 153.161
13.550929978879088 171.412
13.573385983253365 182.046
13.595860028340867 188.058
13.618317081455832 198.609
13.64079217790333 217.75
13.663250283359057 248.31400000000002
13.685726434770173 292.13
13.708203115221277 339.267
13.730662806148091 348.577
13.75314054697177 303.407
13.775601299246777 225.237
13.798080104050406 150.003
13.820559442405358 104.73700000000001
13.843021793671388 88.2097
13.865502201420897 82.6993
13.887965623051947 81.0157
13.910447103807167 79.4981
13.932929122629764 78.0017
13.955394156785959 77.7257
13.977877254034569 76.5282
14.000343367582113 75.5376
14.022827546871707 74.5854
14.045294743423524 74.0768
14.06778000837062 73.4308
14.090265817715476 73.2509
14.112734645763819 73.0375
14.13522154619454 73.6383
14.157691466286913 74.2084
14.180179461423874 73.51100000000001
14.202668005486178 72.4459
14.22513957064374 71.7008
14.247629214846473 70.7792
14.270101881097517 70.1865
14.29259262906496 69.8299
14.315083930490205 69.431
14.337558255389705 69.2754
14.360050666019726 68.9432
14.382526101071944 68.8091
14.405019624534942 68.5234
14.427513705993134 68.4923
14.449990813291825 68.5525
14.47248601302899 68.7817
14.49496423954951 68.5017
14.517460561197822 68.7185
14.539939910570322 68.3644
14.562437357763558 68.6881
14.58493536931253 69.0504
14.607416409993311 68.8698
14.62991555254159 69.4652
14.652397725157423 69.5204
14.674898002342799 69.6014
14.697398848433282 70.131
14.719882725991326 71.1332
14.74238471217934 71.6117
14.764869730765593 74.1415
14.787372860692983 80.5003
14.809876564079925 93.5118
14.83236330125751 106.53299999999999
14.854868153850365 115.84200000000001
14.877356041159485 121.29899999999999
14.899862046604186 124.73299999999999
14.922351087688757 130.143
14.944858249632887 139.27700000000002
14.967365991421232 153.991
14.989856770231246 173.15200000000002
15.012365673994204 197.882
15.03485761569738 212.86700000000002
15.05736768508665 204.923
15.07987833888692 174.41099999999997
15.102372032001655 135.066
15.124883856909658 100.57700000000001
15.14737872204565 81.529
15.169891721717274 73.6046
15.192405310371893 71.3703
15.214901940621196 70.2786
15.237416709527137 69.3731
15.259914520936249 69.0295
15.282430473753607 68.0434
15.304947020131227 67.7377
15.327446610371178 67.2782
15.349964346154254 66.7511
15.372465126703139 66.6127
15.394984055556009 66.5387
15.417486030076159 66.641
15.44000615566487 66.1573
15.462526881230803 65.9506
15.485030653812652 65.9773
15.507552581617434 65.97
15.530057557334603 65.866
15.55258069104857 65.8051
15.575104429329837 66.1354
15.597611216864632 66.0757
15.620136166564563 66.3696
15.6426441664095 66.9225
15.665170331202765 68.4944
15.687697105158826 73.817
15.710206930593545 83.9227
15.732734925158933 94.6332
15.755245972089478 102.57700000000001
15.77777519094324 107.351
15.800287463046663 110.01100000000001
15.822817909869592 113.193
15.84534897229804 118.825
15.867863089299354 128.95
15.890395385222186 141.639
15.912910736597423 159.609
15.935444269699861 179.053
15.957978423016485 187.065
15.980495633101265 176.347
16.003031029129367 148.78799999999998
16.02554948280019 114.165
16.048086125229432 87.0016
16.070623392487107 72.4733
16.09314371869582 66.2272
16.11568223789321 63.4528
16.13820381691126 62.0969
16.160743591742527 61.3428
16.183283996022084 60.6652
16.205807461423195 59.7464
16.228349126881973 59.1025
16.25087385432698 59.2594
16.27341678466365 58.5406
16.29594277784926 58.0066
16.31848697676433 57.583999999999996
16.341031811604868 56.8444
16.36355971058487 56.8378
16.3861058195587 56.6602
16.40863499352978 56.2543
16.431182380342005 56.1076
16.453730407713202 55.765
16.476261501364792 55.43
16.498810812136167 55.4879
16.52134319004079 55.6596
16.54389378792203 55.4094
16.566445031001553 55.1353
16.588979342490088 54.9449
16.61153187824822 54.9216
16.634067483263312 54.81
16.656621315414416 54.5852
16.679175797408888 54.3784
16.701713349928728 54.3187
16.72426913389191 54.5912
16.74680798922351 54.5523
16.76936507887444 54.4272
16.791905240734874 54.578
16.814463639794468 54.4002
16.837022695210294 54.446999999999996
16.859564824093756 54.3847
16.882125194503903 54.8121
16.904668639217885 55.0106
16.927230328348003 54.824
16.949792678493612 55.2883
16.972338104193863 55.3562
16.994901778652235 55.1649
17.017448529496576 55.3838
17.040013531998152 55.6596
17.06257920018044 55.9915
17.0851279459922 56.9133
17.107694947817667 59.0877
17.130245028099072 61.1288
17.15281336730298 63.3481
17.17536478578733 64.6684
17.19793446610687 65.2486
17.220504818648422 65.8418
17.243058251703697 66.4319
17.265629950971032 68.1588
17.288184731571736 70.4355
17.310757781306908 73.6599
17.33333150794385 77.0424
17.355888317140174 80.5746
17.37846339986244 82.9024
17.401021565958885 81.2586
17.42359800851343 76.8432
17.44617513265564 70.759
17.468735341390783 65.3902
17.491261035594565 61.5132
17.51396340099364 59.7855
17.536490463869136 59.5
17.559018209820174 59.1545
17.58154663977963 59.3848
17.604251766089718 59.6543
17.626781572227713 59.648
17.64931206518155 59.8222
17.671843245885103 60.1071
17.69455114821572 60.3182
17.717083712612634 60.5285
17.739616967569667 61.0254
17.762150914021706 61.5626
17.78486160749854 61.6295
17.807396945166804 62.4721
17.829932977143503 63.0476
17.85246970436452 64.0881
17.875183204129467 66.882
17.897721330097664 72.4871
17.920260154126645 78.5584
17.942799677153296 83.8196
17.9655159983646 87.0788
17.988056927677544 88.9152
18.010598558807683 90.3861
18.033140892692916 92.6394
18.05586005052525 95.7473
18.07840379824407 100.569
18.10094825154059 107.90299999999999
18.12366954819864 118.04
18.146215420998306 131.287
18.16876200220057 142.945
18.191309292745153 146.165
18.214033452627167 140.968
18.236582170236648 126.583
18.259131600016456 109.87700000000001
18.281681742907335 96.2544
18.304408781233683 89.0416
18.32696035875955 87.1625
18.349512652227624 88.3024
18.372065662579683 92.1402
18.394795594587553 96.7532
18.41735004715306 102.27
18.43990521943684 104.646
18.46246111238171 102.257
18.485193953325208 94.9034
18.507751296070428 84.7031
18.530309362314178 75.7669
18.552868153000343 69.3373
18.57560391815056 65.3188
18.59816416623245 63.4773
18.620725141597372 62.4674
18.643286845190268 61.7222
18.666025549835414 61.1809
18.688588718427933 60.3887
18.711152618092243 60.3506
18.73389353884365 60.1079
18.75645890921984 59.6514
18.77902501351406 59.3045
18.801591852673102 59.265
18.824335739722738 58.5823
18.846904057212626 58.5279
18.8694731124168 58.1107
18.89204290628315 58.2674
18.914789774966803 58.0657
18.937361054791623 57.5864
18.959933076131318 57.2203
18.982505839934877 57.3722
19.00525570560582 57.373000000000005
19.027829963004184 57.058
19.05040496572238 57.1767
19.072980714710468 57.1508
19.095733592739563 57.027
19.11831084296757 57.5123
19.140888842324735 58.8301
19.16346759176222 59.8699
19.18622349753803 61.0913
19.208803755869358 61.9188
19.231384767143577 62.4983
19.253966532312948 62.8154
19.276725481241822 63.2626
19.29930876296784 64.0842
19.3218928014549 64.865
19.34465404436217 66.1022
19.36723960516257 67.9401
19.389825925592426 70.3161
19.412413006605938 72.51
19.43517731967805 74.5249
19.457765930683355 74.5194
19.48035530514408 72.3948
19.50294544401556 68.4081
19.525712842708348 63.6464
19.54830451925909 59.5753
19.570896963095727 56.6198
19.593490175174704 54.9906
19.616260674962184 54.7601
19.638855432416964 54.108999999999995
19.661450960992624 54.1255
19.68404726164677 53.9856
19.706820878021247 53.8064
19.729418731756834 53.8969
19.752017360452857 53.8121
19.77461676506804 53.7636
19.797393513540218 53.882
19.819994478951667 54.0762
19.84259622316767 55.0085
19.8651987471481 56.0997
19.887978643247177 57.0931
19.91058273574792 57.864
19.933187610901943 58.4925
19.955969879466828 58.7152
19.97857632894404 59.1433
20.00118356396599 59.3735
20.023791585494575 59.9919
20.046577028914875 61.3773
20.069186632506966 62.7991
20.091797025500632 65.2236
20.114408208858933 67.9272
20.137196842715273 70.6164
20.159809615886765 72.9037
20.18242318232135 72.7184
20.20503754298326 71.1779
20.227829382875154 68.4855
20.250445341109344 65.755
20.27306209647285 63.2396
20.29567964993108 61.917
20.31847471147704 61.5886
20.34109387027612 62.5627
20.363713830075454 64.2145
20.386334591841646 65.4634
20.409132890679302 65.8241
20.431755265564437 64.5544
20.454378445325528 62.2856
20.477002430930366 59.0688
20.499803982716553 56.1218
20.522429589228004 53.5145
20.54505600449589 51.9163
20.567683229489194 51.273
20.590488049900088 50.8587
20.61311690359731 50.746
20.63574656993626 50.4762
20.658553853717297 50.0654
20.681185154618298 49.8653
20.703817271080066 49.8107
20.72645020407368 49.5063
20.749260783967177 49.5734
20.771895359337133 49.3794
20.794530754161617 49.4597
20.817166969412938 49.2107
20.83998086114876 49.2407
20.86261872660049 48.9162
20.885257415405402 49.0888
20.90789692853701 48.9547
20.930714147864748 48.9207
20.953355319030678 48.9853
20.97599731745334 49.1189
20.99864014410749 49.0882
21.021460706796564 49.1149
21.044105199328826 49.5911
21.06675052302631 49.7537
21.089396678865015 49.8512
21.112220600704806 49.8391
21.134868430275347 50.0122
21.15751709492456 49.8797
21.180166595629693 49.8686
21.202993892429635 50.1651
21.22564507473034 50.4315
21.24829709602816 50.5708
21.27112693608965 51.0605
21.293780644891275 51.705
21.316435195634053 51.8616
21.339090589297417 51.6244
21.361923832041875 51.5815
21.384580921090404 50.81100000000001
21.407238856007325 50.0323
21.429897637773326 49.5524
21.45273429906592 49.2249
21.475394784108598 48.9943
21.498056118951983 48.8273
21.520718304578022 49.0877
21.543558400304388 49.105
21.566222297108816 49.2647
21.58888704765135 49.3375
21.61155265291521 49.7931
21.63439619898156 50.696000000000005
21.657063523335786 51.672
21.67973170537063 52.6431
21.7024007460706 53.4313
21.72524775840385 54.0363
21.747918526116475 54.5013
21.770590155457388 54.5193
21.79326264741238 55.0527
21.816113141960237 55.7426
21.838787368860547 56.6544
21.861462461341976 57.9437
21.884315579735777 59.4374
21.90699241312273 61.0519
21.92967011506078 63.1533
21.95234868653799 65.094
21.9752053151131 66.4596
21.997885635446785 66.6641
22.020566828293532 65.9008
22.04324889464272 63.7499
22.066109049404666 60.8871
22.088792872571794 58.2863
22.111477572219204 56.8806
22.1341631493376 56.0606
22.157026846313123 56.2265
22.179714188221507 56.5364
22.202402410582668 56.9278
22.22509151438863 56.2967
22.24795876962584 55.1901
22.270649646204486 54.0469
22.293341407213727 52.6142
22.316034053646906 51.4835
22.338904883215342 50.4812
22.36159931041458 49.9031
22.38429462602756 49.706
22.40699083104897 49.3055
22.429865251039757 49.0892
22.452563244831367 49.2505
22.47526213102522 49.2892
22.49813925616515 49.2
22.520839937143307 49.163999999999994
22.543541513520587 49.0792
22.56624398629403 48.9853
22.589124730075895 49.0992
22.611829005656723 49.1949
22.63453418063466 49.2964
22.657240256008077 49.342
22.680124634582935 49.9992
22.70283252079775 50.7051
22.725541310413075 51.4906
22.74825100442868 51.7201
22.771139033969575 52.2195
22.79385054687155 52.1823
22.81656296718292 52.2567
22.83927629590484 52.6373
22.862167992606945 52.9015
22.88488314827121 53.2841
22.907599215359284 53.4776
22.93031619487366 54.0304
22.953211574954405 54.8238
22.975930389478226 55.8665
22.998650119445763 56.9551
23.02137076586092 57.8108
23.044269845560063 58.5498
23.06699233506288 58.8101
23.089715744034912 57.7975
23.112617610931565 56.2698
23.135342869061212 54.2634
23.158069049684816 52.4907
23.1807961538087 50.9689
23.20370174880544 50.1017
23.226430710184808 49.675
23.249160598093425 49.5616
23.271891413539002 49.5617
23.294800752937697 50.0459
23.31753343374794 50.832
23.340267045128353 51.2717
23.36300158808808 51.7839
23.38591468821339 51.9121
23.408651104658304 52.2449
23.431388455719986 52.1007
23.454126742409 52.1401
23.4770436196085 52.2225
23.499783787914662 52.8123
23.522524894889884 52.9964
23.54526694154616 53.5621
23.56818761219047 54.3328
23.59093154860734 55.0656
23.613676427751283 56.6913
23.636422250635754 57.7017
23.659346731118656 58.3951
23.68209445191868 58.4558
23.704843119509587 57.356
23.72759273490623 55.4988
23.750521041644767 53.4676
23.77327256312355 51.2375
23.796025035462787 49.4028
23.818956224555475 47.8833
23.841710609113413 47.2186
23.86446594758979 46.7013
23.887222241002014 46.221000000000004
23.910157285144578 46.0009
23.932915498962537 46.0345
23.955674670778713 45.7556
23.978434801611975 45.5717
24.001373717286125 45.56
24.024135776723917 45.4394
24.046898798245582 45.2307
24.06966278287146 45.056999999999995
24.092605586582614 44.843
24.115371508023642 44.5777
24.1381383956401 44.5076
24.16090625045381 44.3643
24.183852958731244 44.3898
24.206622758582608 44.343999999999994
24.229393528706886 44.125
24.252165270127392 44.3169
24.27511589952438 44.177
24.297889594216997 43.996
24.32066426328598 43.8659
24.34343990775613 43.8489
24.36639447485003 43.6427
24.38917208083877 43.7112
24.41195066531332 43.5943
24.43490819850244 43.4485
24.457688750692377 43.2994
24.48047028445616 43.1795
24.503252800821233 43.38
24.526214300784112 43.4726
24.548998793132213 43.3355
24.57178427117417 43.2224
24.59457073593893 43.2819
24.617536219319863 43.263000000000005
24.64032466834748 43.4501
24.663114107195035 43.4476
24.685904536893013 43.2415
24.708874020360852 43.315
24.731666442613744 43.2526
24.754459858818787 42.9562
24.777254270007962 42.9439
24.80022777025625 42.6965
24.82302418230472 42.6813
24.845821592443674 42.7631
24.86862000170663 42.9109
24.891597535453727 42.7025
24.914397953892728 42.9451
24.93719937456671 42.891000000000005
24.96000179851076 43.1151
24.98298338249997 43.1456
25.00578782394922 43.239
25.028593271784167 43.3171
25.05157790644186 43.6216
25.07438537804115 43.8985
25.097193859145293 44.0869
25.120003350792075 44.2683
25.142992065061257 44.4541
25.165803588823465 44.7243
25.18861612625217 44.9979
25.211429678386736 45.1544
25.234422489079968 45.3525
25.257238081693636 45.4185
25.280054692141732 45.5607
25.3028723214652 45.4704
25.325869245420463 45.361999999999995
25.348688923599397 45.2517
25.371509623787006 45.285
25.394331347025812 45.3095
25.41733240110666 45.4196
25.440156181590016 45.3241
25.46298098826268 45.1852
25.48580682216873 44.7132
25.50881202326435 44.1444
25.53163992281684 43.376999999999995
25.55446885274561 42.6373
25.577298814096377 42.0038
25.600308179121807 41.6252
25.623140214533745 41.4851
25.64597328451537 41.367
25.66898578564376 41.0171
25.691820936010206 41.0707
25.714657124097695 41.2117
25.737494350954734 41.2113
25.760511045684957 41.0174
25.783350361364224 41.2255
25.806190718969255 41.3136
25.82903211955018 41.4466
25.852053024868923 41.5187
25.874896522722523 41.5671
25.897741066713106 41.4156
25.920586657892454 41.3172
25.943611790812668 41.3117
25.966459487728237 41.3028
25.989308234998564 41.1893
26.01215803367705 41.3902
26.03518741123814 41.4369
26.05803932412957 41.5011
26.080892291600094 41.5028
26.10374631470478 41.6629
26.12677995397268 42.0177
26.14963609978026 42.3581
26.172493304397875 42.2715
26.19535156888223 42.4955
26.218389486949604 42.2727
26.241249882640123 41.9773
26.26411134137826 41.6036
26.28715248187403 41.4466
26.31001607820869 41.2686
26.3328807407756 40.9301
26.35574647063438 41.0639
26.37879191991473 41.0501
26.401659795896734 41.0869
26.424528742360263 41.24100000000001
26.447398760366614 41.2758
26.470448535598294 41.2034
26.49332070826805 41.3532
26.516193955675355 41.4752
26.53906827888316 41.5077
26.562122397260108 41.5753
26.584998883685063 41.7914
26.607876449110325 42.0643
26.63075509460056 42.1541
26.65381357334404 42.3902
26.67669439061878 42.5494
26.699576291163382 42.8204
26.722459276044212 43.1297
26.745522132402975 43.1596
26.768407297649354 42.9764
26.791293550442003 42.577
26.814180891848974 42.3401
26.837248143099337 41.8443
26.860137673466657 41.57
26.88302829566349 41.3189
26.90592001075963 41.261
26.92899167420566 41.1226
26.951885586870763 40.754
26.974780595655517 40.6014
26.99785558178161 40.2888
27.020752794605112 40.0183
27.043651106772522 39.8984
27.06655051935668 39.626999999999995
27.089629948036183 39.4156
27.112531573292053 39.3551
27.135434302194138 39.4789
27.158338135817015 39.376
27.181422024430987 39.2648
27.204328079372566 39.2484
27.22723524226965 39.3215
27.250143514198573 39.2365
27.273231880156334 39.3406
27.296142382065014 39.0418
27.319053996245536 38.9858
27.341966723775965 39.0293
27.365059584515222 39.1479
27.38797455070062 39.0232
27.410890633481237 38.8792
27.433807833936918 38.9165
27.456905206923906 38.9377
27.47982465472398 38.9086
27.502745223449743 38.9274
27.525666914182825 39.1274
27.548768816912457 39.1318
27.571692763693633 39.0704
27.59461783573812 39.0427
27.617723149491244 39.0415
27.640650484125285 39.0409
27.66357894728264 39.1291
27.686508540048052 39.1462
27.709618414237887 38.9687
27.732550278321757 38.8929
27.755483275279115 38.7694
27.778417406196485 38.7957
27.801531858397514 38.7957
27.824468269376716 38.6513
27.847405817586786 38.5047
27.870344504116094 38.6363
27.893463551932008 38.6397
27.916404527281053 38.9312
27.93934664422563 38.8558
27.962289903855886 38.8586
27.98541356491974 39.1085
28.00835912214229 39.0378
28.03130582533231 39.1732
28.054253675581805 39.361999999999995
28.077381967556104 39.4666
28.100332124185126 39.5075
28.123283431160893 39.584
28.146235889577238 39.7892
28.169368830154156 39.7363
28.192323603752033 39.648
28.215279532083304 39.4267
28.238415973016764 39.1577
28.261374223145094 38.9885
28.284333631303806 38.7141
28.307294198589954 38.6361
28.330435319167677 38.3704
28.353398217078915 38.2489
28.376362277420153 37.9582
28.39932750129032 37.8541
28.422473319286713 37.5241
28.44544088262495 37.4892
28.468409612800283 37.0108
28.491379510913497 36.6049
28.51453004413313 36.5305
28.53750229057244 36.5303
28.56047570826344 36.4112
28.583450298308804 36.4801
28.606605564586562 36.315
28.629582511831156 36.35
28.65256063474956 36.1982
28.675539934446338 36.3171
28.698699951647605 36.2004
28.72168161743193 36.1097
28.74466446331978 35.9952
28.767648490417624 35.9805
28.790813276438353 35.7439
28.813799678527303 35.8585
28.836787265157085 35.8992
28.859955641890075 35.9309
28.882945610203045 35.8469
28.905936766392035 35.8001
28.928929111566863 35.8447
28.952102288520145 35.8683
28.975097024308607 35.7423
28.998092952423807 35.7207
29.021090073977508 35.7471
29.04426806913204 35.6089
29.067267590245258 35.4624
29.090268308143695 35.3846
29.11327022394099 35.3146
29.13645305530891 35.1769
29.159457379627167 35.0239
29.18246290519685 34.925
29.20546963313352 35.0097
29.22865731875826 34.9037
29.25166646419296 34.7795
29.27467681535305 34.5756
29.29768837335608 34.5719
29.320880931312562 34.7471
29.34389491580634 34.6353
29.366910110507334 34.5895
29.38992651653503 34.5908
29.41312396492981 34.5282
29.436142806456754 34.6041
29.45916286268059 34.5336
29.48236399319994 34.5548
29.50538649169417 34.4787
29.528410208259935 34.4793
29.55143514402014 34.3034
29.574641196749695 34.2539
29.597668583816574 34.0338
29.6206971934585 33.8468
29.64372702680042 33.7955
29.666938019934474 33.6171
29.689970313635285 33.5205
29.713003834422636 33.4576
29.73603858342347 33.387
29.759254535188578 33.2966
29.78229175361658 33.2303
29.80533020365064 33.3537
29.82836988641968 33.3752
29.85159081507472 33.274
29.874632976355343 33.1186
29.89767637376955 33.2501
29.920721008448314 33.1039
29.9439469322847 33.1154
29.96699405457564 33.0774
29.9900424175358 33.0246
30.013092022298157 33.0307
30.03632295963995 33.0054
30.059375061131373 32.9873
30.08242840783577 32.9905
30.105483000888153 32.9453
30.128718970092244 32.8776
30.151776069006917 32.8899
30.17483441768648 32.8429
30.198074175317235 32.883
30.221135036724256 32.9116
30.24419715131772 32.8205
30.267260520236203 32.6769
30.290505341942243 32.7547
30.313571232750228 32.9284
30.336638381310948 32.9452
30.35970678876503 32.8361
30.38295669299435 32.808
30.40602763151657 32.8389
30.429099832366074 32.7385
30.452173296685572 32.7597
30.47542830191959 32.6857
30.498504306502497 32.6416
30.521581577995562 32.7129
30.544660117543582 32.7063
30.56792024229725 32.5863
30.59100133132069 32.4367
30.614083691845494 32.4878
30.637167325018545 32.6469
30.660432587840603 32.6501
30.683518779717886 32.5071
30.70660624769615 32.6291
30.729694992924372 32.6597
30.75296541239743 32.7041
30.77605672557558 32.6931
30.799149319462742 32.6733
30.8224236211637 32.741
30.845518789950724 32.6333
30.868615242910597 32.5762
30.891712981195973 32.4647
30.91499247215866 32.4013
30.938092794619365 32.4178
30.96119440587579 32.2392
30.984297307082752 32.144
31.00758200598383 32.0037
31.030687500658694 31.7504
31.053794288760695 31.7495
31.076902371446767 31.6786
31.100192296997445 31.7788
31.12330298246119 31.5826
31.14641496599209 31.5077
31.169528248749216 31.4827
31.19282341969534 31.5478
31.215939314557186 31.5013
31.239056512134788 31.4463
31.262175013589378 31.541999999999998
31.28547544871168 31.344
31.30859657161541 31.2968
31.331719001892175 31.2954
31.35484274070538 31.4438
31.378148458819545 31.3584
31.401274828443725 31.3763
31.424402510106933 31.311999999999998
31.447712205419993 31.4127
31.470842524931633 31.2067
31.493974159989783 31.3474
31.51710711176168 31.2924
31.54042212308802 31.314
31.563557722100917 31.2922
31.586694641341655 31.2663
31.609832881979628 31.2982
31.63315322823208 31.1768
31.656294125521327 31.0385
31.679436347728515 30.9959
31.70257989602529 30.9496
31.725905596152327 30.8454
31.74905181052835 30.7701
31.772199354521323 30.8042
31.79534822930507 30.7605
31.818679302290967 30.7286
31.84183085259981 30.6141
31.864983737233473 30.5673
31.88813795736804 30.5655
31.911474422233013 30.6031
31.934631327356435 30.6223
31.9577895715215 30.6074
31.980949155906522 30.6026
32.004291031706956 30.5819
32.027453310562606 30.4999
32.05061693318573 30.35
32.07396288236386 30.3825
32.09712920658542 30.5258
32.12029687812702 30.3424
32.14346589817093 30.2729
32.166817291729984 30.1465
32.18998902288583 30.041999999999998
32.21316210610336 30.0361
32.23633654256711 29.9406
32.259693399663725 29.8431
32.282870556771144 29.7071
32.30604907069099 29.7913
32.329228942610065 29.6937
32.35259128243769 29.5295
32.375773884550505 29.4655
32.398957848235646 29.3091
32.422143174682176 29.338
32.445511016471215 29.2832
32.468699082679954 29.2302
32.49188851523011 29.2374
32.51507931531304 29.0935
32.538452678331 29.0926
32.56164622776311 28.9583
32.58484114831493 28.8982
32.60803744118015 28.9659
32.631416344731896 28.916
32.654615396551876 28.8315
32.67781582427913 28.9135
32.701198898634416 28.776999999999997
32.72440209253756 28.7536
32.747606665947124 28.6388
32.77081262006088 28.5833
32.79420126883317 28.5715
32.81740999876112 28.5835
32.840620112999424 28.5255
32.86383161274818 28.4527
32.88722585534586 28.4709
32.91044014056596 28.5469
32.933655814909734 28.4081
32.95687287957963 28.4029
32.98027273544904 28.5001
33.00349259526636 28.4147
33.026713849030116 28.4273
33.04993649794511 28.3234
33.073341986570746 28.2671
33.09656744032826 28.1545
33.11979429286444 28.2497
33.14302254538647 28.2567
33.166433686291185 28.1562
33.18966475336992 28.046999999999997
33.212897224069096 27.9866
33.23613109959831 28.0566
33.259547912343415 27.9733
33.2827846121627 28.0307
33.306022720453775 27.9791
33.32926223842861 27.8447
33.352684742614166 27.9681
33.37592709463173 27.9251
33.399170859982064 27.8801
33.422597648419426 27.6983
33.44584425514446 27.6854
33.46909227885668 27.6941
33.4923417207723 27.4524
33.51577423505344 27.5834
33.539026528130385 27.4909
33.56228024307245 27.343000000000004
33.585535381098246 27.2263
33.60897364093058 27.122
33.63223163992385 27.1812
33.6554910656699 27.0713
33.678751919389796 27.1095
33.702195944520106 27.041999999999998
33.72545966903325 27.0388
33.74872482519663 26.8669
33.771991414233746 26.9241
33.79544122444841 26.8886
33.81871069412428 26.7478
33.84198160035767 26.7499
33.86525394437455 26.807
33.88870955949969 26.6483
33.911984794020626 26.75
33.93526147001624 26.6477
33.958539588715006 26.6036
33.98200102861669 26.5434
34.0052820477047 26.4944
34.02856451319451 26.5301
34.05203033759056 26.4601
34.07531571090147 26.4299
34.09860253431845 26.3828
34.121890809074316 26.2625
34.145362493118924 26.3354
34.16865368561615 26.259
34.191946333164054 26.1906
34.21524043699793 26.185
34.23871800066799 26.2024
34.26201503218366 26.0972
34.28531352370466 26.0516
34.30861347646881 25.9847
34.33209693978188 25.9594
34.3553998301885 25.9071
34.378704185565205 25.8397
34.402010007152356 25.7611
34.42549939016683 25.7477
34.44880815937748 25.7235
34.472118398533134 25.6669
34.49543010887669 25.6548
34.51892543169198 25.6457
34.54224009966052 25.5369
34.56555624255917 25.5617
34.58887386163339 25.4569
34.61237514439016 25.3227
34.6356957311114 25.3263
34.65901779775809 25.3072
34.68252356662995 25.2791
34.705848608458616 25.2335
34.72917513396849 25.1867
34.75250314440949 25.1783
34.77601490857862 25.0975
34.799345904259795 25.0506
34.82267838863559 24.9464
34.846012362958525 25.0193
34.869530142679984 25.0367
34.89286711232212 24.914
34.91620557568269 24.9267
34.93954553401677 24.886999999999997
34.9630693495876 24.8765
34.986412313340814 24.9976
35.00975677584668 24.9248
35.033102738362956 24.8367
35.05663261012228 24.7381
35.0799815881786 24.719
35.10333207003229 24.7209
35.12668405694369 24.6505
35.150220005273056 24.6878
35.17357501786656 24.6277
35.19693153931268 24.5498
35.220289570874385 24.5446
35.24383161619786 24.5142
35.267192683604904 24.4672
35.290555264930376 24.4736
35.314101899412165 24.4213
35.33746752422433 24.4691
35.36083466676374 24.4548
35.38420332829803 24.3587
35.407756095629054 24.369
35.43112781085063 24.3664
35.45450104888391 24.3572
35.477875810999194 24.2426
35.50143473172161 24.2256
35.52481255774625 24.2832
35.54819191167777 24.1963
35.57157279478914 24.1927
35.595137889488406 24.156
35.61852184675279 24.1469
35.641907337029984 24.0437
35.665294361595684 24.0006
35.68886565090076 23.965
35.7122557598848 23.9354
35.73564740699838 23.9254
35.759040593519934 23.9029
35.78261809810353 23.8407
35.80601437933051 23.7437
35.829412203814705 23.7079
35.85281157283719 23.614
35.876395313415884 23.6996
35.8997977874528 23.5776
35.92320180988546 23.5334
35.946790244133936 23.4902
35.97019737933222 23.4859
35.993606066789866 23.4328
36.01701630779276 23.4915
36.04061101440684 23.4046
36.06402437852291 23.3321
36.08743930005611 23.3861
36.1108557802951 23.2392
36.13445678011326 23.2616
36.15787639383515 23.2341
36.18129757014299 23.2156
36.20472031032821 23.1999
36.22832762423364 23.1147
36.25175350829375 23.1234
36.275180960119776 23.0606
36.298609981005924 23.0595
36.32222362992669 23.0669
36.34565580510207 23.0272
36.36908955323448 22.9174
36.39252487562093 22.7859
36.416144880530226 22.8213
36.43958336764275 22.8114
36.463023432914625 22.7605
36.486465077645676 22.7271
36.51009145956204 22.7361
36.53353627947859 22.7356
36.55698268276811 22.5846
36.58043067073321 22.6205
36.60406345072071 22.5091
36.62751462435344 22.5426
36.65096738658405 22.5481
36.67460498210655 22.578000000000003
36.69806093788647 22.5784
36.72151848619297 22.4283
36.744977628333636 22.4204
36.76862165890998 22.3698
36.79208400512205 22.3719
36.81554794910557 22.2803
36.83901349217101 22.245
36.862663978991606 22.1908
36.88613273667352 22.2624
36.90960309738324 22.217
36.933075062434064 22.1143
36.95673202673572 22.0685
36.98020721697122 22.01
37.003684015502365 21.9921
37.027162423645365 21.9781
37.050825886711465 21.9123
37.07430753063053 21.8715
37.09779078812467 21.7959
37.121275660513014 21.7759
37.144945643673694 21.7705
37.16843376245278 21.7692
37.19192350009803 21.7104
37.215414857931435 21.6458
37.239091382563885 21.5512
37.262585997426164 21.5723
37.28608223645736 21.5801
37.309763684451696 21.5839
37.33326318851098 21.5879
37.356764320726555 21.484
37.380267082425526 21.4776
37.40395510942588 21.43
37.42746114683234 21.3571
37.45096881771841 21.3333
37.474478123414166 21.3957
37.49817275092816 21.2975
37.52168534303452 21.2476
37.54519957395567 21.2055
37.568715445024665 21.2003
37.592416694607714 21.1466
37.61593586281424 21.1147
37.63945667518264 21.2447
37.66297913304891 21.0524
37.68668702630454 21.0293
37.710212792059274 21.0025
37.733740207334854 21.0023
37.757269273470364 20.9549
37.780983832050374 20.91
37.80451621684926 20.8481
37.82805025654007 20.802
37.851585952464795 20.7937
37.8753071980695 20.7435
37.89884622345676 20.6783
37.92238690911902 20.645
37.94611318753442 20.5507
37.969657210779765 20.5874
37.99320289834801 20.5654
38.016750251586465 20.5324
38.04048325513017 20.4851
38.06403395679343 20.4537
38.087586328183946 20.3931
38.11114037065203 20.3765
38.13488012115898 20.4025
38.1584375229181 20.3335
38.181996599821 20.2806
38.205557353221124 20.3042
38.229303872575656 20.2521
38.2528679961576 20.1476
38.27643380031219 20.1733
38.30000128639589 20.1019
38.32375459653193 20.1321
38.34732546371299 20.1222
38.37089801690786 20.0269
38.39447225747609 19.9539
38.418232380377425 19.9486
38.441810012983396 19.9901
38.46538933705673 19.8602
38.488970353960084 19.8916
38.51273731166058 19.9326
38.536321731567014 19.7985
38.55990784840681 19.823
38.58367995004091 19.7791
38.60726947812959 19.6765
38.63086070726198 19.7111
38.654453638806274 19.6884
38.678232613930824 19.5903
38.70182896773327 19.5938
38.72542702806741 19.5818
38.7490267963045 19.5374
38.77281266709232 19.546
38.79641586862214 19.5488
38.8200207821842 19.4708
38.843627409152944 19.4797
38.86742019782782 19.3956
38.891030269149255 19.3225
38.914642058016156 19.3081
38.938255565806124 19.2886
38.96205529464307 19.2086
38.98567225787121 19.2764
39.00929094417078 19.2441
39.03291135492255 19.1898
39.05671804624804 19.1336
39.080341923549106 19.0841
39.103967529460334 19.0671
39.127594865365744 18.9845
39.15140854155791 18.9988
39.17503935514948 18.9324
39.19867190290282 18.9855
39.22249083587951 18.9618
39.24612686969409 18.8977
39.269764641845306 18.8331
39.293404153722804 18.8808
39.317230110864074 18.7978
39.34087311998506 18.7184
39.36451787301696 18.6897
39.388164371352595 18.6993
39.41199737518003 18.6897
39.43564738196752 18.7077
39.45929913825317 18.6351
39.48295264543308 18.6258
39.506792718520884 18.6011
39.530449745387216 18.5652
39.55410852735203 18.5164
39.57776906581474 18.5208
39.60161623079 18.4108
39.625280300200025 18.4038
39.64894613032202 18.3842
39.67261372255866 18.3677
39.6964680021016 18.3184
39.72013913657293 18.339000000000002
39.74381203738292 18.302
39.76748670593756 18.2985
39.79134812278169 18.3092
39.81502634488497 18.188
39.83870633896685 18.1509
39.862388106436654 18.1242
39.88625668336918 18.122
39.90994201572829 18.085
39.933629125719285 18.0724
39.957503091207826 17.9506
39.9811937746168 17.9991
40.00488623990914 17.9233
40.02858048850006 17.8822
40.05246165409549 17.8896
40.076159487492085 17.8171
40.099859108448875 17.8749
40.123560518384345 17.7767
40.1474489070226 17.7559
40.171153913178564 17.7068
40.194860712584955 17.7365
40.2185693066637 17.6919
40.242464941335314 17.6673
40.26617714307655 17.7238
40.289891143772046 17.6383
40.3136069448471 17.5996
40.33750984859743 17.5408
40.3612292688043 17.5348
40.3849504936829 17.4693
40.40867352466194 17.5415
40.43258372059144 17.4722
40.45631038219906 17.4296
40.48003885420956 17.449
40.503769138055105 17.3989
40.52768664931955 17.3802
40.55142057531802 17.3514
40.57515631746428 17.3102
40.599079334038514 17.2836
40.62281872700477 17.1845
40.64655994043941 17.1991
40.67030297578061 17.1786
40.69423334835778 17.1128
40.71798004609188 17.1897
40.74172857006355 17.0774
40.76547892171441 17.1051
40.7894166736039 17.0299
40.813170699248566 17.0123
40.83692655691388 17.0022
40.86068424804498 16.9688
40.884629402612525 16.9598
40.908390779366385 16.9012
40.932153993938 16.8957
40.95591904777605 16.8598
40.979871628443995 16.8497
41.003640379561936 16.8092
41.02741097430883 16.7928
41.05118341413683 16.7365
41.075143444384416 16.7282
41.098919593177826 16.7456
41.1226975914255 16.7622
41.14647744058318 16.6535
41.170444943946755 16.5105
41.19422851378379 16.6131
41.218013938914645 16.5752
41.24198706625173 16.4947
41.26577622087193 16.441
41.289567235177785 16.4994
41.31336011063129 16.4928
41.337340752422875 16.3866
41.361137369129835 16.43
41.38493585138705 16.3831
41.40873620066004 16.3235
41.43272438060107 16.3579
41.45652848292052 16.2897
41.48033445666918 16.159000000000002
41.50414230331616 16.1994
41.528138045159764 16.1492
41.551949656675205 16.1606
41.575763145513235 16.1216
41.59957851314666 16.1317
41.62358184070442 16.1339
41.64740098505737 16.0714
41.6712220126409 16.0441
41.69504492493139 16.0161
41.71905586207357 15.982999999999999
41.74288256296395 15.9746
41.766711153007456 15.9036
41.79054163368412 15.8872
41.814560204340054 15.8659
41.838394485526365 15.8841
41.86223066180303 15.8197
41.88625497706819 15.8104
41.910094962812 15.818
41.93393684811168 15.7925
41.95778063445365 15.7643
41.981812625263366 15.6597
42.00566023303407 15.635
42.029509746323676 15.6305
42.05336116662236 15.5873
42.077400857069705 15.6154
42.10125611078846 15.604000000000001
42.12511327600405 15.5501
42.14897235421036 15.5069
42.173019768448455 15.509
42.19688269209613 15.4615
42.22074753323349 15.4325
42.24461429335818 15.4473
42.268669455600495 15.3913
42.292540073217886 15.3867
42.31641261433284 15.3117
42.34028708044675 15.2961
42.36435001496739 15.2776
42.38822835065557 15.2979
42.41210861586426 15.1962
42.4359908120986 15.3104
42.46006154323262 15.1297
42.48394762115317 15.1088
42.507835634632315 15.1365
42.531912233047436 15.0861
42.55580413732265 15.1234
42.579697981698 15.0992
42.60359376768525 14.993
42.62767820545945 14.9679
42.65157789440821 14.9987
42.67547952952185 14.9296
42.699383112316 14.8981
42.72347541395347 14.8691
42.74738291190531 14.8428
42.771292362102166 14.8413
42.795203766063516 14.8399
42.819303956130405 14.8481
42.843219287476536 14.762
42.86713657716324 14.7349
42.89105582671383 14.72
42.91516392983864 14.6435
42.939087119032166 14.6876
42.963012272677304 14.6691
42.98693939230129 14.5942
43.01105543317513 14.5712
43.034986504731386 14.5669
43.05891954686589 14.5434
43.08285456110972 14.5515
43.10697856448665 14.4305
43.130917542983475 14.4084
43.15485849820081 14.4505
43.17880143167367 14.335
43.20293342237094 14.3677
43.226880332449 14.3285
43.25082922540554 14.3753
43.27496722682525 14.3102
43.29892010567796 14.2492
43.32287497204102 14.2809
43.34683182745632 14.2405
43.370977859791836 14.2077
43.39493871351105 14.2631
43.41890156092628 14.1811
43.44286640358341 14.1486
43.46702049182749 14.1363
43.49098934522816 14.1136
43.51496019852649 14.0561
43.5389330532723 14.034
43.56309522248204 13.9988
43.58707210044314 14.0191
43.61105098451946 13.9394
43.63503187626491 13.9214
43.659202151562134 13.9029
43.68318707902681 13.8788
43.70717401884041 13.8864
43.731162972560874 13.8529
43.75534137913236 13.8489
43.779334381108384 13.8108
43.803329401683186 13.8041
43.82732644241872 13.7747
43.8515130055166 13.7482
43.87551410707659 13.6598
43.89951723350145 13.6474
43.923709934595614 13.7009
43.94771713129917 13.6646
43.97172635758096 13.62
43.99573761501002 13.6297
44.0199385169922 13.5685
44.04395385732619 13.5698
44.067971233533086 13.5181
44.09199064718605 13.4396
44.11619977548961 13.4376
44.14022328470671 13.4312
44.16424883610785 13.459000000000001
44.18827643127035 13.4379
44.21249381139513 13.368
44.236525514814076 13.3409
44.26055926674478 13.364
44.28459506876863 13.3709
44.3088207262813 13.2201
44.33286064928722 13.2637
44.35690262714919 13.2235
44.38094666145278 13.2174
44.4051806219871 13.2303
44.42922879003185 13.1504
44.45327901929361 13.106
44.477331311362136 13.1481
44.501573600619416 13.0694
44.525630039221795 13.0423
44.54968854541895 13.0887
44.573937102200176 13.0436
44.5979997645541 12.937999999999999
44.622064499300315 12.9594
44.64613130803592 12.9371
44.67038823869318 12.991
44.69445921643748 12.9054
44.718532272981385 12.8743
44.742607409926194 12.8348
44.76687274034801 12.7944
44.79095205918753 12.7783
44.81503346325094 12.8332
44.839116954143876 12.8071
44.86339071028742 12.7789
44.88747839599524 12.7624
44.91156817336837 12.7402
44.93566004401666 12.7066
44.959942251908146 12.6636
44.984038330325966 12.6559
45.00813650686762 12.5549
45.03223678314731 12.6368
45.05652746888232 12.5557
45.08063196592069 12.5446
45.104738567558705 12.5066
45.128847275414856 12.5559
45.15314646515866 12.5137
45.17725940679741 12.4877
45.20137445952892 12.4567
45.22568004865265 12.4481
45.24979934496396 12.4145
45.27392075725247 12.3792
45.29804428714431 12.3711
45.322358426247604 12.3648
45.346486212804315 12.2915
45.370616121861914 12.2753
45.39474815505086 12.2697
45.41907087049246 12.2066
45.4432071734666 12.1926
45.46734560548283 12.2223
45.49148616817604 12.2067
45.51581748638564 12.1242
45.5399623320197 12.1761
45.56410931325473 12.1207
45.58825843173002 12.0466
45.61259837920865 12.0633
45.636751793816 12.0717
45.66090735060093 12.0468
45.68506505120716 12.0117
45.7094136545275 11.9964
45.73357566449271 11.946
45.75773982322992 11.9489
45.78190613238733 11.9527
45.806263418194064 11.8851
45.83043404997326 11.8907
45.85460683713677 11.8759
45.87897065658495 11.8434
45.90314777634752 11.8698
45.92732705646868 11.814
45.9515084986045 11.7616
45.97588104735473 11.7561
46.00006683541565 11.7395
46.02425479047904 11.7281
46.04844491420549 11.7198
46.0728262191024 11.6777
46.09702070211635 11.6746
46.12121735879483 11.6327
46.14541619080294 11.5828
46.169806278764455 11.6178
46.194009483459034 11.5928
46.21821486849841 11.5138
46.24242243555223 11.532
46.266821333570014 11.5129
46.29103328674601 11.4427
46.31524742696538 11.4789
46.33946375590237 11.4337
46.36387149104216 11.437999999999999
46.38809221957392 11.3701
46.41231514186606 11.3669
46.436540259597464 11.3641
46.460956858999374 11.3163
46.48518638983522 11.3024
46.509418121166966 11.2942
46.533652054678114 11.2877
46.55807754555709 11.2114
46.58231590571962 11.2566
46.60655647313217 11.228
46.630988654873654 11.1881
46.655233659129024 11.1527
46.67948087571551 11.154000000000002
46.70373030632484 11.1203
46.72817142736393 11.163
46.752425308428684 11.0962
46.77668140861147 11.0872
46.80093972960865 11.0463
46.82538981736788 11.0068
46.849652602470904 10.9949
46.87391761349769 11.0025
46.8981848521493 10.974
46.9226439341274 10.9498
46.946915650573224 10.8983
46.97118959976749 10.899000000000001
46.99546578341598 10.8784
47.019933887188216 10.8521
47.04421456235744 10.8433
47.06849747711879 10.831
47.09278263318286 10.808
47.11725978640143 10.7416
47.14154944775105 10.7571
47.165841355555656 10.731
47.1901355115306 10.6943
47.214621741924994 10.7415
47.23892041698887 10.6773
47.26322134538975 10.6783
47.28771440635075 10.6676
47.31201986422527 10.6362
47.33632758061436 10.58
47.360637557241866 10.6242
47.38513974410611 10.6312
47.40945426407847 10.5568
47.43377104948137 10.504000000000001
47.45809010204344 10.5013
47.48260144275502 10.4856
47.506925052572285 10.4806
47.53125093475548 10.4243
47.55557909103813 10.4444
47.58009961361992 10.4232
47.60443234110732 10.425
47.62876734791564 10.3906
47.65310463578333 10.3333
47.6776343683373 10.3622
47.7019762413987 10.2876
47.72632040075572 10.2816
47.75066684815169 10.2533
47.77520581885936 10.2437
47.799556865477655 10.2523
47.823910205386 10.2341
47.84826584033272 10.2122
47.87281407745551 10.1467
47.89717432569297 10.1676
47.92153687423484 10.1641
47.94609208429692 10.1147
47.97045925671401 10.102
47.99482873471275 10.0664
48.01920052005013 10.0646
48.04376504619224 10.036
48.068141469543484 10.0747
48.09252020552573 10.0603
48.11690125590099 10.0226
48.1414751266064 10.0043
48.16586082917454 10.0099
48.19024885144316 9.96055
48.2146391951793 9.929689999999999
48.239222439012764 9.93131
48.26361744916137 9.893189999999999
48.28801478610016 9.87963
48.31241445160131 9.88612
48.337007097209366 9.89387
48.36141144338331 9.831489999999999
48.38581812345755 9.796339999999999
48.41022713920929 9.82974
48.434829215320704 9.78182
48.45924292604658 9.74756
48.48365897780325 9.71716
48.50807737237308 9.73654
48.532688907799276 9.699589999999999
48.55711201168574 9.67678
48.581537463754074 9.67656
48.60615611725119 9.67194
48.63058628942721 9.61988
48.65501881516546 9.60224
48.6794536962573 9.61185
48.70408185970339 9.591000000000001
48.72852147531801 9.59165
48.75296345168211 9.52303
48.77740779059232 9.50988
48.80204549302823 9.531880000000001
48.82649458091802 9.503730000000001
48.85094603676547 9.473230000000001
48.87539986237231 9.44619
48.90004713292306 9.42638
48.92450572200832 9.43575
48.94896668628025 9.4353
48.97343002754588 9.381269999999999
48.99808689542115 9.38428
49.02255501470614 9.3739
49.04702551642794 9.320910000000001
49.0714984023988 9.287560000000001
49.096164896893235 9.283660000000001
49.120642575466796 9.26252
49.145122643748394 9.267719999999999
49.16960510355558 9.25522
49.19428125404938 9.23607
49.2187685210852 9.24039
49.243258185121555 9.17146
49.26794160167084 9.17324
49.2924360839405 9.15353
49.31693296869764 9.15475
49.34143225776915 9.15173
49.36612538195438 9.09182
49.39062950396021 9.078710000000001
49.41513603578346 9.08511
49.4396449792564 9.057319999999999
49.46434784069503 9.06193
49.488861631846454 9.06269
49.513377840166804 8.99611
49.537896467493745 8.924339999999999
49.56260909589029 8.95402
49.587132585683285 8.9413
49.611658500018365 8.931980000000001
49.636186840738596 8.92587
49.66090926588511 8.96446
49.685442483902584 8.862060000000001
49.70997813385706 8.84207
49.734516217597076 8.81915
49.75924846937352 8.86127
49.7837914452858 8.81137
49.80833686055187 8.78303
49.83288471702571 8.77493
49.85762682540054 8.75835
49.882179588965734 8.75106
49.9067347993235 8.7057
49.93129245833333 8.706560000000001
49.95604445336378 8.69461
49.98060703442832 8.66189
50.005172069746266 8.660789999999999
50.02993150438364 8.67671
50.05450147301533 8.632639999999999
50.07907390151433 8.61612
50.10364879174981 8.59607
50.12841816587289 8.61299
50.1529980044635 8.58808
50.17758031042124 8.56945
50.20216508562089 8.55189
50.22694442953363 8.479230000000001
50.25153416817468 8.46781
50.27612638170508 8.48225
50.300721072005196 8.43559
50.325510416102105 8.45253
50.350110084975064 8.406089999999999
50.37471223628208 8.39219
50.39931687190919 8.40061
50.424116246675766 8.39221
50.44872587605249 8.349310000000001
50.47333799543065 8.35966
50.49795260670191 8.33417
50.52276204271512 8.32979
50.54738166295838 8.32987
50.57200378079314 8.29527
50.596628398116835 8.252310000000001
50.62144792604559 8.22141
50.646077567609396 8.25238
50.670709714377715 8.23957
50.69553683636198 8.217369999999999
50.72017401885922 8.18657
50.7448137122895 8.179739999999999
50.76945591856022 8.180710000000001
50.79429318636823 8.1462
50.818940443716784 8.1366
50.84359021965163 8.10843
50.868242516085964 8.08775
50.893089960641895 8.08998
50.917747323549435 8.09101
50.94240721271973 8.074910000000001
50.96706963007175 8.04514
50.99192728239342 8.06301
51.01659478166073 8.03023
51.04126481489051 8.019730000000001
51.06593738400761 7.95047
51.090805275207074 7.93268
51.11548294172845 7.959910000000001
51.14016314993547 7.926089999999999
51.164845901758845 7.944
51.18972406304274 7.88253
51.21441192780656 7.882960000000001
51.23910234200271 7.855580000000001
51.2637953075678 7.807230000000001
51.288683770237945 7.83062
51.31338186432707 7.829680000000001
51.33808251561888 7.77227
51.362978729967345 7.77106
51.387684521509755 7.77469
51.41239287610203 7.75053
51.437103795691165 7.71006
51.46201036644977 7.72659
51.486726441956634 7.6967300000000005
51.51144508832545 7.680219999999999
51.536166307509156 7.67875
51.56108326624387 7.66255
51.58580965706056 7.63669
51.61053862657523 7.6353
51.635270176746864 7.59905
51.66019755512065 7.59392
51.68493429268881 7.54692
51.70967361681515 7.56274
51.73441552946465 7.5331
51.759353359237934 7.5403
51.7841004750961 7.52964
51.80885018539685 7.533010000000001
51.833602492111254 7.48451
51.8585508051424 7.45745
51.883308330926425 7.42905
51.90806845906181 7.4425300000000005
51.932831191525715 7.457889999999999
51.95779001977161 7.39752
51.98255798721516 7.37922
52.00732856494335 7.3633
52.03229530577543 7.38097
52.057071130455945 7.314089999999999
52.081849571391054 7.36602
52.106630630568695 7.30912
52.13160794279417 7.237360000000001
52.15639426492067 7.27579
52.18118321127822 7.25966
52.205974783860896 7.236960000000001
52.23096269971011 7.21815
52.255759551287994 7.2218800000000005
52.280559035098186 7.20897
52.30536115314103 7.19572
52.33035970494467 7.221439999999999
52.35516711807904 7.176939999999999
52.37997717147198 7.14243
52.40478986713005 7.136989999999999
52.42979908731974 7.12927
52.454617094216 7.079039999999999
52.47943774942214 7.065939999999999
52.50426105495102 7.06995
52.529280976059844 7.0549
52.554109609024096 7.03781
52.57894089837482 7.027489999999999
52.60377484613117 7.02026
52.62880550079408 6.98315
52.65364479223379 6.94262
52.67848674816189 6.95403
52.70352547971946 6.92277
52.72837279155837 6.93571
52.753222773982785 6.9655
52.778075429022984 6.9103699999999995
52.80312495150885 6.91615
52.827982978797436 6.879860000000001
52.85284368481815 6.87453
52.87770707160767 6.82706
52.90276741793998 6.87073
52.92763619336701 6.831689999999999
52.952507655698504 6.84248
52.977381806977576 6.76515
53.00245301017842 6.81036
53.02733256653592 6.77637
53.052214817996074 6.78183
53.077099766608484 6.73146
53.102181859804446 6.695989999999999
53.127072229988265 6.7465
53.15196530349892 6.6738100000000005
53.17686108239249 6.69228
53.20195409881522 6.66402
53.22685531582556 6.650639999999999
53.25175924441303 6.601139999999999
53.27666588664027 6.6106
53.30176985962693 6.608210000000001
53.3266819565689 6.613519999999999
53.35159677336455 6.5697600000000005
53.376514312083096 6.559069999999999
53.40162927507703 6.53911
53.42655228516116 6.56922
53.45147802340193 6.53846
53.47660125628886 6.4791
53.50153247842639 6.49854
53.52646643496923 6.48245
53.55140312799818 6.47185
53.576537409691696 6.4356
53.60147960336152 6.40736
53.626424539786164 6.40229
53.65137222105307 6.37922
53.67651758529126 6.4449
53.70147078399681 6.40655
53.72642673383343 6.40589
53.75138543689533 6.37495
53.776541917524526 6.35406
53.801506154876755 6.33859
53.826473151763246 6.3171800000000005
53.851442910284916 6.29776
53.87661054126026 6.3192
53.9015858509782 6.28865
53.92656392866066 6.29139
53.95154477641532 6.27724
53.976723591801296 6.2688
54.00171000771266 6.23232
54.02669920004598 6.18008
54.051691170915745 6.20333
54.076881204886796 6.19342
54.101878760928514 6.19527
54.12687910187696 6.15969
54.152077577768296 6.1237699999999995
54.1770835166946 6.09738
54.20209224691339 6.1143
54.22710377055121 6.09433
54.25231352511594 6.0546
54.27733066384342 6.01534
54.30235060239643 6.01839
54.32737334290836 6.02669
54.35259441062629 5.97398
54.377622783395324 5.96161
54.40265396455061 5.950069999999999
54.42768795623251 5.93426
54.45292037169559 5.9126
54.477960012857906 5.9092
54.50300247099511 5.86667
54.52804774825457 5.85082
54.55329154616743 5.776680000000001
54.57834249018678 5.7963
54.6033962597977 5.76133
54.6284528571545 5.75703
54.653708072335164 5.76083
54.67877035378786 5.74343
54.70383546947698 5.706169999999999
54.72890342156389 5.65517
54.7541700889442 5.68034
54.77924374251975 5.65278
54.8043202390049 5.623469999999999
54.82959552413022 5.60999
54.8546777351945 5.5852
54.87976279569621 5.53979
54.90485070780914 5.60462
54.930137506558005 5.49993
54.95523115074295 5.524369999999999
54.98032765308844 5.45903
55.005427015775496 5.45322
55.03072536339621 5.45825
55.05583047570572 5.39187
55.080938454927676 5.34506
55.10604930325027 5.35578
55.131359235107396 5.34706
55.15647585066083 5.34195
55.181595341907496 5.302230000000001
55.20671771104285 5.27986
55.232039262617704 5.19914
55.25716741665048 5.19203
55.28229845518636 5.24372
55.30743238042802 5.15942
55.33276558731939 5.15198
55.357905315183636 5.11993
55.383047936390035 5.06205
55.40819345314859 5.05021
55.433538351073295 5.06427
55.458689688238415 5.04884
55.483843927614096 4.99798
55.509197623043605 5.00364
55.53435769621134 4.9404900000000005
55.55952067826466 4.92341
55.5846865714265 4.90837
55.61005202069737 4.8907
55.63522376553902 4.87741
55.66039842818645 4.85098
55.68557601087004 4.85974
55.7109532500271 4.76304
55.73613670233794 4.81905
