TT I
1.2716486653135266 8.02093
1.2939594142134223 7.28793
1.3162702121660406 7.269360000000001
1.3385810600174564 7.30975
1.3608919586137629 7.63425
1.383202908801069 7.14312
1.405513911425503 6.68087
1.4278249673332093 6.628369999999999
1.4501343378461518 6.45159
1.4724455028545926 6.47553
1.4947567236847858 6.653
1.517068001182951 6.916339999999999
1.5393793361953272 6.54066
1.5616907295681737 5.88703
1.5840021821477681 5.28455
1.60631369478041 5.66314
1.6286252683124185 5.96575
1.6509369035901333 5.54455
1.6732468618895553 5.85361
1.695558623192809 5.39876
1.7178704487808514 6.16252
1.7401823395001077 6.11895
1.7625012545597203 5.41009
1.7848028405262486 5.3852199999999995
1.8071218901122095 5.593999999999999
1.8294236121921872 5.0528
1.8517427996910911 4.96621
1.8740620574440425 4.57253
1.8963639900671978 5.18214
1.9186833908139995 5.1454699999999995
1.9409854680117449 5.05414
1.9633050151394713 5.19227
1.9856246367570705 5.0503800000000005
2.0079269371922672 4.8137300000000005
2.03024671027244 4.92755
2.0525491637446027 5.28636
2.074869091674931 4.81491
2.097171701569106 5.16285
2.1194917877373847 5.18957
2.141811954326636 5.49838
2.164114805233074 4.70602
2.186435135143035 4.76039
2.208738150935709 4.55392
2.231058647554722 4.58047
2.2533792288321184 4.6797699999999995
2.275682498336085 4.65608
2.298003251406138 4.605090000000001
2.3203066942619714 4.67207
2.3426276225136022 5.09928
2.3649486396617507 4.4770199999999996
2.387252348930071 3.9769300000000003
2.4095735463442893 4.026330000000001
2.4318774374315884 4.53965
2.4541988185014043 3.92061
2.476502894794693 3.83589
2.498824462909887 3.99853
2.521146125856138 4.5179800000000006
2.5434504863470337 4.76772
2.5657723414244717 4.693280000000001
2.588076895590662 5.0853
2.610398946189713 5.02304
2.6327210958598384 4.91938
2.6550259469304716 4.91194
2.6773482972090137 4.98575
2.6996533504259 5.74195
2.7219759047039602 5.90749
2.744298562293959 5.95096
2.7666039251246595 5.901730000000001
2.7889267918020164 6.57762
2.8112323652516555 7.0267800000000005
2.833555444408179 7.16633
2.8558786311183852 7.67196
2.8781845268938557 7.718610000000001
2.9005079311721484 8.68215
2.9228140460410397 8.78168
2.9451376712799635 8.977889999999999
2.967444008632326 9.33475
2.9897678582247247 9.31558
3.0120918213106695 9.84855
3.0343984987899373 10.9373
3.0567226913198637 10.9736
3.079029599759726 11.4678
3.101354025127254 12.7019
3.123678568232338 12.9461
3.145985829517914 13.0883
3.16831061055229 13.575
3.1906181112775593 14.4014
3.212943133635653 14.911
3.2352682779763207 14.7582
3.2575761442691227 15.4499
3.2799015350264273 15.6638
3.302209649240067 16.1025
3.3245352898092655 16.8722
3.3468436553365257 17.6736
3.369169549113219 18.0213
3.3914955708171384 18.1596
3.413804319727358 18.6173
3.4361305997334863 18.4243
3.4584396084414553 19.4576
3.4807661501462652 20.0488
3.503092824025881 20.7435
3.5254022288463154 20.4937
3.5477291695206588 20.8989
3.5700388426251948 21.0076
3.5923660534916446 21.7788
3.6146934007816114 22.4303
3.637003482731501 22.7163
3.6593311053109985 23.1087
3.681641464033634 22.8315
3.7039693653009733 23.5357
3.726297407241705 24.0619
3.7486081875460804 23.9804
3.7709365132734978 24.8785
3.793247578841633 25.3383
3.8155761917550093 25.5662
3.8378875459837216 26.0964
3.8602164494827234 26.449
3.882545499606844 27.5061
3.9048572932539183 27.7423
3.9271866390645718 27.9373
3.9494987298666713 28.6919
3.971828374764527 28.9845
3.9941581705403255 29.3369
4.016470713506008 29.8256
4.038800813471445 30.2752
4.061113662089144 31.180999999999997
4.0834440696459176 32.0604
4.105774632334751 32.1381
4.128087945865126 32.5966
4.150418821249301 33.05
4.172732448931298 33.7234
4.195063640413578 34.4949
4.2173775856475215 35.4368
4.239709096631102 36.3817
4.262040768704612 36.0238
4.284355196706267 36.9595
4.306687193387355 37.4953
4.329001947444346 38.7782
4.35133427213731 38.9618
4.373666762177566 40.1054
4.395982011761091 40.6913
4.418314834921175 42.3274
4.44063041906622 43.0072
4.4629635787515625 44.0242
4.4852969080429785 44.3926
4.5076130004776225 45.7135
4.529946671403969 46.7736
4.552263106909177 47.6307
4.574597122877047 49.042
4.596931312711224 50.6293
4.619248269273446 51.1457
4.6415828092605835 52.5223
4.663900117405352 53.5221
4.686235010953232 54.6974
4.708552674085913 56.0417
4.730887924602802 57.8525
4.753223354952695 59.2507
4.775541557023902 60.5009
4.797877349456786 62.3619
4.820195915032126 64.4896
4.842532072957498 65.8888
4.864868414979744 67.3808
4.88718753227192 69.6458
4.909524244902505 72.6645
4.931843734218147 74.9166
4.954180820867835 78.1017
4.976518095879839 82.1736
4.998838149695359 86.0749
5.021175803844231 90.3604
5.043496238205739 94.6771
5.065834274903528 100.802
5.088172504230693 107.944
5.1104935158799565 117.68299999999999
5.132832132875765 132.255
5.155153533596801 156.343
5.1774925416746225 212.243
5.199814334878411 557.373
5.2221537374521505 1965.63
5.244493338631803 3760.34
5.266815727034316 5268.06
5.289155727832427 8077.76
5.311478517248165 9550.35
5.333818921080011 6427.17
5.356159527788849 2049.78
5.3784829252032536 475.86300000000006
5.400823940070432 218.382
5.423147747031976 165.44400000000002
5.445489173474152 141.298
5.467830807066149 128.27200000000002
5.490155234831516 119.895
5.512497285125229 114.01700000000001
5.534822130975162 110.902
5.557164601388673 107.92399999999999
5.579489868738879 103.34100000000001
5.601832762690846 101.069
5.6241758697774475 99.5685
5.646501775867269 98.8268
5.668845311622074 97.8133
5.691171647754637 97.4359
5.713515615597765 95.9766
5.735859800852677 95.1538
5.758186788542988 94.3785
5.780531411018185 95.0344
5.802858837297399 94.9244
5.825203900414495 95.4227
5.8475491852224 96.551
5.869877275883075 98.431
5.892223006467101 101.51700000000001
5.914551544266608 105.696
5.936897724049891 112.602
5.959244129804903 124.94200000000001
5.981573344815301 156.616
6.0039202049061 291.41900000000004
6.026249875609095 758.1560000000001
6.04859719346037 1386.47
6.070927323278297 1894.02
6.093275102315365 2648.49
6.115623113320588 3715.22
6.137953938319995 3993.0
6.160302415650845 2287.11
6.182633708324452 726.1569999999999
6.2049826554078376 224.00400000000002
6.227331838745022 124.772
6.249663839443684 100.757
6.27201349767565 89.7021
6.294345974611799 83.7114
6.316696111167083 78.0397
6.339046488263839 75.4666
6.361379686074702 72.7653
6.383730546639482 70.5883
6.406064229255215 68.0901
6.428415576718203 67.5726
6.450749747566656 66.4178
6.47310158535871 64.5786
6.495453669698332 63.9048
6.517788579421056 63.0706
6.540141159237969 61.8412
6.562476565766648 61.3812
6.5848296444934045 60.6522
6.607182974060425 60.2511
6.6295191323281015 59.4443
6.651872965955752 58.7248
6.6742096296068985 57.8734
6.6965639707294615 57.7906
6.71891856698715 57.1556
6.741255995248479 56.5541
6.763611104154477 56.1125
6.785949046381137 55.7122
6.808304671371482 55.1441
6.8306605557940046 55.251999999999995
6.852999275508618 54.5076
6.875355681171544 54.4757
6.897694923437771 54.1772
6.92005185377892 54.1078
6.9423916220322655 54.0203
6.964749080490181 53.0246
6.987106804399774 53.2393
7.009447368180821 53.099
7.031805625367033 52.7708
7.054146723727803 52.8063
7.076505517631004 52.516999999999996
7.098864581288365 52.6402
7.121206488070854 52.4701
7.143566093607822 51.7558
7.165908543567245 51.9829
7.188268694426048 51.8106
7.2106291193438095 52.0914
7.232972390625943 51.7389
7.255333366030969 51.6824
7.277677189091925 51.5079
7.300038718428332 51.5594
7.322400526130865 51.4781
7.344745183422596 51.738
7.367107550224791 51.9662
7.389452767901992 51.9569
7.411815697249891 51.8483
7.434161478756298 51.532
7.456524974096713 51.5442
7.478888753837185 51.7614
7.501235387657368 52.4726
7.523599738562711 55.7435
7.545946944825532 62.6651
7.568311870344528 64.3792
7.5906770845765665 60.0655
7.613025156078678 55.2875
7.635390950099687 53.9578
7.657739602662809 52.9451
7.680105979923558 52.968999999999994
7.702472650212829 53.6029
7.724822180948224 53.6977
7.747189439655568 53.8535
7.769539560075357 53.8534
7.791907410653562 54.6222
7.81425812420825 54.4917
7.836626570110925 54.6859
7.858995315087906 55.2905
7.881346924933401 55.7418
7.903716270417482 56.233000000000004
7.926068482028405 56.5731
7.948438431475253 57.3514
7.9708086843180235 57.9238
7.993161805171116 58.1856
8.015532667162402 58.5867
8.037886398416653 59.8211
8.060257873014221 60.3793
8.082629655331942 61.0912
8.104984308787587 61.8428
8.127356708900503 62.1556
8.149711981398308 63.5409
8.172085002766314 64.0185
8.194458336181368 64.8422
8.216814543847752 66.2461
8.23918850371002 67.6323
8.26154533906492 68.7696
8.283919928836452 70.4785
8.306277395339652 71.5041
8.328652618483376 72.9492
8.351028159736202 75.5448
8.373386579575245 77.8358
8.395762759396959 79.68
8.418121819038275 83.4462
8.440498640894003 88.01299999999999
8.462875785192262 95.4241
8.485235811156207 110.51899999999999
8.507613602688501 172.872
8.529974277114228 369.19199999999995
8.552352719347912 605.503
8.574731488360351 771.97
8.59709314210385 864.298
8.619472567021075 1061.98
8.64183487789147 1440.8
8.664214962183097 1846.21
8.686577933647762 1683.92
8.708958680784317 1021.93
8.731339760774953 461.23199999999997
8.753703729764451 189.40900000000002
8.77608547780821 118.09899999999999
8.798450116065078 104.05
8.820832535634787 97.3486
8.843215292401656 93.3973
8.865580941199045 91.0368
8.887964374703538 88.9289
8.910330701447199 87.5874
8.932714815164482 86.333
8.955099270424924 84.4422
8.977466620733543 83.7042
8.999851761421976 83.4649
9.022219798361645 82.4461
9.04460562795561 82.2753
9.066991803441677 81.8602
9.089360876979615 81.3779
9.111747746589993 81.4153
9.13411751544971 80.9472
9.156505082664324 81.0047
9.178875550323522 80.9507
9.20126381862328 81.4575
9.223652438908596 86.9006
9.246023961427412 96.6135
9.26841328802173 98.8772
9.290785518039224 93.3452
9.313175554425882 86.7302
9.335565947154315 82.84100000000001
9.357939245086508 82.0343
9.380330352834827 81.7106
9.40270436697103 81.6307
9.425096193225055 81.2406
9.447488380180165 82.2896
9.469863475295412 82.6239
9.492256385987508 82.8464
9.514632206018318 83.6041
9.537025843935714 83.8428
9.559402392368193 84.4163
9.581796761000229 85.6543
9.604191496441521 85.6537
9.626569144158516 86.2651
9.648964615551032 87.244
9.671343000390081 88.1711
9.693739211225699 89.1939
9.716135793237463 90.3554
9.738515290448102 91.3365
9.760912617143402 92.3857
9.783292860202891 94.0392
9.805690935076182 94.7496
9.828089385495742 95.8182
9.850470754023561 98.191
9.872869957865444 100.506
9.89525208097539 103.359
9.917652041736662 107.471
9.940052382417589 113.428
9.962435644102392 129.759
9.984836746950979 185.826
10.007220771957746 342.73
10.029622640473708 547.9590000000001
10.052007432299963 679.909
10.074410069984072 727.666
10.096813093716005 801.7489999999999
10.119199042482517 993.007
10.141602840636468 1332.87
10.163989564971628 1636.46
10.186394141051062 1566.71
10.208799107559706 1014.13
10.231187001965623 497.406
10.253592751657669 224.66099999999997
10.275981430388155 136.80100000000002
10.298387966769793 116.741
10.320794897965431 111.49700000000001
10.343184759907361 107.955
10.36559248305461 104.90700000000001
10.387983138083852 104.329
10.410391656691655 106.43
10.432800574501677 120.904
10.455192425893369 163.372
10.47760214443012 215.859
10.499994797678786 248.65599999999998
10.522405320453982 258.995
10.54479877906917 276.467
10.567210109595656 320.12
10.5896218454736 398.652
10.612016518879773 484.836
10.634429067781074 493.4
10.656824555333241 381.439
10.679237920773568 237.766
10.701651695961992 137.851
10.724048411481384 101.29799999999999
10.746463008485165 90.4173
10.768860546937125 86.3607
10.791275969274796 83.499
10.81369180576079 81.45
10.836090585366925 80.1049
10.858507252467449 78.7237
10.88090686379991 77.8248
10.903324365036394 76.6333
10.925724811614439 75.39699999999999
10.948143150509463 75.0389
10.970561909719066 73.9378
10.992963615930844 73.4662
11.015383218085756 72.3507
11.037785768347074 71.23100000000001
11.06020621697282 70.8657
11.082627090322113 70.4838
11.105030913430326 69.8311
11.12745263854165 69.0448
11.149857314510728 68.0966
11.172279894912576 68.2864
11.194702904450653 67.347
11.217108866490921 66.4273
11.239532736615194 66.2671
11.26193956033512 66.1209
11.284364294577085 65.587
11.306789462371718 65.2713
11.329197585398376 65.1309
11.351623622610898 64.7688
11.37403261614354 64.0595
11.396459526308487 63.9826
11.418869393879497 63.7699
11.441297180532617 63.1492
11.463725406927658 62.8467
11.486136592353875 62.7747
11.508565700543707 62.2445
11.530977768845315 62.5927
11.553407762368774 61.907
11.575838200059769 61.775
11.598251599479612 61.7285
11.620682927815501 61.6993
11.64309721895548 61.6564
11.665529441478206 61.4487
11.687962112597958 61.2837
11.710377748130886 61.2742
11.732811318753434 61.2444
11.755227854859067 60.9179
11.777662328529495 60.6776
11.800079768750786 60.5809
11.822515149015453 61.0163
11.844950984084935 60.9466
11.867369787303163 60.7552
11.889806534289491 60.8815
11.912226250487029 62.1967
11.934663912939751 64.0631
11.9571020346363 65.9887
11.979523127133968 65.9246
12.001962169624331 65.2597
12.024384183972964 65.0809
12.046824150809913 67.4995
12.069264581333726 77.1655
12.091687985297767 90.1595
12.11412934550045 101.45100000000001
12.136553680195208 107.40899999999999
12.158995973632788 110.618
12.181438735204349 115.52600000000001
12.20386447284199 126.823
12.226308172985636 146.91299999999998
12.24873485024193 172.748
12.271179492516982 191.83900000000003
12.293607112949127 179.083
12.316052700916226 141.884
12.338498763250042 99.8041
12.360927805303868 75.089
12.383374818673879 66.6259
12.405804812803074 63.87
12.428252780773262 63.0272
12.45070122756722 62.6569
12.473132656675375 62.7429
12.49558206341869 62.733999999999995
12.518014453510101 62.78
12.540464823770117 62.8271
12.562915677315177 62.9097
12.58534951575545 63.3215
12.607801338171472 63.1111
12.630236146511358 63.3117
12.652688941369085 63.6918
12.675124723177234 63.9755
12.697578494048786 64.655
12.720032754458185 64.8847
12.742470003354093 65.3944
12.764925245138771 65.8021
12.787363476431278 66.3644
12.809819703166806 66.4379
12.83227642391173 67.4456
12.854716135692716 67.6608
12.877173846755147 69.1436
12.899614549869717 69.3903
12.9220732548287 70.2543
12.94453245827299 70.783
12.966974655289818 71.7682
12.989434858002571 72.6026
13.011878055298721 73.6225
13.034339260862497 74.6122
13.056800969391883 76.112
13.079245674017244 78.8957
13.101708390774869 81.0454
13.12415410463411 85.9797
13.146617833206086 102.469
13.169064559883248 132.803
13.191529303857127 164.387
13.213994557076367 187.12400000000002
13.236442809902437 196.628
13.258909083908291 201.64
13.28135835851934 212.921
13.30382565690295 237.95
13.326293469022952 281.953
13.348744283242008 341.45
13.371213125129904 390.894
13.39366497011003 386.98400000000004
13.416134845360597 315.28
13.438605238843131 218.917
13.46105863690397 148.357
13.483530069144786 121.05799999999999
13.505984506951902 129.774
13.528456981549432 154.336
13.550929978879088 173.333
13.573385983253365 182.17
13.595860028340867 183.378
13.618317081455832 188.467
13.64079217790333 203.857
13.663250283359057 230.356
13.685726434770173 271.634
13.708203115221277 323.07099999999997
13.730662806148091 340.043
13.75314054697177 307.733
13.775601299246777 234.38099999999997
13.798080104050406 157.76
13.820559442405358 108.117
13.843021793671388 88.3024
13.865502201420897 82.1658
13.887965623051947 80.3162
13.910447103807167 78.9568
13.932929122629764 77.2185
13.955394156785959 76.6618
13.977877254034569 75.4063
14.000343367582113 74.8054
14.022827546871707 74.0927
14.045294743423524 73.3547
14.06778000837062 72.5486
14.090265817715476 72.422
14.112734645763819 72.3959
14.13522154619454 73.1189
14.157691466286913 74.0587
14.180179461423874 73.5969
14.202668005486178 72.6227
14.22513957064374 71.2414
14.247629214846473 70.2116
14.270101881097517 69.6321
14.29259262906496 69.0325
14.315083930490205 68.7156
14.337558255389705 68.5326
14.360050666019726 68.3401
14.382526101071944 68.2717
14.405019624534942 68.1943
14.427513705993134 67.8022
14.449990813291825 67.8509
14.47248601302899 67.9652
14.49496423954951 67.9669
14.517460561197822 67.9122
14.539939910570322 67.5525
14.562437357763558 67.8439
14.58493536931253 68.193
14.607416409993311 68.0968
14.62991555254159 68.4046
14.652397725157423 68.6926
14.674898002342799 68.8339
14.697398848433282 69.3817
14.719882725991326 70.4373
14.74238471217934 70.8211
14.764869730765593 73.5755
14.787372860692983 79.9995
14.809876564079925 92.9667
14.83236330125751 106.991
14.854868153850365 116.23299999999999
14.877356041159485 120.87100000000001
14.899862046604186 122.13799999999999
14.922351087688757 125.00200000000001
14.944858249632887 132.002
14.967365991421232 144.377
14.989856770231246 162.554
15.012365673994204 186.94799999999998
15.03485761569738 207.00099999999998
15.05736768508665 204.825
15.07987833888692 179.96099999999998
15.102372032001655 140.88
15.124883856909658 103.383
15.14737872204565 82.5906
15.169891721717274 73.8578
15.192405310371893 71.2016
15.214901940621196 69.8462
15.237416709527137 68.5506
15.259914520936249 68.49600000000001
15.282430473753607 67.6278
15.304947020131227 66.7366
15.327446610371178 66.5985
15.349964346154254 66.1558
15.372465126703139 66.0676
15.394984055556009 65.9988
15.417486030076159 65.8864
15.44000615566487 65.4266
15.462526881230803 65.2779
15.485030653812652 65.0138
15.507552581617434 64.9415
15.530057557334603 64.8421
15.55258069104857 65.1622
15.575104429329837 65.4535
15.597611216864632 65.1031
15.620136166564563 65.4837
15.6426441664095 66.0765
15.665170331202765 67.9571
15.687697105158826 73.3311
15.710206930593545 83.8652
15.732734925158933 95.0486
15.755245972089478 103.06299999999999
15.77777519094324 107.565
15.800287463046663 108.569
15.822817909869592 109.57799999999999
15.84534897229804 113.059
15.867863089299354 121.315
15.890395385222186 133.023
15.912910736597423 150.69799999999998
15.935444269699861 171.458
15.957978423016485 183.477
15.980495633101265 177.608
16.003031029129367 154.21200000000002
16.02554948280019 119.31
16.048086125229432 89.9727
16.070623392487107 73.8501
16.09314371869582 66.4395
16.11568223789321 63.0988
16.13820381691126 61.4694
16.160743591742527 60.7129
16.183283996022084 60.0902
16.205807461423195 59.1414
16.228349126881973 58.3872
16.25087385432698 58.3234
16.27341678466365 57.7107
16.29594277784926 57.4363
16.31848697676433 56.9772
16.341031811604868 56.5575
16.36355971058487 56.5055
16.3861058195587 56.2025
16.40863499352978 55.6529
16.431182380342005 55.5094
16.453730407713202 55.3146
16.476261501364792 54.9853
16.498810812136167 54.8158
16.52134319004079 54.7806
16.54389378792203 54.6338
16.566445031001553 54.6124
16.588979342490088 54.568999999999996
16.61153187824822 54.3388
16.634067483263312 54.1156
16.656621315414416 54.0572
16.679175797408888 53.8426
16.701713349928728 53.8642
16.72426913389191 53.8939
16.74680798922351 53.8719
16.76936507887444 53.8908
16.791905240734874 53.8884
16.814463639794468 53.818000000000005
16.837022695210294 53.9223
16.859564824093756 53.8709
16.882125194503903 54.0513
16.904668639217885 54.2187
16.927230328348003 54.2549
16.949792678493612 54.9186
16.972338104193863 54.6627
16.994901778652235 54.5168
17.017448529496576 54.7936
17.040013531998152 54.9886
17.06257920018044 55.3732
17.0851279459922 56.4742
17.107694947817667 58.5809
17.130245028099072 60.7348
17.15281336730298 62.898
17.17536478578733 64.1559
17.19793446610687 64.4722
17.220504818648422 64.6911
17.243058251703697 64.9509
17.265629950971032 66.3759
17.288184731571736 68.2239
17.310757781306908 71.4265
17.33333150794385 74.5419
17.355888317140174 78.1396
17.37846339986244 81.202
17.401021565958885 80.9029
17.42359800851343 77.1665
17.44617513265564 71.2753
17.468735341390783 65.6615
17.491261035594565 61.3765
17.51396340099364 59.3665
17.536490463869136 58.9006
17.559018209820174 58.4782
17.58154663977963 58.6472
17.604251766089718 58.7274
17.626781572227713 59.1431
17.64931206518155 59.1593
17.671843245885103 59.5417
17.69455114821572 59.4056
17.717083712612634 60.0795
17.739616967569667 60.4891
17.762150914021706 61.0619
17.78486160749854 61.365
17.807396945166804 61.864
17.829932977143503 62.4474
17.85246970436452 63.2943
17.875183204129467 65.9182
17.897721330097664 71.6774
17.920260154126645 78.2853
17.942799677153296 83.5045
17.9655159983646 86.8882
17.988056927677544 88.1657
18.010598558807683 88.7698
18.033140892692916 89.9136
18.05586005052525 92.1159
18.07840379824407 96.2347
18.10094825154059 102.811
18.12366954819864 112.23700000000001
18.146215420998306 125.613
18.16876200220057 138.93
18.191309292745153 145.887
18.214033452627167 143.334
18.236582170236648 129.82299999999998
18.259131600016456 112.204
18.281681742907335 96.6565
18.304408781233683 87.9379
18.32696035875955 85.1382
18.349512652227624 85.7263
18.372065662579683 88.7859
18.394795594587553 93.7016
18.41735004715306 99.3519
18.43990521943684 102.455
18.46246111238171 101.98100000000001
18.485193953325208 95.8303
18.507751296070428 85.7268
18.530309362314178 76.9243
18.552868153000343 69.2001
18.57560391815056 64.804
18.59816416623245 62.88399999999999
18.620725141597372 61.9589
18.643286845190268 61.2742
18.666025549835414 60.4965
18.688588718427933 59.7827
18.711152618092243 59.7468
18.73389353884365 59.3882
18.75645890921984 58.7514
18.77902501351406 58.5259
18.801591852673102 58.6348
18.824335739722738 58.1355
18.846904057212626 57.9117
18.8694731124168 57.4497
18.89204290628315 57.5841
18.914789774966803 57.4638
18.937361054791623 57.0546
18.959933076131318 56.8439
18.982505839934877 56.7604
19.00525570560582 56.7715
19.027829963004184 56.5995
19.05040496572238 56.5779
19.072980714710468 56.4658
19.095733592739563 56.4413
19.11831084296757 56.9933
19.140888842324735 58.2153
19.16346759176222 59.4747
19.18622349753803 60.5816
19.208803755869358 61.5212
19.231384767143577 61.7916
19.253966532312948 62.1614
19.276725481241822 62.4049
19.29930876296784 62.5716
19.3218928014549 63.5717
19.34465404436217 64.6812
19.36723960516257 66.4351
19.389825925592426 68.3715
19.412413006605938 71.0508
19.43517731967805 73.4974
19.457765930683355 74.3972
19.48035530514408 72.5664
19.50294544401556 68.8701
19.525712842708348 64.403
19.54830451925909 60.031000000000006
19.570896963095727 56.3694
19.593490175174704 54.7144
19.616260674962184 54.0158
19.638855432416964 53.4756
19.661450960992624 53.7096
19.68404726164677 53.556000000000004
19.706820878021247 53.3509
19.729418731756834 53.358000000000004
19.752017360452857 52.724
19.77461676506804 52.9332
19.797393513540218 53.1189
19.819994478951667 53.4173
19.84259622316767 54.3758
19.8651987471481 55.5724
19.887978643247177 56.6091
19.91058273574792 57.3649
19.933187610901943 58.0591
19.955969879466828 58.3807
19.97857632894404 58.333
20.00118356396599 58.3552
20.023791585494575 58.6777
20.046577028914875 59.9284
20.069186632506966 61.2863
20.091797025500632 63.5008
20.114408208858933 66.4795
20.137196842715273 69.3162
20.159809615886765 71.7351
20.18242318232135 72.0399
20.20503754298326 70.7948
20.227829382875154 68.3307
20.250445341109344 65.2208
20.27306209647285 62.457
20.29567964993108 60.7536
20.31847471147704 60.3829
20.34109387027612 61.1486
20.363713830075454 62.5398
20.386334591841646 64.0978
20.409132890679302 65.0264
20.431755265564437 64.3324
20.454378445325528 62.431000000000004
20.477002430930366 59.2111
20.499803982716553 56.1497
20.522429589228004 53.4453
20.54505600449589 51.6495
20.567683229489194 51.0306
20.590488049900088 50.4413
20.61311690359731 50.1505
20.63574656993626 49.8769
20.658553853717297 49.7134
20.681185154618298 49.5646
20.703817271080066 49.3881
20.72645020407368 49.1142
20.749260783967177 49.078
20.771895359337133 49.0463
20.794530754161617 49.0647
20.817166969412938 48.9123
20.83998086114876 48.9148
20.86261872660049 48.7375
20.885257415405402 48.4768
20.90789692853701 48.4438
20.930714147864748 48.4766
20.953355319030678 48.5006
20.97599731745334 48.8647
20.99864014410749 48.5431
21.021460706796564 48.7536
21.044105199328826 49.2678
21.06675052302631 49.1003
21.089396678865015 49.1663
21.112220600704806 49.4199
21.134868430275347 49.4004
21.15751709492456 49.1508
21.180166595629693 49.0371
21.202993892429635 49.3577
21.22564507473034 49.6139
21.24829709602816 49.8728
21.27112693608965 50.4027
21.293780644891275 51.1176
21.316435195634053 51.2614
21.339090589297417 51.0967
21.361923832041875 51.0308
21.384580921090404 50.3629
21.407238856007325 49.4252
21.429897637773326 49.2708
21.45273429906592 48.7473
21.475394784108598 48.4522
21.498056118951983 48.3512
21.520718304578022 48.4482
21.543558400304388 48.5508
21.566222297108816 48.8938
21.58888704765135 48.8307
21.61155265291521 49.0742
21.63439619898156 50.0991
21.657063523335786 51.048
21.67973170537063 51.9796
21.7024007460706 52.8105
21.72524775840385 53.4885
21.747918526116475 53.8838
21.770590155457388 53.9213
21.79326264741238 53.8506
21.816113141960237 54.4912
21.838787368860547 55.4199
21.861462461341976 56.5564
21.884315579735777 58.0636
21.90699241312273 59.6221
21.92967011506078 61.4614
21.95234868653799 63.5289
21.9752053151131 65.2391
21.997885635446785 65.9754
22.020566828293532 65.4753
22.04324889464272 63.8106
22.066109049404666 60.7414
22.088792872571794 58.0315
22.111477572219204 56.2004
22.1341631493376 55.2579
22.157026846313123 55.0548
22.179714188221507 55.5573
22.202402410582668 56.1429
22.22509151438863 55.8175
22.24795876962584 55.0987
22.270649646204486 53.8816
22.293341407213727 52.50899999999999
22.316034053646906 51.0422
22.338904883215342 49.9234
22.36159931041458 49.3974
22.38429462602756 49.0225
22.40699083104897 48.6599
22.429865251039757 48.519
22.452563244831367 48.3902
22.47526213102522 48.5008
22.49813925616515 48.5663
22.520839937143307 48.5225
22.543541513520587 48.7482
22.56624398629403 48.3781
22.589124730075895 48.5055
22.611829005656723 48.5594
22.63453418063466 48.6779
22.657240256008077 48.8527
22.680124634582935 49.1868
22.70283252079775 50.2035
22.725541310413075 50.9029
22.74825100442868 51.1273
22.771139033969575 51.8721
22.79385054687155 51.5901
22.81656296718292 51.8063
22.83927629590484 51.8917
22.862167992606945 51.8727
22.88488314827121 52.3631
22.907599215359284 52.5339
22.93031619487366 53.0744
22.953211574954405 53.5263
22.975930389478226 54.5353
22.998650119445763 55.8515
23.02137076586092 56.6957
23.044269845560063 57.7664
23.06699233506288 58.1696
23.089715744034912 57.4517
23.112617610931565 55.9973
23.135342869061212 54.0985
23.158069049684816 52.3118
23.1807961538087 50.7393
23.20370174880544 49.8996
23.226430710184808 49.4153
23.249160598093425 49.2605
23.271891413539002 49.2768
23.294800752937697 49.5759
23.31753343374794 50.33
23.340267045128353 50.8415
23.36300158808808 51.3658
23.38591468821339 51.6164
23.408651104658304 51.783
23.431388455719986 51.6392
23.454126742409 51.363
23.4770436196085 51.5524
23.499783787914662 51.856
23.522524894889884 52.0036
23.54526694154616 52.408
23.56818761219047 53.2052
23.59093154860734 54.013999999999996
23.613676427751283 55.2803
23.636422250635754 56.2815
23.659346731118656 57.3605
23.68209445191868 57.848
23.704843119509587 57.0997
23.72759273490623 55.5254
23.750521041644767 53.5869
23.77327256312355 51.2317
23.796025035462787 49.14
23.818956224555475 47.5663
23.841710609113413 46.7964
23.86446594758979 46.266999999999996
23.887222241002014 45.8725
23.910157285144578 45.4908
23.932915498962537 45.4231
23.955674670778713 45.3084
23.978434801611975 44.9548
24.001373717286125 44.9252
24.024135776723917 44.6942
24.046898798245582 44.621
24.06966278287146 44.4108
24.092605586582614 44.2531
24.115371508023642 44.1673
24.1381383956401 44.0534
24.16090625045381 44.0027
24.183852958731244 43.85
24.206622758582608 43.8023
24.229393528706886 43.6558
24.252165270127392 43.7192
24.27511589952438 43.702
24.297889594216997 43.5131
24.32066426328598 43.3827
24.34343990775613 43.3904
24.36639447485003 43.2128
24.38917208083877 43.0875
24.41195066531332 43.0037
24.43490819850244 43.1103
24.457688750692377 42.9234
24.48047028445616 42.6379
24.503252800821233 42.7879
24.526214300784112 42.9586
24.548998793132213 42.9174
24.57178427117417 42.7984
24.59457073593893 42.8402
24.617536219319863 42.7515
24.64032466834748 42.7875
24.663114107195035 42.9566
24.685904536893013 42.8261
24.708874020360852 42.7287
24.731666442613744 42.7599
24.754459858818787 42.5805
24.777254270007962 42.4871
24.80022777025625 42.2811
24.82302418230472 42.2561
24.845821592443674 42.3287
24.86862000170663 42.4344
24.891597535453727 42.3832
24.914397953892728 42.7105
24.93719937456671 42.5392
24.96000179851076 42.6165
24.98298338249997 42.5186
25.00578782394922 42.7373
25.028593271784167 42.7825
25.05157790644186 43.2191
25.07438537804115 43.3078
25.097193859145293 43.5742
25.120003350792075 43.6302
25.142992065061257 43.8888
25.165803588823465 44.1218
25.18861612625217 44.273
25.211429678386736 44.3521
25.234422489079968 44.6456
25.257238081693636 44.8448
25.280054692141732 44.8522
25.3028723214652 44.7257
25.325869245420463 44.6813
25.348688923599397 44.5236
25.371509623787006 44.5046
25.394331347025812 44.5684
25.41733240110666 44.7544
25.440156181590016 44.8836
25.46298098826268 44.7141
25.48580682216873 44.3774
25.50881202326435 43.7556
25.53163992281684 43.1778
25.55446885274561 42.3673
25.577298814096377 41.7659
25.600308179121807 41.4339
25.623140214533745 41.368
25.64597328451537 41.0378
25.66898578564376 40.6233
25.691820936010206 40.585
25.714657124097695 40.6251
25.737494350954734 40.6142
25.760511045684957 40.5015
25.783350361364224 40.7343
25.806190718969255 40.9278
25.82903211955018 40.9494
25.852053024868923 40.9683
25.874896522722523 40.8796
25.897741066713106 40.7965
25.920586657892454 40.8478
25.943611790812668 40.7688
25.966459487728237 40.8013
25.989308234998564 40.7353
26.01215803367705 40.9841
26.03518741123814 41.0862
26.05803932412957 41.0855
26.080892291600094 41.0284
26.10374631470478 41.2154
26.12677995397268 41.4975
26.14963609978026 41.7737
26.172493304397875 41.781000000000006
26.19535156888223 42.067
26.218389486949604 41.8193
26.241249882640123 41.6876
26.26411134137826 41.2768
26.28715248187403 41.2583
26.31001607820869 40.9134
26.3328807407756 40.556999999999995
26.35574647063438 40.7426
26.37879191991473 40.4106
26.401659795896734 40.6298
26.424528742360263 40.6791
26.447398760366614 40.8374
26.470448535598294 40.6788
26.49332070826805 40.8733
26.516193955675355 40.9495
26.53906827888316 41.0309
26.562122397260108 41.0757
26.584998883685063 41.3132
26.607876449110325 41.3889
26.63075509460056 41.5803
26.65381357334404 41.5776
26.67669439061878 41.7822
26.699576291163382 42.1419
26.722459276044212 42.5371
26.745522132402975 42.4454
26.768407297649354 42.573
26.791293550442003 42.2944
26.814180891848974 42.028
26.837248143099337 41.4525
26.860137673466657 41.1352
26.88302829566349 40.7726
26.90592001075963 40.6224
26.92899167420566 40.528
26.951885586870763 40.2566
26.974780595655517 40.0662
26.99785558178161 39.9452
27.020752794605112 39.5834
27.043651106772522 39.3724
27.06655051935668 39.4162
27.089629948036183 39.056
27.112531573292053 39.0222
27.135434302194138 39.0446
27.158338135817015 38.8272
27.181422024430987 38.9424
27.204328079372566 38.8275
27.22723524226965 38.7535
27.250143514198573 38.8618
27.273231880156334 38.745
27.296142382065014 38.6774
27.319053996245536 38.4965
27.341966723775965 38.5736
27.365059584515222 38.6055
27.38797455070062 38.6308
27.410890633481237 38.4802
27.433807833936918 38.484
27.456905206923906 38.4828
27.47982465472398 38.433
27.502745223449743 38.5198
27.525666914182825 38.6223
27.548768816912457 38.6118
27.571692763693633 38.5432
27.59461783573812 38.4988
27.617723149491244 38.554
27.640650484125285 38.6485
27.66357894728264 38.5975
27.686508540048052 38.7081
27.709618414237887 38.5032
27.732550278321757 38.4222
27.755483275279115 38.3237
27.778417406196485 38.3029
27.801531858397514 38.3486
27.824468269376716 38.046
27.847405817586786 38.2118
27.870344504116094 38.3143
27.893463551932008 38.2953
27.916404527281053 38.4
27.93934664422563 38.3598
27.962289903855886 38.3496
27.98541356491974 38.461
28.00835912214229 38.5303
28.03130582533231 38.6493
28.054253675581805 38.7173
28.077381967556104 38.763000000000005
28.100332124185126 39.0603
28.123283431160893 39.1839
28.146235889577238 39.2665
28.169368830154156 39.2912
28.192323603752033 39.3385
28.215279532083304 38.9802
28.238415973016764 38.604
28.261374223145094 38.516999999999996
28.284333631303806 38.315
28.307294198589954 38.175
28.330435319167677 37.8787
28.353398217078915 37.7377
28.376362277420153 37.4965
28.39932750129032 37.3388
28.422473319286713 37.043
28.44544088262495 36.8096
28.468409612800283 36.6986
28.491379510913497 36.4661
28.51453004413313 36.2522
28.53750229057244 36.2262
28.56047570826344 35.9985
28.583450298308804 36.1369
28.606605564586562 35.9977
28.629582511831156 35.9583
28.65256063474956 35.7733
28.675539934446338 35.8097
28.698699951647605 35.8293
28.72168161743193 35.6857
28.74466446331978 35.5834
28.767648490417624 35.5244
28.790813276438353 35.4479
28.813799678527303 35.4676
28.836787265157085 35.3982
28.859955641890075 35.3444
28.882945610203045 35.3525
28.905936766392035 35.271
28.928929111566863 35.4519
28.952102288520145 35.3489
28.975097024308607 35.194
28.998092952423807 35.24
29.021090073977508 35.1963
29.04426806913204 35.1622
29.067267590245258 35.05
29.090268308143695 35.1172
29.11327022394099 34.9704
29.13645305530891 34.7947
29.159457379627167 34.7105
29.18246290519685 34.5286
29.20546963313352 34.4908
29.22865731875826 34.4252
29.25166646419296 34.37
29.27467681535305 34.2523
29.29768837335608 34.2518
29.320880931312562 34.2372
29.34389491580634 34.1711
29.366910110507334 34.1308
29.38992651653503 34.1878
29.41312396492981 34.1453
29.436142806456754 34.056
29.45916286268059 34.2904
29.48236399319994 34.126
29.50538649169417 34.162
29.528410208259935 34.0678
29.55143514402014 33.9637
29.574641196749695 33.8212
29.597668583816574 33.6474
29.6206971934585 33.5294
29.64372702680042 33.4855
29.666938019934474 33.2541
29.689970313635285 33.1302
29.713003834422636 33.1003
29.73603858342347 33.0323
29.759254535188578 32.9435
29.78229175361658 32.8517
29.80533020365064 32.9493
29.82836988641968 32.8312
29.85159081507472 32.766
29.874632976355343 32.7586
29.89767637376955 32.8656
29.920721008448314 32.8042
29.9439469322847 32.6882
29.96699405457564 32.6271
29.9900424175358 32.7272
30.013092022298157 32.6043
30.03632295963995 32.5397
30.059375061131373 32.6241
30.08242840783577 32.5806
30.105483000888153 32.5604
30.128718970092244 32.461
30.151776069006917 32.4411
30.17483441768648 32.4527
30.198074175317235 32.3592
30.221135036724256 32.469
30.24419715131772 32.343
30.267260520236203 32.3317
30.290505341942243 32.3663
30.313571232750228 32.5693
30.336638381310948 32.6259
30.35970678876503 32.5339
30.38295669299435 32.4211
30.40602763151657 32.4308
30.429099832366074 32.3631
30.452173296685572 32.3175
30.47542830191959 32.2847
30.498504306502497 32.2042
30.521581577995562 32.2206
30.544660117543582 32.1882
30.56792024229725 32.2467
30.59100133132069 32.2103
30.614083691845494 32.1409
30.637167325018545 32.1734
30.660432587840603 32.3456
30.683518779717886 32.1573
30.70660624769615 32.1913
30.729694992924372 32.2201
30.75296541239743 32.302
30.77605672557558 32.3164
30.799149319462742 32.3047
30.8224236211637 32.3783
30.845518789950724 32.3816
30.868615242910597 32.2075
30.891712981195973 32.0465
30.91499247215866 31.9348
30.938092794619365 31.9723
30.96119440587579 31.863000000000003
30.984297307082752 31.6219
31.00758200598383 31.6186
31.030687500658694 31.5618
31.053794288760695 31.3121
31.076902371446767 31.3126
31.100192296997445 31.3571
31.12330298246119 31.3751
31.14641496599209 31.1922
31.169528248749216 31.1406
31.19282341969534 31.1824
31.215939314557186 31.1996
31.239056512134788 31.2003
31.262175013589378 31.143
31.28547544871168 31.1066
31.30859657161541 30.883000000000003
31.331719001892175 30.9122
31.35484274070538 31.0874
31.378148458819545 30.9333
31.401274828443725 30.8855
31.424402510106933 30.8246
31.447712205419993 31.0148
31.470842524931633 30.8205
31.493974159989783 30.8245
31.51710711176168 30.8205
31.54042212308802 30.9361
31.563557722100917 31.0378
31.586694641341655 30.9078
31.609832881979628 30.9477
31.63315322823208 30.8917
31.656294125521327 30.7784
31.679436347728515 30.6813
31.70257989602529 30.5044
31.725905596152327 30.4687
31.74905181052835 30.4102
31.772199354521323 30.456
31.79534822930507 30.3061
31.818679302290967 30.2676
31.84183085259981 30.3456
31.864983737233473 30.2305
31.88813795736804 30.2676
31.911474422233013 30.1384
31.934631327356435 30.1505
31.9577895715215 30.1391
31.980949155906522 30.1197
32.004291031706956 30.1149
32.027453310562606 30.0627
32.05061693318573 30.0159
32.07396288236386 30.1038
32.09712920658542 30.1339
32.12029687812702 29.9686
32.14346589817093 29.768
32.166817291729984 29.7794
32.18998902288583 29.6234
32.21316210610336 29.6028
32.23633654256711 29.5257
32.259693399663725 29.5532
32.282870556771144 29.3475
32.30604907069099 29.4212
32.329228942610065 29.3628
32.35259128243769 29.0985
32.375773884550505 29.1512
32.398957848235646 29.0735
32.422143174682176 29.0228
32.445511016471215 28.9654
32.468699082679954 28.9435
32.49188851523011 28.8532
32.51507931531304 28.7286
32.538452678331 28.8113
32.56164622776311 28.7742
32.58484114831493 28.6549
32.60803744118015 28.6851
32.631416344731896 28.5597
32.654615396551876 28.5845
32.67781582427913 28.6076
32.701198898634416 28.4335
32.72440209253756 28.3676
32.747606665947124 28.3671
32.77081262006088 28.1826
32.79420126883317 28.224
32.81740999876112 28.2545
32.840620112999424 28.2144
32.86383161274818 28.1191
32.88722585534586 28.1292
32.91044014056596 28.2836
32.933655814909734 28.1481
32.95687287957963 28.1921
32.98027273544904 28.0575
33.00349259526636 27.999000000000002
33.026713849030116 28.0892
33.04993649794511 27.9777
33.073341986570746 27.923000000000002
33.09656744032826 27.9085
33.11979429286444 27.8609
33.14302254538647 27.7837
33.166433686291185 27.7584
33.18966475336992 27.7237
33.212897224069096 27.6359
33.23613109959831 27.6113
33.259547912343415 27.5719
33.2827846121627 27.6539
33.306022720453775 27.5968
33.32926223842861 27.5985
33.352684742614166 27.5865
33.37592709463173 27.5429
33.399170859982064 27.4958
33.422597648419426 27.4549
33.44584425514446 27.3369
33.46909227885668 27.3661
33.4923417207723 27.2343
33.51577423505344 27.2679
33.539026528130385 27.1192
33.56228024307245 27.0933
33.585535381098246 26.8506
33.60897364093058 26.8262
33.63223163992385 26.8157
33.6554910656699 26.6551
33.678751919389796 26.8006
33.702195944520106 26.7177
33.72545966903325 26.6897
33.74872482519663 26.5531
33.771991414233746 26.6879
33.79544122444841 26.5941
33.81871069412428 26.5028
33.84198160035767 26.4261
33.86525394437455 26.4599
33.88870955949969 26.383000000000003
33.911984794020626 26.3584
33.93526147001624 26.3732
33.958539588715006 26.2685
33.98200102861669 26.2593
34.0052820477047 26.2295
34.02856451319451 26.1204
34.05203033759056 26.0591
34.07531571090147 26.1772
34.09860253431845 26.072
34.121890809074316 26.0175
34.145362493118924 26.0016
34.16865368561615 25.9938
34.191946333164054 25.8661
34.21524043699793 25.8283
34.23871800066799 25.8343
34.26201503218366 25.7512
34.28531352370466 25.7856
34.30861347646881 25.6017
34.33209693978188 25.6603
34.3553998301885 25.7146
34.378704185565205 25.6234
34.402010007152356 25.5397
34.42549939016683 25.4849
34.44880815937748 25.4171
34.472118398533134 25.3251
34.49543010887669 25.2549
34.51892543169198 25.1488
34.54224009966052 25.2401
34.56555624255917 25.23
34.58887386163339 25.151999999999997
34.61237514439016 25.0595
34.6356957311114 25.0542
34.65901779775809 25.0707
34.68252356662995 25.0051
34.705848608458616 24.9909
34.72917513396849 24.9792
34.75250314440949 24.8856
34.77601490857862 24.8012
34.799345904259795 24.7177
34.82267838863559 24.747
34.846012362958525 24.7758
34.869530142679984 24.7485
34.89286711232212 24.5803
34.91620557568269 24.6634
34.93954553401677 24.5846
34.9630693495876 24.6358
34.986412313340814 24.6439
35.00975677584668 24.548000000000002
35.033102738362956 24.487
35.05663261012228 24.4037
35.0799815881786 24.4794
35.10333207003229 24.3426
35.12668405694369 24.3254
35.150220005273056 24.3955
35.17357501786656 24.359
35.19693153931268 24.2962
35.220289570874385 24.2284
35.24383161619786 24.2346
35.267192683604904 24.1391
35.290555264930376 24.2044
35.314101899412165 24.1619
35.33746752422433 24.0884
35.36083466676374 24.1085
35.38420332829803 24.0316
35.407756095629054 24.0861
35.43112781085063 23.9901
35.45450104888391 23.906999999999996
35.477875810999194 23.9247
35.50143473172161 23.9055
35.52481255774625 23.9705
35.54819191167777 23.9934
35.57157279478914 23.941999999999997
35.595137889488406 23.8996
35.61852184675279 23.781999999999996
35.641907337029984 23.7832
35.665294361595684 23.7567
35.68886565090076 23.7269
35.7122557598848 23.6693
35.73564740699838 23.6867
35.759040593519934 23.6096
35.78261809810353 23.533
35.80601437933051 23.4346
35.829412203814705 23.3791
35.85281157283719 23.2287
35.876395313415884 23.3457
35.8997977874528 23.3114
35.92320180988546 23.285999999999998
35.946790244133936 23.2432
35.97019737933222 23.2499
35.993606066789866 23.2146
36.01701630779276 23.2121
36.04061101440684 23.0564
36.06402437852291 23.1309
36.08743930005611 23.0691
36.1108557802951 23.0697
36.13445678011326 23.076
36.15787639383515 22.9628
36.18129757014299 22.9161
36.20472031032821 22.8278
36.22832762423364 22.8318
36.25175350829375 22.7252
36.275180960119776 22.7888
36.298609981005924 22.7732
36.32222362992669 22.6691
36.34565580510207 22.6808
36.36908955323448 22.7145
36.39252487562093 22.5753
36.416144880530226 22.4974
36.43958336764275 22.5437
36.463023432914625 22.58
36.486465077645676 22.4736
36.51009145956204 22.528000000000002
36.53353627947859 22.4306
36.55698268276811 22.4446
36.58043067073321 22.3649
36.60406345072071 22.2834
36.62751462435344 22.2923
36.65096738658405 22.2874
36.67460498210655 22.2888
36.69806093788647 22.2307
36.72151848619297 22.1852
36.744977628333636 22.1634
36.76862165890998 22.0801
36.79208400512205 22.1544
36.81554794910557 22.0691
36.83901349217101 22.0406
36.862663978991606 21.9532
36.88613273667352 21.9646
36.90960309738324 21.9265
36.933075062434064 21.8108
36.95673202673572 21.8416
36.98020721697122 21.7377
37.003684015502365 21.65
37.027162423645365 21.6344
37.050825886711465 21.6452
37.07430753063053 21.6744
37.09779078812467 21.5607
37.121275660513014 21.5443
37.144945643673694 21.4772
37.16843376245278 21.5192
37.19192350009803 21.5001
37.215414857931435 21.401999999999997
37.239091382563885 21.3102
37.262585997426164 21.3335
37.28608223645736 21.3509
37.309763684451696 21.2533
37.33326318851098 21.2836
37.356764320726555 21.2044
37.380267082425526 21.2608
37.40395510942588 21.2111
37.42746114683234 21.173000000000002
37.45096881771841 21.0856
37.474478123414166 21.0144
37.49817275092816 20.9637
37.52168534303452 20.9811
37.54519957395567 20.8769
37.568715445024665 20.8541
37.592416694607714 20.8917
37.61593586281424 20.9196
37.63945667518264 20.9122
37.66297913304891 20.7445
37.68668702630454 20.8773
37.710212792059274 20.7336
37.733740207334854 20.6859
37.757269273470364 20.6141
37.780983832050374 20.5605
37.80451621684926 20.6435
37.82805025654007 20.5993
37.851585952464795 20.5358
37.8753071980695 20.4455
37.89884622345676 20.3876
37.92238690911902 20.3891
37.94611318753442 20.3285
37.969657210779765 20.3187
37.99320289834801 20.3636
38.016750251586465 20.3075
38.04048325513017 20.2495
38.06403395679343 20.1867
38.087586328183946 20.1562
38.11114037065203 20.1801
38.13488012115898 20.1488
38.1584375229181 20.1473
38.181996599821 19.9769
38.205557353221124 19.987000000000002
38.229303872575656 20.0114
38.2528679961576 19.9626
38.27643380031219 19.9482
38.30000128639589 19.8677
38.32375459653193 19.879
38.34732546371299 19.8779
38.37089801690786 19.7862
38.39447225747609 19.7379
38.418232380377425 19.715999999999998
38.441810012983396 19.7079
38.46538933705673 19.6754
38.488970353960084 19.6749
38.51273731166058 19.6396
38.536321731567014 19.5444
38.55990784840681 19.546
38.58367995004091 19.47
38.60726947812959 19.4176
38.63086070726198 19.4894
38.654453638806274 19.4748
38.678232613930824 19.3711
38.70182896773327 19.3435
38.72542702806741 19.3614
38.7490267963045 19.3189
38.77281266709232 19.2949
38.79641586862214 19.2917
38.8200207821842 19.1757
38.843627409152944 19.2483
38.86742019782782 19.1823
38.891030269149255 19.0985
38.914642058016156 19.0872
38.938255565806124 19.0171
38.96205529464307 19.0404
38.98567225787121 18.9763
39.00929094417078 19.0236
39.03291135492255 18.9463
39.05671804624804 18.9154
39.080341923549106 18.7762
39.103967529460334 18.8014
39.127594865365744 18.7791
39.15140854155791 18.777
39.17503935514948 18.7161
39.19867190290282 18.6802
39.22249083587951 18.6167
39.24612686969409 18.6416
39.269764641845306 18.6757
39.293404153722804 18.6481
39.317230110864074 18.5416
39.34087311998506 18.6143
39.36451787301696 18.554000000000002
39.388164371352595 18.4126
39.41199737518003 18.4574
39.43564738196752 18.4255
39.45929913825317 18.3728
39.48295264543308 18.3512
39.506792718520884 18.3513
39.530449745387216 18.314
39.55410852735203 18.2512
39.57776906581474 18.2803
39.60161623079 18.2385
39.625280300200025 18.1956
39.64894613032202 18.1963
39.67261372255866 18.1068
39.6964680021016 18.0574
39.72013913657293 18.081
39.74381203738292 18.0553
39.76748670593756 18.003
39.79134812278169 17.9426
39.81502634488497 17.9388
39.83870633896685 17.9389
39.862388106436654 17.9008
39.88625668336918 17.9018
39.90994201572829 17.8845
39.933629125719285 17.83
39.957503091207826 17.8232
39.9811937746168 17.8426
40.00488623990914 17.7785
40.02858048850006 17.7522
40.05246165409549 17.7315
40.076159487492085 17.6027
40.099859108448875 17.6532
40.123560518384345 17.5816
40.1474489070226 17.5898
40.171153913178564 17.500999999999998
40.194860712584955 17.5442
40.2185693066637 17.5403
40.242464941335314 17.5165
40.26617714307655 17.471
40.289891143772046 17.3978
40.3136069448471 17.3499
40.33750984859743 17.3369
40.3612292688043 17.3511
40.3849504936829 17.2737
40.40867352466194 17.2315
40.43258372059144 17.2109
40.45631038219906 17.2474
40.48003885420956 17.2003
40.503769138055105 17.1997
40.52768664931955 17.1629
40.55142057531802 17.0855
40.57515631746428 17.0626
40.599079334038514 17.0549
40.62281872700477 17.0292
40.64655994043941 16.9854
40.67030297578061 16.9659
40.69423334835778 16.9509
40.71798004609188 16.8965
40.74172857006355 16.8358
40.76547892171441 16.9036
40.7894166736039 16.8077
40.813170699248566 16.7839
40.83692655691388 16.7502
40.86068424804498 16.8287
40.884629402612525 16.7191
40.908390779366385 16.7425
40.932153993938 16.7115
40.95591904777605 16.7008
40.979871628443995 16.701
41.003640379561936 16.594
41.02741097430883 16.5684
41.05118341413683 16.5692
41.075143444384416 16.4978
41.098919593177826 16.4976
41.1226975914255 16.5041
41.14647744058318 16.4096
41.170444943946755 16.3982
41.19422851378379 16.3927
41.218013938914645 16.3289
41.24198706625173 16.3113
41.26577622087193 16.2714
41.289567235177785 16.2947
41.31336011063129 16.2646
41.337340752422875 16.2474
41.361137369129835 16.2506
41.38493585138705 16.1926
41.40873620066004 16.1008
41.43272438060107 16.0347
41.45652848292052 16.0191
41.48033445666918 16.0574
41.50414230331616 16.0207
41.528138045159764 15.9981
41.551949656675205 15.989
41.575763145513235 15.9583
41.59957851314666 15.8581
41.62358184070442 15.8267
41.64740098505737 15.8409
41.6712220126409 15.8188
41.69504492493139 15.8048
41.71905586207357 15.7845
41.74288256296395 15.7741
41.766711153007456 15.762
41.79054163368412 15.6371
41.814560204340054 15.7122
41.838394485526365 15.7035
41.86223066180303 15.6105
41.88625497706819 15.5523
41.910094962812 15.5281
41.93393684811168 15.5442
41.95778063445365 15.4852
41.981812625263366 15.4541
42.00566023303407 15.4549
42.029509746323676 15.475
42.05336116662236 15.4736
42.077400857069705 15.4249
42.10125611078846 15.3936
42.12511327600405 15.33
42.14897235421036 15.343
42.173019768448455 15.283
42.19688269209613 15.2311
42.22074753323349 15.2139
42.24461429335818 15.2118
42.268669455600495 15.1701
42.292540073217886 15.1703
42.31641261433284 15.1545
42.34028708044675 15.1292
42.36435001496739 15.1319
42.38822835065557 15.0573
42.41210861586426 15.0142
42.4359908120986 15.0747
42.46006154323262 15.0062
42.48394762115317 14.9203
42.507835634632315 14.9386
42.531912233047436 14.9266
42.55580413732265 14.9125
42.579697981698 14.8922
42.60359376768525 14.8512
42.62767820545945 14.7845
42.65157789440821 14.7844
42.67547952952185 14.7992
42.699383112316 14.7644
42.72347541395347 14.6629
42.74738291190531 14.6667
42.771292362102166 14.6893
42.795203766063516 14.6311
42.819303956130405 14.5561
42.843219287476536 14.5793
42.86713657716324 14.5448
42.89105582671383 14.6088
42.91516392983864 14.4992
42.939087119032166 14.5087
42.963012272677304 14.4785
42.98693939230129 14.443
43.01105543317513 14.4039
43.034986504731386 14.3688
43.05891954686589 14.2925
43.08285456110972 14.3368
43.10697856448665 14.3121
43.130917542983475 14.2589
43.15485849820081 14.288
43.17880143167367 14.2276
43.20293342237094 14.214
43.226880332449 14.1875
43.25082922540554 14.2045
43.27496722682525 14.1643
43.29892010567796 14.0855
43.32287497204102 14.047
43.34683182745632 14.0412
43.370977859791836 14.0029
43.39493871351105 14.0393
43.41890156092628 14.0235
43.44286640358341 13.963
43.46702049182749 13.929
43.49098934522816 13.915999999999999
43.51496019852649 13.9213
43.5389330532723 13.8588
43.56309522248204 13.877
43.58707210044314 13.8684
43.61105098451946 13.7605
43.63503187626491 13.7678
43.659202151562134 13.7701
43.68318707902681 13.7021
43.70717401884041 13.7088
43.731162972560874 13.6567
43.75534137913236 13.6693
43.779334381108384 13.6072
43.803329401683186 13.5834
43.82732644241872 13.594000000000001
43.8515130055166 13.5487
43.87551410707659 13.5162
43.89951723350145 13.5345
43.923709934595614 13.501
43.94771713129917 13.4653
43.97172635758096 13.4703
43.99573761501002 13.4624
44.0199385169922 13.4018
44.04395385732619 13.3811
44.067971233533086 13.3767
44.09199064718605 13.3226
44.11619977548961 13.3255
44.14022328470671 13.267000000000001
44.16424883610785 13.2832
44.18827643127035 13.2855
44.21249381139513 13.2614
44.236525514814076 13.177999999999999
44.26055926674478 13.1637
44.28459506876863 13.1308
44.3088207262813 13.0784
44.33286064928722 13.1284
44.35690262714919 13.0948
44.38094666145278 13.0509
44.4051806219871 13.0523
44.42922879003185 13.0195
44.45327901929361 12.9735
44.477331311362136 12.9849
44.501573600619416 12.9282
44.525630039221795 12.9448
44.54968854541895 12.8858
44.573937102200176 12.8379
44.5979997645541 12.8659
44.622064499300315 12.8414
44.64613130803592 12.8107
44.67038823869318 12.7574
44.69445921643748 12.7475
44.718532272981385 12.7281
44.742607409926194 12.7428
44.76687274034801 12.6729
44.79095205918753 12.6691
44.81503346325094 12.6394
44.839116954143876 12.6366
44.86339071028742 12.593
44.88747839599524 12.5796
44.91156817336837 12.5529
44.93566004401666 12.5791
44.959942251908146 12.5584
44.984038330325966 12.5079
45.00813650686762 12.4322
45.03223678314731 12.4757
45.05652746888232 12.3988
45.08063196592069 12.4029
45.104738567558705 12.356
45.128847275414856 12.3365
45.15314646515866 12.3036
45.17725940679741 12.2944
45.20137445952892 12.3002
45.22568004865265 12.2871
45.24979934496396 12.2629
45.27392075725247 12.2353
45.29804428714431 12.2096
45.322358426247604 12.1915
45.346486212804315 12.1702
45.370616121861914 12.1133
45.39474815505086 12.1293
45.41907087049246 12.1098
45.4432071734666 12.0572
45.46734560548283 12.046
45.49148616817604 12.0389
45.51581748638564 11.9761
45.5399623320197 11.9967
45.56410931325473 11.985999999999999
45.58825843173002 11.9769
45.61259837920865 11.9391
45.636751793816 11.925999999999998
45.66090735060093 11.8886
45.68506505120716 11.8412
45.7094136545275 11.8134
45.73357566449271 11.7976
45.75773982322992 11.8353
45.78190613238733 11.8042
45.806263418194064 11.7017
45.83043404997326 11.7193
45.85460683713677 11.7246
45.87897065658495 11.6794
45.90314777634752 11.6616
45.92732705646868 11.6612
45.9515084986045 11.6328
45.97588104735473 11.640999999999998
46.00006683541565 11.6112
46.02425479047904 11.5607
46.04844491420549 11.5521
46.0728262191024 11.5434
46.09702070211635 11.542
46.12121735879483 11.493
46.14541619080294 11.495
46.169806278764455 11.4684
46.194009483459034 11.4204
46.21821486849841 11.4291
46.24242243555223 11.3321
46.266821333570014 11.3302
46.29103328674601 11.3418
46.31524742696538 11.3566
46.33946375590237 11.3279
46.36387149104216 11.2681
46.38809221957392 11.3224
46.41231514186606 11.2915
46.436540259597464 11.2773
46.460956858999374 11.2265
46.48518638983522 11.2047
46.509418121166966 11.1536
46.533652054678114 11.144
46.55807754555709 11.1037
46.58231590571962 11.1124
46.60655647313217 11.0893
46.630988654873654 11.0693
46.655233659129024 11.0379
46.67948087571551 11.0331
46.70373030632484 10.9951
46.72817142736393 11.0008
46.752425308428684 10.9857
46.77668140861147 10.9493
46.80093972960865 10.9355
46.82538981736788 10.8831
46.849652602470904 10.8702
46.87391761349769 10.8107
46.8981848521493 10.8275
46.9226439341274 10.8269
46.946915650573224 10.8381
46.97118959976749 10.7603
46.99546578341598 10.7551
47.019933887188216 10.7327
47.04421456235744 10.6818
47.06849747711879 10.6586
47.09278263318286 10.6885
47.11725978640143 10.6371
47.14154944775105 10.6236
47.165841355555656 10.636
47.1901355115306 10.6267
47.214621741924994 10.564
47.23892041698887 10.5646
47.26322134538975 10.5433
47.28771440635075 10.5151
47.31201986422527 10.5348
47.33632758061436 10.4651
47.360637557241866 10.462
47.38513974410611 10.4557
47.40945426407847 10.4047
47.43377104948137 10.4178
47.45809010204344 10.3895
47.48260144275502 10.373
47.506925052572285 10.3744
47.53125093475548 10.3266
47.55557909103813 10.2993
47.58009961361992 10.2513
47.60443234110732 10.2672
47.62876734791564 10.2815
47.65310463578333 10.2445
47.6776343683373 10.2399
47.7019762413987 10.2018
47.72632040075572 10.1686
47.75066684815169 10.1422
47.77520581885936 10.0978
47.799556865477655 10.0984
47.823910205386 10.1214
47.84826584033272 10.0631
47.87281407745551 10.0454
47.89717432569297 10.0667
47.92153687423484 10.0459
47.94609208429692 10.0146
47.97045925671401 10.0184
47.99482873471275 9.97521
48.01920052005013 9.94838
48.04376504619224 9.91474
48.068141469543484 9.95293
48.09252020552573 9.909310000000001
48.11690125590099 9.8732
48.1414751266064 9.84958
48.16586082917454 9.84045
48.19024885144316 9.81188
48.2146391951793 9.81203
48.239222439012764 9.7921
48.26361744916137 9.726180000000001
48.28801478610016 9.757060000000001
48.31241445160131 9.74944
48.337007097209366 9.73823
48.36141144338331 9.71255
48.38581812345755 9.6749
48.41022713920929 9.691939999999999
48.434829215320704 9.685310000000001
48.45924292604658 9.67615
48.48365897780325 9.6765
48.50807737237308 9.60971
48.532688907799276 9.59552
48.55711201168574 9.584010000000001
48.581537463754074 9.536439999999999
48.60615611725119 9.58089
48.63058628942721 9.509730000000001
48.65501881516546 9.500010000000001
48.6794536962573 9.49725
48.70408185970339 9.46072
48.72852147531801 9.466389999999999
48.75296345168211 9.43136
48.77740779059232 9.394739999999999
48.80204549302823 9.41313
48.82649458091802 9.398610000000001
48.85094603676547 9.33388
48.87539986237231 9.33543
48.90004713292306 9.33409
48.92450572200832 9.3221
48.94896668628025 9.28837
48.97343002754588 9.28164
48.99808689542115 9.24721
49.02255501470614 9.245519999999999
49.04702551642794 9.21561
49.0714984023988 9.23787
49.096164896893235 9.17037
49.120642575466796 9.16329
49.145122643748394 9.16933
49.16960510355558 9.123330000000001
49.19428125404938 9.11547
49.2187685210852 9.11805
49.243258185121555 9.06365
49.26794160167084 9.09585
49.2924360839405 9.07446
49.31693296869764 9.00907
49.34143225776915 9.03753
49.36612538195438 8.9813
49.39062950396021 9.0032
49.41513603578346 8.96723
49.4396449792564 8.95508
49.46434784069503 8.96491
49.488861631846454 8.90846
49.513377840166804 8.88364
49.537896467493745 8.82817
49.56260909589029 8.84335
49.587132585683285 8.8877
49.611658500018365 8.8298
49.636186840738596 8.80518
49.66090926588511 8.81759
49.685442483902584 8.7955
49.70997813385706 8.75555
49.734516217597076 8.7215
49.75924846937352 8.696
49.7837914452858 8.68735
49.80833686055187 8.694510000000001
49.83288471702571 8.67544
49.85762682540054 8.682730000000001
49.882179588965734 8.65062
49.9067347993235 8.62092
49.93129245833333 8.60637
49.95604445336378 8.60807
49.98060703442832 8.54653
50.005172069746266 8.552719999999999
50.02993150438364 8.5453
50.05450147301533 8.57195
50.07907390151433 8.51613
50.10364879174981 8.48851
50.12841816587289 8.44918
50.1529980044635 8.48648
50.17758031042124 8.4743
50.20216508562089 8.44877
50.22694442953363 8.40216
50.25153416817468 8.413039999999999
50.27612638170508 8.372869999999999
50.300721072005196 8.37175
50.325510416102105 8.3596
50.350110084975064 8.33999
50.37471223628208 8.34802
50.39931687190919 8.29117
50.424116246675766 8.2996
50.44872587605249 8.26521
50.47333799543065 8.25204
50.49795260670191 8.20802
50.52276204271512 8.201360000000001
50.54738166295838 8.211139999999999
50.57200378079314 8.198139999999999
50.596628398116835 8.133389999999999
50.62144792604559 8.18854
50.646077567609396 8.13267
50.670709714377715 8.13809
50.69553683636198 8.12016
50.72017401885922 8.07835
50.7448137122895 8.05963
50.76945591856022 8.072560000000001
50.79429318636823 8.07979
50.818940443716784 8.06875
50.84359021965163 8.02807
50.868242516085964 7.98137
50.893089960641895 7.99328
50.917747323549435 7.97767
50.94240721271973 7.9839199999999995
50.96706963007175 7.953239999999999
50.99192728239342 7.90638
51.01659478166073 7.909
51.04126481489051 7.90083
51.06593738400761 7.87798
51.090805275207074 7.84934
51.11548294172845 7.8467899999999995
51.14016314993547 7.8561
51.164845901758845 7.82803
51.18972406304274 7.79245
51.21441192780656 7.80295
51.23910234200271 7.78183
51.2637953075678 7.77307
51.288683770237945 7.71758
51.31338186432707 7.68922
51.33808251561888 7.66707
51.362978729967345 7.6877699999999995
51.387684521509755 7.6706199999999995
51.41239287610203 7.6478399999999995
51.437103795691165 7.63802
51.46201036644977 7.60112
51.486726441956634 7.584919999999999
51.51144508832545 7.61481
51.536166307509156 7.61171
51.56108326624387 7.56323
51.58580965706056 7.549939999999999
51.61053862657523 7.5529399999999995
51.635270176746864 7.51483
51.66019755512065 7.52537
51.68493429268881 7.49229
51.70967361681515 7.48645
51.73441552946465 7.43907
51.759353359237934 7.44044
51.7841004750961 7.45706
51.80885018539685 7.3913
51.833602492111254 7.38346
51.8585508051424 7.34523
51.883308330926425 7.37895
51.90806845906181 7.31462
51.932831191525715 7.32297
51.95779001977161 7.304410000000001
51.98255798721516 7.24785
52.00732856494335 7.28798
52.03229530577543 7.26289
52.057071130455945 7.259060000000001
52.081849571391054 7.249339999999999
52.106630630568695 7.248460000000001
52.13160794279417 7.18158
52.15639426492067 7.189310000000001
52.18118321127822 7.182910000000001
52.205974783860896 7.1076
52.23096269971011 7.15641
52.255759551287994 7.142639999999999
52.280559035098186 7.06192
52.30536115314103 7.0991100000000005
52.33035970494467 7.118639999999999
52.35516711807904 7.12193
52.37997717147198 7.03563
52.40478986713005 7.04743
52.42979908731974 7.01118
52.454617094216 7.022639999999999
52.47943774942214 7.0072399999999995
52.50426105495102 6.997910000000001
52.529280976059844 6.97313
52.554109609024096 6.95177
52.57894089837482 7.01118
52.60377484613117 6.89952
52.62880550079408 6.94725
52.65364479223379 6.89774
52.67848674816189 6.85878
52.70352547971946 6.84369
52.72837279155837 6.86096
52.753222773982785 6.8606300000000005
52.778075429022984 6.8684199999999995
52.80312495150885 6.81905
52.827982978797436 6.81225
52.85284368481815 6.83298
52.87770707160767 6.79137
52.90276741793998 6.783460000000001
52.92763619336701 6.71258
52.952507655698504 6.692769999999999
52.977381806977576 6.726
53.00245301017842 6.7125
53.02733256653592 6.70868
53.052214817996074 6.717039999999999
53.077099766608484 6.675669999999999
53.102181859804446 6.670439999999999
53.127072229988265 6.6333
53.15196530349892 6.6468300000000005
53.17686108239249 6.60072
53.20195409881522 6.58684
53.22685531582556 6.5949
53.25175924441303 6.579039999999999
53.27666588664027 6.5792600000000006
53.30176985962693 6.5625
53.3266819565689 6.54216
53.35159677336455 6.52309
53.376514312083096 6.5202800000000005
53.40162927507703 6.47215
53.42655228516116 6.464580000000001
53.45147802340193 6.44362
53.47660125628886 6.4397
53.50153247842639 6.41832
53.52646643496923 6.40119
53.55140312799818 6.42528
53.576537409691696 6.411969999999999
53.60147960336152 6.36964
53.626424539786164 6.37432
53.65137222105307 6.3558699999999995
53.67651758529126 6.32751
53.70147078399681 6.30773
53.72642673383343 6.29263
53.75138543689533 6.2924
53.776541917524526 6.27758
53.801506154876755 6.23942
53.826473151763246 6.23222
53.851442910284916 6.18072
53.87661054126026 6.22164
53.9015858509782 6.22783
53.92656392866066 6.203869999999999
53.95154477641532 6.17739
53.976723591801296 6.14406
54.00171000771266 6.12708
54.02669920004598 6.129659999999999
54.051691170915745 6.0701
54.076881204886796 6.08741
54.101878760928514 6.06731
54.12687910187696 6.076890000000001
54.152077577768296 6.03378
54.1770835166946 6.0214300000000005
54.20209224691339 6.02661
54.22710377055121 6.0652099999999995
54.25231352511594 5.9839
54.27733066384342 5.926740000000001
54.30235060239643 5.9593
54.32737334290836 5.925269999999999
54.35259441062629 5.84403
54.377622783395324 5.86926
54.40265396455061 5.88192
54.42768795623251 5.85215
54.45292037169559 5.83817
54.477960012857906 5.80583
54.50300247099511 5.8119
54.52804774825457 5.7792900000000005
54.55329154616743 5.7295
54.57834249018678 5.72726
54.6033962597977 5.72299
54.6284528571545 5.6980900000000005
54.653708072335164 5.65846
54.67877035378786 5.62632
54.70383546947698 5.6027
54.72890342156389 5.6112
54.7541700889442 5.54735
54.77924374251975 5.56341
54.8043202390049 5.543419999999999
54.82959552413022 5.45485
54.8546777351945 5.48722
54.87976279569621 5.47541
54.90485070780914 5.48735
54.930137506558005 5.47136
54.95523115074295 5.4467300000000005
54.98032765308844 5.40733
55.005427015775496 5.38532
55.03072536339621 5.3560300000000005
55.05583047570572 5.31206
55.080938454927676 5.307180000000001
55.10604930325027 5.27928
55.131359235107396 5.28118
55.15647585066083 5.20531
55.181595341907496 5.2127
55.20671771104285 5.166869999999999
55.232039262617704 5.17057
55.25716741665048 5.10249
55.28229845518636 5.112080000000001
55.30743238042802 5.04924
55.33276558731939 5.07066
55.357905315183636 5.10045
55.383047936390035 4.99805
55.40819345314859 4.96739
55.433538351073295 4.96581
55.458689688238415 4.94572
55.483843927614096 4.95976
55.509197623043605 4.90254
55.53435769621134 4.8543
55.55952067826466 4.86229
55.5846865714265 4.8520900000000005
55.61005202069737 4.7916099999999995
55.63522376553902 4.820119999999999
55.66039842818645 4.75938
55.68557601087004 4.8196
55.7109532500271 4.73425
55.73613670233794 4.74766
