TT I
1.2716486653135266 6.911519999999999
1.2939594142134223 6.9419
1.3162702121660406 6.397530000000001
1.3385810600174564 6.60795
1.3608919586137629 6.611000000000001
1.383202908801069 6.23264
1.405513911425503 5.58395
1.4278249673332093 6.09047
1.4501343378461518 6.873469999999999
1.4724455028545926 6.36105
1.4947567236847858 5.7946800000000005
1.517068001182951 5.9689
1.5393793361953272 6.16918
1.5616907295681737 6.4829099999999995
1.5840021821477681 5.31569
1.60631369478041 4.98701
1.6286252683124185 4.9580400000000004
1.6509369035901333 4.18639
1.6732468618895553 5.32153
1.695558623192809 4.808330000000001
1.7178704487808514 5.03293
1.7401823395001077 4.75737
1.7625012545597203 4.73762
1.7848028405262486 5.08165
1.8071218901122095 4.74046
1.8294236121921872 4.779059999999999
1.8517427996910911 4.52819
1.8740620574440425 4.34884
1.8963639900671978 4.48832
1.9186833908139995 4.9032800000000005
1.9409854680117449 4.34115
1.9633050151394713 4.79138
1.9856246367570705 4.73117
2.0079269371922672 4.852469999999999
2.03024671027244 4.3322
2.0525491637446027 4.348269999999999
2.074869091674931 4.88031
2.097171701569106 4.74177
2.1194917877373847 4.80526
2.141811954326636 4.93987
2.164114805233074 4.4137900000000005
2.186435135143035 5.36072
2.208738150935709 11.2693
2.231058647554722 21.7806
2.2533792288321184 16.2885
2.275682498336085 7.867839999999999
2.298003251406138 4.88663
2.3203066942619714 5.019430000000001
2.3426276225136022 5.5411
2.3649486396617507 5.72403
2.387252348930071 5.81885
2.4095735463442893 6.061719999999999
2.4318774374315884 6.14227
2.4541988185014043 6.37326
2.476502894794693 6.95194
2.498824462909887 7.43773
2.521146125856138 6.802910000000001
2.5434504863470337 7.315189999999999
2.5657723414244717 7.72938
2.588076895590662 8.59127
2.610398946189713 8.290189999999999
2.6327210958598384 7.94003
2.6550259469304716 7.8684
2.6773482972090137 8.59247
2.6996533504259 8.794319999999999
2.7219759047039602 8.52104
2.744298562293959 8.27985
2.7666039251246595 8.19942
2.7889267918020164 8.13641
2.8112323652516555 8.83496
2.833555444408179 8.79616
2.8558786311183852 8.195
2.8781845268938557 8.83062
2.9005079311721484 8.892489999999999
2.9228140460410397 9.292760000000001
2.9451376712799635 9.33266
2.967444008632326 9.54776
2.9897678582247247 10.1082
3.0120918213106695 10.2782
3.0343984987899373 10.6799
3.0567226913198637 11.0386
3.079029599759726 11.524000000000001
3.101354025127254 11.8908
3.123678568232338 12.6028
3.145985829517914 13.2789
3.16831061055229 13.674000000000001
3.1906181112775593 14.375
3.212943133635653 14.9084
3.2352682779763207 15.1818
3.2575761442691227 15.3339
3.2799015350264273 15.4976
3.302209649240067 16.5175
3.3245352898092655 16.5564
3.3468436553365257 17.3754
3.369169549113219 17.5887
3.3914955708171384 18.367
3.413804319727358 18.5716
3.4361305997334863 19.078
3.4584396084414553 19.8485
3.4807661501462652 19.923
3.503092824025881 20.688000000000002
3.5254022288463154 20.6605
3.5477291695206588 20.8447
3.5700388426251948 21.7836
3.5923660534916446 23.5702
3.6146934007816114 34.0564
3.637003482731501 69.2465
3.6593311053109985 77.6154
3.681641464033634 47.3916
3.7039693653009733 28.4442
3.726297407241705 25.5436
3.7486081875460804 25.5115
3.7709365132734978 25.9441
3.793247578841633 26.3681
3.8155761917550093 27.0319
3.8378875459837216 27.1776
3.8602164494827234 27.18
3.882545499606844 27.8919
3.9048572932539183 28.493000000000002
3.9271866390645718 28.9366
3.9494987298666713 29.3153
3.971828374764527 29.7917
3.9941581705403255 30.2662
4.016470713506008 31.218000000000004
4.038800813471445 31.531
4.061113662089144 32.3741
4.0834440696459176 33.4087
4.105774632334751 33.3606
4.128087945865126 34.4942
4.150418821249301 34.5039
4.172732448931298 35.9728
4.195063640413578 37.6143
4.2173775856475215 40.2647
4.239709096631102 63.8724
4.262040768704612 180.864
4.284355196706267 238.983
4.306687193387355 157.004
4.329001947444346 68.9617
4.35133427213731 46.071000000000005
4.373666762177566 43.5197
4.395982011761091 43.555
4.418314834921175 45.1364
4.44063041906622 50.591
4.4629635787515625 58.9292
4.4852969080429785 58.9493
4.5076130004776225 52.1196
4.529946671403969 50.4557
4.552263106909177 51.418
4.574597122877047 51.9497
4.596931312711224 52.5427
4.619248269273446 52.6591
4.6415828092605835 54.0152
4.663900117405352 55.3402
4.686235010953232 56.3859
4.708552674085913 57.5559
4.730887924602802 59.0877
4.753223354952695 60.516000000000005
4.775541557023902 62.1449
4.797877349456786 64.1961
4.820195915032126 66.0154
4.842532072957498 66.6314
4.864868414979744 68.8033
4.88718753227192 71.4801
4.909524244902505 73.332
4.931843734218147 74.6349
4.954180820867835 77.507
4.976518095879839 80.5041
4.998838149695359 82.8176
5.021175803844231 86.0897
5.043496238205739 89.4943
5.065834274903528 93.6313
5.088172504230693 98.1822
5.1104935158799565 104.405
5.132832132875765 123.693
5.155153533596801 158.694
5.1774925416746225 193.495
5.199814334878411 354.131
5.2221537374521505 984.309
5.244493338631803 2802.59
5.266815727034316 7881.68
5.289155727832427 12589.0
5.311478517248165 8492.16
5.333818921080011 2575.68
5.356159527788849 488.74199999999996
5.3784829252032536 178.24400000000003
5.400823940070432 141.378
5.423147747031976 125.204
5.445489173474152 116.50299999999999
5.467830807066149 111.954
5.490155234831516 108.90299999999999
5.512497285125229 105.22200000000001
5.534822130975162 103.01
5.557164601388673 100.49799999999999
5.579489868738879 98.2753
5.601832762690846 97.1247
5.6241758697774475 96.3839
5.646501775867269 95.5417
5.668845311622074 93.8101
5.691171647754637 93.1564
5.713515615597765 92.1114
5.735859800852677 91.2727
5.758186788542988 91.0404
5.780531411018185 91.5409
5.802858837297399 91.0759
5.825203900414495 91.2372
5.8475491852224 92.1845
5.869877275883075 92.7287
5.892223006467101 92.7987
5.914551544266608 93.348
5.936897724049891 96.0668
5.959244129804903 102.40299999999999
5.981573344815301 122.68
6.0039202049061 214.352
6.026249875609095 457.675
6.04859719346037 953.049
6.070927323278297 2214.68
6.093275102315365 4526.88
6.115623113320588 5292.66
6.137953938319995 3116.04
6.160302415650845 875.331
6.182633708324452 205.166
6.2049826554078376 107.477
6.227331838745022 90.0465
6.249663839443684 83.2536
6.27201349767565 80.1319
6.294345974611799 84.35799999999999
6.316696111167083 91.9787
6.339046488263839 87.439
6.361379686074702 76.5208
6.383730546639482 70.5296
6.406064229255215 68.0171
6.428415576718203 67.6716
6.450749747566656 66.6089
6.47310158535871 65.2866
6.495453669698332 64.3155
6.517788579421056 63.5999
6.540141159237969 62.8929
6.562476565766648 62.5557
6.5848296444934045 62.1207
6.607182974060425 61.6887
6.6295191323281015 61.7041
6.651872965955752 63.9503
6.6742096296068985 83.1774
6.6965639707294615 114.98700000000001
6.71891856698715 115.51100000000001
6.741255995248479 84.4309
6.763611104154477 64.7916
6.785949046381137 59.2699
6.808304671371482 57.9839
6.8306605557940046 57.8183
6.852999275508618 57.2686
6.875355681171544 57.0156
6.897694923437771 56.1781
6.92005185377892 56.0398
6.9423916220322655 55.6966
6.964749080490181 55.3632
6.987106804399774 55.3358
7.009447368180821 55.0617
7.031805625367033 55.1118
7.054146723727803 55.0652
7.076505517631004 54.5406
7.098864581288365 54.6089
7.121206488070854 54.8113
7.143566093607822 54.3634
7.165908543567245 54.476000000000006
7.188268694426048 54.8217
7.2106291193438095 54.6483
7.232972390625943 55.7383
7.255333366030969 64.9808
7.277677189091925 103.066
7.300038718428332 136.681
7.322400526130865 118.445
7.344745183422596 78.2918
7.367107550224791 59.1155
7.389452767901992 55.2534
7.411815697249891 54.4179
7.434161478756298 53.4844
7.456524974096713 53.402
7.478888753837185 53.5433
7.501235387657368 53.9332
7.523599738562711 53.6952
7.545946944825532 53.8665
7.568311870344528 54.7015
7.5906770845765665 54.5267
7.613025156078678 55.5812
7.635390950099687 56.5668
7.657739602662809 55.99
7.680105979923558 55.4254
7.702472650212829 55.4078
7.724822180948224 55.1981
7.747189439655568 55.5784
7.769539560075357 55.5351
7.791907410653562 56.0065
7.81425812420825 55.9483
7.836626570110925 55.9341
7.858995315087906 57.1755
7.881346924933401 57.1323
7.903716270417482 57.4361
7.926068482028405 57.7003
7.948438431475253 58.8082
7.9708086843180235 59.1208
7.993161805171116 59.5729
8.015532667162402 60.0729
8.037886398416653 61.2586
8.060257873014221 61.8002
8.082629655331942 62.4373
8.104984308787587 63.3917
8.127356708900503 65.8924
8.149711981398308 70.4074
8.172085002766314 72.4588
8.194458336181368 69.9616
8.216814543847752 68.2103
8.23918850371002 69.0134
8.26154533906492 69.7686
8.283919928836452 71.1699
8.306277395339652 72.0985
8.328652618483376 73.3726
8.351028159736202 75.4892
8.373386579575245 77.4109
8.395762759396959 79.2276
8.418121819038275 83.8622
8.440498640894003 94.4511
8.462875785192262 107.324
8.485235811156207 123.152
8.507613602688501 169.285
8.529974277114228 254.11
8.552352719347912 381.00199999999995
8.574731488360351 654.4730000000001
8.59709314210385 1209.34
8.619472567021075 1930.42
8.64183487789147 2195.11
8.664214962183097 1729.81
8.686577933647762 858.5419999999999
8.708958680784317 321.546
8.731339760774953 149.369
8.753703729764451 107.119
8.77608547780821 96.9068
8.798450116065078 93.76700000000001
8.820832535634787 91.1062
8.843215292401656 90.0982
8.865580941199045 88.9152
8.887964374703538 87.9766
8.910330701447199 88.6356
8.932714815164482 89.7221
8.955099270424924 89.2045
8.977466620733543 86.3472
8.999851761421976 84.0531
9.022219798361645 82.7288
9.04460562795561 82.5555
9.066991803441677 82.0837
9.089360876979615 82.0356
9.111747746589993 82.0469
9.13411751544971 81.2363
9.156505082664324 81.2539
9.178875550323522 81.1522
9.20126381862328 81.5856
9.223652438908596 81.6786
9.246023961427412 81.5291
9.26841328802173 81.1756
9.290785518039224 81.2106
9.313175554425882 82.2889
9.335565947154315 82.3549
9.357939245086508 82.3067
9.380330352834827 82.2745
9.40270436697103 82.8138
9.425096193225055 82.682
9.447488380180165 83.2856
9.469863475295412 83.6494
9.492256385987508 83.9533
9.514632206018318 84.5405
9.537025843935714 84.9562
9.559402392368193 85.6063
9.581796761000229 86.954
9.604191496441521 87.6708
9.626569144158516 90.4949
9.648964615551032 93.8533
9.671343000390081 95.0313
9.693739211225699 93.6366
9.716135793237463 91.9416
9.738515290448102 91.9922
9.760912617143402 93.4109
9.783292860202891 94.3342
9.805690935076182 95.8038
9.828089385495742 96.4659
9.850470754023561 98.7164
9.872869957865444 105.274
9.89525208097539 116.61200000000001
9.917652041736662 126.425
9.940052382417589 129.504
9.962435644102392 142.754
9.984836746950979 180.22299999999998
10.007220771957746 242.11599999999999
10.029622640473708 341.091
10.052007432299963 514.101
10.074410069984072 819.798
10.096813093716005 1283.5
10.119199042482517 1767.88
10.141602840636468 1962.49
10.163989564971628 1512.63
10.186394141051062 808.7289999999999
10.208799107559706 347.31300000000005
10.231187001965623 168.08700000000002
10.253592751657669 120.079
10.275981430388155 110.59200000000001
10.298387966769793 109.333
10.320794897965431 110.89
10.343184759907361 110.324
10.36559248305461 105.958
10.387983138083852 103.411
10.410391656691655 107.449
10.432800574501677 119.066
10.455192425893369 135.546
10.47760214443012 160.435
10.499994797678786 204.91
10.522405320453982 288.302
10.54479877906917 416.89099999999996
10.567210109595656 532.451
10.5896218454736 577.604
10.612016518879773 484.975
10.634429067781074 322.02299999999997
10.656824555333241 184.18
10.679237920773568 114.306
10.701651695961992 93.1814
10.724048411481384 87.7669
10.746463008485165 85.0456
10.768860546937125 83.4011
10.791275969274796 81.9961
10.81369180576079 80.9965
10.836090585366925 80.191
10.858507252467449 79.2411
10.88090686379991 78.10300000000001
10.903324365036394 77.4483
10.925724811614439 77.3999
10.948143150509463 77.7971
10.970561909719066 77.1216
10.992963615930844 75.44800000000001
11.015383218085756 73.6718
11.037785768347074 72.3924
11.06020621697282 71.8038
11.082627090322113 71.4429
11.105030913430326 70.8139
11.12745263854165 71.0582
11.149857314510728 73.5558
11.172279894912576 77.584
11.194702904450653 78.0025
11.217108866490921 75.0632
11.239532736615194 71.8021
11.26193956033512 69.8652
11.284364294577085 68.6961
11.306789462371718 67.2061
11.329197585398376 66.5796
11.351623622610898 66.3059
11.37403261614354 65.2053
11.396459526308487 65.347
11.418869393879497 64.8035
11.441297180532617 64.4386
11.463725406927658 63.8013
11.486136592353875 63.993
11.508565700543707 64.3835
11.530977768845315 65.8763
11.553407762368774 66.1551
11.575838200059769 65.2839
11.598251599479612 63.9783
11.620682927815501 62.9493
11.64309721895548 62.7313
11.665529441478206 62.3098
11.687962112597958 62.1999
11.710377748130886 62.4332
11.732811318753434 61.8616
11.755227854859067 62.0614
11.777662328529495 62.099
11.800079768750786 61.8012
11.822515149015453 61.8232
11.844950984084935 61.9352
11.867369787303163 61.7618
11.889806534289491 61.8827
11.912226250487029 62.1067
11.934663912939751 62.074
11.9571020346363 62.355
11.979523127133968 62.6002
12.001962169624331 63.1295
12.024384183972964 64.4525
12.046824150809913 67.3812
12.069264581333726 72.1741
12.091687985297767 77.51100000000001
12.11412934550045 86.6783
12.136553680195208 102.166
12.158995973632788 125.579
12.181438735204349 157.567
12.20386447284199 192.845
12.226308172985636 212.449
12.24873485024193 202.078
12.271179492516982 166.445
12.293607112949127 118.801
12.316052700916226 88.2245
12.338498763250042 74.4485
12.360927805303868 67.7271
12.383374818673879 65.0215
12.405804812803074 63.4926
12.428252780773262 63.3983
12.45070122756722 63.2706
12.473132656675375 63.3614
12.49558206341869 63.4488
12.518014453510101 63.6293
12.540464823770117 63.5957
12.562915677315177 63.8754
12.58534951575545 64.4885
12.607801338171472 66.0444
12.630236146511358 69.7719
12.652688941369085 73.14
12.675124723177234 73.5238
12.697578494048786 71.3416
12.720032754458185 68.0956
12.742470003354093 66.8148
12.764925245138771 66.8413
12.787363476431278 67.2728
12.809819703166806 67.7209
12.83227642391173 68.2193
12.854716135692716 68.7242
12.877173846755147 69.9202
12.899614549869717 70.1498
12.9220732548287 70.8033
12.94453245827299 71.3929
12.966974655289818 72.7566
12.989434858002571 73.4585
13.011878055298721 73.8548
13.034339260862497 75.104
13.056800969391883 76.5335
13.079245674017244 78.5733
13.101708390774869 81.125
13.12415410463411 88.7894
13.146617833206086 99.8368
13.169064559883248 110.853
13.191529303857127 124.98899999999999
13.213994557076367 147.988
13.236442809902437 186.02200000000002
13.258909083908291 244.63
13.28135835851934 315.178
13.30382565690295 385.37
13.326293469022952 437.21
13.348744283242008 423.676
13.371213125129904 345.31300000000005
13.39366497011003 242.987
13.416134845360597 160.014
13.438605238843131 117.419
13.46105863690397 103.369
13.483530069144786 104.647
13.505984506951902 109.744
13.528456981549432 119.09299999999999
13.550929978879088 133.347
13.573385983253365 158.267
13.595860028340867 198.727
13.618317081455832 254.695
13.64079217790333 314.85200000000003
13.663250283359057 360.476
13.685726434770173 378.065
13.708203115221277 329.208
13.730662806148091 247.736
13.75314054697177 167.74200000000002
13.775601299246777 117.693
13.798080104050406 92.727
13.820559442405358 83.249
13.843021793671388 80.4754
13.865502201420897 78.8885
13.887965623051947 78.3422
13.910447103807167 77.4453
13.932929122629764 76.0458
13.955394156785959 75.9651
13.977877254034569 74.8172
14.000343367582113 73.9125
14.022827546871707 73.634
14.045294743423524 73.0722
14.06778000837062 72.0514
14.090265817715476 72.2737
14.112734645763819 71.811
14.13522154619454 71.2625
14.157691466286913 71.3642
14.180179461423874 71.3109
14.202668005486178 70.3781
14.22513957064374 69.73100000000001
14.247629214846473 69.5198
14.270101881097517 69.3575
14.29259262906496 69.6201
14.315083930490205 70.0479
14.337558255389705 70.2092
14.360050666019726 69.9076
14.382526101071944 69.2051
14.405019624534942 68.5024
14.427513705993134 67.9403
14.449990813291825 68.0768
14.47248601302899 67.8016
14.49496423954951 68.005
14.517460561197822 68.1222
14.539939910570322 67.8686
14.562437357763558 68.2923
14.58493536931253 69.0266
14.607416409993311 69.5774
14.62991555254159 70.1152
14.652397725157423 70.1524
14.674898002342799 69.8899
14.697398848433282 69.512
14.719882725991326 70.6996
14.74238471217934 71.7685
14.764869730765593 74.95100000000001
14.787372860692983 78.4299
14.809876564079925 82.5617
14.83236330125751 88.1314
14.854868153850365 96.7421
14.877356041159485 110.40100000000001
14.899862046604186 130.018
14.922351087688757 156.827
14.944858249632887 187.128
14.967365991421232 214.43
14.989856770231246 228.093
15.012365673994204 219.834
15.03485761569738 184.15400000000002
15.05736768508665 141.982
15.07987833888692 107.47200000000001
15.102372032001655 85.6251
15.124883856909658 74.8709
15.14737872204565 70.7306
15.169891721717274 69.4266
15.192405310371893 69.1458
15.214901940621196 69.3784
15.237416709527137 69.3113
15.259914520936249 69.6752
15.282430473753607 68.6496
15.304947020131227 67.67399999999999
15.327446610371178 66.7223
15.349964346154254 66.4711
15.372465126703139 66.1746
15.394984055556009 66.0082
15.417486030076159 65.6315
15.44000615566487 65.2489
15.462526881230803 65.1401
15.485030653812652 65.391
15.507552581617434 65.1159
15.530057557334603 65.2681
15.55258069104857 65.2742
15.575104429329837 65.6796
15.597611216864632 65.4381
15.620136166564563 65.5808
15.6426441664095 66.4932
15.665170331202765 68.896
15.687697105158826 71.7785
15.710206930593545 75.2162
15.732734925158933 78.9249
15.755245972089478 85.0883
15.77777519094324 94.0606
15.800287463046663 108.131
15.822817909869592 128.754
15.84534897229804 152.497
15.867863089299354 178.803
15.890395385222186 195.935
15.912910736597423 198.487
15.935444269699861 181.299
15.957978423016485 147.904
15.980495633101265 114.71799999999999
16.003031029129367 89.2835
16.02554948280019 72.9225
16.048086125229432 65.7919
16.070623392487107 63.868
16.09314371869582 62.9933
16.11568223789321 62.2015
16.13820381691126 61.3902
16.160743591742527 60.6345
16.183283996022084 59.6346
16.205807461423195 58.6224
16.228349126881973 58.0753
16.25087385432698 58.0971
16.27341678466365 57.7262
16.29594277784926 57.4041
16.31848697676433 57.4379
16.341031811604868 57.5314
16.36355971058487 57.6936
16.3861058195587 57.5938
16.40863499352978 56.6445
16.431182380342005 55.8191
16.453730407713202 55.6691
16.476261501364792 55.306000000000004
16.498810812136167 54.8406
16.52134319004079 54.9548
16.54389378792203 54.7898
16.566445031001553 54.6563
16.588979342490088 54.4103
16.61153187824822 54.3301
16.634067483263312 54.1084
16.656621315414416 54.089
16.679175797408888 53.9103
16.701713349928728 53.7998
16.72426913389191 54.1096
16.74680798922351 54.088
16.76936507887444 54.3234
16.791905240734874 54.3362
16.814463639794468 54.1095
16.837022695210294 54.1818
16.859564824093756 54.3913
16.882125194503903 55.0632
16.904668639217885 55.4697
16.927230328348003 55.4379
16.949792678493612 55.8788
16.972338104193863 55.3099
16.994901778652235 55.0284
17.017448529496576 54.8952
17.040013531998152 55.2536
17.06257920018044 55.7641
17.0851279459922 56.5215
17.107694947817667 57.3717
17.130245028099072 58.0591
17.15281336730298 59.3534
17.17536478578733 60.9573
17.19793446610687 63.1748
17.220504818648422 66.6521
17.243058251703697 70.0051
17.265629950971032 75.0584
17.288184731571736 80.0277
17.310757781306908 83.2132
17.33333150794385 83.4434
17.355888317140174 81.425
17.37846339986244 75.5813
17.401021565958885 68.9231
17.42359800851343 63.7597
17.44617513265564 60.8287
17.468735341390783 59.2473
17.491261035594565 58.4589
17.51396340099364 58.2231
17.536490463869136 58.4581
17.559018209820174 58.577
17.58154663977963 58.5571
17.604251766089718 58.6849
17.626781572227713 58.9919
17.64931206518155 59.3314
17.671843245885103 59.8769
17.69455114821572 59.8217
17.717083712612634 59.9886
17.739616967569667 60.4322
17.762150914021706 60.8168
17.78486160749854 60.7651
17.807396945166804 61.3496
17.829932977143503 62.4657
17.85246970436452 63.766000000000005
17.875183204129467 65.7466
17.897721330097664 67.6895
17.920260154126645 69.9162
17.942799677153296 73.0874
17.9655159983646 76.9357
17.988056927677544 82.1929
18.010598558807683 90.1955
18.033140892692916 100.86399999999999
18.05586005052525 112.87100000000001
18.07840379824407 125.301
18.10094825154059 135.377
18.12366954819864 141.694
18.146215420998306 138.41899999999998
18.16876200220057 127.21
18.191309292745153 112.316
18.214033452627167 98.39
18.236582170236648 88.2532
18.259131600016456 84.575
18.281681742907335 85.7606
18.304408781233683 90.7189
18.32696035875955 96.5787
18.349512652227624 101.531
18.372065662579683 105.82700000000001
18.394795594587553 105.97
18.41735004715306 100.819
18.43990521943684 92.932
18.46246111238171 83.1699
18.485193953325208 74.443
18.507751296070428 67.8773
18.530309362314178 64.3412
18.552868153000343 62.5122
18.57560391815056 61.1072
18.59816416623245 60.7699
18.620725141597372 60.3141
18.643286845190268 59.9074
18.666025549835414 59.5814
18.688588718427933 59.0255
18.711152618092243 58.9946
18.73389353884365 58.7966
18.75645890921984 58.2371
18.77902501351406 58.0132
18.801591852673102 58.0727
18.824335739722738 57.3731
18.846904057212626 57.4449
18.8694731124168 57.1516
18.89204290628315 57.0682
18.914789774966803 56.8604
18.937361054791623 56.4746
18.959933076131318 56.3989
18.982505839934877 56.2413
19.00525570560582 56.4359
19.027829963004184 56.2244
19.05040496572238 56.48
19.072980714710468 56.3006
19.095733592739563 56.5255
19.11831084296757 56.8975
19.140888842324735 57.0343
19.16346759176222 57.3161
19.18622349753803 57.6987
19.208803755869358 58.6971
19.231384767143577 59.7471
19.253966532312948 61.542
19.276725481241822 63.6438
19.29930876296784 66.1831
19.3218928014549 69.4495
19.34465404436217 72.7502
19.36723960516257 75.3969
19.389825925592426 76.0079
19.412413006605938 74.4781
19.43517731967805 70.3032
19.457765930683355 66.0512
19.48035530514408 61.2404
19.50294544401556 57.8014
19.525712842708348 55.4277
19.54830451925909 54.3864
19.570896963095727 53.6758
19.593490175174704 53.2482
19.616260674962184 53.3132
19.638855432416964 53.016999999999996
19.661450960992624 53.3182
19.68404726164677 52.9075
19.706820878021247 52.9262
19.729418731756834 53.2233
19.752017360452857 52.8923
19.77461676506804 52.928000000000004
19.797393513540218 53.0753
19.819994478951667 53.3298
19.84259622316767 53.8417
19.8651987471481 54.1432
19.887978643247177 54.4761
19.91058273574792 54.9756
19.933187610901943 55.6628
19.955969879466828 56.7542
19.97857632894404 58.2648
20.00118356396599 60.151
20.023791585494575 62.5359
20.046577028914875 65.3522
20.069186632506966 67.5716
20.091797025500632 69.1939
20.114408208858933 69.705
20.137196842715273 68.9548
20.159809615886765 67.0515
20.18242318232135 64.1876
20.20503754298326 62.2602
20.227829382875154 61.4446
20.250445341109344 61.6077
20.27306209647285 62.4813
20.29567964993108 64.036
20.31847471147704 65.1332
20.34109387027612 65.3759
20.363713830075454 64.8769
20.386334591841646 63.1826
20.409132890679302 60.1368
20.431755265564437 57.0324
20.454378445325528 54.2614
20.477002430930366 52.3677
20.499803982716553 51.446000000000005
20.522429589228004 50.7652
20.54505600449589 50.3279
20.567683229489194 50.3135
20.590488049900088 50.0028
20.61311690359731 49.7097
20.63574656993626 49.42100000000001
20.658553853717297 48.9786
20.681185154618298 49.0374
20.703817271080066 49.0963
20.72645020407368 48.7145
20.749260783967177 48.6597
20.771895359337133 48.5665
20.794530754161617 48.3975
20.817166969412938 48.1672
20.83998086114876 48.263000000000005
20.86261872660049 48.3007
20.885257415405402 47.9906
20.90789692853701 48.1832
20.930714147864748 48.1445
20.953355319030678 48.1422
20.97599731745334 48.1963
20.99864014410749 48.1633
21.021460706796564 48.1079
21.044105199328826 48.157
21.06675052302631 48.3776
21.089396678865015 48.6259
21.112220600704806 48.9951
21.134868430275347 49.3652
21.15751709492456 49.705
21.180166595629693 50.0873
21.202993892429635 50.5453
21.22564507473034 50.8862
21.24829709602816 51.0934
21.27112693608965 51.0086
21.293780644891275 50.7723
21.316435195634053 50.2012
21.339090589297417 49.272
21.361923832041875 49.0289
21.384580921090404 48.1303
21.407238856007325 47.6828
21.429897637773326 47.9038
21.45273429906592 47.8949
21.475394784108598 47.857
21.498056118951983 47.9032
21.520718304578022 48.0534
21.543558400304388 48.0566
21.566222297108816 48.1808
21.58888704765135 48.4936
21.61155265291521 48.7898
21.63439619898156 49.3048
21.657063523335786 49.468999999999994
21.67973170537063 49.821999999999996
21.7024007460706 50.4018
21.72524775840385 51.1045
21.747918526116475 52.1503
21.770590155457388 53.5417
21.79326264741238 55.2017
21.816113141960237 57.2282
21.838787368860547 59.0198
21.861462461341976 60.8857
21.884315579735777 62.8042
21.90699241312273 63.9167
21.92967011506078 64.0284
21.95234868653799 63.5185
21.9752053151131 61.9623
21.997885635446785 60.0417
22.020566828293532 58.0621
22.04324889464272 56.6763
22.066109049404666 55.7137
22.088792872571794 55.495
22.111477572219204 55.6478
22.1341631493376 55.6152
22.157026846313123 55.2258
22.179714188221507 54.3802
22.202402410582668 53.2033
22.22509151438863 51.7066
22.24795876962584 50.3351
22.270649646204486 49.7338
22.293341407213727 49.1398
22.316034053646906 48.7804
22.338904883215342 48.5256
22.36159931041458 48.5301
22.38429462602756 48.3863
22.40699083104897 48.1653
22.429865251039757 48.2068
22.452563244831367 48.2185
22.47526213102522 48.3742
22.49813925616515 48.0
22.520839937143307 47.9321
22.543541513520587 48.0394
22.56624398629403 48.0461
22.589124730075895 47.9831
22.611829005656723 48.2037
22.63453418063466 48.2372
22.657240256008077 48.4743
22.680124634582935 48.7413
22.70283252079775 48.7703
22.725541310413075 48.9677
22.74825100442868 49.1669
22.771139033969575 49.6982
22.79385054687155 49.9942
22.81656296718292 50.6486
22.83927629590484 51.6187
22.862167992606945 52.6717
22.88488314827121 53.8351
22.907599215359284 54.8925
22.93031619487366 56.0923
22.953211574954405 56.9547
22.975930389478226 57.6086
22.998650119445763 57.5114
23.02137076586092 56.6077
23.044269845560063 55.1717
23.06699233506288 53.5316
23.089715744034912 51.7644
23.112617610931565 50.1428
23.135342869061212 49.195
23.158069049684816 48.516999999999996
23.1807961538087 48.2818
23.20370174880544 48.3177
23.226430710184808 48.3535
23.249160598093425 48.4058
23.271891413539002 48.3851
23.294800752937697 48.4405
23.31753343374794 48.5567
23.340267045128353 48.5358
23.36300158808808 48.8662
23.38591468821339 49.2733
23.408651104658304 49.6846
23.431388455719986 50.3419
23.454126742409 51.2765
23.4770436196085 52.4253
23.499783787914662 53.7366
23.522524894889884 54.6412
23.54526694154616 55.8163
23.56818761219047 56.9887
23.59093154860734 57.5101
23.613676427751283 57.549
23.636422250635754 56.3948
23.659346731118656 54.6397
23.68209445191868 52.6153
23.704843119509587 50.4667
23.72759273490623 48.7685
23.750521041644767 47.4699
23.77327256312355 46.4848
23.796025035462787 46.1138
23.818956224555475 45.5151
23.841710609113413 45.5253
23.86446594758979 45.1803
23.887222241002014 44.9706
23.910157285144578 44.5892
23.932915498962537 44.7449
23.955674670778713 44.7164
23.978434801611975 44.4208
24.001373717286125 44.2982
24.024135776723917 44.0771
24.046898798245582 43.9743
24.06966278287146 44.1231
24.092605586582614 43.7579
24.115371508023642 43.5928
24.1381383956401 43.4183
24.16090625045381 43.503
24.183852958731244 43.4853
24.206622758582608 43.3393
24.229393528706886 43.0629
24.252165270127392 43.2148
24.27511589952438 43.1157
24.297889594216997 42.8918
24.32066426328598 42.843
24.34343990775613 42.7341
24.36639447485003 42.5896
24.38917208083877 42.6376
24.41195066531332 42.5072
24.43490819850244 42.6466
24.457688750692377 42.5363
24.48047028445616 42.4071
24.503252800821233 42.6491
24.526214300784112 42.6816
24.548998793132213 42.5995
24.57178427117417 42.5481
24.59457073593893 42.5049
24.617536219319863 42.5198
24.64032466834748 42.492
24.663114107195035 42.3566
24.685904536893013 42.2124
24.708874020360852 42.0349
24.731666442613744 42.0778
24.754459858818787 41.8473
24.777254270007962 41.7632
24.80022777025625 41.7763
24.82302418230472 41.8682
24.845821592443674 41.7699
24.86862000170663 41.6523
24.891597535453727 41.5768
24.914397953892728 41.9089
24.93719937456671 41.8112
24.96000179851076 41.87
24.98298338249997 42.1048
25.00578782394922 42.3519
25.028593271784167 42.5622
25.05157790644186 42.7509
25.07438537804115 42.8504
25.097193859145293 43.1266
25.120003350792075 43.3154
25.142992065061257 43.7914
25.165803588823465 44.0298
25.18861612625217 44.211999999999996
25.211429678386736 44.2003
25.234422489079968 44.3429
25.257238081693636 44.349
25.280054692141732 44.5342
25.3028723214652 44.5458
25.325869245420463 44.5587
25.348688923599397 44.5596
25.371509623787006 44.6005
25.394331347025812 44.2353
25.41733240110666 43.5264
25.440156181590016 42.8431
25.46298098826268 42.3689
25.48580682216873 41.8222
25.50881202326435 41.3327
25.53163992281684 40.8035
25.55446885274561 40.7047
25.577298814096377 40.5334
25.600308179121807 40.4009
25.623140214533745 40.4097
25.64597328451537 40.2586
25.66898578564376 40.1829
25.691820936010206 40.201
25.714657124097695 40.2561
25.737494350954734 40.1669
25.760511045684957 40.068000000000005
25.783350361364224 40.0552
25.806190718969255 40.1193
25.82903211955018 40.0757
25.852053024868923 40.1962
25.874896522722523 40.0594
25.897741066713106 40.0843
25.920586657892454 40.1991
25.943611790812668 40.5243
25.966459487728237 40.6373
25.989308234998564 40.4857
26.01215803367705 41.0232
26.03518741123814 41.2092
26.05803932412957 41.2595
26.080892291600094 41.2399
26.10374631470478 41.2366
26.12677995397268 41.2959
26.14963609978026 41.2089
26.172493304397875 40.7335
26.19535156888223 40.6148
26.218389486949604 40.2991
26.241249882640123 40.0967
26.26411134137826 39.7292
26.28715248187403 39.8067
26.31001607820869 39.6759
26.3328807407756 39.4585
26.35574647063438 39.6923
26.37879191991473 39.6564
26.401659795896734 39.711
26.424528742360263 39.9406
26.447398760366614 39.9858
26.470448535598294 40.1924
26.49332070826805 40.325
26.516193955675355 40.6965
26.53906827888316 40.8466
26.562122397260108 41.0158
26.584998883685063 41.3767
26.607876449110325 41.6195
26.63075509460056 41.711000000000006
26.65381357334404 41.8928
26.67669439061878 41.7979
26.699576291163382 41.5952
26.722459276044212 41.493
26.745522132402975 41.2562
26.768407297649354 40.8806
26.791293550442003 40.555
26.814180891848974 40.3488
26.837248143099337 40.0692
26.860137673466657 40.0008
26.88302829566349 39.7723
26.90592001075963 39.4595
26.92899167420566 39.3472
26.951885586870763 38.9844
26.974780595655517 38.8902
26.99785558178161 38.8536
27.020752794605112 38.7261
27.043651106772522 38.4474
27.06655051935668 38.4301
27.089629948036183 38.3803
27.112531573292053 38.298
27.135434302194138 38.37
27.158338135817015 38.2659
27.181422024430987 38.2425
27.204328079372566 38.1701
27.22723524226965 38.2885
27.250143514198573 38.2199
27.273231880156334 38.1141
27.296142382065014 37.9797
27.319053996245536 37.8946
27.341966723775965 38.0701
27.365059584515222 38.0472
27.38797455070062 38.1686
27.410890633481237 37.9211
27.433807833936918 38.0062
27.456905206923906 38.1891
27.47982465472398 38.0833
27.502745223449743 38.1885
27.525666914182825 38.2731
27.548768816912457 38.2528
27.571692763693633 38.1318
27.59461783573812 37.9397
27.617723149491244 37.721
27.640650484125285 37.7354
27.66357894728264 37.7515
27.686508540048052 37.8438
27.709618414237887 37.715
27.732550278321757 37.561
27.755483275279115 37.4898
27.778417406196485 37.4824
27.801531858397514 37.5045
27.824468269376716 37.4211
27.847405817586786 37.469
27.870344504116094 37.650999999999996
27.893463551932008 37.7869
27.916404527281053 37.9655
27.93934664422563 38.0032
27.962289903855886 38.0118
27.98541356491974 38.2942
28.00835912214229 38.3965
28.03130582533231 38.5969
28.054253675581805 38.7549
28.077381967556104 38.7101
28.100332124185126 38.8309
28.123283431160893 38.5719
28.146235889577238 38.4921
28.169368830154156 38.2116
28.192323603752033 37.9626
28.215279532083304 37.6576
28.238415973016764 37.5599
28.261374223145094 37.5096
28.284333631303806 37.2337
28.307294198589954 37.1604
28.330435319167677 36.6742
28.353398217078915 36.4454
28.376362277420153 36.2029
28.39932750129032 36.1354
28.422473319286713 36.0574
28.44544088262495 36.0775
28.468409612800283 35.7944
28.491379510913497 35.6517
28.51453004413313 35.6167
28.53750229057244 35.4774
28.56047570826344 35.5127
28.583450298308804 35.4692
28.606605564586562 35.2737
28.629582511831156 35.3953
28.65256063474956 35.2179
28.675539934446338 35.2406
28.698699951647605 35.2949
28.72168161743193 35.1483
28.74466446331978 35.2007
28.767648490417624 35.0286
28.790813276438353 35.0635
28.813799678527303 35.0929
28.836787265157085 35.1049
28.859955641890075 35.1768
28.882945610203045 35.0531
28.905936766392035 35.0009
28.928929111566863 35.0294
28.952102288520145 34.885999999999996
28.975097024308607 34.8285
28.998092952423807 34.5567
29.021090073977508 34.478
29.04426806913204 34.5122
29.067267590245258 34.3248
29.090268308143695 34.2771
29.11327022394099 34.1637
29.13645305530891 34.0597
29.159457379627167 34.071999999999996
29.18246290519685 33.9298
29.20546963313352 33.8859
29.22865731875826 33.9914
29.25166646419296 34.0813
29.27467681535305 33.9291
29.29768837335608 33.986999999999995
29.320880931312562 34.0163
29.34389491580634 33.9766
29.366910110507334 33.9822
29.38992651653503 33.916
29.41312396492981 33.8518
29.436142806456754 33.9202
29.45916286268059 33.661
29.48236399319994 33.5946
29.50538649169417 33.4201
29.528410208259935 33.3208
29.55143514402014 33.1791
29.574641196749695 33.1472
29.597668583816574 33.0334
29.6206971934585 32.7337
29.64372702680042 32.8003
29.666938019934474 32.8252
29.689970313635285 32.775
29.713003834422636 32.7027
29.73603858342347 32.6541
29.759254535188578 32.595
29.78229175361658 32.4667
29.80533020365064 32.5946
29.82836988641968 32.5392
29.85159081507472 32.4907
29.874632976355343 32.4167
29.89767637376955 32.4505
29.920721008448314 32.3033
29.9439469322847 32.2691
29.96699405457564 32.164
29.9900424175358 32.2888
30.013092022298157 32.2053
30.03632295963995 32.1472
30.059375061131373 32.117
30.08242840783577 32.181
30.105483000888153 32.1839
30.128718970092244 32.0744
30.151776069006917 32.0376
30.17483441768648 32.1225
30.198074175317235 32.1264
30.221135036724256 32.1017
30.24419715131772 31.9917
30.267260520236203 31.9249
30.290505341942243 31.9407
30.313571232750228 32.0125
30.336638381310948 31.9576
30.35970678876503 31.9705
30.38295669299435 31.8634
30.40602763151657 31.8901
30.429099832366074 31.8099
30.452173296685572 31.717
30.47542830191959 31.7039
30.498504306502497 31.7563
30.521581577995562 31.7778
30.544660117543582 31.8549
30.56792024229725 31.8884
30.59100133132069 31.7677
30.614083691845494 32.0043
30.637167325018545 31.8792
30.660432587840603 31.986
30.683518779717886 31.94
30.70660624769615 31.9581
30.729694992924372 31.9403
30.75296541239743 31.9292
30.77605672557558 31.8359
30.799149319462742 31.6998
30.8224236211637 31.6488
30.845518789950724 31.6193
30.868615242910597 31.6371
30.891712981195973 31.3765
30.91499247215866 31.2536
30.938092794619365 31.31
30.96119440587579 31.1054
30.984297307082752 31.0683
31.00758200598383 30.9422
31.030687500658694 30.9198
31.053794288760695 30.807
31.076902371446767 30.7694
31.100192296997445 30.8067
31.12330298246119 30.7853
31.14641496599209 30.6866
31.169528248749216 30.6888
31.19282341969534 30.5935
31.215939314557186 30.6511
31.239056512134788 30.5459
31.262175013589378 30.5564
31.28547544871168 30.4579
31.30859657161541 30.5945
31.331719001892175 30.5266
31.35484274070538 30.6557
31.378148458819545 30.6321
31.401274828443725 30.5921
31.424402510106933 30.5911
31.447712205419993 30.6547
31.470842524931633 30.6001
31.493974159989783 30.5253
31.51710711176168 30.4355
31.54042212308802 30.5296
31.563557722100917 30.4585
31.586694641341655 30.2753
31.609832881979628 30.2174
31.63315322823208 30.2258
31.656294125521327 30.0367
31.679436347728515 29.9582
31.70257989602529 29.8829
31.725905596152327 29.846999999999998
31.74905181052835 29.8133
31.772199354521323 29.8752
31.79534822930507 29.8468
31.818679302290967 29.822
31.84183085259981 29.8105
31.864983737233473 29.8675
31.88813795736804 29.7954
31.911474422233013 29.8093
31.934631327356435 29.7529
31.9577895715215 29.6996
31.980949155906522 29.7385
32.004291031706956 29.7208
32.027453310562606 29.6178
32.05061693318573 29.4073
32.07396288236386 29.4959
32.09712920658542 29.4376
32.12029687812702 29.323
32.14346589817093 29.219
32.166817291729984 29.2243
32.18998902288583 29.2171
32.21316210610336 28.9864
32.23633654256711 28.8779
32.259693399663725 28.8832
32.282870556771144 28.8826
32.30604907069099 28.9203
32.329228942610065 28.8318
32.35259128243769 28.6419
32.375773884550505 28.6876
32.398957848235646 28.6369
32.422143174682176 28.6195
32.445511016471215 28.4546
32.468699082679954 28.4915
32.49188851523011 28.3978
32.51507931531304 28.3766
32.538452678331 28.4085
32.56164622776311 28.3069
32.58484114831493 28.2493
32.60803744118015 28.3293
32.631416344731896 28.3117
32.654615396551876 28.1433
32.67781582427913 28.1131
32.701198898634416 27.993000000000002
32.72440209253756 27.9694
32.747606665947124 28.0573
32.77081262006088 27.9193
32.79420126883317 27.8743
32.81740999876112 27.9178
32.840620112999424 27.7359
32.86383161274818 27.7669
32.88722585534586 27.804000000000002
32.91044014056596 27.8017
32.933655814909734 27.6874
32.95687287957963 27.7173
32.98027273544904 27.5524
33.00349259526636 27.5479
33.026713849030116 27.5543
33.04993649794511 27.5697
33.073341986570746 27.5322
33.09656744032826 27.4467
33.11979429286444 27.441999999999997
33.14302254538647 27.5237
33.166433686291185 27.4737
33.18966475336992 27.4332
33.212897224069096 27.2846
33.23613109959831 27.3313
33.259547912343415 27.3626
33.2827846121627 27.3154
33.306022720453775 27.1737
33.32926223842861 27.0791
33.352684742614166 27.0479
33.37592709463173 27.0703
33.399170859982064 26.9606
33.422597648419426 26.9803
33.44584425514446 26.8485
33.46909227885668 26.8136
33.4923417207723 26.6638
33.51577423505344 26.74
33.539026528130385 26.6485
33.56228024307245 26.7065
33.585535381098246 26.5138
33.60897364093058 26.5321
33.63223163992385 26.511
33.6554910656699 26.4492
33.678751919389796 26.3976
33.702195944520106 26.3226
33.72545966903325 26.3877
33.74872482519663 26.2723
33.771991414233746 26.3204
33.79544122444841 26.2732
33.81871069412428 26.1115
33.84198160035767 26.1441
33.86525394437455 26.1742
33.88870955949969 25.9957
33.911984794020626 25.9999
33.93526147001624 25.9719
33.958539588715006 25.9624
33.98200102861669 25.8373
34.0052820477047 25.7555
34.02856451319451 25.7408
34.05203033759056 25.7158
34.07531571090147 25.7099
34.09860253431845 25.7521
34.121890809074316 25.6908
34.145362493118924 25.6055
34.16865368561615 25.5868
34.191946333164054 25.4929
34.21524043699793 25.4826
34.23871800066799 25.5719
34.26201503218366 25.3509
34.28531352370466 25.3509
34.30861347646881 25.2953
34.33209693978188 25.224
34.3553998301885 25.228
34.378704185565205 25.1679
34.402010007152356 25.1549
34.42549939016683 25.1466
34.44880815937748 25.0015
34.472118398533134 24.9647
34.49543010887669 25.016
34.51892543169198 24.8983
34.54224009966052 24.9143
34.56555624255917 24.9261
34.58887386163339 24.7953
34.61237514439016 24.7476
34.6356957311114 24.7768
34.65901779775809 24.7274
34.68252356662995 24.7073
34.705848608458616 24.6682
34.72917513396849 24.5977
34.75250314440949 24.5607
34.77601490857862 24.4342
34.799345904259795 24.4064
34.82267838863559 24.4229
34.846012362958525 24.4561
34.869530142679984 24.3892
34.89286711232212 24.3459
34.91620557568269 24.3624
34.93954553401677 24.3154
34.9630693495876 24.2178
34.986412313340814 24.186
35.00975677584668 24.2493
35.033102738362956 24.1034
35.05663261012228 24.0969
35.0799815881786 24.1576
35.10333207003229 24.0564
35.12668405694369 24.0666
35.150220005273056 24.0705
35.17357501786656 23.988000000000003
35.19693153931268 23.961
35.220289570874385 23.941999999999997
35.24383161619786 23.998
35.267192683604904 23.9653
35.290555264930376 23.8074
35.314101899412165 23.8707
35.33746752422433 23.8522
35.36083466676374 23.7937
35.38420332829803 23.7391
35.407756095629054 23.7138
35.43112781085063 23.7697
35.45450104888391 23.7312
35.477875810999194 23.7112
35.50143473172161 23.6411
35.52481255774625 23.6628
35.54819191167777 23.5738
35.57157279478914 23.5135
35.595137889488406 23.5002
35.61852184675279 23.5397
35.641907337029984 23.432
35.665294361595684 23.3451
35.68886565090076 23.3503
35.7122557598848 23.3057
35.73564740699838 23.285999999999998
35.759040593519934 23.2801
35.78261809810353 23.1841
35.80601437933051 23.0716
35.829412203814705 23.0072
35.85281157283719 23.0795
35.876395313415884 23.0618
35.8997977874528 23.0141
35.92320180988546 22.9457
35.946790244133936 22.8867
35.97019737933222 22.9519
35.993606066789866 22.8571
36.01701630779276 22.7737
36.04061101440684 22.7814
36.06402437852291 22.7102
36.08743930005611 22.7869
36.1108557802951 22.6561
36.13445678011326 22.6595
36.15787639383515 22.633000000000003
36.18129757014299 22.5998
36.20472031032821 22.5922
36.22832762423364 22.4734
36.25175350829375 22.4552
36.275180960119776 22.4105
36.298609981005924 22.456999999999997
36.32222362992669 22.445999999999998
36.34565580510207 22.3949
36.36908955323448 22.3435
36.39252487562093 22.2332
36.416144880530226 22.2345
36.43958336764275 22.2153
36.463023432914625 22.2757
36.486465077645676 22.0603
36.51009145956204 22.1973
36.53353627947859 22.1742
36.55698268276811 22.113000000000003
36.58043067073321 22.0696
36.60406345072071 21.9876
36.62751462435344 22.0286
36.65096738658405 21.9722
36.67460498210655 21.9332
36.69806093788647 21.8514
36.72151848619297 21.793000000000003
36.744977628333636 21.8411
36.76862165890998 21.7049
36.79208400512205 21.7854
36.81554794910557 21.7492
36.83901349217101 21.6687
36.862663978991606 21.663
36.88613273667352 21.594
36.90960309738324 21.603
36.933075062434064 21.508000000000003
36.95673202673572 21.4265
36.98020721697122 21.4426
37.003684015502365 21.3361
37.027162423645365 21.2961
37.050825886711465 21.4046
37.07430753063053 21.3597
37.09779078812467 21.2166
37.121275660513014 21.2662
37.144945643673694 21.1858
37.16843376245278 21.1348
37.19192350009803 21.208000000000002
37.215414857931435 21.1494
37.239091382563885 21.0151
37.262585997426164 21.0371
37.28608223645736 21.0453
37.309763684451696 21.0479
37.33326318851098 20.9868
37.356764320726555 20.9112
37.380267082425526 20.9906
37.40395510942588 20.8701
37.42746114683234 20.7779
37.45096881771841 20.7079
37.474478123414166 20.7947
37.49817275092816 20.7458
37.52168534303452 20.7507
37.54519957395567 20.6632
37.568715445024665 20.6244
37.592416694607714 20.5944
37.61593586281424 20.5707
37.63945667518264 20.6042
37.66297913304891 20.4834
37.68668702630454 20.485
37.710212792059274 20.3803
37.733740207334854 20.3726
37.757269273470364 20.340999999999998
37.780983832050374 20.3014
37.80451621684926 20.2545
37.82805025654007 20.2553
37.851585952464795 20.2259
37.8753071980695 20.2265
37.89884622345676 20.1658
37.92238690911902 20.1891
37.94611318753442 20.0871
37.969657210779765 19.9903
37.99320289834801 20.052
38.016750251586465 20.0363
38.04048325513017 20.0465
38.06403395679343 19.9154
38.087586328183946 19.8938
38.11114037065203 19.8838
38.13488012115898 19.8653
38.1584375229181 19.8085
38.181996599821 19.7984
38.205557353221124 19.7797
38.229303872575656 19.7477
38.2528679961576 19.7137
38.27643380031219 19.677
38.30000128639589 19.6439
38.32375459653193 19.5676
38.34732546371299 19.5853
38.37089801690786 19.5021
38.39447225747609 19.4488
38.418232380377425 19.4659
38.441810012983396 19.4897
38.46538933705673 19.4412
38.488970353960084 19.4645
38.51273731166058 19.3556
38.536321731567014 19.314
38.55990784840681 19.2909
38.58367995004091 19.2071
38.60726947812959 19.2066
38.63086070726198 19.2435
38.654453638806274 19.1662
38.678232613930824 19.0877
38.70182896773327 19.0536
38.72542702806741 19.0264
38.7490267963045 19.0367
38.77281266709232 19.0296
38.79641586862214 19.0675
38.8200207821842 18.9714
38.843627409152944 19.0003
38.86742019782782 18.9226
38.891030269149255 18.8434
38.914642058016156 18.8023
38.938255565806124 18.8115
38.96205529464307 18.7217
38.98567225787121 18.738
39.00929094417078 18.7821
39.03291135492255 18.7593
39.05671804624804 18.6638
39.080341923549106 18.5906
39.103967529460334 18.5992
39.127594865365744 18.5183
39.15140854155791 18.56
39.17503935514948 18.5264
39.19867190290282 18.491
39.22249083587951 18.3936
39.24612686969409 18.4529
39.269764641845306 18.4364
39.293404153722804 18.4023
39.317230110864074 18.3042
39.34087311998506 18.2264
39.36451787301696 18.3082
39.388164371352595 18.2494
39.41199737518003 18.248
39.43564738196752 18.1547
39.45929913825317 18.1629
39.48295264543308 18.0796
39.506792718520884 18.0283
39.530449745387216 18.0419
39.55410852735203 18.0132
39.57776906581474 18.011
39.60161623079 18.0052
39.625280300200025 17.9524
39.64894613032202 17.895
39.67261372255866 17.8946
39.6964680021016 17.8948
39.72013913657293 17.8162
39.74381203738292 17.8686
39.76748670593756 17.8425
39.79134812278169 17.7788
39.81502634488497 17.6947
39.83870633896685 17.6654
39.862388106436654 17.6165
39.88625668336918 17.6111
39.90994201572829 17.6564
39.933629125719285 17.5566
39.957503091207826 17.5072
39.9811937746168 17.5453
40.00488623990914 17.5087
40.02858048850006 17.439
40.05246165409549 17.4538
40.076159487492085 17.3666
40.099859108448875 17.3756
40.123560518384345 17.3699
40.1474489070226 17.3529
40.171153913178564 17.2801
40.194860712584955 17.2636
40.2185693066637 17.2338
40.242464941335314 17.1811
40.26617714307655 17.192999999999998
40.289891143772046 17.1825
40.3136069448471 17.137
40.33750984859743 17.0595
40.3612292688043 17.0447
40.3849504936829 17.0904
40.40867352466194 17.0709
40.43258372059144 17.0092
40.45631038219906 17.0454
40.48003885420956 16.8981
40.503769138055105 16.9344
40.52768664931955 16.9914
40.55142057531802 16.9198
40.57515631746428 16.8506
40.599079334038514 16.8529
40.62281872700477 16.7408
40.64655994043941 16.7045
40.67030297578061 16.6701
40.69423334835778 16.6673
40.71798004609188 16.6736
40.74172857006355 16.6584
40.76547892171441 16.6539
40.7894166736039 16.6297
40.813170699248566 16.5448
40.83692655691388 16.5288
40.86068424804498 16.5504
40.884629402612525 16.5069
40.908390779366385 16.5252
40.932153993938 16.4642
40.95591904777605 16.4821
40.979871628443995 16.4563
41.003640379561936 16.3757
41.02741097430883 16.3507
41.05118341413683 16.3985
41.075143444384416 16.3257
41.098919593177826 16.3004
41.1226975914255 16.272000000000002
41.14647744058318 16.2562
41.170444943946755 16.1809
41.19422851378379 16.1191
41.218013938914645 16.1117
41.24198706625173 16.0742
41.26577622087193 16.0633
41.289567235177785 16.0341
41.31336011063129 16.0016
41.337340752422875 15.9769
41.361137369129835 15.9929
41.38493585138705 15.9988
41.40873620066004 15.8893
41.43272438060107 15.8777
41.45652848292052 15.8153
41.48033445666918 15.8036
41.50414230331616 15.8087
41.528138045159764 15.7715
41.551949656675205 15.7442
41.575763145513235 15.7071
41.59957851314666 15.6911
41.62358184070442 15.6665
41.64740098505737 15.6367
41.6712220126409 15.6335
41.69504492493139 15.6139
41.71905586207357 15.5803
41.74288256296395 15.5825
41.766711153007456 15.5032
41.79054163368412 15.5387
41.814560204340054 15.5284
41.838394485526365 15.4754
41.86223066180303 15.4328
41.88625497706819 15.4214
41.910094962812 15.3914
41.93393684811168 15.3732
41.95778063445365 15.3091
41.981812625263366 15.2464
42.00566023303407 15.2823
42.029509746323676 15.244000000000002
42.05336116662236 15.2041
42.077400857069705 15.196
42.10125611078846 15.193
42.12511327600405 15.1304
42.14897235421036 15.075
42.173019768448455 15.074000000000002
42.19688269209613 15.0245
42.22074753323349 15.0383
42.24461429335818 15.0489
42.268669455600495 14.9789
42.292540073217886 15.0347
42.31641261433284 14.9466
42.34028708044675 14.8808
42.36435001496739 14.8962
42.38822835065557 14.9029
42.41210861586426 14.8307
42.4359908120986 14.8096
42.46006154323262 14.774000000000001
42.48394762115317 14.7611
42.507835634632315 14.7996
42.531912233047436 14.7454
42.55580413732265 14.6912
42.579697981698 14.6277
42.60359376768525 14.6182
42.62767820545945 14.5922
42.65157789440821 14.6133
42.67547952952185 14.6258
42.699383112316 14.623
42.72347541395347 14.4869
42.74738291190531 14.4538
42.771292362102166 14.4777
42.795203766063516 14.4362
42.819303956130405 14.4186
42.843219287476536 14.3679
42.86713657716324 14.374
42.89105582671383 14.3923
42.91516392983864 14.3435
42.939087119032166 14.2876
42.963012272677304 14.2789
42.98693939230129 14.2647
43.01105543317513 14.1805
43.034986504731386 14.1616
43.05891954686589 14.2094
43.08285456110972 14.182
43.10697856448665 14.0735
43.130917542983475 14.078
43.15485849820081 14.158
43.17880143167367 14.0403
43.20293342237094 14.033
43.226880332449 14.0104
43.25082922540554 14.0073
43.27496722682525 13.9419
43.29892010567796 13.9374
43.32287497204102 13.9219
43.34683182745632 13.8501
43.370977859791836 13.8604
43.39493871351105 13.7815
43.41890156092628 13.8029
43.44286640358341 13.8125
43.46702049182749 13.8042
43.49098934522816 13.7287
43.51496019852649 13.7194
43.5389330532723 13.6708
43.56309522248204 13.6799
43.58707210044314 13.6704
43.61105098451946 13.6177
43.63503187626491 13.5602
43.659202151562134 13.5974
43.68318707902681 13.5692
43.70717401884041 13.5127
43.731162972560874 13.5049
43.75534137913236 13.4735
43.779334381108384 13.4689
43.803329401683186 13.4338
43.82732644241872 13.4197
43.8515130055166 13.4331
43.87551410707659 13.3471
43.89951723350145 13.3632
43.923709934595614 13.3057
43.94771713129917 13.3197
43.97172635758096 13.2641
43.99573761501002 13.307
44.0199385169922 13.2651
44.04395385732619 13.2186
44.067971233533086 13.1828
44.09199064718605 13.1609
44.11619977548961 13.1355
44.14022328470671 13.1142
44.16424883610785 13.16
44.18827643127035 13.0604
44.21249381139513 13.0726
44.236525514814076 13.0051
44.26055926674478 12.9886
44.28459506876863 13.0402
44.3088207262813 12.9831
44.33286064928722 12.9449
44.35690262714919 12.9081
44.38094666145278 12.8447
44.4051806219871 12.8527
44.42922879003185 12.8345
44.45327901929361 12.7956
44.477331311362136 12.8197
44.501573600619416 12.7655
44.525630039221795 12.7351
44.54968854541895 12.75
44.573937102200176 12.7138
44.5979997645541 12.7164
44.622064499300315 12.7007
44.64613130803592 12.642999999999999
44.67038823869318 12.6435
44.69445921643748 12.6016
44.718532272981385 12.5915
44.742607409926194 12.5691
44.76687274034801 12.5231
44.79095205918753 12.5442
44.81503346325094 12.5039
44.839116954143876 12.4813
44.86339071028742 12.394
44.88747839599524 12.3962
44.91156817336837 12.397
44.93566004401666 12.3375
44.959942251908146 12.3119
44.984038330325966 12.354000000000001
45.00813650686762 12.2749
45.03223678314731 12.2792
45.05652746888232 12.2253
45.08063196592069 12.2356
45.104738567558705 12.2118
45.128847275414856 12.2403
45.15314646515866 12.1614
45.17725940679741 12.1187
45.20137445952892 12.0964
45.22568004865265 12.0886
45.24979934496396 12.1006
45.27392075725247 12.0515
45.29804428714431 12.0802
45.322358426247604 12.0294
45.346486212804315 12.0262
45.370616121861914 11.9906
45.39474815505086 11.9574
45.41907087049246 11.8945
45.4432071734666 11.9317
45.46734560548283 11.8934
45.49148616817604 11.8815
45.51581748638564 11.8841
45.5399623320197 11.8344
45.56410931325473 11.8116
45.58825843173002 11.7843
45.61259837920865 11.7637
45.636751793816 11.7535
45.66090735060093 11.7145
45.68506505120716 11.6366
45.7094136545275 11.6901
45.73357566449271 11.6646
45.75773982322992 11.6599
45.78190613238733 11.6859
45.806263418194064 11.5906
45.83043404997326 11.6307
45.85460683713677 11.6373
45.87897065658495 11.5538
45.90314777634752 11.5197
45.92732705646868 11.4784
45.9515084986045 11.4464
45.97588104735473 11.4772
46.00006683541565 11.4404
46.02425479047904 11.4058
46.04844491420549 11.4005
46.0728262191024 11.4217
46.09702070211635 11.3814
46.12121735879483 11.3626
46.14541619080294 11.3127
46.169806278764455 11.3143
46.194009483459034 11.3304
46.21821486849841 11.2712
46.24242243555223 11.247
46.266821333570014 11.2095
46.29103328674601 11.1926
46.31524742696538 11.2136
46.33946375590237 11.1488
46.36387149104216 11.1267
46.38809221957392 11.1136
46.41231514186606 11.1047
46.436540259597464 11.0886
46.460956858999374 11.0718
46.48518638983522 11.005
46.509418121166966 11.0303
46.533652054678114 11.0315
46.55807754555709 10.9871
46.58231590571962 10.9729
46.60655647313217 10.9337
46.630988654873654 10.9056
46.655233659129024 10.8887
46.67948087571551 10.9055
46.70373030632484 10.889000000000001
46.72817142736393 10.8631
46.752425308428684 10.8184
46.77668140861147 10.7987
46.80093972960865 10.7736
46.82538981736788 10.7743
46.849652602470904 10.7279
46.87391761349769 10.7137
46.8981848521493 10.6722
46.9226439341274 10.6671
46.946915650573224 10.6311
46.97118959976749 10.6398
46.99546578341598 10.6447
47.019933887188216 10.6021
47.04421456235744 10.607999999999999
47.06849747711879 10.549000000000001
47.09278263318286 10.525
47.11725978640143 10.529000000000002
47.14154944775105 10.4842
47.165841355555656 10.466
47.1901355115306 10.4562
47.214621741924994 10.4784
47.23892041698887 10.442
47.26322134538975 10.399000000000001
47.28771440635075 10.3853
47.31201986422527 10.3733
47.33632758061436 10.3368
47.360637557241866 10.3312
47.38513974410611 10.3255
47.40945426407847 10.3214
47.43377104948137 10.2855
47.45809010204344 10.2606
47.48260144275502 10.2627
47.506925052572285 10.1952
47.53125093475548 10.1788
47.55557909103813 10.1591
47.58009961361992 10.1311
47.60443234110732 10.139
47.62876734791564 10.1465
47.65310463578333 10.0906
47.6776343683373 10.0866
47.7019762413987 10.0392
47.72632040075572 10.0433
47.75066684815169 9.990960000000001
47.77520581885936 9.984960000000001
47.799556865477655 10.0004
47.823910205386 9.95357
47.84826584033272 9.99178
47.87281407745551 9.92113
47.89717432569297 9.97298
47.92153687423484 9.899610000000001
47.94609208429692 9.86785
47.97045925671401 9.88873
47.99482873471275 9.8586
48.01920052005013 9.81815
48.04376504619224 9.820110000000001
48.068141469543484 9.83442
48.09252020552573 9.7927
48.11690125590099 9.797089999999999
48.1414751266064 9.77396
48.16586082917454 9.70167
48.19024885144316 9.6843
48.2146391951793 9.66842
48.239222439012764 9.70505
48.26361744916137 9.64707
48.28801478610016 9.64691
48.31241445160131 9.62783
48.337007097209366 9.616719999999999
48.36141144338331 9.59165
48.38581812345755 9.58049
48.41022713920929 9.56599
48.434829215320704 9.52116
48.45924292604658 9.52774
48.48365897780325 9.55733
48.50807737237308 9.48213
48.532688907799276 9.4695
48.55711201168574 9.44567
48.581537463754074 9.44022
48.60615611725119 9.4083
48.63058628942721 9.42768
48.65501881516546 9.41652
48.6794536962573 9.369710000000001
48.70408185970339 9.33543
48.72852147531801 9.311160000000001
48.75296345168211 9.28375
48.77740779059232 9.34482
48.80204549302823 9.266910000000001
48.82649458091802 9.2614
48.85094603676547 9.2581
48.87539986237231 9.22396
48.90004713292306 9.2188
48.92450572200832 9.19257
48.94896668628025 9.15698
48.97343002754588 9.18187
48.99808689542115 9.1638
49.02255501470614 9.14892
49.04702551642794 9.11461
49.0714984023988 9.09844
49.096164896893235 9.090530000000001
49.120642575466796 9.09978
49.145122643748394 9.02856
49.16960510355558 8.9957
49.19428125404938 9.01026
49.2187685210852 9.004710000000001
49.243258185121555 8.973310000000001
49.26794160167084 8.95496
49.2924360839405 8.92784
49.31693296869764 8.927480000000001
49.34143225776915 8.90081
49.36612538195438 8.86503
49.39062950396021 8.894860000000001
49.41513603578346 8.83103
49.4396449792564 8.827119999999999
49.46434784069503 8.8007
49.488861631846454 8.76908
49.513377840166804 8.77944
49.537896467493745 8.74863
49.56260909589029 8.74582
49.587132585683285 8.72103
49.611658500018365 8.72669
49.636186840738596 8.686810000000001
49.66090926588511 8.68759
49.685442483902584 8.647210000000001
49.70997813385706 8.61721
49.734516217597076 8.626439999999999
49.75924846937352 8.60442
49.7837914452858 8.60264
49.80833686055187 8.532680000000001
49.83288471702571 8.5637
49.85762682540054 8.56034
49.882179588965734 8.51736
49.9067347993235 8.49039
49.93129245833333 8.45791
49.95604445336378 8.50275
49.98060703442832 8.467310000000001
50.005172069746266 8.43012
50.02993150438364 8.42967
50.05450147301533 8.41295
50.07907390151433 8.40017
50.10364879174981 8.40517
50.12841816587289 8.3814
50.1529980044635 8.36022
50.17758031042124 8.35952
50.20216508562089 8.32005
50.22694442953363 8.29854
50.25153416817468 8.27759
50.27612638170508 8.26309
50.300721072005196 8.236460000000001
50.325510416102105 8.23522
50.350110084975064 8.19027
50.37471223628208 8.23067
50.39931687190919 8.191189999999999
50.424116246675766 8.17355
50.44872587605249 8.15955
50.47333799543065 8.14395
50.49795260670191 8.10852
50.52276204271512 8.07172
50.54738166295838 8.09506
50.57200378079314 8.074
50.596628398116835 8.058119999999999
50.62144792604559 8.01563
50.646077567609396 7.96457
50.670709714377715 8.01478
50.69553683636198 8.01347
50.72017401885922 7.972160000000001
50.7448137122895 7.998939999999999
50.76945591856022 7.97293
50.79429318636823 7.94548
50.818940443716784 7.9558800000000005
50.84359021965163 7.93547
50.868242516085964 7.87777
50.893089960641895 7.89837
50.917747323549435 7.8749
50.94240721271973 7.889469999999999
50.96706963007175 7.8127699999999995
50.99192728239342 7.8308800000000005
51.01659478166073 7.822
51.04126481489051 7.78839
51.06593738400761 7.7911399999999995
51.090805275207074 7.78062
51.11548294172845 7.74865
51.14016314993547 7.6993100000000005
51.164845901758845 7.73729
51.18972406304274 7.693239999999999
51.21441192780656 7.67232
51.23910234200271 7.672969999999999
51.2637953075678 7.664160000000001
51.288683770237945 7.61648
51.31338186432707 7.61303
51.33808251561888 7.5878
51.362978729967345 7.59563
51.387684521509755 7.5895
51.41239287610203 7.54288
51.437103795691165 7.54785
51.46201036644977 7.51375
51.486726441956634 7.509060000000001
51.51144508832545 7.49547
51.536166307509156 7.47168
51.56108326624387 7.4503699999999995
51.58580965706056 7.4222600000000005
51.61053862657523 7.45632
51.635270176746864 7.42783
51.66019755512065 7.41896
51.68493429268881 7.41115
51.70967361681515 7.38421
51.73441552946465 7.33361
51.759353359237934 7.342280000000001
51.7841004750961 7.32872
51.80885018539685 7.3026800000000005
51.833602492111254 7.3114
51.8585508051424 7.28735
51.883308330926425 7.253989999999999
51.90806845906181 7.2358199999999995
51.932831191525715 7.20671
51.95779001977161 7.1709
51.98255798721516 7.18693
52.00732856494335 7.17351
52.03229530577543 7.188210000000001
52.057071130455945 7.11856
52.081849571391054 7.15797
52.106630630568695 7.0991
52.13160794279417 7.0697399999999995
52.15639426492067 7.081360000000001
52.18118321127822 7.05945
52.205974783860896 7.050730000000001
52.23096269971011 7.0384899999999995
52.255759551287994 7.03816
52.280559035098186 7.01986
52.30536115314103 7.0164100000000005
52.33035970494467 6.984039999999999
52.35516711807904 6.9729
52.37997717147198 6.972919999999999
52.40478986713005 6.968310000000001
52.42979908731974 6.9373
52.454617094216 6.89953
52.47943774942214 6.876530000000001
52.50426105495102 6.89657
52.529280976059844 6.86655
52.554109609024096 6.874289999999999
52.57894089837482 6.86993
52.60377484613117 6.852060000000001
52.62880550079408 6.78037
52.65364479223379 6.77237
52.67848674816189 6.78436
52.70352547971946 6.742660000000001
52.72837279155837 6.77952
52.753222773982785 6.77635
52.778075429022984 6.74465
52.80312495150885 6.6932100000000005
52.827982978797436 6.697769999999999
52.85284368481815 6.69868
52.87770707160767 6.68975
52.90276741793998 6.6678
52.92763619336701 6.641189999999999
52.952507655698504 6.631589999999999
52.977381806977576 6.6070199999999994
53.00245301017842 6.60865
53.02733256653592 6.60233
53.052214817996074 6.63178
53.077099766608484 6.59347
53.102181859804446 6.56197
53.127072229988265 6.56145
53.15196530349892 6.52883
53.17686108239249 6.543480000000001
53.20195409881522 6.50272
53.22685531582556 6.51964
53.25175924441303 6.45458
53.27666588664027 6.4480900000000005
53.30176985962693 6.43895
53.3266819565689 6.4482099999999996
53.35159677336455 6.43149
53.376514312083096 6.38837
53.40162927507703 6.38825
53.42655228516116 6.37913
53.45147802340193 6.330369999999999
53.47660125628886 6.36215
53.50153247842639 6.33256
53.52646643496923 6.3503099999999995
53.55140312799818 6.28097
53.576537409691696 6.30807
53.60147960336152 6.263330000000001
53.626424539786164 6.27165
53.65137222105307 6.24696
53.67651758529126 6.22354
53.70147078399681 6.195209999999999
53.72642673383343 6.2196
53.75138543689533 6.18377
53.776541917524526 6.20408
53.801506154876755 6.2108099999999995
53.826473151763246 6.1710199999999995
53.851442910284916 6.15681
53.87661054126026 6.13058
53.9015858509782 6.12191
53.92656392866066 6.12237
53.95154477641532 6.1052
53.976723591801296 6.10645
54.00171000771266 6.08415
54.02669920004598 6.03014
54.051691170915745 6.01256
54.076881204886796 6.03264
54.101878760928514 6.0425699999999996
54.12687910187696 6.0071699999999995
54.152077577768296 6.00699
54.1770835166946 5.9718
54.20209224691339 5.9250300000000005
54.22710377055121 5.9278699999999995
54.25231352511594 5.8968300000000005
54.27733066384342 5.8910800000000005
54.30235060239643 5.91012
54.32737334290836 5.88241
54.35259441062629 5.85188
54.377622783395324 5.8724
54.40265396455061 5.82599
54.42768795623251 5.79007
54.45292037169559 5.73585
54.477960012857906 5.763330000000001
54.50300247099511 5.7394099999999995
54.52804774825457 5.67649
54.55329154616743 5.68447
54.57834249018678 5.725169999999999
54.6033962597977 5.7125
54.6284528571545 5.664280000000001
54.653708072335164 5.63744
54.67877035378786 5.62535
54.70383546947698 5.61843
54.72890342156389 5.59994
54.7541700889442 5.55131
54.77924374251975 5.58793
54.8043202390049 5.510280000000001
54.82959552413022 5.46004
54.8546777351945 5.4869900000000005
54.87976279569621 5.40728
54.90485070780914 5.466559999999999
54.930137506558005 5.4505
54.95523115074295 5.41219
54.98032765308844 5.40611
55.005427015775496 5.3613800000000005
55.03072536339621 5.36664
55.05583047570572 5.28897
55.080938454927676 5.29335
55.10604930325027 5.26446
55.131359235107396 5.33758
55.15647585066083 5.24646
55.181595341907496 5.22075
55.20671771104285 5.23104
55.232039262617704 5.1792
55.25716741665048 5.1490800000000005
55.28229845518636 5.1519699999999995
55.30743238042802 5.1197
55.33276558731939 5.06878
55.357905315183636 5.05322
55.383047936390035 5.04994
55.40819345314859 5.0168099999999995
55.433538351073295 4.97221
55.458689688238415 4.97553
55.483843927614096 4.924930000000001
55.509197623043605 5.00241
55.53435769621134 4.9356800000000005
55.55952067826466 4.924580000000001
55.5846865714265 4.89124
55.61005202069737 4.81343
55.63522376553902 4.84428
55.66039842818645 4.80126
55.68557601087004 4.76605
55.7109532500271 4.75526
55.73613670233794 4.80507
