TT I
1.2716486653135266 7.285489999999999
1.2939594142134223 7.639289999999999
1.3162702121660406 7.102289999999999
1.3385810600174564 6.772069999999999
1.3608919586137629 7.51014
1.383202908801069 6.762589999999999
1.405513911425503 6.04495
1.4278249673332093 6.19911
1.4501343378461518 6.59438
1.4724455028545926 6.27073
1.4947567236847858 6.691960000000001
1.517068001182951 6.49367
1.5393793361953272 5.62038
1.5616907295681737 5.7022900000000005
1.5840021821477681 5.4515
1.60631369478041 5.39374
1.6286252683124185 5.72682
1.6509369035901333 4.82602
1.6732468618895553 5.41999
1.695558623192809 4.9716
1.7178704487808514 5.51395
1.7401823395001077 5.00718
1.7625012545597203 4.99277
1.7848028405262486 4.95377
1.8071218901122095 5.21287
1.8294236121921872 5.1474
1.8517427996910911 4.28308
1.8740620574440425 4.64206
1.8963639900671978 4.5560599999999996
1.9186833908139995 4.78247
1.9409854680117449 5.00745
1.9633050151394713 4.97891
1.9856246367570705 5.251
2.0079269371922672 4.518759999999999
2.03024671027244 5.092280000000001
2.0525491637446027 4.92556
2.074869091674931 4.725
2.097171701569106 4.9572199999999995
2.1194917877373847 5.13002
2.141811954326636 4.95047
2.164114805233074 5.31966
2.186435135143035 6.50812
2.208738150935709 15.6056
2.231058647554722 34.093
2.2533792288321184 26.1178
2.275682498336085 10.9534
2.298003251406138 6.23744
2.3203066942619714 5.4435
2.3426276225136022 5.54295
2.3649486396617507 5.257569999999999
2.387252348930071 5.2773900000000005
2.4095735463442893 4.92765
2.4318774374315884 5.45902
2.4541988185014043 5.64198
2.476502894794693 5.937819999999999
2.498824462909887 6.07672
2.521146125856138 6.005330000000001
2.5434504863470337 6.76737
2.5657723414244717 7.19742
2.588076895590662 7.9829300000000005
2.610398946189713 7.266380000000001
2.6327210958598384 7.1380300000000005
2.6550259469304716 7.205710000000001
2.6773482972090137 7.25115
2.6996533504259 7.558110000000001
2.7219759047039602 8.036019999999999
2.744298562293959 7.562069999999999
2.7666039251246595 6.91335
2.7889267918020164 7.1048
2.8112323652516555 7.97566
2.833555444408179 8.121260000000001
2.8558786311183852 8.28941
2.8781845268938557 8.35697
2.9005079311721484 8.72385
2.9228140460410397 8.92377
2.9451376712799635 8.83708
2.967444008632326 8.71774
2.9897678582247247 9.52581
3.0120918213106695 10.2534
3.0343984987899373 10.6539
3.0567226913198637 10.9644
3.079029599759726 11.5359
3.101354025127254 11.937999999999999
3.123678568232338 12.6265
3.145985829517914 12.8463
3.16831061055229 13.5293
3.1906181112775593 14.0261
3.212943133635653 14.5232
3.2352682779763207 14.9277
3.2575761442691227 15.3724
3.2799015350264273 15.6327
3.302209649240067 16.2512
3.3245352898092655 16.6064
3.3468436553365257 17.7513
3.369169549113219 17.942999999999998
3.3914955708171384 19.1833
3.413804319727358 19.0128
3.4361305997334863 19.524
3.4584396084414553 19.8755
3.4807661501462652 20.4218
3.503092824025881 21.2855
3.5254022288463154 21.3059
3.5477291695206588 22.0493
3.5700388426251948 23.0118
3.5923660534916446 24.6691
3.6146934007816114 42.1951
3.637003482731501 107.031
3.6593311053109985 120.103
3.681641464033634 66.392
3.7039693653009733 32.9741
3.726297407241705 26.9544
3.7486081875460804 25.9689
3.7709365132734978 26.8453
3.793247578841633 27.134
3.8155761917550093 27.5001
3.8378875459837216 27.8235
3.8602164494827234 28.0322
3.882545499606844 28.8627
3.9048572932539183 29.2306
3.9271866390645718 29.7219
3.9494987298666713 29.9081
3.971828374764527 31.0356
3.9941581705403255 31.3751
4.016470713506008 32.3492
4.038800813471445 33.1762
4.061113662089144 33.339
4.0834440696459176 34.5052
4.105774632334751 34.7093
4.128087945865126 35.748000000000005
4.150418821249301 36.583
4.172732448931298 38.2169
4.195063640413578 40.0259
4.2173775856475215 44.927
4.239709096631102 83.2852
4.262040768704612 286.748
4.284355196706267 398.439
4.306687193387355 255.35299999999998
4.329001947444346 93.9785
4.35133427213731 51.0409
4.373666762177566 46.3955
4.395982011761091 45.6208
4.418314834921175 47.3047
4.44063041906622 56.7745
4.4629635787515625 70.6906
4.4852969080429785 70.1653
4.5076130004776225 56.9174
4.529946671403969 52.5081
4.552263106909177 51.7178
4.574597122877047 52.3599
4.596931312711224 53.7588
4.619248269273446 54.1838
4.6415828092605835 55.4947
4.663900117405352 56.7517
4.686235010953232 57.9715
4.708552674085913 59.2803
4.730887924602802 60.4996
4.753223354952695 62.093
4.775541557023902 63.5513
4.797877349456786 65.1633
4.820195915032126 66.8508
4.842532072957498 68.4224
4.864868414979744 70.3016
4.88718753227192 72.6405
4.909524244902505 74.8074
4.931843734218147 76.5524
4.954180820867835 79.6098
4.976518095879839 82.6946
4.998838149695359 85.53
5.021175803844231 89.0006
5.043496238205739 92.5826
5.065834274903528 97.1709
5.088172504230693 103.075
5.1104935158799565 110.83
5.132832132875765 139.653
5.155153533596801 196.416
5.1774925416746225 239.09
5.199814334878411 433.841
5.2221537374521505 1192.86
5.244493338631803 2984.28
5.266815727034316 6922.03
5.289155727832427 11766.3
5.311478517248165 9370.21
5.333818921080011 3624.59
5.356159527788849 774.3710000000001
5.3784829252032536 224.912
5.400823940070432 161.352
5.423147747031976 138.4
5.445489173474152 126.429
5.467830807066149 118.979
5.490155234831516 114.44
5.512497285125229 109.935
5.534822130975162 107.389
5.557164601388673 104.83
5.579489868738879 101.469
5.601832762690846 101.30799999999999
5.6241758697774475 100.57600000000001
5.646501775867269 99.3333
5.668845311622074 97.8934
5.691171647754637 96.7278
5.713515615597765 95.541
5.735859800852677 94.8661
5.758186788542988 94.0611
5.780531411018185 93.9314
5.802858837297399 93.8931
5.825203900414495 94.6283
5.8475491852224 94.9655
5.869877275883075 94.8969
5.892223006467101 95.896
5.914551544266608 97.2101
5.936897724049891 100.803
5.959244129804903 107.355
5.981573344815301 129.523
6.0039202049061 233.99900000000002
6.026249875609095 514.714
6.04859719346037 1039.01
6.070927323278297 2092.58
6.093275102315365 3922.21
6.115623113320588 4946.21
6.137953938319995 3478.47
6.160302415650845 1248.43
6.182633708324452 310.144
6.2049826554078376 130.483
6.227331838745022 100.458
6.249663839443684 90.5668
6.27201349767565 86.8209
6.294345974611799 94.1403
6.316696111167083 110.30799999999999
6.339046488263839 103.736
6.361379686074702 84.8278
6.383730546639482 74.442
6.406064229255215 70.8154
6.428415576718203 70.1411
6.450749747566656 69.0341
6.47310158535871 67.8353
6.495453669698332 67.0331
6.517788579421056 66.5266
6.540141159237969 65.3614
6.562476565766648 64.9387
6.5848296444934045 64.5847
6.607182974060425 64.2163
6.6295191323281015 64.5699
6.651872965955752 68.7519
6.6742096296068985 100.59
6.6965639707294615 160.857
6.71891856698715 163.35299999999998
6.741255995248479 107.04
6.763611104154477 72.3437
6.785949046381137 62.7711
6.808304671371482 60.638000000000005
6.8306605557940046 59.7812
6.852999275508618 58.83
6.875355681171544 58.5487
6.897694923437771 58.0458
6.92005185377892 58.1636
6.9423916220322655 57.7808
6.964749080490181 57.3398
6.987106804399774 57.3276
7.009447368180821 57.1361
7.031805625367033 57.1877
7.054146723727803 56.9496
7.076505517631004 56.3998
7.098864581288365 56.7174
7.121206488070854 56.6629
7.143566093607822 56.55
7.165908543567245 56.8939
7.188268694426048 56.9257
7.2106291193438095 57.1182
7.232972390625943 58.9614
7.255333366030969 74.12899999999999
7.277677189091925 142.782
7.300038718428332 206.951
7.322400526130865 171.956
7.344745183422596 101.04
7.367107550224791 65.5195
7.389452767901992 58.1504
7.411815697249891 57.1741
7.434161478756298 56.1918
7.456524974096713 55.9013
7.478888753837185 55.6319
7.501235387657368 56.0267
7.523599738562711 56.0167
7.545946944825532 56.2133
7.568311870344528 56.4969
7.5906770845765665 57.0386
7.613025156078678 58.7991
7.635390950099687 60.3948
7.657739602662809 59.2776
7.680105979923558 57.6552
7.702472650212829 57.3918
7.724822180948224 57.1049
7.747189439655568 57.2653
7.769539560075357 57.4179
7.791907410653562 58.1211
7.81425812420825 57.8692
7.836626570110925 58.2931
7.858995315087906 59.2286
7.881346924933401 58.8855
7.903716270417482 59.6195
7.926068482028405 59.7436
7.948438431475253 60.6819
7.9708086843180235 61.2025
7.993161805171116 62.0328
8.015532667162402 62.2767
8.037886398416653 63.2416
8.060257873014221 63.5752
8.082629655331942 64.2672
8.104984308787587 65.4293
8.127356708900503 69.4212
8.149711981398308 76.6728
8.172085002766314 79.4665
8.194458336181368 74.7186
8.216814543847752 71.164
8.23918850371002 71.0134
8.26154533906492 71.5018
8.283919928836452 73.1141
8.306277395339652 74.1923
8.328652618483376 75.5262
8.351028159736202 77.3901
8.373386579575245 79.8447
8.395762759396959 81.7254
8.418121819038275 87.8532
8.440498640894003 104.402
8.462875785192262 122.58200000000001
8.485235811156207 135.61
8.507613602688501 178.196
8.529974277114228 276.278
8.552352719347912 415.727
8.574731488360351 657.605
8.59709314210385 1092.7
8.619472567021075 1649.53
8.64183487789147 2091.08
8.664214962183097 1896.54
8.686577933647762 1137.0
8.708958680784317 480.63699999999994
8.731339760774953 201.888
8.753703729764451 122.344
8.77608547780821 104.51700000000001
8.798450116065078 99.1669
8.820832535634787 95.6446
8.843215292401656 93.7922
8.865580941199045 91.7886
8.887964374703538 90.868
8.910330701447199 92.5359
8.932714815164482 95.8204
8.955099270424924 95.2355
8.977466620733543 91.0182
8.999851761421976 87.3569
9.022219798361645 85.5837
9.04460562795561 84.9843
9.066991803441677 84.7846
9.089360876979615 84.6419
9.111747746589993 84.1596
9.13411751544971 83.6763
9.156505082664324 83.2226
9.178875550323522 83.8089
9.20126381862328 84.1241
9.223652438908596 84.7677
9.246023961427412 84.4522
9.26841328802173 83.5187
9.290785518039224 83.5446
9.313175554425882 84.1328
9.335565947154315 84.4405
9.357939245086508 84.4714
9.380330352834827 84.8857
9.40270436697103 85.0136
9.425096193225055 85.0293
9.447488380180165 85.6174
9.469863475295412 85.9945
9.492256385987508 86.1594
9.514632206018318 86.7204
9.537025843935714 87.1257
9.559402392368193 88.4868
9.581796761000229 89.561
9.604191496441521 90.8085
9.626569144158516 94.5077
9.648964615551032 100.19
9.671343000390081 102.12799999999999
9.693739211225699 99.2008
9.716135793237463 95.7833
9.738515290448102 94.9087
9.760912617143402 96.3081
9.783292860202891 97.4279
9.805690935076182 98.7498
9.828089385495742 99.9002
9.850470754023561 102.223
9.872869957865444 111.15100000000001
9.89525208097539 130.188
9.917652041736662 146.405
9.940052382417589 145.73
9.962435644102392 150.626
9.984836746950979 187.951
10.007220771957746 259.991
10.029622640473708 366.264
10.052007432299963 529.778
10.074410069984072 773.426
10.096813093716005 1143.41
10.119199042482517 1581.26
10.141602840636468 1876.59
10.163989564971628 1736.81
10.186394141051062 1116.6
10.208799107559706 510.811
10.231187001965623 238.919
10.253592751657669 141.94799999999998
10.275981430388155 119.72200000000001
10.298387966769793 118.66799999999999
10.320794897965431 121.91799999999999
10.343184759907361 120.04799999999999
10.36559248305461 113.225
10.387983138083852 108.28200000000001
10.410391656691655 110.71600000000001
10.432800574501677 122.527
10.455192425893369 141.3
10.47760214443012 166.737
10.499994797678786 204.38099999999997
10.522405320453982 270.482
10.54479877906917 370.19699999999995
10.567210109595656 480.81199999999995
10.5896218454736 555.969
10.612016518879773 539.132
10.634429067781074 390.032
10.656824555333241 230.59599999999998
10.679237920773568 140.696
10.701651695961992 102.6
10.724048411481384 92.5893
10.746463008485165 89.3914
10.768860546937125 87.7138
10.791275969274796 85.5889
10.81369180576079 84.2009
10.836090585366925 82.8778
10.858507252467449 81.67699999999999
10.88090686379991 80.8126
10.903324365036394 80.2074
10.925724811614439 80.7311
10.948143150509463 82.2635
10.970561909719066 81.6897
10.992963615930844 79.405
11.015383218085756 76.9629
11.037785768347074 75.2208
11.06020621697282 74.4396
11.082627090322113 74.0383
11.105030913430326 73.4905
11.12745263854165 74.23
11.149857314510728 78.8154
11.172279894912576 86.7555
11.194702904450653 88.1629
11.217108866490921 83.0589
11.239532736615194 77.5526
11.26193956033512 74.4124
11.284364294577085 72.7439
11.306789462371718 70.3989
11.329197585398376 68.9087
11.351623622610898 68.5516
11.37403261614354 67.6435
11.396459526308487 67.6462
11.418869393879497 67.3409
11.441297180532617 66.7904
11.463725406927658 66.4567
11.486136592353875 66.544
11.508565700543707 67.1163
11.530977768845315 69.4737
11.553407762368774 70.6142
11.575838200059769 69.9991
11.598251599479612 67.475
11.620682927815501 65.7984
11.64309721895548 65.1871
11.665529441478206 64.6514
11.687962112597958 64.3963
11.710377748130886 64.2971
11.732811318753434 64.3739
11.755227854859067 64.4562
11.777662328529495 64.4348
11.800079768750786 64.0249
11.822515149015453 64.0262
11.844950984084935 64.0052
11.867369787303163 63.937
11.889806534289491 63.9458
11.912226250487029 64.0274
11.934663912939751 64.1714
11.9571020346363 64.3207
11.979523127133968 64.5376
12.001962169624331 65.2513
12.024384183972964 66.2638
12.046824150809913 69.7002
12.069264581333726 75.3552
12.091687985297767 82.2643
12.11412934550045 91.1217
12.136553680195208 103.725
12.158995973632788 121.789
12.181438735204349 146.09799999999998
12.20386447284199 174.356
12.226308172985636 198.00599999999997
12.24873485024193 207.315
12.271179492516982 181.80200000000002
12.293607112949127 141.47899999999998
12.316052700916226 107.89
12.338498763250042 85.5427
12.360927805303868 73.9322
12.383374818673879 68.8156
12.405804812803074 66.6147
12.428252780773262 66.1912
12.45070122756722 66.0832
12.473132656675375 65.6339
12.49558206341869 65.8494
12.518014453510101 65.9001
12.540464823770117 66.4538
12.562915677315177 66.3613
12.58534951575545 67.2688
12.607801338171472 69.7607
12.630236146511358 76.2645
12.652688941369085 82.5735
12.675124723177234 82.8993
12.697578494048786 78.281
12.720032754458185 72.2057
12.742470003354093 69.9957
12.764925245138771 69.4595
12.787363476431278 69.4565
12.809819703166806 69.9157
12.83227642391173 70.76899999999999
12.854716135692716 71.3455
12.877173846755147 72.5437
12.899614549869717 72.5921
12.9220732548287 73.375
12.94453245827299 73.895
12.966974655289818 74.9282
12.989434858002571 75.4383
13.011878055298721 76.27600000000001
13.034339260862497 77.2122
13.056800969391883 78.3822
13.079245674017244 80.7637
13.101708390774869 83.0864
13.12415410463411 90.68700000000001
13.146617833206086 103.37700000000001
13.169064559883248 116.734
13.191529303857127 131.924
13.213994557076367 152.863
13.236442809902437 182.907
13.258909083908291 227.917
13.28135835851934 281.067
13.30382565690295 344.24699999999996
13.326293469022952 402.95
13.348744283242008 429.885
13.371213125129904 385.86400000000003
13.39366497011003 296.987
13.416134845360597 200.53599999999997
13.438605238843131 138.511
13.46105863690397 112.82700000000001
13.483530069144786 110.40899999999999
13.505984506951902 115.771
13.528456981549432 125.85600000000001
13.550929978879088 139.268
13.573385983253365 159.346
13.595860028340867 190.457
13.618317081455832 231.554
13.64079217790333 281.633
13.663250283359057 327.421
13.685726434770173 363.79
13.708203115221277 353.731
13.730662806148091 292.98
13.75314054697177 216.81
13.775601299246777 147.131
13.798080104050406 106.962
13.820559442405358 89.7144
13.843021793671388 84.3518
13.865502201420897 82.1616
13.887965623051947 81.5011
13.910447103807167 80.3801
13.932929122629764 79.1524
13.955394156785959 78.7614
13.977877254034569 77.92699999999999
14.000343367582113 76.6102
14.022827546871707 75.935
14.045294743423524 75.3251
14.06778000837062 74.5476
14.090265817715476 74.8051
14.112734645763819 74.378
14.13522154619454 74.149
14.157691466286913 74.391
14.180179461423874 74.057
14.202668005486178 73.0769
14.22513957064374 72.3839
14.247629214846473 71.71
14.270101881097517 71.8406
14.29259262906496 72.3
14.315083930490205 73.3343
14.337558255389705 73.6906
14.360050666019726 73.4458
14.382526101071944 72.0585
14.405019624534942 70.8613
14.427513705993134 70.4571
14.449990813291825 70.1775
14.47248601302899 70.319
14.49496423954951 70.2389
14.517460561197822 70.3485
14.539939910570322 69.9328
14.562437357763558 70.7992
14.58493536931253 71.7883
14.607416409993311 73.0357
14.62991555254159 73.9106
14.652397725157423 73.7878
14.674898002342799 72.8861
14.697398848433282 72.1224
14.719882725991326 72.8351
14.74238471217934 73.6412
14.764869730765593 76.8269
14.787372860692983 80.8019
14.809876564079925 86.1585
14.83236330125751 92.1885
14.854868153850365 99.9054
14.877356041159485 111.155
14.899862046604186 125.943
14.922351087688757 146.721
14.944858249632887 170.91
14.967365991421232 195.52200000000002
14.989856770231246 216.31099999999998
15.012365673994204 220.86599999999999
15.03485761569738 201.59799999999998
15.05736768508665 166.071
15.07987833888692 129.424
15.102372032001655 101.16799999999999
15.124883856909658 82.806
15.14737872204565 75.2715
15.169891721717274 72.918
15.192405310371893 72.4545
15.214901940621196 73.0112
15.237416709527137 73.3994
15.259914520936249 73.6877
15.282430473753607 72.5963
15.304947020131227 70.9902
15.327446610371178 70.0941
15.349964346154254 69.3311
15.372465126703139 68.4418
15.394984055556009 68.0168
15.417486030076159 67.9648
15.44000615566487 67.6038
15.462526881230803 67.6232
15.485030653812652 67.7769
15.507552581617434 68.0064
15.530057557334603 68.0271
15.55258069104857 67.8988
15.575104429329837 67.7034
15.597611216864632 67.0428
15.620136166564563 67.3209
15.6426441664095 68.3102
15.665170331202765 71.0599
15.687697105158826 74.4847
15.710206930593545 78.3249
15.732734925158933 82.6679
15.755245972089478 88.4145
15.77777519094324 96.402
15.800287463046663 107.212
15.822817909869592 122.141
15.84534897229804 139.594
15.867863089299354 160.53
15.890395385222186 179.34599999999998
15.912910736597423 192.762
15.935444269699861 189.828
15.957978423016485 171.679
15.980495633101265 139.16299999999998
16.003031029129367 108.12700000000001
16.02554948280019 84.1596
16.048086125229432 72.2323
16.070623392487107 68.2622
16.09314371869582 67.119
16.11568223789321 66.2571
16.13820381691126 65.0624
16.160743591742527 63.6001
16.183283996022084 62.3582
16.205807461423195 61.1098
16.228349126881973 60.6046
16.25087385432698 60.3515
16.27341678466365 60.056999999999995
16.29594277784926 60.1321
16.31848697676433 60.3692
16.341031811604868 60.8452
16.36355971058487 61.2148
16.3861058195587 61.0895
16.40863499352978 59.388000000000005
16.431182380342005 58.31399999999999
16.453730407713202 57.6753
16.476261501364792 57.4363
16.498810812136167 56.9805
16.52134319004079 57.0471
16.54389378792203 56.8523
16.566445031001553 56.6843
16.588979342490088 56.62
16.61153187824822 56.3944
16.634067483263312 56.3533
16.656621315414416 56.1588
16.679175797408888 55.8119
16.701713349928728 55.9866
16.72426913389191 56.3411
16.74680798922351 56.4178
16.76936507887444 56.5075
16.791905240734874 56.379
16.814463639794468 56.2901
16.837022695210294 56.3002
16.859564824093756 56.4691
16.882125194503903 57.5647
16.904668639217885 58.5425
16.927230328348003 58.6784
16.949792678493612 58.668
16.972338104193863 58.1277
16.994901778652235 57.2339
17.017448529496576 57.2475
17.040013531998152 57.3027
17.06257920018044 57.4875
17.0851279459922 58.3674
17.107694947817667 59.533
17.130245028099072 60.216
17.15281336730298 61.6388
17.17536478578733 63.0778
17.19793446610687 64.8416
17.220504818648422 67.225
17.243058251703697 69.85
17.265629950971032 73.6856
17.288184731571736 77.645
17.310757781306908 82.0833
17.33333150794385 84.1409
17.355888317140174 83.9702
17.37846339986244 80.244
17.401021565958885 74.9446
17.42359800851343 69.0314
17.44617513265564 64.6704
17.468735341390783 62.1626
17.491261035594565 60.8174
17.51396340099364 60.1907
17.536490463869136 60.6535
17.559018209820174 60.4686
17.58154663977963 60.6799
17.604251766089718 60.6427
17.626781572227713 60.9758
17.64931206518155 61.2037
17.671843245885103 61.992
17.69455114821572 61.8973
17.717083712612634 62.121
17.739616967569667 62.3467
17.762150914021706 62.6727
17.78486160749854 62.6251
17.807396945166804 63.1636
17.829932977143503 63.8387
17.85246970436452 65.459
17.875183204129467 67.8511
17.897721330097664 70.2003
17.920260154126645 72.7582
17.942799677153296 75.8128
17.9655159983646 79.2065
17.988056927677544 83.5237
18.010598558807683 89.8291
18.033140892692916 97.785
18.05586005052525 106.316
18.07840379824407 117.027
18.10094825154059 127.853
18.12366954819864 137.284
18.146215420998306 141.563
18.16876200220057 137.53799999999998
18.191309292745153 126.334
18.214033452627167 111.995
18.236582170236648 97.9424
18.259131600016456 90.1362
18.281681742907335 88.1711
18.304408781233683 90.0302
18.32696035875955 93.8609
18.349512652227624 98.3531
18.372065662579683 103.77799999999999
18.394795594587553 106.76100000000001
18.41735004715306 105.865
18.43990521943684 101.455
18.46246111238171 92.8931
18.485193953325208 82.3171
18.507751296070428 73.893
18.530309362314178 68.7128
18.552868153000343 65.8225
18.57560391815056 63.9678
18.59816416623245 63.3267
18.620725141597372 62.9284
18.643286845190268 62.2794
18.666025549835414 62.0972
18.688588718427933 61.407
18.711152618092243 61.2059
18.73389353884365 60.8311
18.75645890921984 60.4149
18.77902501351406 60.0973
18.801591852673102 59.9752
18.824335739722738 59.4527
18.846904057212626 59.5202
18.8694731124168 59.2042
18.89204290628315 59.1964
18.914789774966803 58.8266
18.937361054791623 58.6727
18.959933076131318 58.4629
18.982505839934877 58.3802
19.00525570560582 58.6241
19.027829963004184 58.3716
19.05040496572238 58.4832
19.072980714710468 58.5353
19.095733592739563 58.6701
19.11831084296757 58.9518
19.140888842324735 59.6209
19.16346759176222 59.8921
19.18622349753803 60.4771
19.208803755869358 61.1623
19.231384767143577 61.9891
19.253966532312948 63.0675
19.276725481241822 64.7614
19.29930876296784 66.5764
19.3218928014549 69.247
19.34465404436217 72.3025
19.36723960516257 75.4118
19.389825925592426 77.3798
19.412413006605938 77.5526
19.43517731967805 75.0801
19.457765930683355 71.3287
19.48035530514408 66.5111
19.50294544401556 61.9734
19.525712842708348 58.908
19.54830451925909 57.1155
19.570896963095727 55.7301
19.593490175174704 55.3864
19.616260674962184 55.18
19.638855432416964 54.8968
19.661450960992624 54.9759
19.68404726164677 54.9722
19.706820878021247 54.73
19.729418731756834 54.6408
19.752017360452857 54.4017
19.77461676506804 54.5735
19.797393513540218 54.9431
19.819994478951667 55.1155
19.84259622316767 55.7525
19.8651987471481 56.1598
19.887978643247177 56.5303
19.91058273574792 57.1348
19.933187610901943 57.5997
19.955969879466828 58.5232
19.97857632894404 59.5343
20.00118356396599 60.7833
20.023791585494575 62.692
20.046577028914875 64.8658
20.069186632506966 67.3748
20.091797025500632 69.1715
20.114408208858933 70.7462
20.137196842715273 71.4089
20.159809615886765 70.3698
20.18242318232135 67.9851
20.20503754298326 65.6373
20.227829382875154 63.8504
20.250445341109344 63.1766
20.27306209647285 63.1621
20.29567964993108 64.0911
20.31847471147704 65.1018
20.34109387027612 66.1355
20.363713830075454 66.7298
20.386334591841646 65.8217
20.409132890679302 64.1504
20.431755265564437 61.122
20.454378445325528 58.1264
20.477002430930366 56.0313
20.499803982716553 54.2105
20.522429589228004 53.2111
20.54505600449589 52.6445
20.567683229489194 52.5647
20.590488049900088 51.9162
20.61311690359731 51.5614
20.63574656993626 51.2853
20.658553853717297 50.7967
20.681185154618298 50.9123
20.703817271080066 50.6907
20.72645020407368 50.3978
20.749260783967177 50.1656
20.771895359337133 50.1475
20.794530754161617 50.0894
20.817166969412938 49.89
20.83998086114876 49.9877
20.86261872660049 49.8849
20.885257415405402 49.8856
20.90789692853701 49.8106
20.930714147864748 49.7438
20.953355319030678 49.6901
20.97599731745334 49.826
20.99864014410749 49.6859
21.021460706796564 49.7312
21.044105199328826 50.0067
21.06675052302631 50.1262
21.089396678865015 50.3234
21.112220600704806 50.5661
21.134868430275347 50.9435
21.15751709492456 51.0726
21.180166595629693 51.0821
21.202993892429635 51.6347
21.22564507473034 52.0626
21.24829709602816 52.3776
21.27112693608965 52.6929
21.293780644891275 52.6399
21.316435195634053 52.1891
21.339090589297417 51.3909
21.361923832041875 51.1221
21.384580921090404 50.4231
21.407238856007325 49.7522
21.429897637773326 49.7208
21.45273429906592 49.4457
21.475394784108598 49.4834
21.498056118951983 49.324
21.520718304578022 49.6033
21.543558400304388 49.8205
21.566222297108816 49.8533
21.58888704765135 50.1623
21.61155265291521 50.3645
21.63439619898156 50.8886
21.657063523335786 51.174
21.67973170537063 51.6014
21.7024007460706 52.0235
21.72524775840385 52.8162
21.747918526116475 53.6069
21.770590155457388 54.5362
21.79326264741238 55.9204
21.816113141960237 57.4656
21.838787368860547 59.1287
21.861462461341976 60.8487
21.884315579735777 62.9318
21.90699241312273 64.3189
21.92967011506078 65.5699
21.95234868653799 66.258
21.9752053151131 65.6195
21.997885635446785 64.0623
22.020566828293532 62.0168
22.04324889464272 59.8894
22.066109049404666 57.9573
22.088792872571794 57.1676
22.111477572219204 56.9997
22.1341631493376 57.2617
22.157026846313123 57.4047
22.179714188221507 56.8323
22.202402410582668 56.1358
22.22509151438863 54.7088
22.24795876962584 53.2195
22.270649646204486 52.3141
22.293341407213727 51.3809
22.316034053646906 50.7973
22.338904883215342 50.533
22.36159931041458 50.3786
22.38429462602756 50.3085
22.40699083104897 50.0322
22.429865251039757 50.1303
22.452563244831367 50.2626
22.47526213102522 50.0255
22.49813925616515 50.1235
22.520839937143307 49.8442
22.543541513520587 49.7793
22.56624398629403 49.6126
22.589124730075895 49.5625
22.611829005656723 49.7204
22.63453418063466 49.7193
22.657240256008077 49.9846
22.680124634582935 50.3276
22.70283252079775 50.6306
22.725541310413075 50.8133
22.74825100442868 50.8958
22.771139033969575 51.3648
22.79385054687155 51.5369
22.81656296718292 52.2092
22.83927629590484 52.7804
22.862167992606945 53.5336
22.88488314827121 54.4101
22.907599215359284 55.4172
22.93031619487366 56.4362
22.953211574954405 57.2796
22.975930389478226 58.6691
22.998650119445763 59.4034
23.02137076586092 59.0867
23.044269845560063 58.1643
23.06699233506288 56.574
23.089715744034912 54.7777
23.112617610931565 52.8743
23.135342869061212 51.5447
23.158069049684816 50.6267
23.1807961538087 50.1432
23.20370174880544 50.2174
23.226430710184808 50.0101
23.249160598093425 50.092
23.271891413539002 50.1265
23.294800752937697 50.0812
23.31753343374794 50.1509
23.340267045128353 50.2496
23.36300158808808 50.6832
23.38591468821339 50.9417
23.408651104658304 51.3492
23.431388455719986 51.8227
23.454126742409 52.4194
23.4770436196085 53.2583
23.499783787914662 54.3911
23.522524894889884 54.9948
23.54526694154616 55.9827
23.56818761219047 57.3488
23.59093154860734 58.1422
23.613676427751283 58.8961
23.636422250635754 58.7808
23.659346731118656 57.7885
23.68209445191868 56.0391
23.704843119509587 53.9216
23.72759273490623 51.812
23.750521041644767 50.2137
23.77327256312355 48.9034
23.796025035462787 48.12
23.818956224555475 47.4205
23.841710609113413 47.2333
23.86446594758979 46.8614
23.887222241002014 46.6081
23.910157285144578 46.2237
23.932915498962537 46.3169
23.955674670778713 46.1951
23.978434801611975 46.1169
24.001373717286125 45.8782
24.024135776723917 45.7436
24.046898798245582 45.5115
24.06966278287146 45.4921
24.092605586582614 45.4143
24.115371508023642 45.2824
24.1381383956401 45.2382
24.16090625045381 44.9503
24.183852958731244 44.9791
24.206622758582608 45.0493
24.229393528706886 44.7731
24.252165270127392 44.7807
24.27511589952438 44.6884
24.297889594216997 44.4107
24.32066426328598 44.4355
24.34343990775613 44.2954
24.36639447485003 44.2279
24.38917208083877 44.2833
24.41195066531332 44.1009
24.43490819850244 44.1806
24.457688750692377 44.0646
24.48047028445616 44.04
24.503252800821233 44.2273
24.526214300784112 44.2361
24.548998793132213 44.078
24.57178427117417 43.8987
24.59457073593893 43.9789
24.617536219319863 43.9789
24.64032466834748 43.9238
24.663114107195035 43.9192
24.685904536893013 43.7783
24.708874020360852 43.6018
24.731666442613744 43.5937
24.754459858818787 43.4228
24.777254270007962 43.4412
24.80022777025625 43.2763
24.82302418230472 43.3267
24.845821592443674 43.1805
24.86862000170663 43.2121
24.891597535453727 42.9871
24.914397953892728 43.3143
24.93719937456671 43.3556
24.96000179851076 43.4386
24.98298338249997 43.4009
25.00578782394922 43.7997
25.028593271784167 43.8055
25.05157790644186 44.2594
25.07438537804115 44.1981
25.097193859145293 44.3491
25.120003350792075 44.6126
25.142992065061257 44.94
25.165803588823465 45.2567
25.18861612625217 45.4949
25.211429678386736 45.7065
25.234422489079968 45.9304
25.257238081693636 45.7291
25.280054692141732 45.8291
25.3028723214652 45.8226
25.325869245420463 45.7879
25.348688923599397 45.8261
25.371509623787006 45.8467
25.394331347025812 45.7781
25.41733240110666 45.3117
25.440156181590016 44.902
25.46298098826268 44.3565
25.48580682216873 43.723
25.50881202326435 43.0031
25.53163992281684 42.5448
25.55446885274561 42.2161
25.577298814096377 41.9096
25.600308179121807 41.8126
25.623140214533745 41.9238
25.64597328451537 41.7452
25.66898578564376 41.5281
25.691820936010206 41.618
25.714657124097695 41.5657
25.737494350954734 41.5616
25.760511045684957 41.4382
25.783350361364224 41.4386
25.806190718969255 41.6315
25.82903211955018 41.8208
25.852053024868923 41.7964
25.874896522722523 41.6308
25.897741066713106 41.4548
25.920586657892454 41.6378
25.943611790812668 41.7973
25.966459487728237 41.9147
25.989308234998564 41.7808
26.01215803367705 42.0265
26.03518741123814 42.2392
26.05803932412957 42.465
26.080892291600094 42.4049
26.10374631470478 42.5424
26.12677995397268 42.7632
26.14963609978026 42.8406
26.172493304397875 42.4748
26.19535156888223 42.2961
26.218389486949604 42.0053
26.241249882640123 41.8085
26.26411134137826 41.4906
26.28715248187403 41.3421
26.31001607820869 41.031000000000006
26.3328807407756 40.8787
26.35574647063438 41.1195
26.37879191991473 41.0792
26.401659795896734 40.9418
26.424528742360263 41.2399
26.447398760366614 41.3994
26.470448535598294 41.6064
26.49332070826805 41.6895
26.516193955675355 41.9028
26.53906827888316 42.0574
26.562122397260108 42.3228
26.584998883685063 42.5549
26.607876449110325 42.6798
26.63075509460056 42.8349
26.65381357334404 43.0014
26.67669439061878 43.0545
26.699576291163382 43.1985
26.722459276044212 43.1362
26.745522132402975 42.8216
26.768407297649354 42.5468
26.791293550442003 42.1244
26.814180891848974 41.948
26.837248143099337 41.6212
26.860137673466657 41.4749
26.88302829566349 41.4007
26.90592001075963 41.0954
26.92899167420566 40.8501
26.951885586870763 40.4908
26.974780595655517 40.3536
26.99785558178161 40.2136
27.020752794605112 40.0039
27.043651106772522 39.8333
27.06655051935668 39.8317
27.089629948036183 39.6277
27.112531573292053 39.4828
27.135434302194138 39.6409
27.158338135817015 39.5453
27.181422024430987 39.5744
27.204328079372566 39.4336
27.22723524226965 39.3987
27.250143514198573 39.5293
27.273231880156334 39.504
27.296142382065014 39.2065
27.319053996245536 39.1814
27.341966723775965 39.2136
27.365059584515222 39.3218
27.38797455070062 39.4625
27.410890633481237 39.2817
27.433807833936918 39.1945
27.456905206923906 39.3937
27.47982465472398 39.349000000000004
27.502745223449743 39.2842
27.525666914182825 39.48
27.548768816912457 39.5114
27.571692763693633 39.3336
27.59461783573812 39.2767
27.617723149491244 39.0902
27.640650484125285 39.1421
27.66357894728264 39.0921
27.686508540048052 39.0854
27.709618414237887 39.0019
27.732550278321757 38.8158
27.755483275279115 38.8072
27.778417406196485 38.8259
27.801531858397514 38.7189
27.824468269376716 38.6624
27.847405817586786 38.5901
27.870344504116094 38.931999999999995
27.893463551932008 38.8638
27.916404527281053 39.1555
27.93934664422563 39.1897
27.962289903855886 39.1875
27.98541356491974 39.3881
28.00835912214229 39.4711
28.03130582533231 39.8259
28.054253675581805 39.7408
28.077381967556104 39.7533
28.100332124185126 39.8744
28.123283431160893 39.9882
28.146235889577238 39.9081
28.169368830154156 39.654
28.192323603752033 39.3258
28.215279532083304 39.1308
28.238415973016764 38.8673
28.261374223145094 38.8394
28.284333631303806 38.4921
28.307294198589954 38.4629
28.330435319167677 38.0833
28.353398217078915 37.915
28.376362277420153 37.657
28.39932750129032 37.5692
28.422473319286713 37.4221
28.44544088262495 37.3545
28.468409612800283 37.2729
28.491379510913497 36.9858
28.51453004413313 36.7958
28.53750229057244 36.8217
28.56047570826344 36.6942
28.583450298308804 36.7175
28.606605564586562 36.5222
28.629582511831156 36.6459
28.65256063474956 36.4673
28.675539934446338 36.5861
28.698699951647605 36.4665
28.72168161743193 36.3617
28.74466446331978 36.3285
28.767648490417624 36.269
28.790813276438353 36.2279
28.813799678527303 36.2539
28.836787265157085 36.1775
28.859955641890075 36.227
28.882945610203045 36.2786
28.905936766392035 36.1531
28.928929111566863 36.1419
28.952102288520145 36.1523
28.975097024308607 36.025
28.998092952423807 35.9199
29.021090073977508 35.9165
29.04426806913204 35.7137
29.067267590245258 35.5679
29.090268308143695 35.3839
29.11327022394099 35.477
29.13645305530891 35.3967
29.159457379627167 35.3439
29.18246290519685 35.1603
29.20546963313352 35.0593
29.22865731875826 35.196
29.25166646419296 35.1687
29.27467681535305 35.0669
29.29768837335608 35.1005
29.320880931312562 35.2025
29.34389491580634 35.0829
29.366910110507334 34.9974
29.38992651653503 35.0256
29.41312396492981 35.0301
29.436142806456754 34.887
29.45916286268059 34.9441
29.48236399319994 34.7587
29.50538649169417 34.6195
29.528410208259935 34.5297
29.55143514402014 34.3347
29.574641196749695 34.2648
29.597668583816574 34.2163
29.6206971934585 34.0448
29.64372702680042 34.134
29.666938019934474 33.8869
29.689970313635285 33.7351
29.713003834422636 33.7473
29.73603858342347 33.7604
29.759254535188578 33.7105
29.78229175361658 33.6523
29.80533020365064 33.7458
29.82836988641968 33.6568
29.85159081507472 33.515
29.874632976355343 33.4374
29.89767637376955 33.5048
29.920721008448314 33.452
29.9439469322847 33.4126
29.96699405457564 33.245
29.9900424175358 33.3735
30.013092022298157 33.2818
30.03632295963995 33.2829
30.059375061131373 33.2748
30.08242840783577 33.4127
30.105483000888153 33.3559
30.128718970092244 33.2052
30.151776069006917 33.0885
30.17483441768648 33.2307
30.198074175317235 33.1798
30.221135036724256 33.2052
30.24419715131772 33.0988
30.267260520236203 33.0106
30.290505341942243 33.1079
30.313571232750228 33.1693
30.336638381310948 33.1048
30.35970678876503 33.0465
30.38295669299435 32.9784
30.40602763151657 32.9987
30.429099832366074 32.9079
30.452173296685572 32.9175
30.47542830191959 32.8834
30.498504306502497 32.7967
30.521581577995562 32.8644
30.544660117543582 32.9123
30.56792024229725 32.9355
30.59100133132069 32.8281
30.614083691845494 32.8537
30.637167325018545 32.9614
30.660432587840603 32.9965
30.683518779717886 32.9793
30.70660624769615 32.8255
30.729694992924372 32.9092
30.75296541239743 33.0414
30.77605672557558 32.9864
30.799149319462742 32.9539
30.8224236211637 32.7626
30.845518789950724 32.5707
30.868615242910597 32.6125
30.891712981195973 32.4534
30.91499247215866 32.3686
30.938092794619365 32.3475
30.96119440587579 32.3262
30.984297307082752 32.1632
31.00758200598383 32.1047
31.030687500658694 31.9506
31.053794288760695 32.0046
31.076902371446767 31.8758
31.100192296997445 31.8018
31.12330298246119 31.8454
31.14641496599209 31.6347
31.169528248749216 31.6289
31.19282341969534 31.5934
31.215939314557186 31.708000000000002
31.239056512134788 31.68
31.262175013589378 31.6281
31.28547544871168 31.5729
31.30859657161541 31.5226
31.331719001892175 31.5438
31.35484274070538 31.7696
31.378148458819545 31.6368
31.401274828443725 31.6059
31.424402510106933 31.5386
31.447712205419993 31.6686
31.470842524931633 31.5273
31.493974159989783 31.5468
31.51710711176168 31.4624
31.54042212308802 31.5602
31.563557722100917 31.4721
31.586694641341655 31.3305
31.609832881979628 31.2687
31.63315322823208 31.1997
31.656294125521327 31.0814
31.679436347728515 31.0661
31.70257989602529 31.0261
31.725905596152327 30.9724
31.74905181052835 30.8271
31.772199354521323 30.9264
31.79534822930507 30.8364
31.818679302290967 30.8096
31.84183085259981 30.8289
31.864983737233473 30.8444
31.88813795736804 30.8479
31.911474422233013 30.7144
31.934631327356435 30.8469
31.9577895715215 30.7989
31.980949155906522 30.6973
32.004291031706956 30.6604
32.027453310562606 30.5932
32.05061693318573 30.5271
32.07396288236386 30.5481
32.09712920658542 30.3905
32.12029687812702 30.3767
32.14346589817093 30.2938
32.166817291729984 30.2398
32.18998902288583 30.2378
32.21316210610336 30.1427
32.23633654256711 30.0157
32.259693399663725 29.9789
32.282870556771144 29.944000000000003
32.30604907069099 29.9666
32.329228942610065 29.8681
32.35259128243769 29.6843
32.375773884550505 29.6204
32.398957848235646 29.6157
32.422143174682176 29.5275
32.445511016471215 29.495
32.468699082679954 29.4549
32.49188851523011 29.4024
32.51507931531304 29.3288
32.538452678331 29.2714
32.56164622776311 29.2203
32.58484114831493 29.1811
32.60803744118015 29.2034
32.631416344731896 29.1546
32.654615396551876 29.1129
32.67781582427913 29.148000000000003
32.701198898634416 29.0183
32.72440209253756 29.0363
32.747606665947124 28.9987
32.77081262006088 28.8884
32.79420126883317 28.8886
32.81740999876112 28.8192
32.840620112999424 28.7304
32.86383161274818 28.6593
32.88722585534586 28.691
32.91044014056596 28.763
32.933655814909734 28.7246
32.95687287957963 28.6526
32.98027273544904 28.595
33.00349259526636 28.6373
33.026713849030116 28.6176
33.04993649794511 28.4375
33.073341986570746 28.4469
33.09656744032826 28.4236
33.11979429286444 28.3291
33.14302254538647 28.4021
33.166433686291185 28.3179
33.18966475336992 28.340999999999998
33.212897224069096 28.1948
33.23613109959831 28.188000000000002
33.259547912343415 28.2487
33.2827846121627 28.2121
33.306022720453775 28.1128
33.32926223842861 28.0359
33.352684742614166 28.0345
33.37592709463173 28.0689
33.399170859982064 27.9431
33.422597648419426 27.8831
33.44584425514446 27.7575
33.46909227885668 27.7602
33.4923417207723 27.6007
33.51577423505344 27.6681
33.539026528130385 27.651999999999997
33.56228024307245 27.5493
33.585535381098246 27.4064
33.60897364093058 27.3468
33.63223163992385 27.3288
33.6554910656699 27.3033
33.678751919389796 27.3017
33.702195944520106 27.1717
33.72545966903325 27.2387
33.74872482519663 27.1694
33.771991414233746 27.206999999999997
33.79544122444841 27.0944
33.81871069412428 27.1274
33.84198160035767 27.0113
33.86525394437455 26.9563
33.88870955949969 26.9542
33.911984794020626 26.9703
33.93526147001624 26.8703
33.958539588715006 26.7467
33.98200102861669 26.7374
34.0052820477047 26.6095
34.02856451319451 26.6754
34.05203033759056 26.5821
34.07531571090147 26.6353
34.09860253431845 26.6288
34.121890809074316 26.5273
34.145362493118924 26.4503
34.16865368561615 26.4057
34.191946333164054 26.4659
34.21524043699793 26.3687
34.23871800066799 26.3706
34.26201503218366 26.2686
34.28531352370466 26.2953
34.30861347646881 26.2106
34.33209693978188 26.138
34.3553998301885 26.1514
34.378704185565205 26.0821
34.402010007152356 26.0268
34.42549939016683 26.0956
34.44880815937748 25.9097
34.472118398533134 25.8681
34.49543010887669 25.8533
34.51892543169198 25.8039
34.54224009966052 25.7821
34.56555624255917 25.7133
34.58887386163339 25.721999999999998
34.61237514439016 25.6046
34.6356957311114 25.5852
34.65901779775809 25.5629
34.68252356662995 25.5247
34.705848608458616 25.5119
34.72917513396849 25.4628
34.75250314440949 25.4303
34.77601490857862 25.2866
34.799345904259795 25.2998
34.82267838863559 25.2698
34.846012362958525 25.287
34.869530142679984 25.2422
34.89286711232212 25.2599
34.91620557568269 25.1406
34.93954553401677 25.05
34.9630693495876 25.0849
34.986412313340814 25.094
35.00975677584668 25.0922
35.033102738362956 24.9984
35.05663261012228 24.9598
35.0799815881786 25.0351
35.10333207003229 24.9513
35.12668405694369 24.9511
35.150220005273056 24.855999999999998
35.17357501786656 24.8406
35.19693153931268 24.8088
35.220289570874385 24.6861
35.24383161619786 24.6834
35.267192683604904 24.6842
35.290555264930376 24.627
35.314101899412165 24.6252
35.33746752422433 24.6029
35.36083466676374 24.6633
35.38420332829803 24.5588
35.407756095629054 24.6035
35.43112781085063 24.5376
35.45450104888391 24.4842
35.477875810999194 24.4993
35.50143473172161 24.4118
35.52481255774625 24.4521
35.54819191167777 24.4374
35.57157279478914 24.3324
35.595137889488406 24.3474
35.61852184675279 24.2677
35.641907337029984 24.224
35.665294361595684 24.1716
35.68886565090076 24.1273
35.7122557598848 24.0694
35.73564740699838 24.149
35.759040593519934 23.9527
35.78261809810353 24.0031
35.80601437933051 23.9173
35.829412203814705 23.9218
35.85281157283719 23.7996
35.876395313415884 23.7747
35.8997977874528 23.7263
35.92320180988546 23.6838
35.946790244133936 23.6892
35.97019737933222 23.6483
35.993606066789866 23.6231
36.01701630779276 23.5863
36.04061101440684 23.5741
36.06402437852291 23.5508
36.08743930005611 23.5297
36.1108557802951 23.4145
36.13445678011326 23.3858
36.15787639383515 23.429000000000002
36.18129757014299 23.3018
36.20472031032821 23.3409
36.22832762423364 23.2601
36.25175350829375 23.2161
36.275180960119776 23.1566
36.298609981005924 23.1769
36.32222362992669 23.1818
36.34565580510207 23.1246
36.36908955323448 23.0893
36.39252487562093 23.0217
36.416144880530226 23.0254
36.43958336764275 22.9454
36.463023432914625 22.9076
36.486465077645676 22.886999999999997
36.51009145956204 22.9517
36.53353627947859 22.9748
36.55698268276811 22.8334
36.58043067073321 22.7478
36.60406345072071 22.666
36.62751462435344 22.7456
36.65096738658405 22.712
36.67460498210655 22.6398
36.69806093788647 22.6096
36.72151848619297 22.5531
36.744977628333636 22.5611
36.76862165890998 22.4189
36.79208400512205 22.5492
36.81554794910557 22.4624
36.83901349217101 22.3467
36.862663978991606 22.3451
36.88613273667352 22.3631
36.90960309738324 22.3235
36.933075062434064 22.3057
36.95673202673572 22.2291
36.98020721697122 22.1491
37.003684015502365 22.0891
37.027162423645365 22.1459
37.050825886711465 22.0275
37.07430753063053 22.0322
37.09779078812467 21.9567
37.121275660513014 21.936999999999998
37.144945643673694 21.8808
37.16843376245278 21.9194
37.19192350009803 21.8898
37.215414857931435 21.8733
37.239091382563885 21.7674
37.262585997426164 21.7521
37.28608223645736 21.7282
37.309763684451696 21.6478
37.33326318851098 21.6527
37.356764320726555 21.579
37.380267082425526 21.5996
37.40395510942588 21.5798
37.42746114683234 21.5289
37.45096881771841 21.438000000000002
37.474478123414166 21.4587
37.49817275092816 21.4558
37.52168534303452 21.4488
37.54519957395567 21.2912
37.568715445024665 21.3956
37.592416694607714 21.3111
37.61593586281424 21.3154
37.63945667518264 21.3292
37.66297913304891 21.1559
37.68668702630454 21.1987
37.710212792059274 21.1535
37.733740207334854 21.1212
37.757269273470364 21.0909
37.780983832050374 21.0636
37.80451621684926 20.9636
37.82805025654007 20.9276
37.851585952464795 20.941999999999997
37.8753071980695 20.9117
37.89884622345676 20.8459
37.92238690911902 20.8642
37.94611318753442 20.7568
37.969657210779765 20.7226
37.99320289834801 20.7699
38.016750251586465 20.7383
38.04048325513017 20.6765
38.06403395679343 20.6199
38.087586328183946 20.5708
38.11114037065203 20.4792
38.13488012115898 20.5443
38.1584375229181 20.4639
38.181996599821 20.403
38.205557353221124 20.4546
38.229303872575656 20.4189
38.2528679961576 20.4149
38.27643380031219 20.3788
38.30000128639589 20.2681
38.32375459653193 20.2353
38.34732546371299 20.2858
38.37089801690786 20.1739
38.39447225747609 20.1706
38.418232380377425 20.0889
38.441810012983396 20.0428
38.46538933705673 20.0705
38.488970353960084 20.0719
38.51273731166058 20.0475
38.536321731567014 19.938
38.55990784840681 19.9571
38.58367995004091 19.8417
38.60726947812959 19.8593
38.63086070726198 19.874000000000002
38.654453638806274 19.8198
38.678232613930824 19.8523
38.70182896773327 19.7467
38.72542702806741 19.7393
38.7490267963045 19.7147
38.77281266709232 19.6907
38.79641586862214 19.6219
38.8200207821842 19.5997
38.843627409152944 19.5986
38.86742019782782 19.548
38.891030269149255 19.4985
38.914642058016156 19.480999999999998
38.938255565806124 19.4282
38.96205529464307 19.4187
38.98567225787121 19.4186
39.00929094417078 19.3782
39.03291135492255 19.3508
39.05671804624804 19.2887
39.080341923549106 19.2977
39.103967529460334 19.2415
39.127594865365744 19.2047
39.15140854155791 19.1695
39.17503935514948 19.1351
39.19867190290282 19.1526
39.22249083587951 19.0798
39.24612686969409 19.0797
39.269764641845306 19.0607
39.293404153722804 18.9762
39.317230110864074 18.8779
39.34087311998506 18.820999999999998
39.36451787301696 18.8755
39.388164371352595 18.8675
39.41199737518003 18.8239
39.43564738196752 18.8379
39.45929913825317 18.82
39.48295264543308 18.7546
39.506792718520884 18.7464
39.530449745387216 18.7382
39.55410852735203 18.6925
39.57776906581474 18.5929
39.60161623079 18.6288
39.625280300200025 18.5821
39.64894613032202 18.567999999999998
39.67261372255866 18.5462
39.6964680021016 18.5006
39.72013913657293 18.4565
39.74381203738292 18.4321
39.76748670593756 18.4406
39.79134812278169 18.3637
39.81502634488497 18.4194
39.83870633896685 18.3217
39.862388106436654 18.2527
39.88625668336918 18.2379
39.90994201572829 18.264
39.933629125719285 18.1414
39.957503091207826 18.2016
39.9811937746168 18.1803
40.00488623990914 18.0878
40.02858048850006 18.0362
40.05246165409549 18.0313
40.076159487492085 18.051
40.099859108448875 18.0176
40.123560518384345 17.9382
40.1474489070226 17.9352
40.171153913178564 17.897000000000002
40.194860712584955 17.8476
40.2185693066637 17.8219
40.242464941335314 17.7883
40.26617714307655 17.8151
40.289891143772046 17.7846
40.3136069448471 17.7112
40.33750984859743 17.7049
40.3612292688043 17.6638
40.3849504936829 17.6758
40.40867352466194 17.6887
40.43258372059144 17.5742
40.45631038219906 17.6005
40.48003885420956 17.5446
40.503769138055105 17.5282
40.52768664931955 17.5346
40.55142057531802 17.5111
40.57515631746428 17.4667
40.599079334038514 17.45
40.62281872700477 17.3816
40.64655994043941 17.3976
40.67030297578061 17.3294
40.69423334835778 17.3367
40.71798004609188 17.2626
40.74172857006355 17.239
40.76547892171441 17.2632
40.7894166736039 17.2079
40.813170699248566 17.1451
40.83692655691388 17.072
40.86068424804498 17.1199
40.884629402612525 17.1135
40.908390779366385 17.0708
40.932153993938 17.0237
40.95591904777605 16.9798
40.979871628443995 16.9983
41.003640379561936 16.9499
41.02741097430883 16.9317
41.05118341413683 16.9009
41.075143444384416 16.8901
41.098919593177826 16.8648
41.1226975914255 16.8544
41.14647744058318 16.7653
41.170444943946755 16.7217
41.19422851378379 16.7448
41.218013938914645 16.6483
41.24198706625173 16.6847
41.26577622087193 16.6769
41.289567235177785 16.6032
41.31336011063129 16.5446
41.337340752422875 16.5607
41.361137369129835 16.5826
41.38493585138705 16.5034
41.40873620066004 16.5168
41.43272438060107 16.4507
41.45652848292052 16.3825
41.48033445666918 16.3796
41.50414230331616 16.2896
41.528138045159764 16.3287
41.551949656675205 16.2033
41.575763145513235 16.25
41.59957851314666 16.2343
41.62358184070442 16.2024
41.64740098505737 16.1855
41.6712220126409 16.1338
41.69504492493139 16.1695
41.71905586207357 16.1357
41.74288256296395 16.0813
41.766711153007456 16.0249
41.79054163368412 16.0524
41.814560204340054 16.0637
41.838394485526365 15.9844
41.86223066180303 15.9683
41.88625497706819 15.9232
41.910094962812 15.9289
41.93393684811168 15.8983
41.95778063445365 15.7512
41.981812625263366 15.7809
42.00566023303407 15.7909
42.029509746323676 15.7501
42.05336116662236 15.703
42.077400857069705 15.6657
42.10125611078846 15.7063
42.12511327600405 15.6312
42.14897235421036 15.633
42.173019768448455 15.5946
42.19688269209613 15.5363
42.22074753323349 15.5206
42.24461429335818 15.5314
42.268669455600495 15.48
42.292540073217886 15.4656
42.31641261433284 15.464
42.34028708044675 15.4303
42.36435001496739 15.434000000000001
42.38822835065557 15.395
42.41210861586426 15.3573
42.4359908120986 15.352
42.46006154323262 15.3131
42.48394762115317 15.2364
42.507835634632315 15.2764
42.531912233047436 15.2418
42.55580413732265 15.1848
42.579697981698 15.172
42.60359376768525 15.1451
42.62767820545945 15.1487
42.65157789440821 15.1132
42.67547952952185 15.0701
42.699383112316 15.0477
42.72347541395347 15.0197
42.74738291190531 14.9676
42.771292362102166 15.0364
42.795203766063516 14.9823
42.819303956130405 14.9017
42.843219287476536 14.8438
42.86713657716324 14.8472
42.89105582671383 14.8439
42.91516392983864 14.8101
42.939087119032166 14.7985
42.963012272677304 14.7442
42.98693939230129 14.7271
43.01105543317513 14.7127
43.034986504731386 14.7035
43.05891954686589 14.6461
43.08285456110972 14.6828
43.10697856448665 14.6405
43.130917542983475 14.6231
43.15485849820081 14.57
43.17880143167367 14.4812
43.20293342237094 14.47
43.226880332449 14.4892
43.25082922540554 14.4285
43.27496722682525 14.481
43.29892010567796 14.4328
43.32287497204102 14.4088
43.34683182745632 14.3122
43.370977859791836 14.2755
43.39493871351105 14.3456
43.41890156092628 14.32
43.44286640358341 14.2697
43.46702049182749 14.2671
43.49098934522816 14.2286
43.51496019852649 14.2351
43.5389330532723 14.1444
43.56309522248204 14.1351
43.58707210044314 14.1189
43.61105098451946 14.0437
43.63503187626491 14.0633
43.659202151562134 14.0376
43.68318707902681 14.0241
43.70717401884041 13.9911
43.731162972560874 13.9149
43.75534137913236 13.9139
43.779334381108384 13.8987
43.803329401683186 13.909
43.82732644241872 13.8686
43.8515130055166 13.842
43.87551410707659 13.7754
43.89951723350145 13.8445
43.923709934595614 13.7591
43.94771713129917 13.718
43.97172635758096 13.6636
43.99573761501002 13.7211
44.0199385169922 13.6543
44.04395385732619 13.6769
44.067971233533086 13.68
44.09199064718605 13.6314
44.11619977548961 13.5545
44.14022328470671 13.5184
44.16424883610785 13.5594
44.18827643127035 13.5373
44.21249381139513 13.5026
44.236525514814076 13.4935
44.26055926674478 13.487
44.28459506876863 13.4524
44.3088207262813 13.3793
44.33286064928722 13.3481
44.35690262714919 13.3568
44.38094666145278 13.3222
44.4051806219871 13.3249
44.42922879003185 13.2861
44.45327901929361 13.2704
44.477331311362136 13.2538
44.501573600619416 13.2434
44.525630039221795 13.1611
44.54968854541895 13.1672
44.573937102200176 13.1759
44.5979997645541 13.1028
44.622064499300315 13.1289
44.64613130803592 13.0654
44.67038823869318 13.0851
44.69445921643748 13.0013
44.718532272981385 12.9829
44.742607409926194 12.9836
44.76687274034801 12.9886
44.79095205918753 12.9503
44.81503346325094 12.9224
44.839116954143876 12.9474
44.86339071028742 12.8939
44.88747839599524 12.847999999999999
44.91156817336837 12.8044
44.93566004401666 12.8419
44.959942251908146 12.8125
44.984038330325966 12.7438
45.00813650686762 12.6953
45.03223678314731 12.7317
45.05652746888232 12.694
45.08063196592069 12.6611
45.104738567558705 12.6536
45.128847275414856 12.6173
45.15314646515866 12.5433
45.17725940679741 12.5612
45.20137445952892 12.5165
45.22568004865265 12.5336
45.24979934496396 12.497
45.27392075725247 12.4742
45.29804428714431 12.4484
45.322358426247604 12.4113
45.346486212804315 12.4587
45.370616121861914 12.4161
45.39474815505086 12.3972
45.41907087049246 12.3476
45.4432071734666 12.2821
45.46734560548283 12.280999999999999
45.49148616817604 12.3178
45.51581748638564 12.235
45.5399623320197 12.248
45.56410931325473 12.2034
45.58825843173002 12.2095
45.61259837920865 12.1896
45.636751793816 12.231
45.66090735060093 12.0912
45.68506505120716 12.099
45.7094136545275 12.0486
45.73357566449271 12.0272
45.75773982322992 12.0233
45.78190613238733 12.0636
45.806263418194064 11.9727
45.83043404997326 11.9701
45.85460683713677 11.9983
45.87897065658495 11.9542
45.90314777634752 11.9208
45.92732705646868 11.9091
45.9515084986045 11.9121
45.97588104735473 11.8496
46.00006683541565 11.8461
46.02425479047904 11.795
46.04844491420549 11.8155
46.0728262191024 11.7913
46.09702070211635 11.7732
46.12121735879483 11.7734
46.14541619080294 11.7287
46.169806278764455 11.7377
46.194009483459034 11.7214
46.21821486849841 11.6284
46.24242243555223 11.6254
46.266821333570014 11.5742
46.29103328674601 11.5829
46.31524742696538 11.5801
46.33946375590237 11.5391
46.36387149104216 11.5169
46.38809221957392 11.5056
46.41231514186606 11.4885
46.436540259597464 11.4729
46.460956858999374 11.4116
46.48518638983522 11.42
46.509418121166966 11.425999999999998
46.533652054678114 11.3586
46.55807754555709 11.3154
46.58231590571962 11.4082
46.60655647313217 11.3737
46.630988654873654 11.3021
46.655233659129024 11.2711
46.67948087571551 11.302
46.70373030632484 11.2245
46.72817142736393 11.2011
46.752425308428684 11.1716
46.77668140861147 11.1702
46.80093972960865 11.1126
46.82538981736788 11.1086
46.849652602470904 11.0624
46.87391761349769 11.1096
46.8981848521493 11.0976
46.9226439341274 11.0026
46.946915650573224 11.0125
46.97118959976749 11.0212
46.99546578341598 11.0014
47.019933887188216 10.9439
47.04421456235744 10.9673
47.06849747711879 10.9401
47.09278263318286 10.9005
47.11725978640143 10.8716
47.14154944775105 10.8712
47.165841355555656 10.8293
47.1901355115306 10.7994
47.214621741924994 10.7833
47.23892041698887 10.7741
47.26322134538975 10.7564
47.28771440635075 10.7166
47.31201986422527 10.7151
47.33632758061436 10.667
47.360637557241866 10.6758
47.38513974410611 10.6277
47.40945426407847 10.5967
47.43377104948137 10.6321
47.45809010204344 10.6043
47.48260144275502 10.573
47.506925052572285 10.5726
47.53125093475548 10.5399
47.55557909103813 10.5333
47.58009961361992 10.5299
47.60443234110732 10.4863
47.62876734791564 10.4576
47.65310463578333 10.4407
47.6776343683373 10.4496
47.7019762413987 10.4308
47.72632040075572 10.3933
47.75066684815169 10.3786
47.77520581885936 10.3442
47.799556865477655 10.3337
47.823910205386 10.3228
47.84826584033272 10.2986
47.87281407745551 10.2772
47.89717432569297 10.2957
47.92153687423484 10.2623
47.94609208429692 10.2227
47.97045925671401 10.2163
47.99482873471275 10.2117
48.01920052005013 10.1113
48.04376504619224 10.1564
48.068141469543484 10.1473
48.09252020552573 10.0991
48.11690125590099 10.0809
48.1414751266064 10.0699
48.16586082917454 10.0437
48.19024885144316 10.0417
48.2146391951793 10.0142
48.239222439012764 9.993030000000001
48.26361744916137 9.965869999999999
48.28801478610016 9.97792
48.31241445160131 9.92967
48.337007097209366 9.9318
48.36141144338331 9.93245
48.38581812345755 9.90202
48.41022713920929 9.87138
48.434829215320704 9.85538
48.45924292604658 9.8598
48.48365897780325 9.82006
48.50807737237308 9.80436
48.532688907799276 9.76861
48.55711201168574 9.75269
48.581537463754074 9.75876
48.60615611725119 9.745619999999999
48.63058628942721 9.71306
48.65501881516546 9.700460000000001
48.6794536962573 9.710519999999999
48.70408185970339 9.65761
48.72852147531801 9.65709
48.75296345168211 9.59647
48.77740779059232 9.61391
48.80204549302823 9.61064
48.82649458091802 9.60523
48.85094603676547 9.55133
48.87539986237231 9.51206
48.90004713292306 9.49735
48.92450572200832 9.483239999999999
48.94896668628025 9.48071
48.97343002754588 9.472710000000001
48.99808689542115 9.440660000000001
49.02255501470614 9.439119999999999
49.04702551642794 9.40831
49.0714984023988 9.37153
49.096164896893235 9.37584
49.120642575466796 9.36969
49.145122643748394 9.32875
49.16960510355558 9.294260000000001
49.19428125404938 9.30151
49.2187685210852 9.287360000000001
49.243258185121555 9.29899
49.26794160167084 9.27552
49.2924360839405 9.25559
49.31693296869764 9.21241
49.34143225776915 9.18561
49.36612538195438 9.160789999999999
49.39062950396021 9.17515
49.41513603578346 9.14432
49.4396449792564 9.10235
49.46434784069503 9.111139999999999
49.488861631846454 9.12562
49.513377840166804 9.06767
49.537896467493745 9.05606
49.56260909589029 9.0117
49.587132585683285 9.00395
49.611658500018365 9.01862
49.636186840738596 8.984919999999999
49.66090926588511 8.97108
49.685442483902584 8.96979
49.70997813385706 8.92709
49.734516217597076 8.91568
49.75924846937352 8.88527
49.7837914452858 8.84499
49.80833686055187 8.841280000000001
49.83288471702571 8.88508
49.85762682540054 8.807889999999999
49.882179588965734 8.81179
49.9067347993235 8.75787
49.93129245833333 8.77233
49.95604445336378 8.76337
49.98060703442832 8.7594
50.005172069746266 8.72055
50.02993150438364 8.73038
50.05450147301533 8.73259
50.07907390151433 8.7057
50.10364879174981 8.680010000000001
50.12841816587289 8.640360000000001
50.1529980044635 8.63021
50.17758031042124 8.62915
50.20216508562089 8.627
50.22694442953363 8.56167
50.25153416817468 8.5643
50.27612638170508 8.55515
50.300721072005196 8.52437
50.325510416102105 8.52023
50.350110084975064 8.490219999999999
50.37471223628208 8.50347
50.39931687190919 8.4206
50.424116246675766 8.43905
50.44872587605249 8.414489999999999
50.47333799543065 8.43057
50.49795260670191 8.40489
50.52276204271512 8.330919999999999
50.54738166295838 8.37693
50.57200378079314 8.36793
50.596628398116835 8.34944
50.62144792604559 8.36651
50.646077567609396 8.337439999999999
50.670709714377715 8.31046
50.69553683636198 8.2732
50.72017401885922 8.24348
50.7448137122895 8.24944
50.76945591856022 8.25388
50.79429318636823 8.20787
50.818940443716784 8.193010000000001
50.84359021965163 8.21251
50.868242516085964 8.16191
50.893089960641895 8.1387
50.917747323549435 8.14955
50.94240721271973 8.10031
50.96706963007175 8.07121
50.99192728239342 8.08724
51.01659478166073 8.09493
51.04126481489051 8.06381
51.06593738400761 8.0199
51.090805275207074 8.00464
51.11548294172845 8.03403
51.14016314993547 8.00073
51.164845901758845 7.97192
51.18972406304274 7.9469
51.21441192780656 7.918810000000001
51.23910234200271 7.935230000000001
51.2637953075678 7.90286
51.288683770237945 7.88335
51.31338186432707 7.8871
51.33808251561888 7.84505
51.362978729967345 7.8308800000000005
51.387684521509755 7.816210000000001
51.41239287610203 7.78176
51.437103795691165 7.76652
51.46201036644977 7.77307
51.486726441956634 7.7449
51.51144508832545 7.7717
51.536166307509156 7.722110000000001
51.56108326624387 7.71138
51.58580965706056 7.6874
51.61053862657523 7.68312
51.635270176746864 7.6586
51.66019755512065 7.64612
51.68493429268881 7.62223
51.70967361681515 7.648039999999999
51.73441552946465 7.61781
51.759353359237934 7.61256
51.7841004750961 7.59575
51.80885018539685 7.573989999999999
51.833602492111254 7.536230000000001
51.8585508051424 7.5274600000000005
51.883308330926425 7.51777
51.90806845906181 7.4886800000000004
51.932831191525715 7.48988
51.95779001977161 7.45835
51.98255798721516 7.47325
52.00732856494335 7.38903
52.03229530577543 7.39345
52.057071130455945 7.3761600000000005
52.081849571391054 7.410939999999999
52.106630630568695 7.37286
52.13160794279417 7.31353
52.15639426492067 7.34916
52.18118321127822 7.35583
52.205974783860896 7.318980000000001
52.23096269971011 7.308730000000001
52.255759551287994 7.266210000000001
52.280559035098186 7.25117
52.30536115314103 7.24335
52.33035970494467 7.22288
52.35516711807904 7.23694
52.37997717147198 7.2207300000000005
52.40478986713005 7.213310000000001
52.42979908731974 7.2048
52.454617094216 7.17018
52.47943774942214 7.12443
52.50426105495102 7.07454
52.529280976059844 7.12874
52.554109609024096 7.09664
52.57894089837482 7.09151
52.60377484613117 7.0667100000000005
52.62880550079408 7.02985
52.65364479223379 6.99282
52.67848674816189 6.9846699999999995
52.70352547971946 6.9872
52.72837279155837 7.0182199999999995
52.753222773982785 6.99587
52.778075429022984 6.96802
52.80312495150885 6.99039
52.827982978797436 6.96197
52.85284368481815 6.9226399999999995
52.87770707160767 6.89651
52.90276741793998 6.88691
52.92763619336701 6.90625
52.952507655698504 6.868110000000001
52.977381806977576 6.82145
53.00245301017842 6.814610000000001
53.02733256653592 6.79858
53.052214817996074 6.82817
53.077099766608484 6.829089999999999
53.102181859804446 6.8197600000000005
53.127072229988265 6.780310000000001
53.15196530349892 6.75822
53.17686108239249 6.75397
53.20195409881522 6.70072
53.22685531582556 6.692069999999999
53.25175924441303 6.64999
53.27666588664027 6.647710000000001
53.30176985962693 6.65798
53.3266819565689 6.6311
53.35159677336455 6.6177600000000005
53.376514312083096 6.611039999999999
53.40162927507703 6.5935
53.42655228516116 6.5889999999999995
53.45147802340193 6.55058
53.47660125628886 6.5318
53.50153247842639 6.53205
53.52646643496923 6.52654
53.55140312799818 6.530390000000001
53.576537409691696 6.53257
53.60147960336152 6.503419999999999
53.626424539786164 6.524369999999999
53.65137222105307 6.45636
53.67651758529126 6.4654
53.70147078399681 6.4156
53.72642673383343 6.41487
53.75138543689533 6.43389
53.776541917524526 6.42543
53.801506154876755 6.36734
53.826473151763246 6.3592699999999995
53.851442910284916 6.31976
53.87661054126026 6.33445
53.9015858509782 6.328869999999999
53.92656392866066 6.33145
53.95154477641532 6.27041
53.976723591801296 6.25411
54.00171000771266 6.251869999999999
54.02669920004598 6.282430000000001
54.051691170915745 6.2439
54.076881204886796 6.21631
54.101878760928514 6.2626800000000005
54.12687910187696 6.1868
54.152077577768296 6.16021
54.1770835166946 6.1816699999999996
54.20209224691339 6.1893199999999995
54.22710377055121 6.12491
54.25231352511594 6.17561
54.27733066384342 6.13114
54.30235060239643 6.11565
54.32737334290836 6.10199
54.35259441062629 6.03061
54.377622783395324 6.03019
54.40265396455061 6.06657
54.42768795623251 6.022959999999999
54.45292037169559 5.98369
54.477960012857906 5.9515400000000005
54.50300247099511 5.9425300000000005
54.52804774825457 5.94396
54.55329154616743 5.8705
54.57834249018678 5.88331
54.6033962597977 5.83491
54.6284528571545 5.8263
54.653708072335164 5.838369999999999
54.67877035378786 5.76708
54.70383546947698 5.76169
54.72890342156389 5.74671
54.7541700889442 5.73546
54.77924374251975 5.6959599999999995
54.8043202390049 5.66038
54.82959552413022 5.66639
54.8546777351945 5.692159999999999
54.87976279569621 5.64827
54.90485070780914 5.64159
54.930137506558005 5.57308
54.95523115074295 5.64949
54.98032765308844 5.5858
55.005427015775496 5.57391
55.03072536339621 5.54996
55.05583047570572 5.507969999999999
55.080938454927676 5.50033
55.10604930325027 5.47979
55.131359235107396 5.503480000000001
55.15647585066083 5.46566
55.181595341907496 5.42661
55.20671771104285 5.35466
55.232039262617704 5.3169699999999995
55.25716741665048 5.33833
55.28229845518636 5.3868599999999995
55.30743238042802 5.28506
55.33276558731939 5.24675
55.357905315183636 5.26586
55.383047936390035 5.19318
55.40819345314859 5.20901
55.433538351073295 5.21643
55.458689688238415 5.20763
55.483843927614096 5.12717
55.509197623043605 5.10334
55.53435769621134 5.07535
55.55952067826466 5.0313300000000005
55.5846865714265 5.01348
55.61005202069737 5.0366
55.63522376553902 4.99972
55.66039842818645 4.95793
55.68557601087004 4.98188
55.7109532500271 4.882619999999999
55.73613670233794 4.9073400000000005
