TT I
1.2716486653135266 6.98372
1.2939594142134223 7.02728
1.3162702121660406 6.531569999999999
1.3385810600174564 6.3308599999999995
1.3608919586137629 6.36707
1.383202908801069 6.26318
1.405513911425503 5.66285
1.4278249673332093 5.91619
1.4501343378461518 5.75378
1.4724455028545926 5.781969999999999
1.4947567236847858 5.90442
1.517068001182951 5.16739
1.5393793361953272 4.5178400000000005
1.5616907295681737 4.901
1.5840021821477681 5.39248
1.60631369478041 5.0366599999999995
1.6286252683124185 4.93449
1.6509369035901333 4.97969
1.6732468618895553 4.5331
1.695558623192809 4.50113
1.7178704487808514 4.51224
1.7401823395001077 4.20581
1.7625012545597203 4.48537
1.7848028405262486 4.9001
1.8071218901122095 4.33685
1.8294236121921872 4.63478
1.8517427996910911 4.4656
1.8740620574440425 4.6494800000000005
1.8963639900671978 4.7473
1.9186833908139995 4.63748
1.9409854680117449 4.9016
1.9633050151394713 4.34857
1.9856246367570705 4.46074
2.0079269371922672 4.33637
2.03024671027244 3.8894699999999998
2.0525491637446027 4.47363
2.074869091674931 4.7157599999999995
2.097171701569106 4.66844
2.1194917877373847 4.98874
2.141811954326636 4.60666
2.164114805233074 4.62795
2.186435135143035 5.12539
2.208738150935709 5.59218
2.231058647554722 7.15125
2.2533792288321184 7.38525
2.275682498336085 5.76464
2.298003251406138 5.48539
2.3203066942619714 5.32602
2.3426276225136022 4.91833
2.3649486396617507 5.64544
2.387252348930071 5.87446
2.4095735463442893 6.16835
2.4318774374315884 5.94643
2.4541988185014043 6.1971099999999995
2.476502894794693 6.527819999999999
2.498824462909887 7.45012
2.521146125856138 7.2743899999999995
2.5434504863470337 7.30381
2.5657723414244717 7.77197
2.588076895590662 8.3591
2.610398946189713 8.5465
2.6327210958598384 8.40333
2.6550259469304716 8.26941
2.6773482972090137 8.30617
2.6996533504259 8.68096
2.7219759047039602 9.11675
2.744298562293959 8.57558
2.7666039251246595 8.75528
2.7889267918020164 9.20091
2.8112323652516555 8.7792
2.833555444408179 8.41568
2.8558786311183852 9.00334
2.8781845268938557 9.20406
2.9005079311721484 9.24288
2.9228140460410397 9.06833
2.9451376712799635 9.73655
2.967444008632326 9.56725
2.9897678582247247 10.1513
3.0120918213106695 10.0914
3.0343984987899373 10.8171
3.0567226913198637 10.9571
3.079029599759726 11.4188
3.101354025127254 12.2739
3.123678568232338 13.2988
3.145985829517914 13.2422
3.16831061055229 13.8955
3.1906181112775593 14.5182
3.212943133635653 15.0151
3.2352682779763207 15.0254
3.2575761442691227 14.8804
3.2799015350264273 15.3668
3.302209649240067 16.1378
3.3245352898092655 16.3783
3.3468436553365257 16.6931
3.369169549113219 17.0837
3.3914955708171384 17.9076
3.413804319727358 18.4423
3.4361305997334863 18.1682
3.4584396084414553 18.9355
3.4807661501462652 19.194000000000003
3.503092824025881 20.1603
3.5254022288463154 19.8136
3.5477291695206588 20.6558
3.5700388426251948 20.8846
3.5923660534916446 21.4436
3.6146934007816114 23.3129
3.637003482731501 28.8435
3.6593311053109985 31.5691
3.681641464033634 27.295
3.7039693653009733 24.296999999999997
3.726297407241705 24.1682
3.7486081875460804 24.2448
3.7709365132734978 24.8044
3.793247578841633 25.4387
3.8155761917550093 25.3289
3.8378875459837216 25.5633
3.8602164494827234 25.6694
3.882545499606844 26.5654
3.9048572932539183 27.261
3.9271866390645718 27.5708
3.9494987298666713 28.2971
3.971828374764527 28.5059
3.9941581705403255 29.0966
4.016470713506008 29.5547
4.038800813471445 30.0957
4.061113662089144 30.6719
4.0834440696459176 31.5152
4.105774632334751 31.0568
4.128087945865126 32.1062
4.150418821249301 32.5237
4.172732448931298 33.1163
4.195063640413578 34.0685
4.2173775856475215 35.2286
4.239709096631102 38.6654
4.262040768704612 54.7985
4.284355196706267 68.1261
4.306687193387355 59.7112
4.329001947444346 44.7591
4.35133427213731 40.5215
4.373666762177566 40.1169
4.395982011761091 40.3995
4.418314834921175 41.4349
4.44063041906622 42.9944
4.4629635787515625 45.1416
4.4852969080429785 46.3222
4.5076130004776225 46.0783
4.529946671403969 46.1451
4.552263106909177 46.6456
4.574597122877047 47.8685
4.596931312711224 49.0724
4.619248269273446 49.9479
4.6415828092605835 51.2845
4.663900117405352 52.351000000000006
4.686235010953232 53.0241
4.708552674085913 54.597
4.730887924602802 55.9314
4.753223354952695 57.1088
4.775541557023902 58.4168
4.797877349456786 60.2347
4.820195915032126 62.2514
4.842532072957498 63.351000000000006
4.864868414979744 65.0706
4.88718753227192 66.9432
4.909524244902505 68.9941
4.931843734218147 70.6948
4.954180820867835 72.568
4.976518095879839 75.5229
4.998838149695359 78.2276
5.021175803844231 81.6804
5.043496238205739 84.5074
5.065834274903528 87.9378
5.088172504230693 91.8406
5.1104935158799565 96.227
5.132832132875765 104.001
5.155153533596801 116.527
5.1774925416746225 135.333
5.199814334878411 221.97
5.2221537374521505 712.7460000000001
5.244493338631803 2238.14
5.266815727034316 6899.39
5.289155727832427 13551.9
5.311478517248165 9817.15
5.333818921080011 3527.22
5.356159527788849 783.6389999999999
5.3784829252032536 244.748
5.400823940070432 154.819
5.423147747031976 126.295
5.445489173474152 113.906
5.467830807066149 108.148
5.490155234831516 103.715
5.512497285125229 100.14
5.534822130975162 98.0578
5.557164601388673 96.2809
5.579489868738879 93.6608
5.601832762690846 92.3234
5.6241758697774475 91.4118
5.646501775867269 90.1208
5.668845311622074 88.9176
5.691171647754637 88.9558
5.713515615597765 87.70200000000001
5.735859800852677 86.7908
5.758186788542988 85.8863
5.780531411018185 86.0204
5.802858837297399 85.3373
5.825203900414495 85.1356
5.8475491852224 84.9731
5.869877275883075 85.7188
5.892223006467101 86.4365
5.914551544266608 87.1818
5.936897724049891 89.3618
5.959244129804903 93.2016
5.981573344815301 103.852
6.0039202049061 155.024
6.026249875609095 347.68699999999995
6.04859719346037 777.954
6.070927323278297 1925.55
6.093275102315365 4326.67
6.115623113320588 5632.43
6.137953938319995 3526.06
6.160302415650845 1064.39
6.182633708324452 246.483
6.2049826554078376 110.046
6.227331838745022 86.7615
6.249663839443684 79.2753
6.27201349767565 75.0017
6.294345974611799 73.2784
6.316696111167083 72.7803
6.339046488263839 71.5645
6.361379686074702 67.9301
6.383730546639482 66.1465
6.406064229255215 64.2533
6.428415576718203 63.7923
6.450749747566656 62.8464
6.47310158535871 62.1724
6.495453669698332 60.9677
6.517788579421056 60.3516
6.540141159237969 59.6801
6.562476565766648 58.8717
6.5848296444934045 57.9216
6.607182974060425 57.7503
6.6295191323281015 57.2597
6.651872965955752 56.9774
6.6742096296068985 58.4809
6.6965639707294615 63.3146
6.71891856698715 64.8273
6.741255995248479 60.4273
6.763611104154477 56.5872
6.785949046381137 54.6617
6.808304671371482 54.1675
6.8306605557940046 53.5983
6.852999275508618 53.4451
6.875355681171544 53.1336
6.897694923437771 52.8333
6.92005185377892 52.882
6.9423916220322655 52.505
6.964749080490181 51.8511
6.987106804399774 51.9665
7.009447368180821 51.967
7.031805625367033 51.7763
7.054146723727803 51.6087
7.076505517631004 51.7287
7.098864581288365 51.6043
7.121206488070854 51.1924
7.143566093607822 51.0037
7.165908543567245 51.2196
7.188268694426048 51.0776
7.2106291193438095 50.8522
7.232972390625943 50.8027
7.255333366030969 51.5339
7.277677189091925 55.7496
7.300038718428332 62.7209
7.322400526130865 62.8458
7.344745183422596 56.7162
7.367107550224791 52.2632
7.389452767901992 51.3257
7.411815697249891 51.0328
7.434161478756298 50.4951
7.456524974096713 51.1996
7.478888753837185 51.8328
7.501235387657368 53.993
7.523599738562711 63.1313
7.545946944825532 80.4995
7.568311870344528 87.0081
7.5906770845765665 74.7362
7.613025156078678 60.2703
7.635390950099687 54.4144
7.657739602662809 52.5733
7.680105979923558 52.2501
7.702472650212829 52.6671
7.724822180948224 52.733999999999995
7.747189439655568 52.513999999999996
7.769539560075357 52.6827
7.791907410653562 53.0897
7.81425812420825 52.9891
7.836626570110925 53.4132
7.858995315087906 54.1956
7.881346924933401 54.3308
7.903716270417482 54.5757
7.926068482028405 55.0067
7.948438431475253 55.7209
7.9708086843180235 56.2917
7.993161805171116 56.5169
8.015532667162402 56.5684
8.037886398416653 57.6324
8.060257873014221 57.9525
8.082629655331942 58.5805
8.104984308787587 59.2677
8.127356708900503 60.1181
8.149711981398308 61.5917
8.172085002766314 62.7214
8.194458336181368 63.2401
8.216814543847752 63.6331
8.23918850371002 64.592
8.26154533906492 65.453
8.283919928836452 66.9491
8.306277395339652 67.7734
8.328652618483376 69.0863
8.351028159736202 70.8148
8.373386579575245 72.418
8.395762759396959 73.9232
8.418121819038275 76.3402
8.440498640894003 79.8971
8.462875785192262 84.9779
8.485235811156207 92.4442
8.507613602688501 122.867
8.529974277114228 206.53900000000002
8.552352719347912 323.611
8.574731488360351 550.823
8.59709314210385 1034.11
8.619472567021075 1820.78
8.64183487789147 2289.95
8.664214962183097 1992.85
8.686577933647762 1109.52
8.708958680784317 427.72
8.731339760774953 178.162
8.753703729764451 110.038
8.77608547780821 94.4079
8.798450116065078 89.9064
8.820832535634787 87.4418
8.843215292401656 86.0216
8.865580941199045 84.7134
8.887964374703538 83.4506
8.910330701447199 82.5226
8.932714815164482 82.256
8.955099270424924 81.6962
8.977466620733543 80.8961
8.999851761421976 80.2249
9.022219798361645 79.2761
9.04460562795561 79.2932
9.066991803441677 78.7861
9.089360876979615 78.5353
9.111747746589993 78.4789
9.13411751544971 78.8159
9.156505082664324 78.6201
9.178875550323522 79.7204
9.20126381862328 83.2586
9.223652438908596 99.2527
9.246023961427412 125.512
9.26841328802173 136.636
9.290785518039224 119.689
9.313175554425882 96.7283
9.335565947154315 83.2159
9.357939245086508 80.063
9.380330352834827 79.2785
9.40270436697103 79.1444
9.425096193225055 79.1991
9.447488380180165 79.9294
9.469863475295412 80.2634
9.492256385987508 80.0416
9.514632206018318 80.6455
9.537025843935714 80.7101
9.559402392368193 81.2063
9.581796761000229 82.1408
9.604191496441521 82.5437
9.626569144158516 83.0964
9.648964615551032 84.3983
9.671343000390081 85.2478
9.693739211225699 85.9571
9.716135793237463 86.2466
9.738515290448102 86.7655
9.760912617143402 87.7571
9.783292860202891 88.8654
9.805690935076182 90.0967
9.828089385495742 90.5581
9.850470754023561 92.05
9.872869957865444 94.5461
9.89525208097539 97.2912
9.917652041736662 101.34
9.940052382417589 104.581
9.962435644102392 112.723
9.984836746950979 140.107
10.007220771957746 206.549
10.029622640473708 304.902
10.052007432299963 453.82599999999996
10.074410069984072 707.5169999999999
10.096813093716005 1138.38
10.119199042482517 1715.94
10.141602840636468 2073.89
10.163989564971628 1720.08
10.186394141051062 1023.43
10.208799107559706 467.228
10.231187001965623 210.40200000000002
10.253592751657669 126.429
10.275981430388155 106.569
10.298387966769793 102.118
10.320794897965431 100.99
10.343184759907361 99.4752
10.36559248305461 97.6055
10.387983138083852 96.4411
10.410391656691655 96.836
10.432800574501677 104.632
10.455192425893369 122.12700000000001
10.47760214443012 147.153
10.499994797678786 185.015
10.522405320453982 250.31900000000002
10.54479877906917 361.45300000000003
10.567210109595656 488.598
10.5896218454736 578.337
10.612016518879773 534.077
10.634429067781074 379.195
10.656824555333241 225.108
10.679237920773568 142.05100000000002
10.701651695961992 108.639
10.724048411481384 96.5885
10.746463008485165 87.9169
10.768860546937125 82.3238
10.791275969274796 79.0938
10.81369180576079 77.9549
10.836090585366925 76.6805
10.858507252467449 75.6648
10.88090686379991 74.5445
10.903324365036394 73.5016
10.925724811614439 72.2808
10.948143150509463 72.6122
10.970561909719066 71.4315
10.992963615930844 70.7142
11.015383218085756 69.7706
11.037785768347074 68.8547
11.06020621697282 68.2935
11.082627090322113 67.9452
11.105030913430326 67.2428
11.12745263854165 66.6328
11.149857314510728 66.1563
11.172279894912576 66.9206
11.194702904450653 66.2816
11.217108866490921 65.4966
11.239532736615194 64.9481
11.26193956033512 64.3005
11.284364294577085 63.8301
11.306789462371718 63.2819
11.329197585398376 62.8792
11.351623622610898 62.7192
11.37403261614354 62.0269
11.396459526308487 61.6605
11.418869393879497 61.5965
11.441297180532617 61.4264
11.463725406927658 61.2612
11.486136592353875 61.0935
11.508565700543707 60.2718
11.530977768845315 60.5212
11.553407762368774 60.4941
11.575838200059769 60.3569
11.598251599479612 60.0738
11.620682927815501 59.7912
11.64309721895548 59.8442
11.665529441478206 59.5464
11.687962112597958 59.3197
11.710377748130886 59.3065
11.732811318753434 59.1311
11.755227854859067 59.0937
11.777662328529495 58.9094
11.800079768750786 58.7692
11.822515149015453 58.9621
11.844950984084935 59.4171
11.867369787303163 59.2307
11.889806534289491 59.7676
11.912226250487029 62.7125
11.934663912939751 67.9642
11.9571020346363 72.9429
11.979523127133968 73.6127
12.001962169624331 69.9872
12.024384183972964 65.3325
12.046824150809913 64.1429
12.069264581333726 67.3792
12.091687985297767 73.0917
12.11412934550045 80.779
12.136553680195208 92.8821
12.158995973632788 114.47399999999999
12.181438735204349 141.192
12.20386447284199 172.207
12.226308172985636 200.585
12.24873485024193 201.09799999999998
12.271179492516982 169.963
12.293607112949127 130.611
12.316052700916226 94.3078
12.338498763250042 72.3586
12.360927805303868 63.6676
12.383374818673879 61.3826
12.405804812803074 60.4492
12.428252780773262 60.2787
12.45070122756722 60.354
12.473132656675375 60.0882
12.49558206341869 60.6199
12.518014453510101 60.4929
12.540464823770117 60.4438
12.562915677315177 60.7056
12.58534951575545 60.9043
12.607801338171472 60.6733
12.630236146511358 61.7219
12.652688941369085 62.5501
12.675124723177234 63.2272
12.697578494048786 63.3548
12.720032754458185 63.1229
12.742470003354093 63.1298
12.764925245138771 63.5361
12.787363476431278 63.9209
12.809819703166806 64.2004
12.83227642391173 64.7503
12.854716135692716 65.2746
12.877173846755147 66.476
12.899614549869717 66.6239
12.9220732548287 67.4394
12.94453245827299 67.9647
12.966974655289818 68.9423
12.989434858002571 69.4729
13.011878055298721 70.3639
13.034339260862497 71.4383
13.056800969391883 72.9789
13.079245674017244 75.6548
13.101708390774869 77.7678
13.12415410463411 82.11399999999999
13.146617833206086 90.4873
13.169064559883248 102.193
13.191529303857127 116.568
13.213994557076367 135.889
13.236442809902437 166.13099999999997
13.258909083908291 214.75400000000002
13.28135835851934 279.658
13.30382565690295 358.994
13.326293469022952 423.056
13.348744283242008 438.61400000000003
13.371213125129904 376.783
13.39366497011003 280.99
13.416134845360597 186.095
13.438605238843131 127.581
13.46105863690397 101.448
13.483530069144786 96.6693
13.505984506951902 102.801
13.528456981549432 113.45299999999999
13.550929978879088 126.243
13.573385983253365 145.549
13.595860028340867 177.32
13.618317081455832 226.102
13.64079217790333 287.158
13.663250283359057 349.95599999999996
13.685726434770173 385.171
13.708203115221277 362.74
13.730662806148091 284.186
13.75314054697177 204.916
13.775601299246777 138.873
13.798080104050406 99.8158
13.820559442405358 83.8778
13.843021793671388 78.4381
13.865502201420897 76.2945
13.887965623051947 76.0351
13.910447103807167 74.8278
13.932929122629764 73.5408
13.955394156785959 73.2505
13.977877254034569 72.4024
14.000343367582113 71.6542
14.022827546871707 71.0973
14.045294743423524 70.6724
14.06778000837062 70.1926
14.090265817715476 70.4671
14.112734645763819 72.1295
14.13522154619454 75.4123
14.157691466286913 78.6042
14.180179461423874 79.0458
14.202668005486178 76.2765
14.22513957064374 72.0048
14.247629214846473 69.0661
14.270101881097517 67.6466
14.29259262906496 66.8316
14.315083930490205 66.6216
14.337558255389705 66.4852
14.360050666019726 66.3122
14.382526101071944 65.86
14.405019624534942 65.498
14.427513705993134 65.2289
14.449990813291825 65.2976
14.47248601302899 65.2257
14.49496423954951 65.3424
14.517460561197822 65.3371
14.539939910570322 65.1481
14.562437357763558 65.1451
14.58493536931253 65.5347
14.607416409993311 65.4714
14.62991555254159 65.7418
14.652397725157423 66.102
14.674898002342799 66.0806
14.697398848433282 66.0832
14.719882725991326 66.8289
14.74238471217934 67.4291
14.764869730765593 68.9613
14.787372860692983 72.4767
14.809876564079925 78.0363
14.83236330125751 83.9742
14.854868153850365 91.6436
14.877356041159485 103.44
14.899862046604186 118.37700000000001
14.922351087688757 142.167
14.944858249632887 174.255
14.967365991421232 204.118
14.989856770231246 227.03
15.012365673994204 225.05
15.03485761569738 199.136
15.05736768508665 158.674
15.07987833888692 123.508
15.102372032001655 94.05
15.124883856909658 77.7548
15.14737872204565 70.9906
15.169891721717274 67.9805
15.192405310371893 67.1188
15.214901940621196 66.4951
15.237416709527137 65.55
15.259914520936249 65.1791
15.282430473753607 64.7425
15.304947020131227 64.2155
15.327446610371178 63.968
15.349964346154254 63.3921
15.372465126703139 63.2826
15.394984055556009 63.208
15.417486030076159 63.0191
15.44000615566487 62.7175
15.462526881230803 62.5669
15.485030653812652 62.5894
15.507552581617434 62.2939
15.530057557334603 62.5915
15.55258069104857 62.4344
15.575104429329837 62.6131
15.597611216864632 62.3047
15.620136166564563 62.4019
15.6426441664095 62.9601
15.665170331202765 63.9751
15.687697105158826 66.7016
15.710206930593545 70.6927
15.732734925158933 75.5365
15.755245972089478 81.234
15.77777519094324 88.7992
15.800287463046663 99.9889
15.822817909869592 116.79899999999999
15.84534897229804 139.037
15.867863089299354 166.36599999999999
15.890395385222186 189.025
15.912910736597423 203.078
15.935444269699861 194.196
15.957978423016485 172.31900000000002
15.980495633101265 135.46
16.003031029129367 104.618
16.02554948280019 81.373
16.048086125229432 69.914
16.070623392487107 65.578
16.09314371869582 63.4438
16.11568223789321 61.4513
16.13820381691126 59.7704
16.160743591742527 58.6012
16.183283996022084 57.7619
16.205807461423195 56.93600000000001
16.228349126881973 56.3021
16.25087385432698 56.1812
16.27341678466365 55.6563
16.29594277784926 55.2573
16.31848697676433 54.7523
16.341031811604868 54.4835
16.36355971058487 54.5501
16.3861058195587 54.1221
16.40863499352978 53.7596
16.431182380342005 53.5597
16.453730407713202 53.3833
16.476261501364792 52.9507
16.498810812136167 52.7569
16.52134319004079 52.7202
16.54389378792203 52.5575
16.566445031001553 52.5016
16.588979342490088 52.3478
16.61153187824822 52.1133
16.634067483263312 52.2362
16.656621315414416 52.1033
16.679175797408888 51.6146
16.701713349928728 51.8112
16.72426913389191 51.9132
16.74680798922351 51.8202
16.76936507887444 51.8173
16.791905240734874 51.9229
16.814463639794468 51.7978
16.837022695210294 51.8979
16.859564824093756 52.1006
16.882125194503903 52.4178
16.904668639217885 53.0029
16.927230328348003 53.5825
16.949792678493612 54.1813
16.972338104193863 53.9496
16.994901778652235 53.4627
17.017448529496576 53.1891
17.040013531998152 53.1498
17.06257920018044 53.1142
17.0851279459922 53.6454
17.107694947817667 54.7322
17.130245028099072 55.5666
17.15281336730298 56.9557
17.17536478578733 58.4078
17.19793446610687 60.1038
17.220504818648422 62.9051
17.243058251703697 65.8743
17.265629950971032 70.7822
17.288184731571736 76.6902
17.310757781306908 81.5062
17.33333150794385 83.3713
17.355888317140174 81.8342
17.37846339986244 77.2641
17.401021565958885 71.4453
17.42359800851343 64.813
17.44617513265564 60.6922
17.468735341390783 58.1331
17.491261035594565 56.7065
17.51396340099364 56.2674
17.536490463869136 56.2317
17.559018209820174 56.0614
17.58154663977963 56.2893
17.604251766089718 56.4328
17.626781572227713 56.6129
17.64931206518155 56.751000000000005
17.671843245885103 57.2059
17.69455114821572 57.3507
17.717083712612634 57.9862
17.739616967569667 58.7241
17.762150914021706 59.4004
17.78486160749854 59.6686
17.807396945166804 60.1878
17.829932977143503 60.3765
17.85246970436452 60.6535
17.875183204129467 62.033
17.897721330097664 64.4951
17.920260154126645 67.2301
17.942799677153296 69.9904
17.9655159983646 73.4935
17.988056927677544 77.9907
18.010598558807683 84.5557
18.033140892692916 93.5128
18.05586005052525 105.117
18.07840379824407 117.859
18.10094825154059 130.408
18.12366954819864 140.312
18.146215420998306 143.566
18.16876200220057 138.243
18.191309292745153 124.05799999999999
18.214033452627167 108.428
18.236582170236648 94.6329
18.259131600016456 86.345
18.281681742907335 83.8009
18.304408781233683 86.7773
18.32696035875955 92.2417
18.349512652227624 97.8488
18.372065662579683 103.90799999999999
18.394795594587553 105.852
18.41735004715306 104.029
18.43990521943684 97.9108
18.46246111238171 88.6086
18.485193953325208 78.5744
18.507751296070428 70.3193
18.530309362314178 65.057
18.552868153000343 62.4044
18.57560391815056 60.8066
18.59816416623245 60.2543
18.620725141597372 59.7253
18.643286845190268 58.8819
18.666025549835414 58.0177
18.688588718427933 57.3831
18.711152618092243 57.1833
18.73389353884365 56.9746
18.75645890921984 56.3791
18.77902501351406 56.0986
18.801591852673102 56.0527
18.824335739722738 55.7901
18.846904057212626 55.577
18.8694731124168 55.3704
18.89204290628315 55.3997
18.914789774966803 54.9487
18.937361054791623 54.5826
18.959933076131318 54.6163
18.982505839934877 54.3388
19.00525570560582 54.4231
19.027829963004184 54.256
19.05040496572238 54.193000000000005
19.072980714710468 54.1032
19.095733592739563 54.0969
19.11831084296757 54.3054
19.140888842324735 54.782
19.16346759176222 54.9997
19.18622349753803 55.6543
19.208803755869358 56.6453
19.231384767143577 57.8497
19.253966532312948 59.3155
19.276725481241822 61.5522
19.29930876296784 64.6383
19.3218928014549 68.0433
19.34465404436217 71.8713
19.36723960516257 74.59100000000001
19.389825925592426 75.9825
19.412413006605938 75.0836
19.43517731967805 71.8013
19.457765930683355 67.5714
19.48035530514408 62.9172
19.50294544401556 58.8706
19.525712842708348 55.4622
19.54830451925909 53.6468
19.570896963095727 52.2406
19.593490175174704 51.7926
19.616260674962184 51.6676
19.638855432416964 51.2026
19.661450960992624 51.3859
19.68404726164677 51.2265
19.706820878021247 51.0071
19.729418731756834 51.0164
19.752017360452857 50.8446
19.77461676506804 51.1183
19.797393513540218 50.9515
19.819994478951667 51.0667
19.84259622316767 51.6621
19.8651987471481 52.1694
19.887978643247177 52.4171
19.91058273574792 53.0525
19.933187610901943 53.7609
19.955969879466828 54.8076
19.97857632894404 56.1142
20.00118356396599 57.4811
20.023791585494575 59.5953
20.046577028914875 62.6958
20.069186632506966 65.4186
20.091797025500632 68.0296
20.114408208858933 69.4415
20.137196842715273 69.5443
20.159809615886765 68.0403
20.18242318232135 65.6927
20.20503754298326 63.0451
20.227829382875154 61.2504
20.250445341109344 60.4988
20.27306209647285 60.9059
20.29567964993108 62.3977
20.31847471147704 63.495
20.34109387027612 64.5801
20.363713830075454 64.4488
20.386334591841646 63.3835
20.409132890679302 60.8881
20.431755265564437 57.7603
20.454378445325528 54.7626
20.477002430930366 52.2096
20.499803982716553 50.5304
20.522429589228004 49.2762
20.54505600449589 48.8215
20.567683229489194 48.6261
20.590488049900088 48.3101
20.61311690359731 48.2498
20.63574656993626 48.1241
20.658553853717297 47.718
20.681185154618298 47.5535
20.703817271080066 47.5485
20.72645020407368 47.3756
20.749260783967177 47.6581
20.771895359337133 47.7588
20.794530754161617 47.661
20.817166969412938 47.5305
20.83998086114876 47.5506
20.86261872660049 47.0436
20.885257415405402 46.8411
20.90789692853701 46.5984
20.930714147864748 46.5427
20.953355319030678 46.5534
20.97599731745334 46.7083
20.99864014410749 46.3922
21.021460706796564 46.3945
21.044105199328826 46.4497
21.06675052302631 46.75
21.089396678865015 47.0611
21.112220600704806 47.3358
21.134868430275347 47.6095
21.15751709492456 47.8832
21.180166595629693 48.1314
21.202993892429635 48.5832
21.22564507473034 49.2202
21.24829709602816 49.3796
21.27112693608965 49.7843
21.293780644891275 49.595
21.316435195634053 49.3317
21.339090589297417 48.5975
21.361923832041875 48.0831
21.384580921090404 47.268
21.407238856007325 46.8191
21.429897637773326 46.4866
21.45273429906592 46.5935
21.475394784108598 46.6862
21.498056118951983 46.5529
21.520718304578022 46.6399
21.543558400304388 46.718
21.566222297108816 46.696000000000005
21.58888704765135 46.75899999999999
21.61155265291521 46.9618
21.63439619898156 47.4655
21.657063523335786 47.7274
21.67973170537063 48.3653
21.7024007460706 48.8492
21.72524775840385 49.6091
21.747918526116475 50.4634
21.770590155457388 51.331
21.79326264741238 52.8424
21.816113141960237 54.7225
21.838787368860547 56.8605
21.861462461341976 59.1483
21.884315579735777 61.6559
21.90699241312273 63.2316
21.92967011506078 64.35600000000001
21.95234868653799 64.2676
21.9752053151131 63.3753
21.997885635446785 61.4119
22.020566828293532 59.199
22.04324889464272 57.158
22.066109049404666 55.6153
22.088792872571794 55.2416
22.111477572219204 55.1016
22.1341631493376 55.4881
22.157026846313123 55.5454
22.179714188221507 55.0155
22.202402410582668 53.6685
22.22509151438863 51.9972
22.24795876962584 50.4961
22.270649646204486 49.2939
22.293341407213727 48.3868
22.316034053646906 47.7137
22.338904883215342 47.3557
22.36159931041458 47.1545
22.38429462602756 46.9617
22.40699083104897 46.8772
22.429865251039757 46.7991
22.452563244831367 46.8435
22.47526213102522 46.7126
22.49813925616515 46.8065
22.520839937143307 46.647
22.543541513520587 46.8149
22.56624398629403 46.5947
22.589124730075895 46.5806
22.611829005656723 46.6662
22.63453418063466 46.6685
22.657240256008077 47.0068
22.680124634582935 47.2097
22.70283252079775 47.4552
22.725541310413075 47.781000000000006
22.74825100442868 48.0538
22.771139033969575 48.6423
22.79385054687155 48.788000000000004
22.81656296718292 49.2177
22.83927629590484 50.1163
22.862167992606945 51.0054
22.88488314827121 52.2761
22.907599215359284 53.3402
22.93031619487366 54.91
22.953211574954405 55.9534
22.975930389478226 56.9937
22.998650119445763 57.3422
23.02137076586092 56.9196
23.044269845560063 55.6616
23.06699233506288 53.9592
23.089715744034912 52.1355
23.112617610931565 50.3065
23.135342869061212 48.8427
23.158069049684816 47.776
23.1807961538087 47.385
23.20370174880544 47.2383
23.226430710184808 47.0185
23.249160598093425 46.9902
23.271891413539002 46.961000000000006
23.294800752937697 47.0855
23.31753343374794 47.4124
23.340267045128353 47.5392
23.36300158808808 47.8686
23.38591468821339 48.3974
23.408651104658304 48.9723
23.431388455719986 49.4801
23.454126742409 50.1761
23.4770436196085 51.2507
23.499783787914662 52.5836
23.522524894889884 53.6701
23.54526694154616 55.1763
23.56818761219047 56.3459
23.59093154860734 57.2199
23.613676427751283 57.698
23.636422250635754 57.4231
23.659346731118656 55.9303
23.68209445191868 53.7833
23.704843119509587 51.4435
23.72759273490623 49.5032
23.750521041644767 47.562
23.77327256312355 46.3216
23.796025035462787 45.3275
23.818956224555475 44.7017
23.841710609113413 44.4217
23.86446594758979 44.1579
23.887222241002014 44.1189
23.910157285144578 43.655
23.932915498962537 43.4223
23.955674670778713 43.4211
23.978434801611975 43.2821
24.001373717286125 43.2061
24.024135776723917 43.1287
24.046898798245582 43.0108
24.06966278287146 42.9396
24.092605586582614 42.6518
24.115371508023642 42.5182
24.1381383956401 42.3175
24.16090625045381 42.2561
24.183852958731244 42.3163
24.206622758582608 42.1432
24.229393528706886 41.8784
24.252165270127392 42.0829
24.27511589952438 42.1475
24.297889594216997 41.6714
24.32066426328598 41.5627
24.34343990775613 41.5831
24.36639447485003 41.467
24.38917208083877 41.4907
24.41195066531332 41.4061
24.43490819850244 41.3686
24.457688750692377 41.3654
24.48047028445616 41.4523
24.503252800821233 41.4709
24.526214300784112 41.6181
24.548998793132213 41.6051
24.57178427117417 41.4215
24.59457073593893 41.5931
24.617536219319863 41.5151
24.64032466834748 41.6059
24.663114107195035 41.4464
24.685904536893013 41.2009
24.708874020360852 41.004
24.731666442613744 41.0412
24.754459858818787 40.9257
24.777254270007962 40.6177
24.80022777025625 40.5325
24.82302418230472 40.5891
24.845821592443674 40.6666
24.86862000170663 40.5815
24.891597535453727 40.4862
24.914397953892728 40.7375
24.93719937456671 40.5912
24.96000179851076 40.782
24.98298338249997 40.8737
25.00578782394922 41.221000000000004
25.028593271784167 41.2042
25.05157790644186 41.4952
25.07438537804115 41.8055
25.097193859145293 42.1927
25.120003350792075 42.4289
25.142992065061257 42.6573
25.165803588823465 43.0078
25.18861612625217 43.5103
25.211429678386736 43.5451
25.234422489079968 43.6171
25.257238081693636 43.6887
25.280054692141732 43.8104
25.3028723214652 43.8632
25.325869245420463 44.0219
25.348688923599397 43.9839
25.371509623787006 43.9384
25.394331347025812 43.8906
25.41733240110666 43.4066
25.440156181590016 42.818999999999996
25.46298098826268 42.0641
25.48580682216873 41.478
25.50881202326435 40.7259
25.53163992281684 40.2991
25.55446885274561 39.9564
25.577298814096377 39.5963
25.600308179121807 39.4302
25.623140214533745 39.5223
25.64597328451537 39.3601
25.66898578564376 39.0892
25.691820936010206 39.0818
25.714657124097695 39.0706
25.737494350954734 39.0539
25.760511045684957 38.997
25.783350361364224 39.1391
25.806190718969255 39.1842
25.82903211955018 39.2926
25.852053024868923 39.3089
25.874896522722523 39.2131
25.897741066713106 39.1136
25.920586657892454 39.3129
25.943611790812668 39.4435
25.966459487728237 39.5738
25.989308234998564 39.7106
26.01215803367705 39.955
26.03518741123814 40.061
26.05803932412957 40.3894
26.080892291600094 40.4011
26.10374631470478 40.4727
26.12677995397268 40.7791
26.14963609978026 40.8033
26.172493304397875 40.4192
26.19535156888223 40.2265
26.218389486949604 39.8482
26.241249882640123 39.3843
26.26411134137826 39.0788
26.28715248187403 38.9893
26.31001607820869 38.7262
26.3328807407756 38.6177
26.35574647063438 38.8946
26.37879191991473 38.8358
26.401659795896734 38.7383
26.424528742360263 38.7761
26.447398760366614 38.9888
26.470448535598294 39.0722
26.49332070826805 39.3355
26.516193955675355 39.6866
26.53906827888316 39.8027
26.562122397260108 40.1843
26.584998883685063 40.5513
26.607876449110325 40.9071
26.63075509460056 41.18600000000001
26.65381357334404 41.3989
26.67669439061878 41.3922
26.699576291163382 41.3531
26.722459276044212 41.2169
26.745522132402975 40.8891
26.768407297649354 40.6356
26.791293550442003 40.2941
26.814180891848974 40.1156
26.837248143099337 39.6539
26.860137673466657 39.5702
26.88302829566349 39.2025
26.90592001075963 39.1718
26.92899167420566 38.9158
26.951885586870763 38.6157
26.974780595655517 38.343
26.99785558178161 38.1252
27.020752794605112 38.0332
27.043651106772522 37.7215
27.06655051935668 37.6791
27.089629948036183 37.4397
27.112531573292053 37.4694
27.135434302194138 37.5262
27.158338135817015 37.2876
27.181422024430987 37.3639
27.204328079372566 37.2879
27.22723524226965 37.2713
27.250143514198573 37.3367
27.273231880156334 37.2146
27.296142382065014 37.181
27.319053996245536 37.0972
27.341966723775965 37.0813
27.365059584515222 37.236999999999995
27.38797455070062 37.3244
27.410890633481237 37.157
27.433807833936918 37.1701
27.456905206923906 37.3725
27.47982465472398 37.3389
27.502745223449743 37.4324
27.525666914182825 37.5059
27.548768816912457 37.4768
27.571692763693633 37.464
27.59461783573812 37.2357
27.617723149491244 37.1468
27.640650484125285 37.1332
27.66357894728264 37.0304
27.686508540048052 37.0223
27.709618414237887 36.8762
27.732550278321757 36.771
27.755483275279115 36.7251
27.778417406196485 36.7355
27.801531858397514 36.7797
27.824468269376716 36.6583
27.847405817586786 36.5919
27.870344504116094 36.8239
27.893463551932008 36.8933
27.916404527281053 37.0664
27.93934664422563 37.1878
27.962289903855886 37.4215
27.98541356491974 37.7364
28.00835912214229 37.9728
28.03130582533231 38.183
28.054253675581805 38.3447
28.077381967556104 38.3174
28.100332124185126 38.3282
28.123283431160893 38.3171
28.146235889577238 38.1264
28.169368830154156 37.8971
28.192323603752033 37.729
28.215279532083304 37.5049
28.238415973016764 37.2285
28.261374223145094 36.9995
28.284333631303806 36.6546
28.307294198589954 36.654
28.330435319167677 36.3543
28.353398217078915 36.0857
28.376362277420153 35.6369
28.39932750129032 35.5928
28.422473319286713 35.4146
28.44544088262495 35.3287
28.468409612800283 35.1794
28.491379510913497 34.9358
28.51453004413313 34.8095
28.53750229057244 34.9093
28.56047570826344 34.6925
28.583450298308804 34.7816
28.606605564586562 34.6196
28.629582511831156 34.6177
28.65256063474956 34.4841
28.675539934446338 34.4571
28.698699951647605 34.504
28.72168161743193 34.2845
28.74466446331978 34.3596
28.767648490417624 34.3905
28.790813276438353 34.306
28.813799678527303 34.4106
28.836787265157085 34.3186
28.859955641890075 34.3242
28.882945610203045 34.4202
28.905936766392035 34.2066
28.928929111566863 34.1688
28.952102288520145 34.1921
28.975097024308607 34.1098
28.998092952423807 33.9703
29.021090073977508 33.8385
29.04426806913204 33.8379
29.067267590245258 33.5987
29.090268308143695 33.529
29.11327022394099 33.71
29.13645305530891 33.3897
29.159457379627167 33.3495
29.18246290519685 33.1461
29.20546963313352 33.1373
29.22865731875826 33.2631
29.25166646419296 33.2552
29.27467681535305 33.1353
29.29768837335608 33.1076
29.320880931312562 33.2395
29.34389491580634 33.2045
29.366910110507334 33.101
29.38992651653503 33.2684
29.41312396492981 33.2002
29.436142806456754 33.0353
29.45916286268059 33.0612
29.48236399319994 33.0071
29.50538649169417 32.8484
29.528410208259935 32.7757
29.55143514402014 32.5347
29.574641196749695 32.437
29.597668583816574 32.3848
29.6206971934585 32.1948
29.64372702680042 32.0897
29.666938019934474 31.874000000000002
29.689970313635285 31.8476
29.713003834422636 31.9006
29.73603858342347 31.8748
29.759254535188578 31.5923
29.78229175361658 31.6339
29.80533020365064 31.8165
29.82836988641968 31.8442
29.85159081507472 31.7685
29.874632976355343 31.7353
29.89767637376955 31.7471
29.920721008448314 31.46
29.9439469322847 31.5418
29.96699405457564 31.5207
29.9900424175358 31.565
30.013092022298157 31.519000000000002
30.03632295963995 31.445999999999998
30.059375061131373 31.4028
30.08242840783577 31.4491
30.105483000888153 31.4936
30.128718970092244 31.3985
30.151776069006917 31.3745
30.17483441768648 31.4446
30.198074175317235 31.5031
30.221135036724256 31.5433
30.24419715131772 31.3586
30.267260520236203 31.2316
30.290505341942243 31.3749
30.313571232750228 31.4072
30.336638381310948 31.2813
30.35970678876503 31.1972
30.38295669299435 31.2174
30.40602763151657 31.2122
30.429099832366074 31.1618
30.452173296685572 31.0696
30.47542830191959 30.9655
30.498504306502497 31.0894
30.521581577995562 31.1404
30.544660117543582 31.1552
30.56792024229725 31.19
30.59100133132069 31.1427
30.614083691845494 31.2357
30.637167325018545 31.2919
30.660432587840603 31.4147
30.683518779717886 31.2578
30.70660624769615 31.3727
30.729694992924372 31.4026
30.75296541239743 31.4037
30.77605672557558 31.3825
30.799149319462742 31.4436
30.8224236211637 31.2105
30.845518789950724 31.0489
30.868615242910597 31.0109
30.891712981195973 30.8099
30.91499247215866 30.7002
30.938092794619365 30.7683
30.96119440587579 30.6241
30.984297307082752 30.5744
31.00758200598383 30.4834
31.030687500658694 30.4283
31.053794288760695 30.3116
31.076902371446767 30.1349
31.100192296997445 30.274
31.12330298246119 30.2302
31.14641496599209 30.0815
31.169528248749216 30.0892
31.19282341969534 29.9747
31.215939314557186 30.0561
31.239056512134788 30.0994
31.262175013589378 30.011
31.28547544871168 29.9244
31.30859657161541 29.9678
31.331719001892175 29.967
31.35484274070538 29.9734
31.378148458819545 29.9318
31.401274828443725 30.0353
31.424402510106933 30.0569
31.447712205419993 30.0941
31.470842524931633 29.9649
31.493974159989783 30.0086
31.51710711176168 30.0397
31.54042212308802 30.0108
31.563557722100917 29.8825
31.586694641341655 29.8142
31.609832881979628 29.7104
31.63315322823208 29.6778
31.656294125521327 29.4888
31.679436347728515 29.4963
31.70257989602529 29.4185
31.725905596152327 29.3199
31.74905181052835 29.315
31.772199354521323 29.3694
31.79534822930507 29.2717
31.818679302290967 29.2997
31.84183085259981 29.3108
31.864983737233473 29.2412
31.88813795736804 29.3573
31.911474422233013 29.274
31.934631327356435 29.3321
31.9577895715215 29.1815
31.980949155906522 29.2795
32.004291031706956 29.3165
32.027453310562606 29.1732
32.05061693318573 29.0064
32.07396288236386 29.0407
32.09712920658542 28.9874
32.12029687812702 28.8261
32.14346589817093 28.8064
32.166817291729984 28.7154
32.18998902288583 28.6498
32.21316210610336 28.5706
32.23633654256711 28.4196
32.259693399663725 28.4237
32.282870556771144 28.3147
32.30604907069099 28.3334
32.329228942610065 28.2915
32.35259128243769 28.1546
32.375773884550505 28.1244
32.398957848235646 28.0813
32.422143174682176 28.07
32.445511016471215 27.8872
32.468699082679954 27.8288
32.49188851523011 27.8017
32.51507931531304 27.8071
32.538452678331 27.8052
32.56164622776311 27.7626
32.58484114831493 27.592
32.60803744118015 27.6418
32.631416344731896 27.631999999999998
32.654615396551876 27.6085
32.67781582427913 27.590999999999998
32.701198898634416 27.4733
32.72440209253756 27.3771
32.747606665947124 27.3865
32.77081262006088 27.3016
32.79420126883317 27.3629
32.81740999876112 27.2965
32.840620112999424 27.2227
32.86383161274818 27.2138
32.88722585534586 27.0851
32.91044014056596 27.2266
32.933655814909734 27.1683
32.95687287957963 27.1128
32.98027273544904 27.1588
33.00349259526636 27.0813
33.026713849030116 27.0768
33.04993649794511 27.0143
33.073341986570746 26.9842
33.09656744032826 26.9958
33.11979429286444 26.9629
33.14302254538647 26.9272
33.166433686291185 26.9552
33.18966475336992 26.9367
33.212897224069096 26.8706
33.23613109959831 26.8745
33.259547912343415 26.7762
33.2827846121627 26.8238
33.306022720453775 26.6818
33.32926223842861 26.6346
33.352684742614166 26.7547
33.37592709463173 26.5817
33.399170859982064 26.5939
33.422597648419426 26.4368
33.44584425514446 26.3438
33.46909227885668 26.3672
33.4923417207723 26.2526
33.51577423505344 26.2128
33.539026528130385 26.16
33.56228024307245 26.1655
33.585535381098246 26.0035
33.60897364093058 25.9793
33.63223163992385 25.901
33.6554910656699 25.8915
33.678751919389796 25.8669
33.702195944520106 25.7837
33.72545966903325 25.8433
33.74872482519663 25.6607
33.771991414233746 25.741999999999997
33.79544122444841 25.7726
33.81871069412428 25.6459
33.84198160035767 25.6048
33.86525394437455 25.7127
33.88870955949969 25.5708
33.911984794020626 25.5056
33.93526147001624 25.5072
33.958539588715006 25.4861
33.98200102861669 25.4343
34.0052820477047 25.3477
34.02856451319451 25.3576
34.05203033759056 25.1857
34.07531571090147 25.2108
34.09860253431845 25.2364
34.121890809074316 25.1235
34.145362493118924 25.1351
34.16865368561615 25.075
34.191946333164054 25.0063
34.21524043699793 24.9574
34.23871800066799 24.9682
34.26201503218366 24.8325
34.28531352370466 24.8577
34.30861347646881 24.7615
34.33209693978188 24.7533
34.3553998301885 24.7545
34.378704185565205 24.6862
34.402010007152356 24.6176
34.42549939016683 24.5804
34.44880815937748 24.4989
34.472118398533134 24.51
34.49543010887669 24.4178
34.51892543169198 24.3906
34.54224009966052 24.4206
34.56555624255917 24.3959
34.58887386163339 24.2737
34.61237514439016 24.2203
34.6356957311114 24.2444
34.65901779775809 24.2519
34.68252356662995 24.1989
34.705848608458616 24.1951
34.72917513396849 24.0867
34.75250314440949 23.9977
34.77601490857862 23.9619
34.799345904259795 23.9332
34.82267838863559 24.0121
34.846012362958525 23.9603
34.869530142679984 23.8455
34.89286711232212 23.8493
34.91620557568269 23.8682
34.93954553401677 23.8388
34.9630693495876 23.7793
34.986412313340814 23.7986
35.00975677584668 23.7409
35.033102738362956 23.6366
35.05663261012228 23.5662
35.0799815881786 23.651999999999997
35.10333207003229 23.5744
35.12668405694369 23.568
35.150220005273056 23.5869
35.17357501786656 23.6393
35.19693153931268 23.5203
35.220289570874385 23.4182
35.24383161619786 23.4203
35.267192683604904 23.4297
35.290555264930376 23.3443
35.314101899412165 23.4054
35.33746752422433 23.3673
35.36083466676374 23.3328
35.38420332829803 23.2677
35.407756095629054 23.2515
35.43112781085063 23.2668
35.45450104888391 23.2915
35.477875810999194 23.2786
35.50143473172161 23.2118
35.52481255774625 23.2296
35.54819191167777 23.1589
35.57157279478914 23.1405
35.595137889488406 23.1323
35.61852184675279 23.0544
35.641907337029984 22.9517
35.665294361595684 22.9872
35.68886565090076 22.9064
35.7122557598848 22.848000000000003
35.73564740699838 22.8059
35.759040593519934 22.8279
35.78261809810353 22.8473
35.80601437933051 22.7219
35.829412203814705 22.6104
35.85281157283719 22.5151
35.876395313415884 22.5922
35.8997977874528 22.4929
35.92320180988546 22.5217
35.946790244133936 22.5103
35.97019737933222 22.3971
35.993606066789866 22.3704
36.01701630779276 22.4037
36.04061101440684 22.348000000000003
36.06402437852291 22.4102
36.08743930005611 22.3086
36.1108557802951 22.2429
36.13445678011326 22.27
36.15787639383515 22.2512
36.18129757014299 22.1778
36.20472031032821 22.0855
36.22832762423364 22.0598
36.25175350829375 22.1607
36.275180960119776 21.9901
36.298609981005924 22.0042
36.32222362992669 22.0074
36.34565580510207 21.9895
36.36908955323448 21.9321
36.39252487562093 21.7976
36.416144880530226 21.8468
36.43958336764275 21.8506
36.463023432914625 21.7913
36.486465077645676 21.6353
36.51009145956204 21.7807
36.53353627947859 21.7832
36.55698268276811 21.7255
36.58043067073321 21.5953
36.60406345072071 21.5058
36.62751462435344 21.5285
36.65096738658405 21.6056
36.67460498210655 21.516
36.69806093788647 21.4319
36.72151848619297 21.394000000000002
36.744977628333636 21.3845
36.76862165890998 21.2884
36.79208400512205 21.3255
36.81554794910557 21.3467
36.83901349217101 21.1926
36.862663978991606 21.1923
36.88613273667352 21.1683
36.90960309738324 21.1176
36.933075062434064 21.1182
36.95673202673572 21.053
36.98020721697122 21.0603
37.003684015502365 20.963
37.027162423645365 20.9453
37.050825886711465 20.9552
37.07430753063053 20.866999999999997
37.09779078812467 20.8508
37.121275660513014 20.9009
37.144945643673694 20.8135
37.16843376245278 20.7118
37.19192350009803 20.7831
37.215414857931435 20.7378
37.239091382563885 20.6536
37.262585997426164 20.6762
37.28608223645736 20.653000000000002
37.309763684451696 20.5669
37.33326318851098 20.5442
37.356764320726555 20.4955
37.380267082425526 20.5539
37.40395510942588 20.4159
37.42746114683234 20.3474
37.45096881771841 20.3994
37.474478123414166 20.3551
37.49817275092816 20.3209
37.52168534303452 20.2446
37.54519957395567 20.2121
37.568715445024665 20.2245
37.592416694607714 20.1399
37.61593586281424 20.2136
37.63945667518264 20.2918
37.66297913304891 20.137999999999998
37.68668702630454 20.0866
37.710212792059274 20.0072
37.733740207334854 19.9365
37.757269273470364 20.0321
37.780983832050374 19.9567
37.80451621684926 19.9075
37.82805025654007 19.8663
37.851585952464795 19.8384
37.8753071980695 19.8474
37.89884622345676 19.7589
37.92238690911902 19.7207
37.94611318753442 19.6772
37.969657210779765 19.6365
37.99320289834801 19.6692
38.016750251586465 19.6465
38.04048325513017 19.5694
38.06403395679343 19.5238
38.087586328183946 19.517
38.11114037065203 19.4951
38.13488012115898 19.4767
38.1584375229181 19.3782
38.181996599821 19.3221
38.205557353221124 19.3365
38.229303872575656 19.3065
38.2528679961576 19.3768
38.27643380031219 19.3791
38.30000128639589 19.2239
38.32375459653193 19.2302
38.34732546371299 19.2636
38.37089801690786 19.1052
38.39447225747609 19.077
38.418232380377425 19.0792
38.441810012983396 19.0984
38.46538933705673 19.1261
38.488970353960084 19.074
38.51273731166058 18.9637
38.536321731567014 18.8902
38.55990784840681 18.921
38.58367995004091 18.8861
38.60726947812959 18.7517
38.63086070726198 18.8849
38.654453638806274 18.7892
38.678232613930824 18.8005
38.70182896773327 18.7204
38.72542702806741 18.6768
38.7490267963045 18.6376
38.77281266709232 18.6637
38.79641586862214 18.639
38.8200207821842 18.5416
38.843627409152944 18.5728
38.86742019782782 18.5638
38.891030269149255 18.475
38.914642058016156 18.4826
38.938255565806124 18.3897
38.96205529464307 18.4004
38.98567225787121 18.3802
39.00929094417078 18.413
39.03291135492255 18.3523
39.05671804624804 18.3715
39.080341923549106 18.2716
39.103967529460334 18.2479
39.127594865365744 18.1991
39.15140854155791 18.1616
39.17503935514948 18.204
39.19867190290282 18.1299
39.22249083587951 18.1057
39.24612686969409 18.0546
39.269764641845306 18.0429
39.293404153722804 17.9852
39.317230110864074 17.9261
39.34087311998506 17.9186
39.36451787301696 17.9504
39.388164371352595 17.8887
39.41199737518003 17.813
39.43564738196752 17.8387
39.45929913825317 17.8163
39.48295264543308 17.7739
39.506792718520884 17.7451
39.530449745387216 17.6981
39.55410852735203 17.7086
39.57776906581474 17.7151
39.60161623079 17.6505
39.625280300200025 17.6291
39.64894613032202 17.6691
39.67261372255866 17.6244
39.6964680021016 17.5446
39.72013913657293 17.5032
39.74381203738292 17.4357
39.76748670593756 17.4532
39.79134812278169 17.4323
39.81502634488497 17.4117
39.83870633896685 17.3677
39.862388106436654 17.3479
39.88625668336918 17.3507
39.90994201572829 17.3177
39.933629125719285 17.2517
39.957503091207826 17.2426
39.9811937746168 17.2243
40.00488623990914 17.1917
40.02858048850006 17.1661
40.05246165409549 17.1017
40.076159487492085 17.0217
40.099859108448875 17.0789
40.123560518384345 17.0545
40.1474489070226 17.0201
40.171153913178564 16.9773
40.194860712584955 16.949
40.2185693066637 16.9253
40.242464941335314 16.8469
40.26617714307655 16.8929
40.289891143772046 16.7963
40.3136069448471 16.8038
40.33750984859743 16.8151
40.3612292688043 16.7628
40.3849504936829 16.7407
40.40867352466194 16.7461
40.43258372059144 16.6672
40.45631038219906 16.7474
40.48003885420956 16.6935
40.503769138055105 16.6113
40.52768664931955 16.5857
40.55142057531802 16.5775
40.57515631746428 16.5533
40.599079334038514 16.5413
40.62281872700477 16.4927
40.64655994043941 16.4032
40.67030297578061 16.3659
40.69423334835778 16.4714
40.71798004609188 16.4115
40.74172857006355 16.3959
40.76547892171441 16.3987
40.7894166736039 16.3385
40.813170699248566 16.257
40.83692655691388 16.2299
40.86068424804498 16.2559
40.884629402612525 16.1954
40.908390779366385 16.1574
40.932153993938 16.132
40.95591904777605 16.1571
40.979871628443995 16.058
41.003640379561936 16.0105
41.02741097430883 16.028
41.05118341413683 16.0452
41.075143444384416 15.9979
41.098919593177826 16.011
41.1226975914255 15.9605
41.14647744058318 15.9407
41.170444943946755 15.8609
41.19422851378379 15.9124
41.218013938914645 15.8841
41.24198706625173 15.8057
41.26577622087193 15.7146
41.289567235177785 15.7796
41.31336011063129 15.682
41.337340752422875 15.7
41.361137369129835 15.7007
41.38493585138705 15.6344
41.40873620066004 15.6636
41.43272438060107 15.5715
41.45652848292052 15.5515
41.48033445666918 15.5359
41.50414230331616 15.5118
41.528138045159764 15.5378
41.551949656675205 15.4879
41.575763145513235 15.4437
41.59957851314666 15.4064
41.62358184070442 15.3835
41.64740098505737 15.3427
41.6712220126409 15.3059
41.69504492493139 15.2782
41.71905586207357 15.3203
41.74288256296395 15.2582
41.766711153007456 15.2345
41.79054163368412 15.1946
41.814560204340054 15.224
41.838394485526365 15.1748
41.86223066180303 15.1119
41.88625497706819 15.0815
41.910094962812 15.0551
41.93393684811168 15.0589
41.95778063445365 14.9912
41.981812625263366 14.9575
42.00566023303407 14.9689
42.029509746323676 14.9554
42.05336116662236 14.9498
42.077400857069705 14.9345
42.10125611078846 14.9516
42.12511327600405 14.9142
42.14897235421036 14.8632
42.173019768448455 14.7732
42.19688269209613 14.7738
42.22074753323349 14.7504
42.24461429335818 14.7687
42.268669455600495 14.7107
42.292540073217886 14.7058
42.31641261433284 14.6964
42.34028708044675 14.6415
42.36435001496739 14.6218
42.38822835065557 14.5606
42.41210861586426 14.5711
42.4359908120986 14.5528
42.46006154323262 14.4728
42.48394762115317 14.4618
42.507835634632315 14.462
42.531912233047436 14.4568
42.55580413732265 14.4209
42.579697981698 14.4109
42.60359376768525 14.3638
42.62767820545945 14.3744
42.65157789440821 14.334000000000001
42.67547952952185 14.3222
42.699383112316 14.2906
42.72347541395347 14.2335
42.74738291190531 14.2207
42.771292362102166 14.174000000000001
42.795203766063516 14.205
42.819303956130405 14.1443
42.843219287476536 14.0871
42.86713657716324 14.1068
42.89105582671383 14.027999999999999
42.91516392983864 14.0339
42.939087119032166 14.025
42.963012272677304 13.9846
42.98693939230129 13.9722
43.01105543317513 13.9295
43.034986504731386 13.9362
43.05891954686589 13.9418
43.08285456110972 13.8903
43.10697856448665 13.8315
43.130917542983475 13.8555
43.15485849820081 13.8634
43.17880143167367 13.7786
43.20293342237094 13.7642
43.226880332449 13.7121
43.25082922540554 13.7185
43.27496722682525 13.709000000000001
43.29892010567796 13.6376
43.32287497204102 13.633
43.34683182745632 13.5699
43.370977859791836 13.6049
43.39493871351105 13.6223
43.41890156092628 13.5657
43.44286640358341 13.5214
43.46702049182749 13.5038
43.49098934522816 13.4638
43.51496019852649 13.4487
43.5389330532723 13.4304
43.56309522248204 13.3642
43.58707210044314 13.3752
43.61105098451946 13.3406
43.63503187626491 13.3582
43.659202151562134 13.3291
43.68318707902681 13.2991
43.70717401884041 13.2682
43.731162972560874 13.245999999999999
43.75534137913236 13.1971
43.779334381108384 13.2163
43.803329401683186 13.2007
43.82732644241872 13.1846
43.8515130055166 13.1227
43.87551410707659 13.0809
43.89951723350145 13.1012
43.923709934595614 13.0665
43.94771713129917 13.0186
43.97172635758096 12.9895
43.99573761501002 13.0221
44.0199385169922 12.981
44.04395385732619 12.9559
44.067971233533086 12.8931
44.09199064718605 12.9125
44.11619977548961 12.8826
44.14022328470671 12.8285
44.16424883610785 12.9284
44.18827643127035 12.8723
44.21249381139513 12.8177
44.236525514814076 12.7982
44.26055926674478 12.7784
44.28459506876863 12.7706
44.3088207262813 12.6862
44.33286064928722 12.6447
44.35690262714919 12.645
44.38094666145278 12.6231
44.4051806219871 12.6633
44.42922879003185 12.5756
44.45327901929361 12.542
44.477331311362136 12.5051
44.501573600619416 12.485
44.525630039221795 12.5184
44.54968854541895 12.4707
44.573937102200176 12.4535
44.5979997645541 12.4498
44.622064499300315 12.4083
44.64613130803592 12.3556
44.67038823869318 12.3973
44.69445921643748 12.3989
44.718532272981385 12.2659
44.742607409926194 12.3018
44.76687274034801 12.344000000000001
44.79095205918753 12.2601
44.81503346325094 12.2508
44.839116954143876 12.2549
44.86339071028742 12.2001
44.88747839599524 12.1887
44.91156817336837 12.1765
44.93566004401666 12.1391
44.959942251908146 12.1209
44.984038330325966 12.0955
45.00813650686762 12.0407
45.03223678314731 12.048
45.05652746888232 12.0619
45.08063196592069 11.9927
45.104738567558705 11.9692
45.128847275414856 11.9707
45.15314646515866 11.8832
45.17725940679741 11.91
45.20137445952892 11.8902
45.22568004865265 11.9115
45.24979934496396 11.875
45.27392075725247 11.8501
45.29804428714431 11.8405
45.322358426247604 11.8009
45.346486212804315 11.7943
45.370616121861914 11.77
45.39474815505086 11.7599
45.41907087049246 11.7172
45.4432071734666 11.687000000000001
45.46734560548283 11.7239
45.49148616817604 11.6932
45.51581748638564 11.6597
45.5399623320197 11.6003
45.56410931325473 11.5803
45.58825843173002 11.6314
45.61259837920865 11.5495
45.636751793816 11.5303
45.66090735060093 11.4955
45.68506505120716 11.4792
45.7094136545275 11.4762
45.73357566449271 11.4041
45.75773982322992 11.4233
45.78190613238733 11.3959
45.806263418194064 11.3643
45.83043404997326 11.3979
45.85460683713677 11.357000000000001
45.87897065658495 11.3145
45.90314777634752 11.2709
45.92732705646868 11.2946
45.9515084986045 11.2258
45.97588104735473 11.282
46.00006683541565 11.2273
46.02425479047904 11.2305
46.04844491420549 11.2217
46.0728262191024 11.2225
46.09702070211635 11.1761
46.12121735879483 11.100999999999999
46.14541619080294 11.1258
46.169806278764455 11.072000000000001
46.194009483459034 11.0585
46.21821486849841 11.0795
46.24242243555223 11.0236
46.266821333570014 10.9871
46.29103328674601 10.9696
46.31524742696538 10.9843
46.33946375590237 10.9722
46.36387149104216 10.9209
46.38809221957392 10.8907
46.41231514186606 10.8761
46.436540259597464 10.8509
46.460956858999374 10.8316
46.48518638983522 10.8542
46.509418121166966 10.7954
46.533652054678114 10.761
46.55807754555709 10.7026
46.58231590571962 10.7263
46.60655647313217 10.7206
46.630988654873654 10.6554
46.655233659129024 10.6786
46.67948087571551 10.6898
46.70373030632484 10.6369
46.72817142736393 10.6257
46.752425308428684 10.6367
46.77668140861147 10.6467
46.80093972960865 10.5487
46.82538981736788 10.5257
46.849652602470904 10.5341
46.87391761349769 10.51
46.8981848521493 10.4826
46.9226439341274 10.4486
46.946915650573224 10.4334
46.97118959976749 10.4181
46.99546578341598 10.4099
47.019933887188216 10.4635
47.04421456235744 10.3955
47.06849747711879 10.3555
47.09278263318286 10.3369
47.11725978640143 10.3021
47.14154944775105 10.2833
47.165841355555656 10.2669
47.1901355115306 10.2611
47.214621741924994 10.265
47.23892041698887 10.2408
47.26322134538975 10.2189
47.28771440635075 10.1882
47.31201986422527 10.2023
47.33632758061436 10.1244
47.360637557241866 10.1096
47.38513974410611 10.0899
47.40945426407847 10.0741
47.43377104948137 10.0269
47.45809010204344 10.0673
47.48260144275502 10.037
47.506925052572285 10.0046
47.53125093475548 10.001
47.55557909103813 9.97124
47.58009961361992 9.9247
47.60443234110732 9.93409
47.62876734791564 9.938239999999999
47.65310463578333 9.926810000000001
47.6776343683373 9.88964
47.7019762413987 9.88992
47.72632040075572 9.841000000000001
47.75066684815169 9.77922
47.77520581885936 9.79208
47.799556865477655 9.78426
47.823910205386 9.80841
47.84826584033272 9.79175
47.87281407745551 9.727780000000001
47.89717432569297 9.73263
47.92153687423484 9.738380000000001
47.94609208429692 9.68769
47.97045925671401 9.67665
47.99482873471275 9.67735
48.01920052005013 9.65335
48.04376504619224 9.63359
48.068141469543484 9.6495
48.09252020552573 9.6014
48.11690125590099 9.566889999999999
48.1414751266064 9.54802
48.16586082917454 9.51613
48.19024885144316 9.50235
48.2146391951793 9.52887
48.239222439012764 9.48197
48.26361744916137 9.44453
48.28801478610016 9.49403
48.31241445160131 9.45331
48.337007097209366 9.4174
48.36141144338331 9.45485
48.38581812345755 9.397789999999999
48.41022713920929 9.37577
48.434829215320704 9.3801
48.45924292604658 9.33849
48.48365897780325 9.33186
48.50807737237308 9.27834
48.532688907799276 9.29602
48.55711201168574 9.25474
48.581537463754074 9.25082
48.60615611725119 9.24734
48.63058628942721 9.23746
48.65501881516546 9.22702
48.6794536962573 9.198839999999999
48.70408185970339 9.20503
48.72852147531801 9.1578
48.75296345168211 9.11416
48.77740779059232 9.11956
48.80204549302823 9.14025
48.82649458091802 9.07777
48.85094603676547 9.042819999999999
48.87539986237231 9.03084
48.90004713292306 9.04084
48.92450572200832 9.00191
48.94896668628025 9.00993
48.97343002754588 8.99807
48.99808689542115 8.96455
49.02255501470614 8.92685
49.04702551642794 8.9104
49.0714984023988 8.90575
49.096164896893235 8.90798
49.120642575466796 8.85058
49.145122643748394 8.79805
49.16960510355558 8.84212
49.19428125404938 8.84384
49.2187685210852 8.80327
49.243258185121555 8.77721
49.26794160167084 8.80454
49.2924360839405 8.760069999999999
49.31693296869764 8.749419999999999
49.34143225776915 8.71303
49.36612538195438 8.65822
49.39062950396021 8.67506
49.41513603578346 8.66716
49.4396449792564 8.660730000000001
49.46434784069503 8.67527
49.488861631846454 8.61646
49.513377840166804 8.60784
49.537896467493745 8.60872
49.56260909589029 8.568760000000001
49.587132585683285 8.54767
49.611658500018365 8.53443
49.636186840738596 8.5027
49.66090926588511 8.49819
49.685442483902584 8.50515
49.70997813385706 8.47965
49.734516217597076 8.49422
49.75924846937352 8.45764
49.7837914452858 8.40559
49.80833686055187 8.40811
49.83288471702571 8.40255
49.85762682540054 8.39529
49.882179588965734 8.367
49.9067347993235 8.305489999999999
49.93129245833333 8.31298
49.95604445336378 8.31356
49.98060703442832 8.30157
50.005172069746266 8.28883
50.02993150438364 8.28222
50.05450147301533 8.24468
50.07907390151433 8.224910000000001
50.10364879174981 8.21573
50.12841816587289 8.19048
50.1529980044635 8.204930000000001
50.17758031042124 8.18848
50.20216508562089 8.16497
50.22694442953363 8.12834
50.25153416817468 8.12317
50.27612638170508 8.08562
50.300721072005196 8.05461
50.325510416102105 8.07559
50.350110084975064 8.03496
50.37471223628208 8.05367
50.39931687190919 8.00557
50.424116246675766 8.01171
50.44872587605249 8.02208
50.47333799543065 8.02723
50.49795260670191 7.97536
50.52276204271512 7.93192
50.54738166295838 7.923089999999999
50.57200378079314 7.9428600000000005
50.596628398116835 7.894260000000001
50.62144792604559 7.90343
50.646077567609396 7.87219
50.670709714377715 7.86683
50.69553683636198 7.852469999999999
50.72017401885922 7.843160000000001
50.7448137122895 7.811910000000001
50.76945591856022 7.8101
50.79429318636823 7.8007100000000005
50.818940443716784 7.76222
50.84359021965163 7.740489999999999
50.868242516085964 7.735
50.893089960641895 7.737019999999999
50.917747323549435 7.716989999999999
50.94240721271973 7.705010000000001
50.96706963007175 7.68728
50.99192728239342 7.689539999999999
51.01659478166073 7.68305
51.04126481489051 7.68878
51.06593738400761 7.654660000000001
51.090805275207074 7.57839
51.11548294172845 7.6032
51.14016314993547 7.577889999999999
51.164845901758845 7.57654
51.18972406304274 7.5233
51.21441192780656 7.525860000000001
51.23910234200271 7.51685
51.2637953075678 7.4919
51.288683770237945 7.49776
51.31338186432707 7.463589999999999
51.33808251561888 7.436780000000001
51.362978729967345 7.42126
51.387684521509755 7.45478
51.41239287610203 7.38938
51.437103795691165 7.3839
51.46201036644977 7.36152
51.486726441956634 7.340660000000001
51.51144508832545 7.35353
51.536166307509156 7.35885
51.56108326624387 7.31077
51.58580965706056 7.3107
51.61053862657523 7.30403
51.635270176746864 7.273739999999999
51.66019755512065 7.269489999999999
51.68493429268881 7.23003
51.70967361681515 7.270510000000001
51.73441552946465 7.217230000000001
51.759353359237934 7.1939
51.7841004750961 7.1919
51.80885018539685 7.177789999999999
51.833602492111254 7.14336
51.8585508051424 7.130560000000001
51.883308330926425 7.13393
51.90806845906181 7.111489999999999
51.932831191525715 7.08487
51.95779001977161 7.0937600000000005
51.98255798721516 7.076960000000001
52.00732856494335 7.060460000000001
52.03229530577543 7.039
52.057071130455945 7.014539999999999
52.081849571391054 7.02769
52.106630630568695 7.027989999999999
52.13160794279417 6.9825
52.15639426492067 6.96517
52.18118321127822 6.94455
52.205974783860896 6.9520100000000005
52.23096269971011 6.9046
52.255759551287994 6.934939999999999
52.280559035098186 6.931030000000001
52.30536115314103 6.90355
52.33035970494467 6.85117
52.35516711807904 6.827139999999999
52.37997717147198 6.814019999999999
52.40478986713005 6.82115
52.42979908731974 6.780239999999999
52.454617094216 6.78091
52.47943774942214 6.77889
52.50426105495102 6.76824
52.529280976059844 6.7575
52.554109609024096 6.74833
52.57894089837482 6.76092
52.60377484613117 6.7225600000000005
52.62880550079408 6.7045699999999995
52.65364479223379 6.652360000000001
52.67848674816189 6.626289999999999
52.70352547971946 6.61906
52.72837279155837 6.634930000000001
52.753222773982785 6.62635
52.778075429022984 6.634689999999999
52.80312495150885 6.61385
52.827982978797436 6.57027
52.85284368481815 6.56153
52.87770707160767 6.5575
52.90276741793998 6.53014
52.92763619336701 6.564360000000001
52.952507655698504 6.52615
52.977381806977576 6.53071
53.00245301017842 6.49606
53.02733256653592 6.44462
53.052214817996074 6.46133
53.077099766608484 6.451890000000001
53.102181859804446 6.46404
53.127072229988265 6.45648
53.15196530349892 6.39173
53.17686108239249 6.3705099999999995
53.20195409881522 6.35727
53.22685531582556 6.397880000000001
53.25175924441303 6.4168199999999995
53.27666588664027 6.33436
53.30176985962693 6.3028
53.3266819565689 6.33207
53.35159677336455 6.30478
53.376514312083096 6.30539
53.40162927507703 6.31445
53.42655228516116 6.26495
53.45147802340193 6.22294
53.47660125628886 6.256869999999999
53.50153247842639 6.22255
53.52646643496923 6.2007699999999994
53.55140312799818 6.20211
53.576537409691696 6.2236199999999995
53.60147960336152 6.19188
53.626424539786164 6.16756
53.65137222105307 6.13839
53.67651758529126 6.11806
53.70147078399681 6.092569999999999
53.72642673383343 6.0595300000000005
53.75138543689533 6.07447
53.776541917524526 6.05357
53.801506154876755 6.04941
53.826473151763246 6.08844
53.851442910284916 6.00491
53.87661054126026 6.012919999999999
53.9015858509782 6.02604
53.92656392866066 5.99282
53.95154477641532 5.97927
53.976723591801296 5.995080000000001
54.00171000771266 6.00556
54.02669920004598 5.9669
54.051691170915745 5.92954
54.076881204886796 5.91282
54.101878760928514 5.8910800000000005
54.12687910187696 5.89794
54.152077577768296 5.87901
54.1770835166946 5.895230000000001
54.20209224691339 5.86583
54.22710377055121 5.86586
54.25231352511594 5.80233
54.27733066384342 5.83587
54.30235060239643 5.80832
54.32737334290836 5.77841
54.35259441062629 5.74087
54.377622783395324 5.7605900000000005
54.40265396455061 5.70685
54.42768795623251 5.68468
54.45292037169559 5.71919
54.477960012857906 5.69811
54.50300247099511 5.6637900000000005
54.52804774825457 5.69888
54.55329154616743 5.67277
54.57834249018678 5.6448599999999995
54.6033962597977 5.58632
54.6284528571545 5.54431
54.653708072335164 5.519430000000001
54.67877035378786 5.53854
54.70383546947698 5.52615
54.72890342156389 5.53072
54.7541700889442 5.45589
54.77924374251975 5.46793
54.8043202390049 5.41795
54.82959552413022 5.39827
54.8546777351945 5.39881
54.87976279569621 5.35313
54.90485070780914 5.37064
54.930137506558005 5.31538
54.95523115074295 5.32616
54.98032765308844 5.3137300000000005
55.005427015775496 5.27661
55.03072536339621 5.2701199999999995
55.05583047570572 5.2551
55.080938454927676 5.19581
55.10604930325027 5.23034
55.131359235107396 5.17684
55.15647585066083 5.11649
55.181595341907496 5.15316
55.20671771104285 5.1503
55.232039262617704 5.101369999999999
55.25716741665048 5.10492
55.28229845518636 5.06019
55.30743238042802 4.97623
55.33276558731939 5.0029
55.357905315183636 4.9964699999999995
55.383047936390035 4.95667
55.40819345314859 4.9381
55.433538351073295 4.95533
55.458689688238415 4.94886
55.483843927614096 4.86988
55.509197623043605 4.80925
55.53435769621134 4.7981300000000005
55.55952067826466 4.8148
55.5846865714265 4.78981
55.61005202069737 4.76006
55.63522376553902 4.73937
55.66039842818645 4.74925
55.68557601087004 4.77988
55.7109532500271 4.65601
55.73613670233794 4.71353
