TT I
1.2716486653135266 7.067639999999999
1.2939594142134223 6.93958
1.3162702121660406 6.709289999999999
1.3385810600174564 6.84191
1.3608919586137629 6.4972
1.383202908801069 6.28463
1.405513911425503 6.65879
1.4278249673332093 6.90534
1.4501343378461518 6.21739
1.4724455028545926 6.00252
1.4947567236847858 5.56001
1.517068001182951 5.7638
1.5393793361953272 5.6447
1.5616907295681737 5.94714
1.5840021821477681 5.2801800000000005
1.60631369478041 5.44191
1.6286252683124185 5.23159
1.6509369035901333 4.56727
1.6732468618895553 5.41252
1.695558623192809 5.07014
1.7178704487808514 5.58694
1.7401823395001077 5.2549
1.7625012545597203 4.93462
1.7848028405262486 4.92661
1.8071218901122095 4.7843599999999995
1.8294236121921872 4.2599
1.8517427996910911 4.45526
1.8740620574440425 5.06381
1.8963639900671978 4.7123800000000005
1.9186833908139995 5.12447
1.9409854680117449 4.958019999999999
1.9633050151394713 4.90811
1.9856246367570705 5.01684
2.0079269371922672 5.00135
2.03024671027244 4.635269999999999
2.0525491637446027 4.31071
2.074869091674931 4.84989
2.097171701569106 4.8336
2.1194917877373847 5.15488
2.141811954326636 4.77905
2.164114805233074 5.37453
2.186435135143035 5.76647
2.208738150935709 13.492
2.231058647554722 26.2684
2.2533792288321184 20.9287
2.275682498336085 9.88072
2.298003251406138 5.58554
2.3203066942619714 5.46476
2.3426276225136022 4.92667
2.3649486396617507 5.31416
2.387252348930071 5.64364
2.4095735463442893 5.39084
2.4318774374315884 5.6239
2.4541988185014043 6.10879
2.476502894794693 6.13443
2.498824462909887 6.38547
2.521146125856138 6.30874
2.5434504863470337 6.647930000000001
2.5657723414244717 7.3623
2.588076895590662 8.48042
2.610398946189713 7.8090399999999995
2.6327210958598384 7.592110000000001
2.6550259469304716 7.24947
2.6773482972090137 7.09598
2.6996533504259 7.68686
2.7219759047039602 8.62496
2.744298562293959 7.92431
2.7666039251246595 8.00148
2.7889267918020164 8.02145
2.8112323652516555 7.0423800000000005
2.833555444408179 7.36189
2.8558786311183852 8.00256
2.8781845268938557 8.49542
2.9005079311721484 9.13063
2.9228140460410397 9.37445
2.9451376712799635 9.53772
2.967444008632326 9.16267
2.9897678582247247 9.638739999999999
3.0120918213106695 9.91146
3.0343984987899373 10.6959
3.0567226913198637 10.8582
3.079029599759726 11.2155
3.101354025127254 12.177999999999999
3.123678568232338 13.0792
3.145985829517914 13.0472
3.16831061055229 13.3638
3.1906181112775593 14.1986
3.212943133635653 14.8417
3.2352682779763207 15.1459
3.2575761442691227 15.245
3.2799015350264273 15.543
3.302209649240067 16.6079
3.3245352898092655 16.8038
3.3468436553365257 17.3555
3.369169549113219 17.7634
3.3914955708171384 18.8139
3.413804319727358 19.0799
3.4361305997334863 19.1316
3.4584396084414553 19.6879
3.4807661501462652 21.0898
3.503092824025881 21.0444
3.5254022288463154 21.1503
3.5477291695206588 22.2138
3.5700388426251948 22.7586
3.5923660534916446 24.3466
3.6146934007816114 38.1982
3.637003482731501 83.9985
3.6593311053109985 93.3099
3.681641464033634 54.1873
3.7039693653009733 30.3784
3.726297407241705 26.3556
3.7486081875460804 26.0254
3.7709365132734978 26.4685
3.793247578841633 27.1981
3.8155761917550093 27.2451
3.8378875459837216 27.6553
3.8602164494827234 28.2488
3.882545499606844 28.5273
3.9048572932539183 29.0875
3.9271866390645718 29.1717
3.9494987298666713 30.048000000000002
3.971828374764527 30.9365
3.9941581705403255 31.6064
4.016470713506008 31.5665
4.038800813471445 32.1483
4.061113662089144 33.2546
4.0834440696459176 33.8697
4.105774632334751 34.2359
4.128087945865126 35.2056
4.150418821249301 36.1429
4.172732448931298 37.5048
4.195063640413578 39.1932
4.2173775856475215 42.9912
4.239709096631102 73.1198
4.262040768704612 223.403
4.284355196706267 296.012
4.306687193387355 191.74200000000002
4.329001947444346 78.5336
4.35133427213731 48.1055
4.373666762177566 45.0133
4.395982011761091 45.2333
4.418314834921175 46.1189
4.44063041906622 53.7914
4.4629635787515625 63.9169
4.4852969080429785 63.699
4.5076130004776225 54.738
4.529946671403969 51.7194
4.552263106909177 50.9679
4.574597122877047 51.665
4.596931312711224 53.3364
4.619248269273446 54.1386
4.6415828092605835 55.227
4.663900117405352 56.2658
4.686235010953232 57.8213
4.708552674085913 58.8395
4.730887924602802 60.4038
4.753223354952695 61.7396
4.775541557023902 62.9836
4.797877349456786 64.8011
4.820195915032126 66.8902
4.842532072957498 67.8968
4.864868414979744 70.2166
4.88718753227192 72.3463
4.909524244902505 74.7125
4.931843734218147 76.3583
4.954180820867835 79.0087
4.976518095879839 81.6534
4.998838149695359 84.94200000000001
5.021175803844231 88.6517
5.043496238205739 92.1081
5.065834274903528 96.8561
5.088172504230693 102.156
5.1104935158799565 109.31700000000001
5.132832132875765 132.013
5.155153533596801 174.301
5.1774925416746225 213.953
5.199814334878411 408.10699999999997
5.2221537374521505 1160.88
5.244493338631803 3120.93
5.266815727034316 7457.45
5.289155727832427 11817.6
5.311478517248165 8852.35
5.333818921080011 3192.76
5.356159527788849 656.596
5.3784829252032536 204.16099999999997
5.400823940070432 153.267
5.423147747031976 134.084
5.445489173474152 123.421
5.467830807066149 117.86200000000001
5.490155234831516 113.016
5.512497285125229 108.458
5.534822130975162 106.54
5.557164601388673 104.35700000000001
5.579489868738879 101.11
5.601832762690846 99.95100000000001
5.6241758697774475 99.9906
5.646501775867269 98.8023
5.668845311622074 96.8356
5.691171647754637 96.3199
5.713515615597765 94.8787
5.735859800852677 93.8171
5.758186788542988 93.3013
5.780531411018185 93.3886
5.802858837297399 92.6838
5.825203900414495 93.0404
5.8475491852224 93.9273
5.869877275883075 93.9625
5.892223006467101 94.9477
5.914551544266608 96.809
5.936897724049891 99.5967
5.959244129804903 106.324
5.981573344815301 128.01
6.0039202049061 229.61
6.026249875609095 508.587
6.04859719346037 1060.92
6.070927323278297 2276.46
6.093275102315365 4263.15
6.115623113320588 5307.97
6.137953938319995 3483.47
6.160302415650845 1204.39
6.182633708324452 289.515
6.2049826554078376 123.469
6.227331838745022 97.4127
6.249663839443684 88.3513
6.27201349767565 85.0832
6.294345974611799 90.1692
6.316696111167083 100.38
6.339046488263839 94.7539
6.361379686074702 81.0318
6.383730546639482 73.2374
6.406064229255215 70.1075
6.428415576718203 69.7614
6.450749747566656 68.2777
6.47310158535871 67.2034
6.495453669698332 66.6403
6.517788579421056 65.5829
6.540141159237969 64.9137
6.562476565766648 63.9678
6.5848296444934045 63.9751
6.607182974060425 63.3159
6.6295191323281015 63.525
6.651872965955752 66.9911
6.6742096296068985 91.0398
6.6965639707294615 134.579
6.71891856698715 133.796
6.741255995248479 92.581
6.763611104154477 67.957
6.785949046381137 61.2137
6.808304671371482 59.2649
6.8306605557940046 59.0534
6.852999275508618 58.1474
6.875355681171544 57.952
6.897694923437771 57.6334
6.92005185377892 57.3842
6.9423916220322655 57.165
6.964749080490181 56.4121
6.987106804399774 56.7968
7.009447368180821 56.6792
7.031805625367033 56.3135
7.054146723727803 56.3893
7.076505517631004 56.1223
7.098864581288365 56.0839
7.121206488070854 56.0644
7.143566093607822 55.9208
7.165908543567245 55.9802
7.188268694426048 56.2093
7.2106291193438095 56.4126
7.232972390625943 57.9264
7.255333366030969 69.7409
7.277677189091925 119.06299999999999
7.300038718428332 161.736
7.322400526130865 137.569
7.344745183422596 86.5636
7.367107550224791 61.8637
7.389452767901992 57.2691
7.411815697249891 56.1186
7.434161478756298 55.177
7.456524974096713 54.8872
7.478888753837185 54.9633
7.501235387657368 55.4217
7.523599738562711 55.1204
7.545946944825532 55.5805
7.568311870344528 56.1851
7.5906770845765665 56.3952
7.613025156078678 57.7319
7.635390950099687 58.4783
7.657739602662809 57.85
7.680105979923558 57.0348
7.702472650212829 57.0303
7.724822180948224 56.6916
7.747189439655568 57.053000000000004
7.769539560075357 57.0427
7.791907410653562 57.6262
7.81425812420825 57.1795
7.836626570110925 57.4495
7.858995315087906 58.4315
7.881346924933401 58.4811
7.903716270417482 59.2078
7.926068482028405 59.4279
7.948438431475253 60.0124
7.9708086843180235 60.4928
7.993161805171116 61.5925
8.015532667162402 61.7625
8.037886398416653 62.7223
8.060257873014221 62.7313
8.082629655331942 63.7759
8.104984308787587 64.6549
8.127356708900503 67.9262
8.149711981398308 73.8615
8.172085002766314 75.642
8.194458336181368 72.7141
8.216814543847752 70.0012
8.23918850371002 70.4584
8.26154533906492 71.4129
8.283919928836452 72.9876
8.306277395339652 73.9137
8.328652618483376 74.9853
8.351028159736202 77.2284
8.373386579575245 79.4209
8.395762759396959 81.6661
8.418121819038275 86.4506
8.440498640894003 99.5783
8.462875785192262 113.883
8.485235811156207 128.19899999999998
8.507613602688501 175.195
8.529974277114228 274.249
8.552352719347912 419.13699999999994
8.574731488360351 697.055
8.59709314210385 1202.9
8.619472567021075 1783.29
8.64183487789147 2122.65
8.664214962183097 1847.92
8.686577933647762 1054.94
8.708958680784317 419.441
8.731339760774953 182.421
8.753703729764451 117.647
8.77608547780821 102.796
8.798450116065078 97.99
8.820832535634787 94.8382
8.843215292401656 93.0729
8.865580941199045 91.29
8.887964374703538 90.3019
8.910330701447199 91.0251
8.932714815164482 92.9996
8.955099270424924 92.4139
8.977466620733543 89.1862
8.999851761421976 86.4019
9.022219798361645 84.8505
9.04460562795561 84.7787
9.066991803441677 84.2918
9.089360876979615 84.365
9.111747746589993 83.7561
9.13411751544971 83.2422
9.156505082664324 82.9009
9.178875550323522 83.0663
9.20126381862328 83.0845
9.223652438908596 83.9332
9.246023961427412 83.4078
9.26841328802173 83.1472
9.290785518039224 83.2699
9.313175554425882 83.6272
9.335565947154315 83.78200000000001
9.357939245086508 84.1392
9.380330352834827 84.1293
9.40270436697103 84.3911
9.425096193225055 84.3416
9.447488380180165 85.3345
9.469863475295412 85.3167
9.492256385987508 85.8557
9.514632206018318 86.4495
9.537025843935714 86.8502
9.559402392368193 87.7775
9.581796761000229 88.7374
9.604191496441521 89.5693
9.626569144158516 92.8525
9.648964615551032 96.9376
9.671343000390081 98.7597
9.693739211225699 96.6163
9.716135793237463 94.8002
9.738515290448102 94.1009
9.760912617143402 95.37
9.783292860202891 96.8398
9.805690935076182 97.9295
9.828089385495742 98.7069
9.850470754023561 101.803
9.872869957865444 109.12
9.89525208097539 123.15
9.917652041736662 135.173
9.940052382417589 135.937
9.962435644102392 146.118
9.984836746950979 188.15099999999998
10.007220771957746 258.91900000000004
10.029622640473708 371.11300000000006
10.052007432299963 555.884
10.074410069984072 838.813
10.096813093716005 1254.56
10.119199042482517 1662.5
10.141602840636468 1886.07
10.163989564971628 1652.17
10.186394141051062 1004.14
10.208799107559706 455.39300000000003
10.231187001965623 216.299
10.253592751657669 135.922
10.275981430388155 116.816
10.298387966769793 115.07600000000001
10.320794897965431 116.61200000000001
10.343184759907361 115.48
10.36559248305461 110.40100000000001
10.387983138083852 106.329
10.410391656691655 109.743
10.432800574501677 122.06200000000001
10.455192425893369 140.105
10.47760214443012 167.58
10.499994797678786 211.02900000000002
10.522405320453982 291.847
10.54479877906917 401.218
10.567210109595656 507.375
10.5896218454736 564.377
10.612016518879773 498.68300000000005
10.634429067781074 371.207
10.656824555333241 223.543
10.679237920773568 133.355
10.701651695961992 100.07700000000001
10.724048411481384 91.5386
10.746463008485165 88.2352
10.768860546937125 86.5647
10.791275969274796 84.6708
10.81369180576079 83.5254
10.836090585366925 82.2635
10.858507252467449 81.2003
10.88090686379991 80.5752
10.903324365036394 79.4367
10.925724811614439 79.6875
10.948143150509463 80.695
10.970561909719066 79.5643
10.992963615930844 77.6628
11.015383218085756 75.8458
11.037785768347074 74.4002
11.06020621697282 73.7339
11.082627090322113 73.1603
11.105030913430326 72.988
11.12745263854165 73.2548
11.149857314510728 76.3873
11.172279894912576 82.096
11.194702904450653 82.5067
11.217108866490921 78.6604
11.239532736615194 74.7088
11.26193956033512 72.2015
11.284364294577085 70.9239
11.306789462371718 69.1484
11.329197585398376 68.23
11.351623622610898 68.0305
11.37403261614354 67.0597
11.396459526308487 66.9026
11.418869393879497 66.4033
11.441297180532617 66.0769
11.463725406927658 65.8278
11.486136592353875 65.631
11.508565700543707 66.311
11.530977768845315 67.9554
11.553407762368774 68.5865
11.575838200059769 67.9873
11.598251599479612 66.0601
11.620682927815501 64.976
11.64309721895548 64.3721
11.665529441478206 64.0522
11.687962112597958 64.1115
11.710377748130886 63.7602
11.732811318753434 63.9326
11.755227854859067 63.8464
11.777662328529495 63.7449
11.800079768750786 63.4646
11.822515149015453 63.2107
11.844950984084935 63.4444
11.867369787303163 63.351000000000006
11.889806534289491 63.3539
11.912226250487029 63.5097
11.934663912939751 63.5296
11.9571020346363 63.6264
11.979523127133968 63.7526
12.001962169624331 64.3414
12.024384183972964 65.6787
12.046824150809913 69.4668
12.069264581333726 74.862
12.091687985297767 81.7042
12.11412934550045 91.0294
12.136553680195208 106.266
12.158995973632788 128.467
12.181438735204349 154.281
12.20386447284199 181.032
12.226308172985636 197.92700000000002
12.24873485024193 202.297
12.271179492516982 168.942
12.293607112949127 131.92600000000002
12.316052700916226 100.984
12.338498763250042 81.1937
12.360927805303868 71.4641
12.383374818673879 67.5094
12.405804812803074 65.6904
12.428252780773262 65.2107
12.45070122756722 64.9014
12.473132656675375 65.0411
12.49558206341869 65.5729
12.518014453510101 65.4401
12.540464823770117 65.4169
12.562915677315177 65.6757
12.58534951575545 66.4611
12.607801338171472 68.1594
12.630236146511358 73.3465
12.652688941369085 78.1848
12.675124723177234 78.0192
12.697578494048786 74.6102
12.720032754458185 70.5148
12.742470003354093 68.7345
12.764925245138771 68.6374
12.787363476431278 68.8783
12.809819703166806 69.1782
12.83227642391173 70.1175
12.854716135692716 70.7081
12.877173846755147 71.9332
12.899614549869717 72.0723
12.9220732548287 72.6885
12.94453245827299 73.2711
12.966974655289818 74.34
12.989434858002571 75.2098
13.011878055298721 75.9879
13.034339260862497 77.0729
13.056800969391883 78.2069
13.079245674017244 79.9828
13.101708390774869 82.6483
13.12415410463411 90.5537
13.146617833206086 103.09299999999999
13.169064559883248 115.84
13.191529303857127 131.18200000000002
13.213994557076367 154.05200000000002
13.236442809902437 190.27599999999998
13.258909083908291 242.61599999999999
13.28135835851934 299.416
13.30382565690295 358.31300000000005
13.326293469022952 410.03
13.348744283242008 415.092
13.371213125129904 365.341
13.39366497011003 278.16900000000004
13.416134845360597 188.037
13.438605238843131 132.481
13.46105863690397 110.211
13.483530069144786 109.13799999999999
13.505984506951902 114.64200000000001
13.528456981549432 125.053
13.550929978879088 140.487
13.573385983253365 164.049
13.595860028340867 200.28900000000002
13.618317081455832 248.68599999999998
13.64079217790333 291.546
13.663250283359057 331.315
13.685726434770173 357.337
13.708203115221277 339.778
13.730662806148091 273.073
13.75314054697177 201.357
13.775601299246777 140.861
13.798080104050406 103.24700000000001
13.820559442405358 87.9027
13.843021793671388 83.3549
13.865502201420897 81.6321
13.887965623051947 81.0677
13.910447103807167 79.84
13.932929122629764 78.1834
13.955394156785959 77.8217
13.977877254034569 77.1043
14.000343367582113 76.0641
14.022827546871707 75.5074
14.045294743423524 74.5157
14.06778000837062 74.0451
14.090265817715476 73.9906
14.112734645763819 73.6925
14.13522154619454 73.6534
14.157691466286913 73.3784
14.180179461423874 73.1707
14.202668005486178 72.3151
14.22513957064374 71.6457
14.247629214846473 71.3896
14.270101881097517 71.1457
14.29259262906496 71.7192
14.315083930490205 72.1957
14.337558255389705 72.374
14.360050666019726 72.1332
14.382526101071944 71.2205
14.405019624534942 70.4536
14.427513705993134 70.1112
14.449990813291825 69.7826
14.47248601302899 69.91199999999999
14.49496423954951 69.9125
14.517460561197822 69.8192
14.539939910570322 69.6342
14.562437357763558 70.2053
14.58493536931253 70.9441
14.607416409993311 71.8757
14.62991555254159 72.7398
14.652397725157423 72.3704
14.674898002342799 71.7684
14.697398848433282 71.3411
14.719882725991326 72.2412
14.74238471217934 73.0976
14.764869730765593 76.7088
14.787372860692983 80.7987
14.809876564079925 85.4179
14.83236330125751 91.7691
14.854868153850365 100.338
14.877356041159485 113.404
14.899862046604186 131.672
14.922351087688757 154.559
14.944858249632887 180.429
14.967365991421232 200.69299999999998
14.989856770231246 214.84400000000002
15.012365673994204 213.639
15.03485761569738 193.253
15.05736768508665 156.92
15.07987833888692 121.852
15.102372032001655 96.2683
15.124883856909658 79.8867
15.14737872204565 73.8746
15.169891721717274 71.8975
15.192405310371893 71.6698
15.214901940621196 71.9041
15.237416709527137 71.9429
15.259914520936249 72.0444
15.282430473753607 70.9683
15.304947020131227 69.7201
15.327446610371178 69.0453
15.349964346154254 67.9841
15.372465126703139 67.844
15.394984055556009 67.6576
15.417486030076159 67.3996
15.44000615566487 67.1467
15.462526881230803 67.1562
15.485030653812652 67.3134
15.507552581617434 67.1807
15.530057557334603 67.4709
15.55258069104857 67.2075
15.575104429329837 67.2107
15.597611216864632 66.7962
15.620136166564563 66.9971
15.6426441664095 67.8836
15.665170331202765 70.5419
15.687697105158826 73.6776
15.710206930593545 77.5793
15.732734925158933 82.1937
15.755245972089478 88.7137
15.77777519094324 97.5368
15.800287463046663 110.53299999999999
15.822817909869592 127.976
15.84534897229804 146.947
15.867863089299354 167.463
15.890395385222186 180.705
15.912910736597423 188.951
15.935444269699861 180.785
15.957978423016485 159.386
15.980495633101265 129.157
16.003031029129367 102.96
16.02554948280019 81.0708
16.048086125229432 70.5046
16.070623392487107 66.7456
16.09314371869582 65.5747
16.11568223789321 64.521
16.13820381691126 63.5319
16.160743591742527 62.193000000000005
16.183283996022084 61.7273
16.205807461423195 60.4465
16.228349126881973 60.0114
16.25087385432698 59.873999999999995
16.27341678466365 59.1361
16.29594277784926 59.0692
16.31848697676433 59.3236
16.341031811604868 59.7291
16.36355971058487 59.9087
16.3861058195587 59.5817
16.40863499352978 58.513999999999996
16.431182380342005 57.6154
16.453730407713202 57.0707
16.476261501364792 56.8694
16.498810812136167 56.4905
16.52134319004079 56.4165
16.54389378792203 56.3441
16.566445031001553 56.2007
16.588979342490088 56.0422
16.61153187824822 55.8322
16.634067483263312 55.5092
16.656621315414416 55.6809
16.679175797408888 55.4239
16.701713349928728 55.5539
16.72426913389191 55.8135
16.74680798922351 55.6446
16.76936507887444 55.527
16.791905240734874 55.7629
16.814463639794468 55.8128
16.837022695210294 55.7024
16.859564824093756 56.0349
16.882125194503903 56.5637
16.904668639217885 57.415
16.927230328348003 57.5193
16.949792678493612 57.5297
16.972338104193863 56.8659
16.994901778652235 56.4144
17.017448529496576 56.338
17.040013531998152 56.665
17.06257920018044 57.0865
17.0851279459922 57.7283
17.107694947817667 58.7885
17.130245028099072 59.5948
17.15281336730298 61.2329
17.17536478578733 62.7662
17.19793446610687 65.0158
17.220504818648422 68.0581
17.243058251703697 70.7798
17.265629950971032 75.0077
17.288184731571736 78.251
17.310757781306908 81.5057
17.33333150794385 82.9243
17.355888317140174 82.2674
17.37846339986244 78.6531
17.401021565958885 72.7481
17.42359800851343 67.7797
17.44617513265564 63.806999999999995
17.468735341390783 61.3421
17.491261035594565 60.4574
17.51396340099364 59.8768
17.536490463869136 60.1759
17.559018209820174 60.0761
17.58154663977963 60.1913
17.604251766089718 60.0578
17.626781572227713 60.3797
17.64931206518155 60.9664
17.671843245885103 61.1424
17.69455114821572 61.2564
17.717083712612634 61.9378
17.739616967569667 61.9243
17.762150914021706 62.3011
17.78486160749854 62.2638
17.807396945166804 62.7729
17.829932977143503 63.7215
17.85246970436452 65.4464
17.875183204129467 67.4803
17.897721330097664 69.8869
17.920260154126645 72.4967
17.942799677153296 75.538
17.9655159983646 79.0864
17.988056927677544 84.2559
18.010598558807683 92.0703
18.033140892692916 101.235
18.05586005052525 110.787
18.07840379824407 120.665
18.10094825154059 130.001
18.12366954819864 136.533
18.146215420998306 137.787
18.16876200220057 132.843
18.191309292745153 120.975
18.214033452627167 107.366
18.236582170236648 95.5301
18.259131600016456 89.369
18.281681742907335 88.3085
18.304408781233683 91.6501
18.32696035875955 95.9253
18.349512652227624 99.8146
18.372065662579683 104.02
18.394795594587553 105.124
18.41735004715306 103.726
18.43990521943684 98.3171
18.46246111238171 89.9252
18.485193953325208 80.5921
18.507751296070428 73.0291
18.530309362314178 67.9135
18.552868153000343 64.964
18.57560391815056 63.28
18.59816416623245 62.7926
18.620725141597372 62.2117
18.643286845190268 61.6801
18.666025549835414 61.5136
18.688588718427933 60.6629
18.711152618092243 60.506
18.73389353884365 60.2844
18.75645890921984 59.8335
18.77902501351406 59.4983
18.801591852673102 59.3146
18.824335739722738 58.9081
18.846904057212626 58.9124
18.8694731124168 58.6697
18.89204290628315 58.7443
18.914789774966803 58.5193
18.937361054791623 58.0581
18.959933076131318 57.9714
18.982505839934877 57.938
19.00525570560582 57.8967
19.027829963004184 57.6708
19.05040496572238 57.863
19.072980714710468 57.8725
19.095733592739563 57.833
19.11831084296757 58.2265
19.140888842324735 58.9435
19.16346759176222 59.0817
19.18622349753803 59.5548
19.208803755869358 60.4868
19.231384767143577 61.4862
19.253966532312948 63.2934
19.276725481241822 65.1986
19.29930876296784 67.5164
19.3218928014549 69.9879
19.34465404436217 72.8033
19.36723960516257 75.4215
19.389825925592426 76.2165
19.412413006605938 75.7233
19.43517731967805 73.1065
19.457765930683355 69.1534
19.48035530514408 64.7177
19.50294544401556 60.8928
19.525712842708348 57.7679
19.54830451925909 56.2539
19.570896963095727 55.1471
19.593490175174704 54.6753
19.616260674962184 54.8985
19.638855432416964 54.3338
19.661450960992624 54.3542
19.68404726164677 54.3445
19.706820878021247 53.9231
19.729418731756834 54.3957
19.752017360452857 53.992
19.77461676506804 54.4176
19.797393513540218 54.3713
19.819994478951667 54.8005
19.84259622316767 55.4128
19.8651987471481 55.5449
19.887978643247177 55.8757
19.91058273574792 56.4289
19.933187610901943 57.261
19.955969879466828 58.2475
19.97857632894404 59.8945
20.00118356396599 61.1971
20.023791585494575 63.1748
20.046577028914875 65.4393
20.069186632506966 67.305
20.091797025500632 68.9686
20.114408208858933 69.8291
20.137196842715273 70.3342
20.159809615886765 69.2359
20.18242318232135 67.1827
20.20503754298326 65.1524
20.227829382875154 63.9054
20.250445341109344 63.2099
20.27306209647285 63.3135
20.29567964993108 64.3066
20.31847471147704 65.0442
20.34109387027612 65.9021
20.363713830075454 65.8586
20.386334591841646 64.8145
20.409132890679302 62.5995
20.431755265564437 59.7796
20.454378445325528 56.8615
20.477002430930366 54.8202
20.499803982716553 53.3479
20.522429589228004 52.5079
20.54505600449589 51.7533
20.567683229489194 51.6999
20.590488049900088 51.2871
20.61311690359731 51.0117
20.63574656993626 50.7885
20.658553853717297 50.291000000000004
20.681185154618298 50.2922
20.703817271080066 50.2953
20.72645020407368 49.9795
20.749260783967177 49.8314
20.771895359337133 49.708999999999996
20.794530754161617 49.7736
20.817166969412938 49.7466
20.83998086114876 49.5921
20.86261872660049 49.5908
20.885257415405402 49.3499
20.90789692853701 49.3702
20.930714147864748 49.2673
20.953355319030678 49.354
20.97599731745334 49.5429
20.99864014410749 49.3172
21.021460706796564 49.5657
21.044105199328826 49.7318
21.06675052302631 49.7304
21.089396678865015 49.8709
21.112220600704806 50.2248
21.134868430275347 50.5178
21.15751709492456 50.7885
21.180166595629693 50.9177
21.202993892429635 51.3634
21.22564507473034 51.6153
21.24829709602816 51.8358
21.27112693608965 52.1735
21.293780644891275 52.2218
21.316435195634053 51.7934
21.339090589297417 51.0358
21.361923832041875 50.5434
21.384580921090404 49.7781
21.407238856007325 49.118
21.429897637773326 49.0858
21.45273429906592 49.1508
21.475394784108598 49.1291
21.498056118951983 49.038999999999994
21.520718304578022 49.2763
21.543558400304388 49.2896
21.566222297108816 49.6571
21.58888704765135 49.8063
21.61155265291521 50.1437
21.63439619898156 50.5913
21.657063523335786 50.773
21.67973170537063 51.3167
21.7024007460706 51.8323
21.72524775840385 52.4547
21.747918526116475 53.5608
21.770590155457388 54.7309
21.79326264741238 56.3205
21.816113141960237 58.0134
21.838787368860547 59.465
21.861462461341976 61.4001
21.884315579735777 63.0239
21.90699241312273 64.0116
21.92967011506078 64.7111
21.95234868653799 64.7993
21.9752053151131 64.0589
21.997885635446785 62.809
22.020566828293532 60.9676
22.04324889464272 59.2129
22.066109049404666 57.5149
22.088792872571794 56.672
22.111477572219204 56.5105
22.1341631493376 56.5397
22.157026846313123 56.4687
22.179714188221507 55.9105
22.202402410582668 55.2114
22.22509151438863 53.7493
22.24795876962584 52.3914
22.270649646204486 51.5636
22.293341407213727 50.7223
22.316034053646906 50.3281
22.338904883215342 49.9345
22.36159931041458 49.89
22.38429462602756 49.6951
22.40699083104897 49.5787
22.429865251039757 49.6356
22.452563244831367 49.7467
22.47526213102522 49.5837
22.49813925616515 49.2713
22.520839937143307 49.2946
22.543541513520587 49.2224
22.56624398629403 49.2219
22.589124730075895 49.1727
22.611829005656723 49.3825
22.63453418063466 49.3237
22.657240256008077 49.4324
22.680124634582935 49.7984
22.70283252079775 50.0231
22.725541310413075 50.3735
22.74825100442868 50.5026
22.771139033969575 50.9344
22.79385054687155 51.1582
22.81656296718292 51.9139
22.83927629590484 52.593
22.862167992606945 53.708
22.88488314827121 54.6149
22.907599215359284 55.5221
22.93031619487366 56.2782
22.953211574954405 57.1788
22.975930389478226 57.888000000000005
22.998650119445763 58.1936
23.02137076586092 58.0209
23.044269845560063 57.0447
23.06699233506288 55.5842
23.089715744034912 53.7808
23.112617610931565 52.2009
23.135342869061212 50.9081
23.158069049684816 50.0417
23.1807961538087 49.601000000000006
23.20370174880544 49.4997
23.226430710184808 49.6674
23.249160598093425 49.538999999999994
23.271891413539002 49.6841
23.294800752937697 49.6817
23.31753343374794 49.681000000000004
23.340267045128353 49.9272
23.36300158808808 50.2476
23.38591468821339 50.6732
23.408651104658304 50.9765
23.431388455719986 51.6209
23.454126742409 52.3178
23.4770436196085 53.3793
23.499783787914662 54.3812
23.522524894889884 55.3965
23.54526694154616 56.1102
23.56818761219047 57.0212
23.59093154860734 57.5053
23.613676427751283 57.9806
23.636422250635754 57.6805
23.659346731118656 56.1583
23.68209445191868 54.6032
23.704843119509587 52.5775
23.72759273490623 50.7465
23.750521041644767 49.3558
23.77327256312355 48.1996
23.796025035462787 47.2992
23.818956224555475 46.6569
23.841710609113413 46.6572
23.86446594758979 46.4472
23.887222241002014 46.166000000000004
23.910157285144578 45.8945
23.932915498962537 45.8406
23.955674670778713 45.7113
23.978434801611975 45.4564
24.001373717286125 45.3978
24.024135776723917 45.515
24.046898798245582 45.1223
24.06966278287146 45.0469
24.092605586582614 44.9426
24.115371508023642 44.7772
24.1381383956401 44.6327
24.16090625045381 44.6523
24.183852958731244 44.5223
24.206622758582608 44.4843
24.229393528706886 44.3239
24.252165270127392 44.3656
24.27511589952438 44.1887
24.297889594216997 44.0067
24.32066426328598 43.9293
24.34343990775613 43.9271
24.36639447485003 43.696000000000005
24.38917208083877 43.6808
24.41195066531332 43.7916
24.43490819850244 43.7896
24.457688750692377 43.5703
24.48047028445616 43.5288
24.503252800821233 43.6573
24.526214300784112 43.6667
24.548998793132213 43.6152
24.57178427117417 43.5693
24.59457073593893 43.6907
24.617536219319863 43.4685
24.64032466834748 43.4764
24.663114107195035 43.3019
24.685904536893013 43.2031
24.708874020360852 43.1562
24.731666442613744 43.1113
24.754459858818787 42.9625
24.777254270007962 43.0561
24.80022777025625 42.8772
24.82302418230472 42.8371
24.845821592443674 42.8863
24.86862000170663 42.7626
24.891597535453727 42.5456
24.914397953892728 42.8625
24.93719937456671 42.7888
24.96000179851076 42.9576
24.98298338249997 43.1389
25.00578782394922 43.3453
25.028593271784167 43.4259
25.05157790644186 43.8206
25.07438537804115 43.9532
25.097193859145293 44.2684
25.120003350792075 44.4609
25.142992065061257 44.7235
25.165803588823465 44.9492
25.18861612625217 45.1675
25.211429678386736 45.2458
25.234422489079968 45.4037
25.257238081693636 45.5036
25.280054692141732 45.4683
25.3028723214652 45.4148
25.325869245420463 45.3157
25.348688923599397 45.3267
25.371509623787006 45.3815
25.394331347025812 45.1397
25.41733240110666 44.7842
25.440156181590016 44.2608
25.46298098826268 43.6974
25.48580682216873 43.0744
25.50881202326435 42.6198
25.53163992281684 42.3557
25.55446885274561 41.9727
25.577298814096377 41.5098
25.600308179121807 41.4491
25.623140214533745 41.4677
25.64597328451537 41.4742
25.66898578564376 41.1165
25.691820936010206 41.2229
25.714657124097695 41.2818
25.737494350954734 41.1467
25.760511045684957 41.0356
25.783350361364224 41.1374
25.806190718969255 41.067
25.82903211955018 41.1546
25.852053024868923 41.0656
25.874896522722523 41.1925
25.897741066713106 41.2742
25.920586657892454 41.3396
25.943611790812668 41.4876
25.966459487728237 41.5945
25.989308234998564 41.6329
26.01215803367705 41.8743
26.03518741123814 42.053000000000004
26.05803932412957 42.056999999999995
26.080892291600094 42.0988
26.10374631470478 42.2062
26.12677995397268 42.1456
26.14963609978026 42.1989
26.172493304397875 42.0503
26.19535156888223 41.9104
26.218389486949604 41.4349
26.241249882640123 41.1043
26.26411134137826 41.0227
26.28715248187403 40.9645
26.31001607820869 40.6797
26.3328807407756 40.5953
26.35574647063438 40.7367
26.37879191991473 40.7296
26.401659795896734 40.7346
26.424528742360263 40.8544
26.447398760366614 41.1022
26.470448535598294 41.1435
26.49332070826805 41.5079
26.516193955675355 41.5367
26.53906827888316 41.6567
26.562122397260108 41.8397
26.584998883685063 42.3476
26.607876449110325 42.4101
26.63075509460056 42.519
26.65381357334404 42.5971
26.67669439061878 42.5976
26.699576291163382 42.7506
26.722459276044212 42.5915
26.745522132402975 42.2984
26.768407297649354 42.1775
26.791293550442003 41.6878
26.814180891848974 41.4022
26.837248143099337 41.0962
26.860137673466657 41.0325
26.88302829566349 40.8285
26.90592001075963 40.7364
26.92899167420566 40.4675
26.951885586870763 39.9975
26.974780595655517 39.9594
26.99785558178161 39.7414
27.020752794605112 39.6434
27.043651106772522 39.4397
27.06655051935668 39.3261
27.089629948036183 39.3385
27.112531573292053 39.2925
27.135434302194138 39.2583
27.158338135817015 39.0753
27.181422024430987 39.1605
27.204328079372566 39.0867
27.22723524226965 39.1426
27.250143514198573 39.116
27.273231880156334 39.0856
27.296142382065014 38.9466
27.319053996245536 39.0374
27.341966723775965 39.1139
27.365059584515222 39.1644
27.38797455070062 39.111999999999995
27.410890633481237 38.8717
27.433807833936918 38.8884
27.456905206923906 39.0649
27.47982465472398 39.1169
27.502745223449743 39.0573
27.525666914182825 39.1667
27.548768816912457 39.1318
27.571692763693633 38.949
27.59461783573812 38.9373
27.617723149491244 38.8393
27.640650484125285 38.6699
27.66357894728264 38.7344
27.686508540048052 38.6631
27.709618414237887 38.5655
27.732550278321757 38.3989
27.755483275279115 38.4577
27.778417406196485 38.4748
27.801531858397514 38.3203
27.824468269376716 38.2826
27.847405817586786 38.3661
27.870344504116094 38.5562
27.893463551932008 38.583
27.916404527281053 38.9408
27.93934664422563 38.9746
27.962289903855886 39.024
27.98541356491974 39.1531
28.00835912214229 39.2538
28.03130582533231 39.586
28.054253675581805 39.7091
28.077381967556104 39.5265
28.100332124185126 39.4212
28.123283431160893 39.4125
28.146235889577238 39.3893
28.169368830154156 39.1559
28.192323603752033 39.0674
28.215279532083304 38.6808
28.238415973016764 38.3311
28.261374223145094 38.3031
28.284333631303806 38.1167
28.307294198589954 38.0335
28.330435319167677 37.7848
28.353398217078915 37.5835
28.376362277420153 37.3154
28.39932750129032 37.2305
28.422473319286713 36.9115
28.44544088262495 37.0003
28.468409612800283 36.8322
28.491379510913497 36.6226
28.51453004413313 36.4404
28.53750229057244 36.4306
28.56047570826344 36.3755
28.583450298308804 36.2902
28.606605564586562 36.1481
28.629582511831156 36.1584
28.65256063474956 36.0555
28.675539934446338 36.2223
28.698699951647605 36.1749
28.72168161743193 36.056999999999995
28.74466446331978 35.9603
28.767648490417624 35.9611
28.790813276438353 36.018
28.813799678527303 35.9957
28.836787265157085 36.0041
28.859955641890075 36.0086
28.882945610203045 35.9403
28.905936766392035 35.8093
28.928929111566863 35.8268
28.952102288520145 35.7916
28.975097024308607 35.4717
28.998092952423807 35.4394
29.021090073977508 35.4277
29.04426806913204 35.3788
29.067267590245258 35.1764
29.090268308143695 35.0573
29.11327022394099 34.9345
29.13645305530891 34.8803
29.159457379627167 34.8974
29.18246290519685 34.8535
29.20546963313352 34.7302
29.22865731875826 34.925
29.25166646419296 34.8116
29.27467681535305 34.6313
29.29768837335608 34.7535
29.320880931312562 34.8343
29.34389491580634 34.7608
29.366910110507334 34.7504
29.38992651653503 34.6693
29.41312396492981 34.7617
29.436142806456754 34.5596
29.45916286268059 34.6055
29.48236399319994 34.3938
29.50538649169417 34.3216
29.528410208259935 34.1817
29.55143514402014 33.951
29.574641196749695 33.9527
29.597668583816574 33.8642
29.6206971934585 33.6613
29.64372702680042 33.5884
29.666938019934474 33.6165
29.689970313635285 33.5419
29.713003834422636 33.4327
29.73603858342347 33.4518
29.759254535188578 33.3564
29.78229175361658 33.3271
29.80533020365064 33.2789
29.82836988641968 33.356
29.85159081507472 33.277
29.874632976355343 33.1934
29.89767637376955 33.1607
29.920721008448314 33.076
29.9439469322847 33.0496
29.96699405457564 33.0278
29.9900424175358 33.1112
30.013092022298157 32.9932
30.03632295963995 32.9093
30.059375061131373 32.8821
30.08242840783577 32.9374
30.105483000888153 32.9535
30.128718970092244 32.8916
30.151776069006917 32.8303
30.17483441768648 32.8472
30.198074175317235 32.8261
30.221135036724256 32.8879
30.24419715131772 32.8555
30.267260520236203 32.7284
30.290505341942243 32.8352
30.313571232750228 32.806999999999995
30.336638381310948 32.8093
30.35970678876503 32.6793
30.38295669299435 32.7264
30.40602763151657 32.7237
30.429099832366074 32.5773
30.452173296685572 32.5306
30.47542830191959 32.6795
30.498504306502497 32.5432
30.521581577995562 32.6907
30.544660117543582 32.619
30.56792024229725 32.5685
30.59100133132069 32.4388
30.614083691845494 32.5002
30.637167325018545 32.6007
30.660432587840603 32.7111
30.683518779717886 32.6143
30.70660624769615 32.6927
30.729694992924372 32.7323
30.75296541239743 32.5977
30.77605672557558 32.6379
30.799149319462742 32.5899
30.8224236211637 32.5067
30.845518789950724 32.4303
30.868615242910597 32.3885
30.891712981195973 32.1565
30.91499247215866 32.0861
30.938092794619365 32.0169
30.96119440587579 31.9534
30.984297307082752 31.8795
31.00758200598383 31.7332
31.030687500658694 31.7048
31.053794288760695 31.624000000000002
31.076902371446767 31.5161
31.100192296997445 31.6296
31.12330298246119 31.4782
31.14641496599209 31.3887
31.169528248749216 31.4142
31.19282341969534 31.4384
31.215939314557186 31.3785
31.239056512134788 31.4396
31.262175013589378 31.3702
31.28547544871168 31.2702
31.30859657161541 31.2673
31.331719001892175 31.3247
31.35484274070538 31.381
31.378148458819545 31.3419
31.401274828443725 31.2674
31.424402510106933 31.3494
31.447712205419993 31.3547
31.470842524931633 31.24
31.493974159989783 31.2323
31.51710711176168 31.155
31.54042212308802 31.3247
31.563557722100917 31.215999999999998
31.586694641341655 31.064
31.609832881979628 30.9551
31.63315322823208 31.0317
31.656294125521327 30.8527
31.679436347728515 30.7217
31.70257989602529 30.5959
31.725905596152327 30.5729
31.74905181052835 30.5203
31.772199354521323 30.6274
31.79534822930507 30.6369
31.818679302290967 30.6408
31.84183085259981 30.4946
31.864983737233473 30.5689
31.88813795736804 30.6318
31.911474422233013 30.3859
31.934631327356435 30.5273
31.9577895715215 30.4307
31.980949155906522 30.4096
32.004291031706956 30.4625
32.027453310562606 30.3192
32.05061693318573 30.177
32.07396288236386 30.2684
32.09712920658542 30.2341
32.12029687812702 30.1051
32.14346589817093 30.0171
32.166817291729984 29.9931
32.18998902288583 29.9161
32.21316210610336 29.7875
32.23633654256711 29.686999999999998
32.259693399663725 29.7036
32.282870556771144 29.6215
32.30604907069099 29.6337
32.329228942610065 29.523000000000003
32.35259128243769 29.3006
32.375773884550505 29.2539
32.398957848235646 29.3539
32.422143174682176 29.3034
32.445511016471215 29.2074
32.468699082679954 29.2242
32.49188851523011 29.1559
32.51507931531304 29.0395
32.538452678331 29.0999
32.56164622776311 28.9392
32.58484114831493 28.8351
32.60803744118015 28.9222
32.631416344731896 28.9014
32.654615396551876 28.859
32.67781582427913 28.8329
32.701198898634416 28.7226
32.72440209253756 28.6783
32.747606665947124 28.7062
32.77081262006088 28.5498
32.79420126883317 28.5072
32.81740999876112 28.5063
32.840620112999424 28.5509
32.86383161274818 28.4152
32.88722585534586 28.3507
32.91044014056596 28.3966
32.933655814909734 28.44
32.95687287957963 28.4473
32.98027273544904 28.3574
33.00349259526636 28.3156
33.026713849030116 28.2466
33.04993649794511 28.1572
33.073341986570746 28.2518
33.09656744032826 28.1728
33.11979429286444 28.1811
33.14302254538647 28.1393
33.166433686291185 28.1657
33.18966475336992 28.0751
33.212897224069096 27.9816
33.23613109959831 28.0278
33.259547912343415 27.9275
33.2827846121627 27.9109
33.306022720453775 27.9151
33.32926223842861 27.7621
33.352684742614166 27.8445
33.37592709463173 27.7827
33.399170859982064 27.6353
33.422597648419426 27.5909
33.44584425514446 27.5112
33.46909227885668 27.5832
33.4923417207723 27.3337
33.51577423505344 27.3893
33.539026528130385 27.3569
33.56228024307245 27.3413
33.585535381098246 27.1822
33.60897364093058 27.1293
33.63223163992385 27.1229
33.6554910656699 27.0859
33.678751919389796 27.0747
33.702195944520106 26.9276
33.72545966903325 26.8986
33.74872482519663 26.8851
33.771991414233746 26.8384
33.79544122444841 26.8594
33.81871069412428 26.839000000000002
33.84198160035767 26.7822
33.86525394437455 26.7999
33.88870955949969 26.7997
33.911984794020626 26.7155
33.93526147001624 26.6318
33.958539588715006 26.5444
33.98200102861669 26.4733
34.0052820477047 26.3697
34.02856451319451 26.3435
34.05203033759056 26.3403
34.07531571090147 26.4079
34.09860253431845 26.3458
34.121890809074316 26.2732
34.145362493118924 26.2796
34.16865368561615 26.1428
34.191946333164054 26.1958
34.21524043699793 26.166
34.23871800066799 26.0607
34.26201503218366 26.0235
34.28531352370466 25.9971
34.30861347646881 25.7944
34.33209693978188 25.8507
34.3553998301885 25.9122
34.378704185565205 25.8464
34.402010007152356 25.7245
34.42549939016683 25.7507
34.44880815937748 25.6847
34.472118398533134 25.6284
34.49543010887669 25.6559
34.51892543169198 25.5146
34.54224009966052 25.5308
34.56555624255917 25.5426
34.58887386163339 25.3421
34.61237514439016 25.3772
34.6356957311114 25.3559
34.65901779775809 25.3831
34.68252356662995 25.358
34.705848608458616 25.2308
34.72917513396849 25.1865
34.75250314440949 25.1573
34.77601490857862 25.064
34.799345904259795 24.9982
34.82267838863559 25.1054
34.846012362958525 25.0276
34.869530142679984 24.985
34.89286711232212 25.0062
34.91620557568269 25.0307
34.93954553401677 24.9723
34.9630693495876 24.8623
34.986412313340814 24.8673
35.00975677584668 24.7578
35.033102738362956 24.7709
35.05663261012228 24.7218
35.0799815881786 24.7281
35.10333207003229 24.6369
35.12668405694369 24.6865
35.150220005273056 24.6149
35.17357501786656 24.5979
35.19693153931268 24.4645
35.220289570874385 24.4445
35.24383161619786 24.4503
35.267192683604904 24.4656
35.290555264930376 24.4735
35.314101899412165 24.3898
35.33746752422433 24.346999999999998
35.36083466676374 24.3806
35.38420332829803 24.3201
35.407756095629054 24.353
35.43112781085063 24.2947
35.45450104888391 24.3062
35.477875810999194 24.2669
35.50143473172161 24.1965
35.52481255774625 24.1547
35.54819191167777 24.0207
35.57157279478914 24.076999999999998
35.595137889488406 24.0717
35.61852184675279 24.0159
35.641907337029984 24.0038
35.665294361595684 23.959
35.68886565090076 23.9074
35.7122557598848 23.9052
35.73564740699838 23.8374
35.759040593519934 23.7455
35.78261809810353 23.8051
35.80601437933051 23.6611
35.829412203814705 23.5871
35.85281157283719 23.6069
35.876395313415884 23.6967
35.8997977874528 23.634
35.92320180988546 23.5585
35.946790244133936 23.5259
35.97019737933222 23.4719
35.993606066789866 23.4122
36.01701630779276 23.3589
36.04061101440684 23.3879
36.06402437852291 23.406
36.08743930005611 23.3377
36.1108557802951 23.1991
36.13445678011326 23.2943
36.15787639383515 23.2036
36.18129757014299 23.114
36.20472031032821 23.131999999999998
36.22832762423364 23.0596
36.25175350829375 23.04
36.275180960119776 22.9374
36.298609981005924 23.0657
36.32222362992669 22.9444
36.34565580510207 22.9215
36.36908955323448 22.8701
36.39252487562093 22.7932
36.416144880530226 22.7443
36.43958336764275 22.6932
36.463023432914625 22.6931
36.486465077645676 22.7056
36.51009145956204 22.7574
36.53353627947859 22.6693
36.55698268276811 22.6156
36.58043067073321 22.5453
36.60406345072071 22.4699
36.62751462435344 22.482
36.65096738658405 22.4742
36.67460498210655 22.445999999999998
36.69806093788647 22.4677
36.72151848619297 22.4653
36.744977628333636 22.3795
36.76862165890998 22.3262
36.79208400512205 22.2985
36.81554794910557 22.2439
36.83901349217101 22.1925
36.862663978991606 22.1058
36.88613273667352 22.1052
36.90960309738324 22.0844
36.933075062434064 21.9944
36.95673202673572 22.0204
36.98020721697122 21.9576
37.003684015502365 21.9732
37.027162423645365 21.8935
37.050825886711465 21.8399
37.07430753063053 21.7772
37.09779078812467 21.7839
37.121275660513014 21.7232
37.144945643673694 21.6817
37.16843376245278 21.7546
37.19192350009803 21.7098
37.215414857931435 21.6003
37.239091382563885 21.5355
37.262585997426164 21.5508
37.28608223645736 21.5583
37.309763684451696 21.441999999999997
37.33326318851098 21.4153
37.356764320726555 21.4613
37.380267082425526 21.4358
37.40395510942588 21.4134
37.42746114683234 21.3268
37.45096881771841 21.2657
37.474478123414166 21.2439
37.49817275092816 21.1937
37.52168534303452 21.2056
37.54519957395567 21.1007
37.568715445024665 21.1208
37.592416694607714 21.0179
37.61593586281424 21.1077
37.63945667518264 21.0436
37.66297913304891 21.0543
37.68668702630454 20.9447
37.710212792059274 20.8572
37.733740207334854 20.8698
37.757269273470364 20.892
37.780983832050374 20.7661
37.80451621684926 20.8112
37.82805025654007 20.7906
37.851585952464795 20.7484
37.8753071980695 20.7347
37.89884622345676 20.6645
37.92238690911902 20.6245
37.94611318753442 20.5928
37.969657210779765 20.5329
37.99320289834801 20.58
38.016750251586465 20.4983
38.04048325513017 20.5382
38.06403395679343 20.4492
38.087586328183946 20.3649
38.11114037065203 20.4067
38.13488012115898 20.4708
38.1584375229181 20.3013
38.181996599821 20.2625
38.205557353221124 20.2246
38.229303872575656 20.2101
38.2528679961576 20.1946
38.27643380031219 20.171
38.30000128639589 20.0479
38.32375459653193 20.1167
38.34732546371299 20.157
38.37089801690786 20.007
38.39447225747609 19.9946
38.418232380377425 19.9371
38.441810012983396 19.9687
38.46538933705673 19.9178
38.488970353960084 19.885
38.51273731166058 19.8679
38.536321731567014 19.7696
38.55990784840681 19.7587
38.58367995004091 19.7658
38.60726947812959 19.6589
38.63086070726198 19.683
38.654453638806274 19.6899
38.678232613930824 19.5761
38.70182896773327 19.5629
38.72542702806741 19.5137
38.7490267963045 19.5085
38.77281266709232 19.5115
38.79641586862214 19.4644
38.8200207821842 19.4218
38.843627409152944 19.4446
38.86742019782782 19.3613
38.891030269149255 19.2822
38.914642058016156 19.2828
38.938255565806124 19.2686
38.96205529464307 19.1929
38.98567225787121 19.1462
39.00929094417078 19.192999999999998
39.03291135492255 19.1807
39.05671804624804 19.1351
39.080341923549106 19.0461
39.103967529460334 19.0784
39.127594865365744 18.9756
39.15140854155791 18.9982
39.17503935514948 19.0167
39.19867190290282 18.993
39.22249083587951 18.8892
39.24612686969409 18.8599
39.269764641845306 18.8982
39.293404153722804 18.8242
39.317230110864074 18.8078
39.34087311998506 18.7388
39.36451787301696 18.7518
39.388164371352595 18.6316
39.41199737518003 18.6677
39.43564738196752 18.6107
39.45929913825317 18.6383
39.48295264543308 18.56
39.506792718520884 18.5213
39.530449745387216 18.4804
39.55410852735203 18.5057
39.57776906581474 18.4544
39.60161623079 18.4207
39.625280300200025 18.3808
39.64894613032202 18.32
39.67261372255866 18.3337
39.6964680021016 18.3465
39.72013913657293 18.3291
39.74381203738292 18.3341
39.76748670593756 18.2346
39.79134812278169 18.2281
39.81502634488497 18.1597
39.83870633896685 18.0901
39.862388106436654 18.0875
39.88625668336918 18.0587
39.90994201572829 18.15
39.933629125719285 18.0449
39.957503091207826 17.9762
39.9811937746168 18.0199
40.00488623990914 17.9911
40.02858048850006 17.8914
40.05246165409549 17.8322
40.076159487492085 17.8481
40.099859108448875 17.8929
40.123560518384345 17.823
40.1474489070226 17.8512
40.171153913178564 17.7327
40.194860712584955 17.6762
40.2185693066637 17.6881
40.242464941335314 17.6104
40.26617714307655 17.6651
40.289891143772046 17.659000000000002
40.3136069448471 17.6273
40.33750984859743 17.5809
40.3612292688043 17.5102
40.3849504936829 17.444000000000003
40.40867352466194 17.4614
40.43258372059144 17.4492
40.45631038219906 17.456
40.48003885420956 17.3115
40.503769138055105 17.3791
40.52768664931955 17.3388
40.55142057531802 17.3391
40.57515631746428 17.2887
40.599079334038514 17.2618
40.62281872700477 17.2167
40.64655994043941 17.1361
40.67030297578061 17.2043
40.69423334835778 17.157
40.71798004609188 17.1194
40.74172857006355 17.0539
40.76547892171441 17.1005
40.7894166736039 17.0395
40.813170699248566 16.9827
40.83692655691388 17.0466
40.86068424804498 17.0352
40.884629402612525 16.9442
40.908390779366385 16.9468
40.932153993938 16.8916
40.95591904777605 16.8443
40.979871628443995 16.8446
41.003640379561936 16.7681
41.02741097430883 16.7846
41.05118341413683 16.7391
41.075143444384416 16.7127
41.098919593177826 16.7363
41.1226975914255 16.6395
41.14647744058318 16.5811
41.170444943946755 16.5358
41.19422851378379 16.5141
41.218013938914645 16.5629
41.24198706625173 16.4475
41.26577622087193 16.4414
41.289567235177785 16.4454
41.31336011063129 16.4198
41.337340752422875 16.4109
41.361137369129835 16.4031
41.38493585138705 16.3482
41.40873620066004 16.3257
41.43272438060107 16.3004
41.45652848292052 16.2517
41.48033445666918 16.1799
41.50414230331616 16.1293
41.528138045159764 16.1554
41.551949656675205 16.1179
41.575763145513235 16.0775
41.59957851314666 16.0262
41.62358184070442 16.037
41.64740098505737 15.9848
41.6712220126409 16.0019
41.69504492493139 15.982999999999999
41.71905586207357 15.9719
41.74288256296395 15.9704
41.766711153007456 15.904000000000002
41.79054163368412 15.8374
41.814560204340054 15.8342
41.838394485526365 15.8381
41.86223066180303 15.8061
41.88625497706819 15.7932
41.910094962812 15.7392
41.93393684811168 15.7481
41.95778063445365 15.7022
41.981812625263366 15.6752
42.00566023303407 15.6047
42.029509746323676 15.5698
42.05336116662236 15.6079
42.077400857069705 15.5422
42.10125611078846 15.4851
42.12511327600405 15.540999999999999
42.14897235421036 15.4936
42.173019768448455 15.4853
42.19688269209613 15.4589
42.22074753323349 15.4438
42.24461429335818 15.3827
42.268669455600495 15.3822
42.292540073217886 15.3395
42.31641261433284 15.2879
42.34028708044675 15.2275
42.36435001496739 15.2591
42.38822835065557 15.2553
42.41210861586426 15.1665
42.4359908120986 15.1254
42.46006154323262 15.1283
42.48394762115317 15.142000000000001
42.507835634632315 15.0967
42.531912233047436 15.0499
42.55580413732265 15.0608
42.579697981698 15.0356
42.60359376768525 14.9786
42.62767820545945 15.0162
42.65157789440821 15.019
42.67547952952185 14.932
42.699383112316 14.8799
42.72347541395347 14.8702
42.74738291190531 14.8162
42.771292362102166 14.8217
42.795203766063516 14.815999999999999
42.819303956130405 14.7805
42.843219287476536 14.7543
42.86713657716324 14.7265
42.89105582671383 14.7314
42.91516392983864 14.6971
42.939087119032166 14.6846
42.963012272677304 14.5953
42.98693939230129 14.599
43.01105543317513 14.5768
43.034986504731386 14.5251
43.05891954686589 14.5528
43.08285456110972 14.5292
43.10697856448665 14.4422
43.130917542983475 14.3724
43.15485849820081 14.3713
43.17880143167367 14.356
43.20293342237094 14.3594
43.226880332449 14.3404
43.25082922540554 14.3556
43.27496722682525 14.2729
43.29892010567796 14.3023
43.32287497204102 14.2406
43.34683182745632 14.2081
43.370977859791836 14.1761
43.39493871351105 14.2097
43.41890156092628 14.1751
43.44286640358341 14.135
43.46702049182749 14.1473
43.49098934522816 14.0439
43.51496019852649 14.0423
43.5389330532723 14.0352
43.56309522248204 13.9624
43.58707210044314 13.9295
43.61105098451946 13.9212
43.63503187626491 13.9118
43.659202151562134 13.8926
43.68318707902681 13.9025
43.70717401884041 13.8875
43.731162972560874 13.870999999999999
43.75534137913236 13.7832
43.779334381108384 13.7895
43.803329401683186 13.7797
43.82732644241872 13.7793
43.8515130055166 13.7643
43.87551410707659 13.6396
43.89951723350145 13.6886
43.923709934595614 13.6372
43.94771713129917 13.5851
43.97172635758096 13.6243
43.99573761501002 13.6109
44.0199385169922 13.543
44.04395385732619 13.5559
44.067971233533086 13.5182
44.09199064718605 13.4913
44.11619977548961 13.4656
44.14022328470671 13.4305
44.16424883610785 13.3997
44.18827643127035 13.4319
44.21249381139513 13.3789
44.236525514814076 13.3525
44.26055926674478 13.3372
44.28459506876863 13.3389
44.3088207262813 13.277999999999999
44.33286064928722 13.2521
44.35690262714919 13.2533
44.38094666145278 13.2242
44.4051806219871 13.2081
44.42922879003185 13.1606
44.45327901929361 13.0963
44.477331311362136 13.1613
44.501573600619416 13.0406
44.525630039221795 13.0893
44.54968854541895 13.0348
44.573937102200176 13.0168
44.5979997645541 13.0233
44.622064499300315 12.972999999999999
44.64613130803592 12.9229
44.67038823869318 12.9383
44.69445921643748 12.8977
44.718532272981385 12.8527
44.742607409926194 12.805
44.76687274034801 12.8334
44.79095205918753 12.7931
44.81503346325094 12.8069
44.839116954143876 12.8114
44.86339071028742 12.7524
44.88747839599524 12.6728
44.91156817336837 12.713
44.93566004401666 12.747
44.959942251908146 12.6549
44.984038330325966 12.6858
45.00813650686762 12.6227
45.03223678314731 12.6082
45.05652746888232 12.5245
45.08063196592069 12.5397
45.104738567558705 12.5135
45.128847275414856 12.4853
45.15314646515866 12.4806
45.17725940679741 12.4658
45.20137445952892 12.4126
45.22568004865265 12.4376
45.24979934496396 12.4099
45.27392075725247 12.3891
45.29804428714431 12.3349
45.322358426247604 12.2947
45.346486212804315 12.2704
45.370616121861914 12.3358
45.39474815505086 12.2756
45.41907087049246 12.2374
45.4432071734666 12.238
45.46734560548283 12.1811
45.49148616817604 12.1724
45.51581748638564 12.1222
45.5399623320197 12.1135
45.56410931325473 12.0839
45.58825843173002 12.1033
45.61259837920865 12.0609
45.636751793816 12.0897
45.66090735060093 12.0594
45.68506505120716 12.0191
45.7094136545275 11.9621
45.73357566449271 11.9079
45.75773982322992 11.9207
45.78190613238733 11.9139
45.806263418194064 11.8523
45.83043404997326 11.8734
45.85460683713677 11.8281
45.87897065658495 11.7913
45.90314777634752 11.7994
45.92732705646868 11.7665
45.9515084986045 11.773
45.97588104735473 11.7221
46.00006683541565 11.6939
46.02425479047904 11.6842
46.04844491420549 11.6816
46.0728262191024 11.6435
46.09702070211635 11.6334
46.12121735879483 11.6089
46.14541619080294 11.5955
46.169806278764455 11.5752
46.194009483459034 11.5929
46.21821486849841 11.5349
46.24242243555223 11.5019
46.266821333570014 11.5053
46.29103328674601 11.5068
46.31524742696538 11.4752
46.33946375590237 11.3908
46.36387149104216 11.3776
46.38809221957392 11.3904
46.41231514186606 11.3921
46.436540259597464 11.3826
46.460956858999374 11.3389
46.48518638983522 11.2894
46.509418121166966 11.2599
46.533652054678114 11.2515
46.55807754555709 11.2592
46.58231590571962 11.2795
46.60655647313217 11.2319
46.630988654873654 11.1509
46.655233659129024 11.1169
46.67948087571551 11.1268
46.70373030632484 11.1125
46.72817142736393 11.095
46.752425308428684 11.0541
46.77668140861147 11.0519
46.80093972960865 11.0196
46.82538981736788 10.9868
46.849652602470904 10.9824
46.87391761349769 10.967
46.8981848521493 10.9855
46.9226439341274 10.9433
46.946915650573224 10.8536
46.97118959976749 10.8556
46.99546578341598 10.8694
47.019933887188216 10.8598
47.04421456235744 10.8383
47.06849747711879 10.8312
47.09278263318286 10.8163
47.11725978640143 10.794
47.14154944775105 10.7756
47.165841355555656 10.7523
47.1901355115306 10.7141
47.214621741924994 10.7105
47.23892041698887 10.6633
47.26322134538975 10.6372
47.28771440635075 10.6018
47.31201986422527 10.6624
47.33632758061436 10.6244
47.360637557241866 10.5893
47.38513974410611 10.6144
47.40945426407847 10.5386
47.43377104948137 10.5397
47.45809010204344 10.5079
47.48260144275502 10.4623
47.506925052572285 10.4797
47.53125093475548 10.444
47.55557909103813 10.4323
47.58009961361992 10.4282
47.60443234110732 10.3969
47.62876734791564 10.3632
47.65310463578333 10.3457
47.6776343683373 10.3433
47.7019762413987 10.3083
47.72632040075572 10.253
47.75066684815169 10.2493
47.77520581885936 10.2373
47.799556865477655 10.1976
47.823910205386 10.22
47.84826584033272 10.1724
47.87281407745551 10.1632
47.89717432569297 10.1729
47.92153687423484 10.1688
47.94609208429692 10.1201
47.97045925671401 10.0863
47.99482873471275 10.0746
48.01920052005013 10.091000000000001
48.04376504619224 10.0772
48.068141469543484 10.0309
48.09252020552573 10.0092
48.11690125590099 9.99509
48.1414751266064 10.0344
48.16586082917454 9.9895
48.19024885144316 9.94248
48.2146391951793 9.937339999999999
48.239222439012764 9.92051
48.26361744916137 9.87513
48.28801478610016 9.8664
48.31241445160131 9.86936
48.337007097209366 9.825289999999999
48.36141144338331 9.810960000000001
48.38581812345755 9.81132
48.41022713920929 9.78215
48.434829215320704 9.80007
48.45924292604658 9.76277
48.48365897780325 9.7517
48.50807737237308 9.70923
48.532688907799276 9.70228
48.55711201168574 9.66831
48.581537463754074 9.63868
48.60615611725119 9.65896
48.63058628942721 9.66732
48.65501881516546 9.61634
48.6794536962573 9.59488
48.70408185970339 9.576369999999999
48.72852147531801 9.56293
48.75296345168211 9.52523
48.77740779059232 9.53088
48.80204549302823 9.54527
48.82649458091802 9.52701
48.85094603676547 9.47437
48.87539986237231 9.45706
48.90004713292306 9.4079
48.92450572200832 9.41497
48.94896668628025 9.42354
48.97343002754588 9.39739
48.99808689542115 9.393089999999999
49.02255501470614 9.35106
49.04702551642794 9.32743
49.0714984023988 9.32404
49.096164896893235 9.286660000000001
49.120642575466796 9.24226
49.145122643748394 9.224969999999999
49.16960510355558 9.2191
49.19428125404938 9.192789999999999
49.2187685210852 9.21204
49.243258185121555 9.19187
49.26794160167084 9.153830000000001
49.2924360839405 9.11961
49.31693296869764 9.06126
49.34143225776915 9.0629
49.36612538195438 9.07365
49.39062950396021 9.08938
49.41513603578346 9.06763
49.4396449792564 9.04813
49.46434784069503 9.037510000000001
49.488861631846454 9.025789999999999
49.513377840166804 8.99563
49.537896467493745 8.96295
49.56260909589029 8.90949
49.587132585683285 8.935789999999999
49.611658500018365 8.90735
49.636186840738596 8.89978
49.66090926588511 8.89523
49.685442483902584 8.869060000000001
49.70997813385706 8.83198
49.734516217597076 8.812389999999999
49.75924846937352 8.80616
49.7837914452858 8.80059
49.80833686055187 8.79537
49.83288471702571 8.77824
49.85762682540054 8.7601
49.882179588965734 8.72762
49.9067347993235 8.70311
49.93129245833333 8.71026
49.95604445336378 8.71238
49.98060703442832 8.69776
50.005172069746266 8.66308
50.02993150438364 8.644
50.05450147301533 8.61683
50.07907390151433 8.595189999999999
50.10364879174981 8.58196
50.12841816587289 8.56958
50.1529980044635 8.550980000000001
50.17758031042124 8.50651
50.20216508562089 8.52484
50.22694442953363 8.50633
50.25153416817468 8.494769999999999
50.27612638170508 8.482330000000001
50.300721072005196 8.435139999999999
50.325510416102105 8.40879
50.350110084975064 8.39993
50.37471223628208 8.42292
50.39931687190919 8.36737
50.424116246675766 8.34672
50.44872587605249 8.35074
50.47333799543065 8.32798
50.49795260670191 8.321069999999999
50.52276204271512 8.331339999999999
50.54738166295838 8.29458
50.57200378079314 8.280669999999999
50.596628398116835 8.26215
50.62144792604559 8.26061
50.646077567609396 8.200239999999999
50.670709714377715 8.1946
50.69553683636198 8.18557
50.72017401885922 8.1993
50.7448137122895 8.176839999999999
50.76945591856022 8.12942
50.79429318636823 8.13315
50.818940443716784 8.10111
50.84359021965163 8.0849
50.868242516085964 8.08558
50.893089960641895 8.06409
50.917747323549435 8.04751
50.94240721271973 8.0548
50.96706963007175 8.00512
50.99192728239342 7.9783100000000005
51.01659478166073 7.9961899999999995
51.04126481489051 7.97018
51.06593738400761 7.935810000000001
51.090805275207074 7.951860000000001
51.11548294172845 7.937689999999999
51.14016314993547 7.93531
51.164845901758845 7.90433
51.18972406304274 7.870410000000001
51.21441192780656 7.8391
51.23910234200271 7.827789999999999
51.2637953075678 7.839160000000001
51.288683770237945 7.83838
51.31338186432707 7.792960000000001
51.33808251561888 7.7740100000000005
51.362978729967345 7.79185
51.387684521509755 7.79243
51.41239287610203 7.76513
51.437103795691165 7.7217
51.46201036644977 7.76
51.486726441956634 7.678660000000001
51.51144508832545 7.67577
51.536166307509156 7.654789999999999
51.56108326624387 7.63512
51.58580965706056 7.60385
51.61053862657523 7.6117300000000006
51.635270176746864 7.591310000000001
51.66019755512065 7.56751
51.68493429268881 7.57793
51.70967361681515 7.55767
51.73441552946465 7.5282100000000005
51.759353359237934 7.50662
51.7841004750961 7.47737
51.80885018539685 7.48822
51.833602492111254 7.5022
51.8585508051424 7.4634
51.883308330926425 7.43545
51.90806845906181 7.42975
51.932831191525715 7.37975
51.95779001977161 7.4144
51.98255798721516 7.35608
52.00732856494335 7.341139999999999
52.03229530577543 7.34145
52.057071130455945 7.3292600000000006
52.081849571391054 7.30968
52.106630630568695 7.280869999999999
52.13160794279417 7.297339999999999
52.15639426492067 7.30682
52.18118321127822 7.28822
52.205974783860896 7.23942
52.23096269971011 7.21586
52.255759551287994 7.209
52.280559035098186 7.17748
52.30536115314103 7.17232
52.33035970494467 7.148680000000001
52.35516711807904 7.151689999999999
52.37997717147198 7.13473
52.40478986713005 7.10349
52.42979908731974 7.10997
52.454617094216 7.102110000000001
52.47943774942214 7.07313
52.50426105495102 7.047110000000001
52.529280976059844 7.010560000000001
52.554109609024096 7.02243
52.57894089837482 7.04637
52.60377484613117 7.022360000000001
52.62880550079408 6.99402
52.65364479223379 6.972980000000001
52.67848674816189 6.942310000000001
52.70352547971946 6.93859
52.72837279155837 6.95604
52.753222773982785 6.894589999999999
52.778075429022984 6.91573
52.80312495150885 6.88651
52.827982978797436 6.8299199999999995
52.85284368481815 6.8498399999999995
52.87770707160767 6.82603
52.90276741793998 6.80669
52.92763619336701 6.8136399999999995
52.952507655698504 6.811439999999999
52.977381806977576 6.786569999999999
53.00245301017842 6.74441
53.02733256653592 6.78052
53.052214817996074 6.746739999999999
53.077099766608484 6.6946
53.102181859804446 6.72532
53.127072229988265 6.72364
53.15196530349892 6.64928
53.17686108239249 6.66039
53.20195409881522 6.6314
53.22685531582556 6.65463
53.25175924441303 6.62483
53.27666588664027 6.601939999999999
53.30176985962693 6.61252
53.3266819565689 6.56941
53.35159677336455 6.59174
53.376514312083096 6.5477300000000005
53.40162927507703 6.53914
53.42655228516116 6.5385800000000005
53.45147802340193 6.4895
53.47660125628886 6.527909999999999
53.50153247842639 6.5233300000000005
53.52646643496923 6.46831
53.55140312799818 6.49667
53.576537409691696 6.48805
53.60147960336152 6.45324
53.626424539786164 6.41308
53.65137222105307 6.3832
53.67651758529126 6.42092
53.70147078399681 6.36834
53.72642673383343 6.343719999999999
53.75138543689533 6.35581
53.776541917524526 6.3558699999999995
53.801506154876755 6.33205
53.826473151763246 6.29605
53.851442910284916 6.2781400000000005
53.87661054126026 6.29103
53.9015858509782 6.29363
53.92656392866066 6.27463
53.95154477641532 6.25473
53.976723591801296 6.23669
54.00171000771266 6.24086
54.02669920004598 6.22392
54.051691170915745 6.1959
54.076881204886796 6.165830000000001
54.101878760928514 6.16985
54.12687910187696 6.17959
54.152077577768296 6.18231
54.1770835166946 6.09239
54.20209224691339 6.086180000000001
54.22710377055121 6.0828
54.25231352511594 6.0815
54.27733066384342 6.05189
54.30235060239643 6.025980000000001
54.32737334290836 6.09641
54.35259441062629 5.99279
54.377622783395324 5.96968
54.40265396455061 5.97391
54.42768795623251 5.95211
54.45292037169559 5.914
54.477960012857906 5.90644
54.50300247099511 5.89851
54.52804774825457 5.86566
54.55329154616743 5.86439
54.57834249018678 5.88965
54.6033962597977 5.8571
54.6284528571545 5.80884
54.653708072335164 5.7603800000000005
54.67877035378786 5.76207
54.70383546947698 5.70196
54.72890342156389 5.7028300000000005
54.7541700889442 5.66129
54.77924374251975 5.73623
54.8043202390049 5.668080000000001
54.82959552413022 5.64254
54.8546777351945 5.58324
54.87976279569621 5.58619
54.90485070780914 5.581580000000001
54.930137506558005 5.58366
54.95523115074295 5.616709999999999
54.98032765308844 5.52836
55.005427015775496 5.50551
55.03072536339621 5.50137
55.05583047570572 5.488980000000001
55.080938454927676 5.43421
55.10604930325027 5.42898
55.131359235107396 5.41164
55.15647585066083 5.377330000000001
55.181595341907496 5.3514800000000005
55.20671771104285 5.3832699999999996
55.232039262617704 5.31
55.25716741665048 5.272419999999999
55.28229845518636 5.32864
55.30743238042802 5.2644400000000005
55.33276558731939 5.23031
55.357905315183636 5.23111
55.383047936390035 5.14465
55.40819345314859 5.1145
55.433538351073295 5.131130000000001
55.458689688238415 5.19561
55.483843927614096 5.09185
55.509197623043605 5.017530000000001
55.53435769621134 5.00888
55.55952067826466 4.95959
55.5846865714265 4.9557
55.61005202069737 4.96021
55.63522376553902 4.9478800000000005
55.66039842818645 4.95151
55.68557601087004 4.91706
55.7109532500271 4.8988
55.73613670233794 4.88266
