TT I
1.2716486653135266 8.35498
1.2939594142134223 7.960089999999999
1.3162702121660406 7.63658
1.3385810600174564 7.693039999999999
1.3608919586137629 7.721419999999999
1.383202908801069 6.802910000000001
1.405513911425503 6.68953
1.4278249673332093 6.9332
1.4501343378461518 6.71939
1.4724455028545926 6.50416
1.4947567236847858 6.52696
1.517068001182951 6.52391
1.5393793361953272 6.428059999999999
1.5616907295681737 6.29223
1.5840021821477681 6.0576
1.60631369478041 6.3712
1.6286252683124185 5.764130000000001
1.6509369035901333 5.86699
1.6732468618895553 5.26572
1.695558623192809 5.33403
1.7178704487808514 5.7344
1.7401823395001077 5.91196
1.7625012545597203 5.72785
1.7848028405262486 5.42877
1.8071218901122095 5.00431
1.8294236121921872 4.82376
1.8517427996910911 4.89151
1.8740620574440425 5.26776
1.8963639900671978 4.99474
1.9186833908139995 5.08251
1.9409854680117449 5.76369
1.9633050151394713 5.2165300000000006
1.9856246367570705 4.9751900000000004
2.0079269371922672 5.055
2.03024671027244 4.85991
2.0525491637446027 4.93519
2.074869091674931 5.13311
2.097171701569106 4.8535900000000005
2.1194917877373847 4.95264
2.141811954326636 5.17163
2.164114805233074 4.71413
2.186435135143035 4.93133
2.208738150935709 4.72405
2.231058647554722 4.38245
2.2533792288321184 5.00685
2.275682498336085 4.68171
2.298003251406138 4.98458
2.3203066942619714 4.4783599999999995
2.3426276225136022 3.9708
2.3649486396617507 3.9833
2.387252348930071 4.29694
2.4095735463442893 4.05125
2.4318774374315884 3.6911400000000003
2.4541988185014043 3.62499
2.476502894794693 4.51284
2.498824462909887 4.0667599999999995
2.521146125856138 4.29421
2.5434504863470337 4.39074
2.5657723414244717 4.0054
2.588076895590662 4.75737
2.610398946189713 4.83105
2.6327210958598384 4.463419999999999
2.6550259469304716 4.87398
2.6773482972090137 5.41369
2.6996533504259 5.11768
2.7219759047039602 5.6481699999999995
2.744298562293959 5.61681
2.7666039251246595 5.73453
2.7889267918020164 6.38103
2.8112323652516555 6.20416
2.833555444408179 6.67042
2.8558786311183852 7.13592
2.8781845268938557 7.904160000000001
2.9005079311721484 7.95887
2.9228140460410397 8.26169
2.9451376712799635 8.71636
2.967444008632326 9.353530000000001
2.9897678582247247 9.96455
3.0120918213106695 10.2443
3.0343984987899373 10.4856
3.0567226913198637 10.8124
3.079029599759726 10.9837
3.101354025127254 11.9126
3.123678568232338 13.2765
3.145985829517914 12.81
3.16831061055229 13.1567
3.1906181112775593 14.0387
3.212943133635653 14.380999999999998
3.2352682779763207 14.9279
3.2575761442691227 15.0568
3.2799015350264273 15.6552
3.302209649240067 15.7606
3.3245352898092655 16.2855
3.3468436553365257 16.9076
3.369169549113219 17.6091
3.3914955708171384 18.3312
3.413804319727358 18.5603
3.4361305997334863 18.4988
3.4584396084414553 18.9627
3.4807661501462652 19.8136
3.503092824025881 20.0922
3.5254022288463154 20.5135
3.5477291695206588 20.8644
3.5700388426251948 21.0911
3.5923660534916446 21.8128
3.6146934007816114 22.0617
3.637003482731501 22.0385
3.6593311053109985 22.259
3.681641464033634 23.0804
3.7039693653009733 23.3119
3.726297407241705 23.8343
3.7486081875460804 24.4059
3.7709365132734978 24.563000000000002
3.793247578841633 24.8276
3.8155761917550093 25.16
3.8378875459837216 25.7539
3.8602164494827234 26.1683
3.882545499606844 27.0645
3.9048572932539183 27.5889
3.9271866390645718 28.0535
3.9494987298666713 28.3262
3.971828374764527 28.9599
3.9941581705403255 29.3381
4.016470713506008 29.9087
4.038800813471445 30.5079
4.061113662089144 30.6985
4.0834440696459176 31.3038
4.105774632334751 31.5204
4.128087945865126 32.0708
4.150418821249301 33.1387
4.172732448931298 33.6572
4.195063640413578 34.1941
4.2173775856475215 35.0911
4.239709096631102 35.9956
4.262040768704612 36.0576
4.284355196706267 36.5905
4.306687193387355 37.5191
4.329001947444346 38.3574
4.35133427213731 39.6671
4.373666762177566 40.006
4.395982011761091 40.8363
4.418314834921175 42.0099
4.44063041906622 42.4853
4.4629635787515625 42.9603
4.4852969080429785 44.5923
4.5076130004776225 45.4512
4.529946671403969 46.7022
4.552263106909177 47.603
4.574597122877047 49.0654
4.596931312711224 49.8009
4.619248269273446 50.9516
4.6415828092605835 51.7977
4.663900117405352 53.3498
4.686235010953232 54.7389
4.708552674085913 55.9201
4.730887924602802 57.4795
4.753223354952695 59.5379
4.775541557023902 60.6592
4.797877349456786 62.3157
4.820195915032126 64.3342
4.842532072957498 65.8491
4.864868414979744 68.2623
4.88718753227192 70.1921
4.909524244902505 72.98899999999999
4.931843734218147 75.4627
4.954180820867835 78.9099
4.976518095879839 83.25200000000001
4.998838149695359 87.0983
5.021175803844231 92.0751
5.043496238205739 96.6933
5.065834274903528 102.905
5.088172504230693 111.522
5.1104935158799565 121.62100000000001
5.132832132875765 137.922
5.155153533596801 164.139
5.1774925416746225 228.43
5.199814334878411 616.006
5.2221537374521505 2090.08
5.244493338631803 3768.9
5.266815727034316 4865.55
5.289155727832427 7226.83
5.311478517248165 9365.33
5.333818921080011 6893.37
5.356159527788849 2426.97
5.3784829252032536 587.012
5.400823940070432 248.83900000000003
5.423147747031976 179.109
5.445489173474152 149.089
5.467830807066149 133.887
5.490155234831516 124.39
5.512497285125229 117.46799999999999
5.534822130975162 113.791
5.557164601388673 110.02600000000001
5.579489868738879 106.023
5.601832762690846 103.62899999999999
5.6241758697774475 101.28299999999999
5.646501775867269 100.03
5.668845311622074 99.32600000000001
5.691171647754637 98.4756
5.713515615597765 97.5442
5.735859800852677 96.1995
5.758186788542988 96.1487
5.780531411018185 96.256
5.802858837297399 96.1059
5.825203900414495 97.4371
5.8475491852224 98.6949
5.869877275883075 101.04700000000001
5.892223006467101 104.139
5.914551544266608 109.18
5.936897724049891 116.529
5.959244129804903 130.966
5.981573344815301 166.96099999999998
6.0039202049061 314.385
6.026249875609095 803.08
6.04859719346037 1421.65
6.070927323278297 1814.78
6.093275102315365 2376.95
6.115623113320588 3365.67
6.137953938319995 3902.22
6.160302415650845 2437.75
6.182633708324452 851.5830000000001
6.2049826554078376 262.875
6.227331838745022 136.53
6.249663839443684 106.209
6.27201349767565 93.6028
6.294345974611799 85.8743
6.316696111167083 80.3693
6.339046488263839 76.7043
6.361379686074702 73.3911
6.383730546639482 71.0332
6.406064229255215 68.5997
6.428415576718203 67.9819
6.450749747566656 66.393
6.47310158535871 65.2353
6.495453669698332 64.0381
6.517788579421056 63.5478
6.540141159237969 62.0347
6.562476565766648 61.6244
6.5848296444934045 60.7241
6.607182974060425 59.5768
6.6295191323281015 59.4154
6.651872965955752 58.881
6.6742096296068985 58.4056
6.6965639707294615 57.7066
6.71891856698715 56.763999999999996
6.741255995248479 56.5752
6.763611104154477 55.9598
6.785949046381137 55.56399999999999
6.808304671371482 54.9936
6.8306605557940046 55.0925
6.852999275508618 54.3468
6.875355681171544 54.3208
6.897694923437771 53.8674
6.92005185377892 53.8965
6.9423916220322655 53.6517
6.964749080490181 53.1369
6.987106804399774 53.0017
7.009447368180821 53.0599
7.031805625367033 52.5968
7.054146723727803 52.8993
7.076505517631004 52.0915
7.098864581288365 52.0756
7.121206488070854 52.2221
7.143566093607822 51.6428
7.165908543567245 51.8827
7.188268694426048 52.0502
7.2106291193438095 51.3698
7.232972390625943 51.3331
7.255333366030969 51.511
7.277677189091925 51.2983
7.300038718428332 51.6105
7.322400526130865 51.4649
7.344745183422596 51.7512
7.367107550224791 51.6226
7.389452767901992 51.8377
7.411815697249891 51.9616
7.434161478756298 51.4701
7.456524974096713 51.5283
7.478888753837185 51.3875
7.501235387657368 52.6585
7.523599738562711 57.4048
7.545946944825532 66.0803
7.568311870344528 69.6976
7.5906770845765665 63.9
7.613025156078678 57.0734
7.635390950099687 54.1818
7.657739602662809 52.9665
7.680105979923558 52.7582
7.702472650212829 53.221000000000004
7.724822180948224 53.1146
7.747189439655568 53.7166
7.769539560075357 54.0589
7.791907410653562 54.458999999999996
7.81425812420825 54.5336
7.836626570110925 55.0271
7.858995315087906 55.1545
7.881346924933401 55.6715
7.903716270417482 56.2928
7.926068482028405 56.5326
7.948438431475253 57.2264
7.9708086843180235 57.6681
7.993161805171116 58.3484
8.015532667162402 58.478
8.037886398416653 59.6644
8.060257873014221 59.7838
8.082629655331942 60.7139
8.104984308787587 61.3263
8.127356708900503 62.0084
8.149711981398308 63.2559
8.172085002766314 63.6354
8.194458336181368 64.7191
8.216814543847752 66.0633
8.23918850371002 67.406
8.26154533906492 68.7217
8.283919928836452 70.4609
8.306277395339652 71.631
8.328652618483376 73.0287
8.351028159736202 75.551
8.373386579575245 78.1423
8.395762759396959 80.30199999999999
8.418121819038275 83.9514
8.440498640894003 88.8729
8.462875785192262 97.0148
8.485235811156207 113.804
8.507613602688501 180.868
8.529974277114228 387.30199999999996
8.552352719347912 632.634
8.574731488360351 775.577
8.59709314210385 806.047
8.619472567021075 936.817
8.64183487789147 1283.3
8.664214962183097 1738.58
8.686577933647762 1734.71
8.708958680784317 1101.12
8.731339760774953 503.042
8.753703729764451 203.915
8.77608547780821 124.463
8.798450116065078 107.089
8.820832535634787 99.0074
8.843215292401656 94.4657
8.865580941199045 91.6236
8.887964374703538 89.3714
8.910330701447199 87.539
8.932714815164482 86.6562
8.955099270424924 85.2377
8.977466620733543 84.2564
8.999851761421976 83.6911
9.022219798361645 82.8942
9.04460562795561 82.6514
9.066991803441677 81.9931
9.089360876979615 81.6953
9.111747746589993 81.4968
9.13411751544971 80.7316
9.156505082664324 80.6183
9.178875550323522 81.3049
9.20126381862328 82.4338
9.223652438908596 89.7529
9.246023961427412 103.01
9.26841328802173 107.76100000000001
9.290785518039224 100.962
9.313175554425882 90.7316
9.335565947154315 83.6662
9.357939245086508 82.1908
9.380330352834827 81.6996
9.40270436697103 81.768
9.425096193225055 81.2727
9.447488380180165 82.0623
9.469863475295412 82.2006
9.492256385987508 83.0258
9.514632206018318 83.274
9.537025843935714 83.7324
9.559402392368193 84.2044
9.581796761000229 85.3178
9.604191496441521 85.8439
9.626569144158516 86.2063
9.648964615551032 86.7778
9.671343000390081 87.8362
9.693739211225699 89.059
9.716135793237463 90.0428
9.738515290448102 90.9264
9.760912617143402 92.2581
9.783292860202891 93.2942
9.805690935076182 94.7577
9.828089385495742 96.0989
9.850470754023561 98.3904
9.872869957865444 101.071
9.89525208097539 104.145
9.917652041736662 107.911
9.940052382417589 115.45299999999999
9.962435644102392 133.485
9.984836746950979 192.84099999999998
10.007220771957746 358.574
10.029622640473708 572.48
10.052007432299963 688.4169999999999
10.074410069984072 696.3960000000001
10.096813093716005 720.078
10.119199042482517 866.7410000000001
10.141602840636468 1188.18
10.163989564971628 1548.08
10.186394141051062 1603.58
10.208799107559706 1129.93
10.231187001965623 580.072
10.253592751657669 251.497
10.275981430388155 143.929
10.298387966769793 119.63600000000001
10.320794897965431 112.887
10.343184759907361 108.93299999999999
10.36559248305461 105.98100000000001
10.387983138083852 104.946
10.410391656691655 107.294
10.432800574501677 122.713
10.455192425893369 168.065
10.47760214443012 222.449
10.499994797678786 252.31900000000002
10.522405320453982 251.169
10.54479877906917 254.58
10.567210109595656 287.41200000000003
10.5896218454736 358.309
10.612016518879773 460.17699999999996
10.634429067781074 500.892
10.656824555333241 411.662
10.679237920773568 264.717
10.701651695961992 151.838
10.724048411481384 107.14399999999999
10.746463008485165 93.1358
10.768860546937125 87.1358
10.791275969274796 83.6139
10.81369180576079 81.7591
10.836090585366925 80.4449
10.858507252467449 78.5718
10.88090686379991 77.4519
10.903324365036394 76.541
10.925724811614439 75.3138
10.948143150509463 74.9782
10.970561909719066 73.7093
10.992963615930844 72.8922
11.015383218085756 71.9944
11.037785768347074 71.3739
11.06020621697282 70.5122
11.082627090322113 70.2013
11.105030913430326 69.5751
11.12745263854165 68.6403
11.149857314510728 68.2918
11.172279894912576 68.2896
11.194702904450653 67.1556
11.217108866490921 66.5655
11.239532736615194 66.2153
11.26193956033512 65.7905
11.284364294577085 65.4977
11.306789462371718 64.9798
11.329197585398376 64.6883
11.351623622610898 64.6411
11.37403261614354 63.7911
11.396459526308487 63.9514
11.418869393879497 63.592
11.441297180532617 63.1314
11.463725406927658 62.7834
11.486136592353875 62.3969
11.508565700543707 61.8596
11.530977768845315 62.2078
11.553407762368774 61.7308
11.575838200059769 61.6822
11.598251599479612 61.6391
11.620682927815501 61.6302
11.64309721895548 61.3475
11.665529441478206 61.1837
11.687962112597958 60.7201
11.710377748130886 60.9789
11.732811318753434 60.9278
11.755227854859067 60.7268
11.777662328529495 60.6395
11.800079768750786 60.6924
11.822515149015453 60.431000000000004
11.844950984084935 60.9815
11.867369787303163 60.7735
11.889806534289491 60.9392
11.912226250487029 62.245
11.934663912939751 65.1495
11.9571020346363 67.689
11.979523127133968 67.7445
12.001962169624331 67.0679
12.024384183972964 66.1387
12.046824150809913 68.1762
12.069264581333726 77.9077
12.091687985297767 92.1062
12.11412934550045 102.86200000000001
12.136553680195208 107.28
12.158995973632788 107.704
12.181438735204349 109.24
12.20386447284199 117.103
12.226308172985636 135.672
12.24873485024193 162.39700000000002
12.271179492516982 186.688
12.293607112949127 184.773
12.316052700916226 154.66
12.338498763250042 109.484
12.360927805303868 79.0623
12.383374818673879 67.74600000000001
12.405804812803074 64.2132
12.428252780773262 63.24
12.45070122756722 62.8908
12.473132656675375 62.6938
12.49558206341869 62.5631
12.518014453510101 62.2952
12.540464823770117 62.4633
12.562915677315177 62.7172
12.58534951575545 63.0954
12.607801338171472 62.7878
12.630236146511358 63.07
12.652688941369085 63.6878
12.675124723177234 63.8138
12.697578494048786 64.5824
12.720032754458185 64.2324
12.742470003354093 65.0495
12.764925245138771 65.4695
12.787363476431278 65.885
12.809819703166806 66.2896
12.83227642391173 66.7679
12.854716135692716 67.5472
12.877173846755147 68.6391
12.899614549869717 69.0707
12.9220732548287 69.9575
12.94453245827299 70.649
12.966974655289818 71.4404
12.989434858002571 72.6012
13.011878055298721 73.2584
13.034339260862497 74.3889
13.056800969391883 76.2317
13.079245674017244 78.7894
13.101708390774869 81.2955
13.12415410463411 86.9949
13.146617833206086 104.425
13.169064559883248 136.225
13.191529303857127 169.217
13.213994557076367 191.817
13.236442809902437 195.584
13.258909083908291 191.77
13.28135835851934 195.783
13.30382565690295 215.748
13.326293469022952 255.09
13.348744283242008 314.877
13.371213125129904 376.462
13.39366497011003 391.639
13.416134845360597 332.11300000000006
13.438605238843131 238.40099999999998
13.46105863690397 158.429
13.483530069144786 125.596
13.505984506951902 133.469
13.528456981549432 159.128
13.550929978879088 177.903
13.573385983253365 183.176
13.595860028340867 178.747
13.618317081455832 176.92700000000002
13.64079217790333 186.53900000000002
13.663250283359057 208.405
13.685726434770173 248.226
13.708203115221277 303.676
13.730662806148091 338.665
13.75314054697177 321.258
13.775601299246777 256.231
13.798080104050406 172.422
13.820559442405358 113.64200000000001
13.843021793671388 90.2362
13.865502201420897 82.7318
13.887965623051947 80.5354
13.910447103807167 78.79899999999999
13.932929122629764 77.1483
13.955394156785959 76.6536
13.977877254034569 75.4656
14.000343367582113 74.3695
14.022827546871707 73.8028
14.045294743423524 73.2816
14.06778000837062 72.5253
14.090265817715476 72.4095
14.112734645763819 72.5221
14.13522154619454 74.0428
14.157691466286913 75.3871
14.180179461423874 74.953
14.202668005486178 73.8074
14.22513957064374 72.0136
14.247629214846473 70.5847
14.270101881097517 69.5589
14.29259262906496 68.8739
14.315083930490205 68.5228
14.337558255389705 68.4434
14.360050666019726 68.3216
14.382526101071944 67.8702
14.405019624534942 67.604
14.427513705993134 67.6273
14.449990813291825 67.529
14.47248601302899 67.3182
14.49496423954951 67.5025
14.517460561197822 67.7146
14.539939910570322 67.4093
14.562437357763558 67.6624
14.58493536931253 67.8971
14.607416409993311 67.9052
14.62991555254159 68.3661
14.652397725157423 68.175
14.674898002342799 68.5966
14.697398848433282 69.0819
14.719882725991326 70.0509
14.74238471217934 70.7782
14.764869730765593 73.723
14.787372860692983 80.689
14.809876564079925 94.7182
14.83236330125751 109.056
14.854868153850365 118.333
14.877356041159485 120.926
14.899862046604186 118.948
14.922351087688757 118.545
14.944858249632887 122.869
14.967365991421232 133.023
14.989856770231246 149.566
15.012365673994204 175.524
15.03485761569738 201.245
15.05736768508665 207.673
15.07987833888692 189.857
15.102372032001655 152.297
15.124883856909658 110.973
15.14737872204565 85.4658
15.169891721717274 74.9393
15.192405310371893 71.4231
15.214901940621196 69.9354
15.237416709527137 68.8239
15.259914520936249 68.1746
15.282430473753607 67.3026
15.304947020131227 66.7438
15.327446610371178 66.4242
15.349964346154254 65.8629
15.372465126703139 65.7402
15.394984055556009 65.6802
15.417486030076159 65.7901
15.44000615566487 65.1958
15.462526881230803 65.1078
15.485030653812652 65.0522
15.507552581617434 64.7109
15.530057557334603 64.6568
15.55258069104857 64.6621
15.575104429329837 65.1154
15.597611216864632 65.0541
15.620136166564563 65.1823
15.6426441664095 65.9767
15.665170331202765 68.1648
15.687697105158826 73.6436
15.710206930593545 84.5536
15.732734925158933 96.4265
15.755245972089478 104.736
15.77777519094324 107.725
15.800287463046663 106.709
15.822817909869592 105.001
15.84534897229804 106.05799999999999
15.867863089299354 112.744
15.890395385222186 122.807
15.912910736597423 139.183
15.935444269699861 162.267
15.957978423016485 180.734
15.980495633101265 181.80700000000002
16.003031029129367 163.489
16.02554948280019 128.21
16.048086125229432 95.8195
16.070623392487107 76.6265
16.09314371869582 67.5102
16.11568223789321 63.9226
16.13820381691126 62.1005
16.160743591742527 60.845
16.183283996022084 59.93
16.205807461423195 58.9649
16.228349126881973 58.3975
16.25087385432698 58.2348
16.27341678466365 57.474
16.29594277784926 57.2666
16.31848697676433 56.7992
16.341031811604868 56.2594
16.36355971058487 55.9907
16.3861058195587 56.0385
16.40863499352978 55.3202
16.431182380342005 55.248999999999995
16.453730407713202 54.9752
16.476261501364792 54.7618
16.498810812136167 54.6847
16.52134319004079 54.4693
16.54389378792203 54.4774
16.566445031001553 54.4666
16.588979342490088 54.3018
16.61153187824822 54.0966
16.634067483263312 54.0809
16.656621315414416 53.8056
16.679175797408888 53.5086
16.701713349928728 53.5523
16.72426913389191 53.711999999999996
16.74680798922351 53.458999999999996
16.76936507887444 53.5812
16.791905240734874 53.8223
16.814463639794468 53.575
16.837022695210294 53.7084
16.859564824093756 53.6258
16.882125194503903 53.8938
16.904668639217885 54.1534
16.927230328348003 54.3717
16.949792678493612 54.7768
16.972338104193863 54.8038
16.994901778652235 54.6226
17.017448529496576 54.6269
17.040013531998152 54.8176
17.06257920018044 55.0695
17.0851279459922 56.1332
17.107694947817667 58.4766
17.130245028099072 60.7816
17.15281336730298 62.8683
17.17536478578733 64.1736
17.19793446610687 64.3384
17.220504818648422 63.8938
17.243058251703697 63.5969
17.265629950971032 64.6489
17.288184731571736 66.2061
17.310757781306908 69.111
17.33333150794385 72.0999
17.355888317140174 76.3246
17.37846339986244 79.9427
17.401021565958885 81.1064
17.42359800851343 78.7244
17.44617513265564 72.9529
17.468735341390783 66.7674
17.491261035594565 62.1178
17.51396340099364 59.6073
17.536490463869136 58.5079
17.559018209820174 58.4475
17.58154663977963 58.5148
17.604251766089718 58.5648
17.626781572227713 58.7961
17.64931206518155 58.8112
17.671843245885103 59.2143
17.69455114821572 59.3951
17.717083712612634 59.5253
17.739616967569667 60.0709
17.762150914021706 60.7038
17.78486160749854 61.063
17.807396945166804 61.7382
17.829932977143503 62.2178
17.85246970436452 63.3639
17.875183204129467 66.0316
17.897721330097664 71.8728
17.920260154126645 78.815
17.942799677153296 84.4794
17.9655159983646 87.4638
17.988056927677544 88.1228
18.010598558807683 87.3383
18.033140892692916 86.8887
18.05586005052525 88.0337
18.07840379824407 91.3463
18.10094825154059 97.0836
18.12366954819864 105.89299999999999
18.146215420998306 119.071
18.16876200220057 134.422
18.191309292745153 145.369
18.214033452627167 146.917
18.236582170236648 136.204
18.259131600016456 117.166
18.281681742907335 99.4065
18.304408781233683 87.8578
18.32696035875955 83.2831
18.349512652227624 82.7088
18.372065662579683 85.5583
18.394795594587553 89.8462
18.41735004715306 95.6917
18.43990521943684 101.007
18.46246111238171 102.443
18.485193953325208 98.2054
18.507751296070428 89.2133
18.530309362314178 79.4106
18.552868153000343 71.1171
18.57560391815056 65.5402
18.59816416623245 63.231
18.620725141597372 62.0625
18.643286845190268 61.0689
18.666025549835414 60.5006
18.688588718427933 59.755
18.711152618092243 59.6322
18.73389353884365 59.1263
18.75645890921984 58.7567
18.77902501351406 58.3341
18.801591852673102 58.347
18.824335739722738 57.7139
18.846904057212626 57.5773
18.8694731124168 57.333999999999996
18.89204290628315 57.3204
18.914789774966803 57.1799
18.937361054791623 56.8572
18.959933076131318 56.6137
18.982505839934877 56.3828
19.00525570560582 56.2699
19.027829963004184 56.2164
19.05040496572238 56.2643
19.072980714710468 56.3268
19.095733592739563 56.3086
19.11831084296757 56.9606
19.140888842324735 58.2681
19.16346759176222 59.3794
19.18622349753803 60.6515
19.208803755869358 61.6404
19.231384767143577 61.93899999999999
19.253966532312948 61.7302
19.276725481241822 61.4695
19.29930876296784 61.3838
19.3218928014549 62.1509
19.34465404436217 63.2175
19.36723960516257 64.7998
19.389825925592426 66.5008
19.412413006605938 68.9493
19.43517731967805 71.8918
19.457765930683355 73.6071
19.48035530514408 73.0993
19.50294544401556 70.1012
19.525712842708348 65.3305
19.54830451925909 60.8184
19.570896963095727 56.7136
19.593490175174704 54.6233
19.616260674962184 53.9285
19.638855432416964 53.2775
19.661450960992624 53.4741
19.68404726164677 53.2938
19.706820878021247 53.0699
19.729418731756834 53.0035
19.752017360452857 52.7169
19.77461676506804 53.0496
19.797393513540218 53.0485
19.819994478951667 53.3166
19.84259622316767 54.3483
19.8651987471481 55.5903
19.887978643247177 56.3632
19.91058273574792 57.4337
19.933187610901943 58.0246
19.955969879466828 58.2574
19.97857632894404 57.7625
20.00118356396599 57.5191
20.023791585494575 57.7645
20.046577028914875 58.6858
20.069186632506966 60.1373
20.091797025500632 62.4606
20.114408208858933 64.8744
20.137196842715273 67.99
20.159809615886765 70.9826
20.18242318232135 71.8726
20.20503754298326 71.4004
20.227829382875154 69.1358
20.250445341109344 65.7155
20.27306209647285 62.4522
20.29567964993108 60.3475
20.31847471147704 59.3704
20.34109387027612 59.7126
20.363713830075454 61.2163
20.386334591841646 62.9645
20.409132890679302 64.2301
20.431755265564437 64.3898
20.454378445325528 62.8463
20.477002430930366 60.1397
20.499803982716553 56.7628
20.522429589228004 53.6962
20.54505600449589 51.7958
20.567683229489194 50.6761
20.590488049900088 50.2793
20.61311690359731 50.04600000000001
20.63574656993626 49.7032
20.658553853717297 49.4595
20.681185154618298 49.2239
20.703817271080066 49.3177
20.72645020407368 48.977
20.749260783967177 48.7517
20.771895359337133 48.9856
20.794530754161617 49.0878
20.817166969412938 48.9319
20.83998086114876 48.8068
20.86261872660049 48.5136
20.885257415405402 48.5042
20.90789692853701 48.391999999999996
20.930714147864748 48.13
20.953355319030678 48.3017
20.97599731745334 48.481
20.99864014410749 48.4179
21.021460706796564 48.5326
21.044105199328826 49.1072
21.06675052302631 48.9991
21.089396678865015 48.9685
21.112220600704806 49.0887
21.134868430275347 49.1543
21.15751709492456 48.9176
21.180166595629693 48.8032
21.202993892429635 48.9539
21.22564507473034 49.2239
21.24829709602816 49.5292
21.27112693608965 49.9419
21.293780644891275 50.5155
21.316435195634053 50.8104
21.339090589297417 50.9263
21.361923832041875 50.8669
21.384580921090404 50.4248
21.407238856007325 49.643
21.429897637773326 49.0851
21.45273429906592 48.7136
21.475394784108598 48.3364
21.498056118951983 48.0787
21.520718304578022 48.1954
21.543558400304388 48.4455
21.566222297108816 48.655
21.58888704765135 48.6735
21.61155265291521 49.05
21.63439619898156 49.9438
21.657063523335786 51.1624
21.67973170537063 52.205
21.7024007460706 52.9463
21.72524775840385 53.393
21.747918526116475 53.571000000000005
21.770590155457388 53.4426
21.79326264741238 53.4414
21.816113141960237 53.6385
21.838787368860547 54.3118
21.861462461341976 55.2835
21.884315579735777 56.784
21.90699241312273 58.2129
21.92967011506078 60.0289
21.95234868653799 62.0855
21.9752053151131 64.2357
21.997885635446785 65.4936
22.020566828293532 65.6306
22.04324889464272 64.1891
22.066109049404666 61.3999
22.088792872571794 58.5192
22.111477572219204 56.0615
22.1341631493376 54.8652
22.157026846313123 54.6678
22.179714188221507 55.0805
22.202402410582668 55.6767
22.22509151438863 55.6924
22.24795876962584 54.9995
22.270649646204486 54.1616
22.293341407213727 52.6016
22.316034053646906 51.2542
22.338904883215342 50.0871
22.36159931041458 49.3851
22.38429462602756 48.8797
22.40699083104897 48.5088
22.429865251039757 48.4734
22.452563244831367 48.4339
22.47526213102522 48.3278
22.49813925616515 48.3032
22.520839937143307 48.2739
22.543541513520587 48.2968
22.56624398629403 48.3614
22.589124730075895 48.254
22.611829005656723 48.5034
22.63453418063466 48.4219
22.657240256008077 48.6703
22.680124634582935 49.0415
22.70283252079775 49.8598
22.725541310413075 50.6726
22.74825100442868 51.1557
22.771139033969575 51.7511
22.79385054687155 51.6238
22.81656296718292 51.4084
22.83927629590484 51.3399
22.862167992606945 51.4721
22.88488314827121 51.6
22.907599215359284 51.8929
22.93031619487366 52.1161
22.953211574954405 52.4482
22.975930389478226 53.4436
22.998650119445763 54.5496
23.02137076586092 55.6529
23.044269845560063 57.0349
23.06699233506288 57.7292
23.089715744034912 57.6355
23.112617610931565 56.5792
23.135342869061212 54.868
23.158069049684816 52.9316
23.1807961538087 51.0124
23.20370174880544 49.6374
23.226430710184808 49.1447
23.249160598093425 49.0221
23.271891413539002 48.9827
23.294800752937697 49.4288
23.31753343374794 50.227
23.340267045128353 50.677
23.36300158808808 51.4808
23.38591468821339 51.6353
23.408651104658304 51.5229
23.431388455719986 51.4081
23.454126742409 51.086000000000006
23.4770436196085 51.0917
23.499783787914662 51.2485
23.522524894889884 51.2569
23.54526694154616 51.504
23.56818761219047 52.0758
23.59093154860734 52.6923
23.613676427751283 54.0705
23.636422250635754 55.2667
23.659346731118656 56.4577
23.68209445191868 57.5035
23.704843119509587 57.4516
23.72759273490623 56.3487
23.750521041644767 54.288999999999994
23.77327256312355 51.9599
23.796025035462787 49.8196
23.818956224555475 47.7246
23.841710609113413 46.7225
23.86446594758979 46.1579
23.887222241002014 45.7075
23.910157285144578 45.2438
23.932915498962537 45.3706
23.955674670778713 45.2721
23.978434801611975 45.0424
24.001373717286125 44.8636
24.024135776723917 44.6792
24.046898798245582 44.5042
24.06966278287146 44.3322
24.092605586582614 44.0744
24.115371508023642 43.9436
24.1381383956401 43.8756
24.16090625045381 43.9299
24.183852958731244 43.8324
24.206622758582608 43.6788
24.229393528706886 43.4415
24.252165270127392 43.3972
24.27511589952438 43.4207
24.297889594216997 43.3107
24.32066426328598 43.0771
24.34343990775613 43.2412
24.36639447485003 43.0625
24.38917208083877 42.9609
24.41195066531332 42.8382
24.43490819850244 42.8804
24.457688750692377 42.7743
24.48047028445616 42.6986
24.503252800821233 42.6513
24.526214300784112 42.7896
24.548998793132213 42.6699
24.57178427117417 42.5119
24.59457073593893 42.5979
24.617536219319863 42.5763
24.64032466834748 42.6978
24.663114107195035 42.7809
24.685904536893013 42.70399999999999
24.708874020360852 42.6569
24.731666442613744 42.5017
24.754459858818787 42.3838
24.777254270007962 42.2383
24.80022777025625 42.1875
24.82302418230472 42.1366
24.845821592443674 42.1595
24.86862000170663 42.3341
24.891597535453727 42.2077
24.914397953892728 42.6472
24.93719937456671 42.5986
24.96000179851076 42.4364
24.98298338249997 42.56
25.00578782394922 42.6397
25.028593271784167 42.619
25.05157790644186 42.826
25.07438537804115 43.1163
25.097193859145293 43.2364
25.120003350792075 43.3605
25.142992065061257 43.6001
25.165803588823465 43.8013
25.18861612625217 43.9505
25.211429678386736 43.9247
25.234422489079968 44.0826
25.257238081693636 44.3135
25.280054692141732 44.5585
25.3028723214652 44.4021
25.325869245420463 44.2379
25.348688923599397 44.2919
25.371509623787006 44.2191
25.394331347025812 44.2706
25.41733240110666 44.4369
25.440156181590016 44.6311
25.46298098826268 44.7663
25.48580682216873 44.5411
25.50881202326435 43.9486
25.53163992281684 43.3386
25.55446885274561 42.5009
25.577298814096377 41.68
25.600308179121807 41.346000000000004
25.623140214533745 41.0735
25.64597328451537 40.8303
25.66898578564376 40.4685
25.691820936010206 40.5999
25.714657124097695 40.5442
25.737494350954734 40.5626
25.760511045684957 40.3939
25.783350361364224 40.4896
25.806190718969255 40.7473
25.82903211955018 40.8093
25.852053024868923 40.7973
25.874896522722523 40.9112
25.897741066713106 40.6253
25.920586657892454 40.609
25.943611790812668 40.6301
25.966459487728237 40.7658
25.989308234998564 40.4213
26.01215803367705 40.7036
26.03518741123814 40.7144
26.05803932412957 40.7829
26.080892291600094 40.6272
26.10374631470478 40.8423
26.12677995397268 40.9977
26.14963609978026 41.3575
26.172493304397875 41.4448
26.19535156888223 41.8339
26.218389486949604 41.8009
26.241249882640123 41.6839
26.26411134137826 41.3532
26.28715248187403 41.1282
26.31001607820869 40.8002
26.3328807407756 40.4541
26.35574647063438 40.6456
26.37879191991473 40.4239
26.401659795896734 40.4149
26.424528742360263 40.5588
26.447398760366614 40.6703
26.470448535598294 40.4655
26.49332070826805 40.5439
26.516193955675355 40.7525
26.53906827888316 40.7564
26.562122397260108 40.7415
26.584998883685063 40.9788
26.607876449110325 40.9782
26.63075509460056 41.0575
26.65381357334404 41.148999999999994
26.67669439061878 41.364
26.699576291163382 41.7542
26.722459276044212 42.108999999999995
26.745522132402975 42.2355
26.768407297649354 42.3129
26.791293550442003 42.1268
26.814180891848974 41.887
26.837248143099337 41.4379
26.860137673466657 41.0101
26.88302829566349 40.613
26.90592001075963 40.5668
26.92899167420566 40.5584
26.951885586870763 40.1833
26.974780595655517 40.0569
26.99785558178161 39.9571
27.020752794605112 39.7444
27.043651106772522 39.3149
27.06655051935668 39.1105
27.089629948036183 38.9971
27.112531573292053 38.7372
27.135434302194138 38.7312
27.158338135817015 38.6248
27.181422024430987 38.7415
27.204328079372566 38.6214
27.22723524226965 38.6453
27.250143514198573 38.8142
27.273231880156334 38.7486
27.296142382065014 38.4927
27.319053996245536 38.4575
27.341966723775965 38.5382
27.365059584515222 38.4645
27.38797455070062 38.3907
27.410890633481237 38.3153
27.433807833936918 38.1628
27.456905206923906 38.2094
27.47982465472398 38.2326
27.502745223449743 38.2241
27.525666914182825 38.4901
27.548768816912457 38.4941
27.571692763693633 38.3291
27.59461783573812 38.2406
27.617723149491244 38.4104
27.640650484125285 38.3698
27.66357894728264 38.3957
27.686508540048052 38.5397
27.709618414237887 38.6126
27.732550278321757 38.4626
27.755483275279115 38.3522
27.778417406196485 38.2445
27.801531858397514 38.2018
27.824468269376716 38.1856
27.847405817586786 37.9764
27.870344504116094 38.0989
27.893463551932008 38.0479
27.916404527281053 38.0521
27.93934664422563 38.1903
27.962289903855886 38.145
27.98541356491974 38.2607
28.00835912214229 38.2447
28.03130582533231 38.3395
28.054253675581805 38.3671
28.077381967556104 38.3898
28.100332124185126 38.5305
28.123283431160893 38.7242
28.146235889577238 38.8428
28.169368830154156 39.0328
28.192323603752033 39.1275
28.215279532083304 38.9298
28.238415973016764 38.6545
28.261374223145094 38.3601
28.284333631303806 38.1807
28.307294198589954 37.9007
28.330435319167677 37.7251
28.353398217078915 37.6484
28.376362277420153 37.4321
28.39932750129032 37.3182
28.422473319286713 37.1461
28.44544088262495 36.830999999999996
28.468409612800283 36.4891
28.491379510913497 36.2617
28.51453004413313 36.1843
28.53750229057244 35.8691
28.56047570826344 35.8898
28.583450298308804 35.9926
28.606605564586562 35.7615
28.629582511831156 35.8023
28.65256063474956 35.7519
28.675539934446338 35.7506
28.698699951647605 35.5772
28.72168161743193 35.3943
28.74466446331978 35.3716
28.767648490417624 35.2737
28.790813276438353 35.2566
28.813799678527303 35.281
28.836787265157085 35.2227
28.859955641890075 35.1938
28.882945610203045 35.1936
28.905936766392035 35.0839
28.928929111566863 35.1301
28.952102288520145 35.1101
28.975097024308607 35.0405
28.998092952423807 35.0829
29.021090073977508 35.0169
29.04426806913204 35.0964
29.067267590245258 35.0136
29.090268308143695 34.8252
29.11327022394099 34.8951
29.13645305530891 34.6986
29.159457379627167 34.5116
29.18246290519685 34.3679
29.20546963313352 34.245
29.22865731875826 34.2748
29.25166646419296 34.2023
29.27467681535305 34.0142
29.29768837335608 33.9988
29.320880931312562 34.1328
29.34389491580634 33.9787
29.366910110507334 33.9907
29.38992651653503 33.8868
29.41312396492981 33.9155
29.436142806456754 33.8498
29.45916286268059 33.9236
29.48236399319994 34.0051
29.50538649169417 33.876999999999995
29.528410208259935 33.8872
29.55143514402014 33.688
29.574641196749695 33.6662
29.597668583816574 33.5804
29.6206971934585 33.4042
29.64372702680042 33.2461
29.666938019934474 33.1877
29.689970313635285 33.0016
29.713003834422636 33.0007
29.73603858342347 32.858000000000004
29.759254535188578 32.8392
29.78229175361658 32.7473
29.80533020365064 32.6592
29.82836988641968 32.7786
29.85159081507472 32.6906
29.874632976355343 32.6617
29.89767637376955 32.6663
29.920721008448314 32.5622
29.9439469322847 32.5608
29.96699405457564 32.4992
29.9900424175358 32.4334
30.013092022298157 32.4231
30.03632295963995 32.4246
30.059375061131373 32.3318
30.08242840783577 32.413000000000004
30.105483000888153 32.3617
30.128718970092244 32.2531
30.151776069006917 32.1707
30.17483441768648 32.295
30.198074175317235 32.2993
30.221135036724256 32.2498
30.24419715131772 32.1073
30.267260520236203 32.1526
30.290505341942243 32.2589
30.313571232750228 32.4107
30.336638381310948 32.3272
30.35970678876503 32.3916
30.38295669299435 32.4195
30.40602763151657 32.3147
30.429099832366074 32.2068
30.452173296685572 32.2148
30.47542830191959 32.0649
30.498504306502497 32.0217
30.521581577995562 32.0825
30.544660117543582 32.1152
30.56792024229725 32.0276
30.59100133132069 31.9257
30.614083691845494 31.9387
30.637167325018545 31.9982
30.660432587840603 31.9406
30.683518779717886 31.9196
30.70660624769615 31.9806
30.729694992924372 31.8957
30.75296541239743 32.0496
30.77605672557558 32.0528
30.799149319462742 32.1321
30.8224236211637 32.1023
30.845518789950724 32.0656
30.868615242910597 32.1388
30.891712981195973 31.9344
30.91499247215866 31.8476
30.938092794619365 31.804000000000002
30.96119440587579 31.6347
30.984297307082752 31.5239
31.00758200598383 31.4452
31.030687500658694 31.3675
31.053794288760695 31.3158
31.076902371446767 31.1539
31.100192296997445 31.1506
31.12330298246119 31.2539
31.14641496599209 30.9809
31.169528248749216 31.0163
31.19282341969534 30.9178
31.215939314557186 30.9106
31.239056512134788 30.9492
31.262175013589378 30.9376
31.28547544871168 30.8111
31.30859657161541 30.7494
31.331719001892175 30.7326
31.35484274070538 30.8444
31.378148458819545 30.8516
31.401274828443725 30.7542
31.424402510106933 30.8294
31.447712205419993 30.848000000000003
31.470842524931633 30.6556
31.493974159989783 30.6701
31.51710711176168 30.705
31.54042212308802 30.7409
31.563557722100917 30.8608
31.586694641341655 30.8174
31.609832881979628 30.7077
31.63315322823208 30.7434
31.656294125521327 30.543000000000003
31.679436347728515 30.6143
31.70257989602529 30.4718
31.725905596152327 30.3991
31.74905181052835 30.2446
31.772199354521323 30.3151
31.79534822930507 30.2323
31.818679302290967 30.2121
31.84183085259981 30.1743
31.864983737233473 30.0756
31.88813795736804 30.1306
31.911474422233013 29.9362
31.934631327356435 30.0978
31.9577895715215 29.9981
31.980949155906522 29.9622
32.004291031706956 30.0002
32.027453310562606 29.9488
32.05061693318573 29.7803
32.07396288236386 29.9381
32.09712920658542 29.8124
32.12029687812702 29.7768
32.14346589817093 29.6388
32.166817291729984 29.6801
32.18998902288583 29.7064
32.21316210610336 29.5822
32.23633654256711 29.2916
32.259693399663725 29.3165
32.282870556771144 29.2458
32.30604907069099 29.2464
32.329228942610065 29.2089
32.35259128243769 29.0636
32.375773884550505 29.0028
32.398957848235646 28.8964
32.422143174682176 28.9087
32.445511016471215 28.7589
32.468699082679954 28.6496
32.49188851523011 28.6793
32.51507931531304 28.6762
32.538452678331 28.5976
32.56164622776311 28.5053
32.58484114831493 28.5028
32.60803744118015 28.5172
32.631416344731896 28.4518
32.654615396551876 28.4098
32.67781582427913 28.4341
32.701198898634416 28.2473
32.72440209253756 28.316
32.747606665947124 28.389
32.77081262006088 28.2086
32.79420126883317 28.1709
32.81740999876112 28.2233
32.840620112999424 28.0193
32.86383161274818 27.9476
32.88722585534586 28.0516
32.91044014056596 28.0894
32.933655814909734 27.9429
32.95687287957963 27.980999999999998
32.98027273544904 27.8483
33.00349259526636 27.8347
33.026713849030116 27.8851
33.04993649794511 27.9212
33.073341986570746 27.7843
33.09656744032826 27.6769
33.11979429286444 27.7683
33.14302254538647 27.6857
33.166433686291185 27.6449
33.18966475336992 27.581999999999997
33.212897224069096 27.4869
33.23613109959831 27.5789
33.259547912343415 27.4922
33.2827846121627 27.5982
33.306022720453775 27.473000000000003
33.32926223842861 27.3727
33.352684742614166 27.413
33.37592709463173 27.4277
33.399170859982064 27.3867
33.422597648419426 27.3103
33.44584425514446 27.2916
33.46909227885668 27.1812
33.4923417207723 27.145
33.51577423505344 27.128
33.539026528130385 27.0631
33.56228024307245 26.8795
33.585535381098246 26.7951
33.60897364093058 26.7538
33.63223163992385 26.7301
33.6554910656699 26.5851
33.678751919389796 26.6735
33.702195944520106 26.6275
33.72545966903325 26.5774
33.74872482519663 26.4601
33.771991414233746 26.5263
33.79544122444841 26.4039
33.81871069412428 26.3527
33.84198160035767 26.3156
33.86525394437455 26.3286
33.88870955949969 26.2895
33.911984794020626 26.2476
33.93526147001624 26.1907
33.958539588715006 26.2335
33.98200102861669 26.1623
34.0052820477047 26.0584
34.02856451319451 26.1264
34.05203033759056 26.0551
34.07531571090147 26.0457
34.09860253431845 25.9508
34.121890809074316 25.8964
34.145362493118924 25.823
34.16865368561615 25.7702
34.191946333164054 25.7851
34.21524043699793 25.7523
34.23871800066799 25.7351
34.26201503218366 25.5395
34.28531352370466 25.6027
34.30861347646881 25.5911
34.33209693978188 25.5129
34.3553998301885 25.4648
34.378704185565205 25.3871
34.402010007152356 25.3554
34.42549939016683 25.4461
34.44880815937748 25.3592
34.472118398533134 25.3292
34.49543010887669 25.26
34.51892543169198 25.1273
34.54224009966052 25.1364
34.56555624255917 25.0506
34.58887386163339 25.0047
34.61237514439016 24.8524
34.6356957311114 24.8673
34.65901779775809 24.901999999999997
34.68252356662995 24.9213
34.705848608458616 24.8761
34.72917513396849 24.7935
34.75250314440949 24.7196
34.77601490857862 24.6696
34.799345904259795 24.6644
34.82267838863559 24.7096
34.846012362958525 24.6495
34.869530142679984 24.5722
34.89286711232212 24.5752
34.91620557568269 24.5411
34.93954553401677 24.5254
34.9630693495876 24.4189
34.986412313340814 24.5141
35.00975677584668 24.4245
35.033102738362956 24.4173
35.05663261012228 24.2779
35.0799815881786 24.3205
35.10333207003229 24.2152
35.12668405694369 24.2794
35.150220005273056 24.2947
35.17357501786656 24.314
35.19693153931268 24.1767
35.220289570874385 24.1475
35.24383161619786 24.0453
35.267192683604904 24.1239
35.290555264930376 24.0158
35.314101899412165 24.059
35.33746752422433 24.0318
35.36083466676374 23.9579
35.38420332829803 23.8848
35.407756095629054 23.9627
35.43112781085063 23.898000000000003
35.45450104888391 23.8297
35.477875810999194 23.8648
35.50143473172161 23.7409
35.52481255774625 23.8036
35.54819191167777 23.7266
35.57157279478914 23.807
35.595137889488406 23.7719
35.61852184675279 23.7053
35.641907337029984 23.6408
35.665294361595684 23.6305
35.68886565090076 23.578000000000003
35.7122557598848 23.6045
35.73564740699838 23.5278
35.759040593519934 23.4298
35.78261809810353 23.4929
35.80601437933051 23.3562
35.829412203814705 23.334
35.85281157283719 23.2365
35.876395313415884 23.3156
35.8997977874528 23.2118
35.92320180988546 23.1594
35.946790244133936 23.0607
35.97019737933222 23.1899
35.993606066789866 23.0406
36.01701630779276 23.0104
36.04061101440684 22.9217
36.06402437852291 22.9862
36.08743930005611 22.8707
36.1108557802951 22.7582
36.13445678011326 22.8264
36.15787639383515 22.868000000000002
36.18129757014299 22.7682
36.20472031032821 22.776
36.22832762423364 22.7523
36.25175350829375 22.6923
36.275180960119776 22.6309
36.298609981005924 22.6498
36.32222362992669 22.6508
36.34565580510207 22.6249
36.36908955323448 22.5811
36.39252487562093 22.49
36.416144880530226 22.4673
36.43958336764275 22.3564
36.463023432914625 22.362
36.486465077645676 22.3505
36.51009145956204 22.4345
36.53353627947859 22.3492
36.55698268276811 22.3375
36.58043067073321 22.237
36.60406345072071 22.0987
36.62751462435344 22.0726
36.65096738658405 22.1189
36.67460498210655 22.1363
36.69806093788647 22.1244
36.72151848619297 21.9853
36.744977628333636 22.0392
36.76862165890998 21.9882
36.79208400512205 21.994
36.81554794910557 21.9703
36.83901349217101 21.8279
36.862663978991606 21.8348
36.88613273667352 21.7247
36.90960309738324 21.8199
36.933075062434064 21.8185
36.95673202673572 21.697
36.98020721697122 21.669
37.003684015502365 21.6479
37.027162423645365 21.5224
37.050825886711465 21.5139
37.07430753063053 21.4364
37.09779078812467 21.4816
37.121275660513014 21.4181
37.144945643673694 21.3735
37.16843376245278 21.3629
37.19192350009803 21.354
37.215414857931435 21.3264
37.239091382563885 21.2933
37.262585997426164 21.1852
37.28608223645736 21.2039
37.309763684451696 21.1598
37.33326318851098 21.1521
37.356764320726555 21.180999999999997
37.380267082425526 21.1473
37.40395510942588 21.0428
37.42746114683234 20.9769
37.45096881771841 20.9506
37.474478123414166 20.9163
37.49817275092816 20.9229
37.52168534303452 20.9119
37.54519957395567 20.8205
37.568715445024665 20.803
37.592416694607714 20.746
37.61593586281424 20.7792
37.63945667518264 20.84
37.66297913304891 20.7274
37.68668702630454 20.6196
37.710212792059274 20.5872
37.733740207334854 20.5633
37.757269273470364 20.5587
37.780983832050374 20.4726
37.80451621684926 20.4398
37.82805025654007 20.5059
37.851585952464795 20.3518
37.8753071980695 20.3453
37.89884622345676 20.3171
37.92238690911902 20.3051
37.94611318753442 20.2471
37.969657210779765 20.1779
37.99320289834801 20.1791
38.016750251586465 20.1872
38.04048325513017 20.1661
38.06403395679343 20.1391
38.087586328183946 20.081
38.11114037065203 20.0628
38.13488012115898 20.0404
38.1584375229181 19.9902
38.181996599821 19.9048
38.205557353221124 19.8654
38.229303872575656 19.9062
38.2528679961576 19.8417
38.27643380031219 19.8565
38.30000128639589 19.798
38.32375459653193 19.7975
38.34732546371299 19.8414
38.37089801690786 19.6531
38.39447225747609 19.5912
38.418232380377425 19.602
38.441810012983396 19.6635
38.46538933705673 19.5847
38.488970353960084 19.5729
38.51273731166058 19.5038
38.536321731567014 19.4985
38.55990784840681 19.414
38.58367995004091 19.4082
38.60726947812959 19.3373
38.63086070726198 19.3276
38.654453638806274 19.3965
38.678232613930824 19.3147
38.70182896773327 19.2816
38.72542702806741 19.324
38.7490267963045 19.1751
38.77281266709232 19.2242
38.79641586862214 19.2232
38.8200207821842 19.1476
38.843627409152944 19.146
38.86742019782782 19.1089
38.891030269149255 19.0629
38.914642058016156 19.0262
38.938255565806124 18.9426
38.96205529464307 18.8904
38.98567225787121 18.9303
39.00929094417078 18.8982
39.03291135492255 18.9049
39.05671804624804 18.8687
39.080341923549106 18.7998
39.103967529460334 18.8012
39.127594865365744 18.7572
39.15140854155791 18.6629
39.17503935514948 18.6123
39.19867190290282 18.627
39.22249083587951 18.6502
39.24612686969409 18.6163
39.269764641845306 18.5507
39.293404153722804 18.4783
39.317230110864074 18.4723
39.34087311998506 18.4368
39.36451787301696 18.4503
39.388164371352595 18.3896
39.41199737518003 18.3748
39.43564738196752 18.324
39.45929913825317 18.2624
39.48295264543308 18.2964
39.506792718520884 18.2646
39.530449745387216 18.285999999999998
39.55410852735203 18.1754
39.57776906581474 18.1789
39.60161623079 18.0531
39.625280300200025 18.1228
39.64894613032202 18.0703
39.67261372255866 17.9988
39.6964680021016 18.0203
39.72013913657293 17.9919
39.74381203738292 18.0151
39.76748670593756 17.9437
39.79134812278169 17.9915
39.81502634488497 17.9045
39.83870633896685 17.9157
39.862388106436654 17.8394
39.88625668336918 17.8685
39.90994201572829 17.8276
39.933629125719285 17.7345
39.957503091207826 17.6904
39.9811937746168 17.7619
40.00488623990914 17.6552
40.02858048850006 17.6634
40.05246165409549 17.6226
40.076159487492085 17.5539
40.099859108448875 17.5932
40.123560518384345 17.5474
40.1474489070226 17.5381
40.171153913178564 17.517
40.194860712584955 17.458
40.2185693066637 17.4585
40.242464941335314 17.3537
40.26617714307655 17.3064
40.289891143772046 17.3198
40.3136069448471 17.2672
40.33750984859743 17.2611
40.3612292688043 17.2479
40.3849504936829 17.1943
40.40867352466194 17.2619
40.43258372059144 17.1479
40.45631038219906 17.125999999999998
40.48003885420956 17.0834
40.503769138055105 17.0751
40.52768664931955 17.1499
40.55142057531802 17.0795
40.57515631746428 17.0218
40.599079334038514 16.9877
40.62281872700477 16.9332
40.64655994043941 16.8923
40.67030297578061 16.8386
40.69423334835778 16.9056
40.71798004609188 16.8164
40.74172857006355 16.8348
40.76547892171441 16.8078
40.7894166736039 16.8191
40.813170699248566 16.7447
40.83692655691388 16.7551
40.86068424804498 16.706
40.884629402612525 16.6482
40.908390779366385 16.6693
40.932153993938 16.6382
40.95591904777605 16.6241
40.979871628443995 16.6316
41.003640379561936 16.5779
41.02741097430883 16.4777
41.05118341413683 16.4825
41.075143444384416 16.4933
41.098919593177826 16.4844
41.1226975914255 16.4291
41.14647744058318 16.3773
41.170444943946755 16.3426
41.19422851378379 16.2643
41.218013938914645 16.2497
41.24198706625173 16.2528
41.26577622087193 16.2459
41.289567235177785 16.1509
41.31336011063129 16.1639
41.337340752422875 16.1393
41.361137369129835 16.14
41.38493585138705 16.1254
41.40873620066004 16.0234
41.43272438060107 16.0156
41.45652848292052 15.9489
41.48033445666918 15.8721
41.50414230331616 15.9487
41.528138045159764 16.0114
41.551949656675205 15.9213
41.575763145513235 15.8775
41.59957851314666 15.8855
41.62358184070442 15.8217
41.64740098505737 15.767999999999999
41.6712220126409 15.7349
41.69504492493139 15.7225
41.71905586207357 15.7277
41.74288256296395 15.6698
41.766711153007456 15.6715
41.79054163368412 15.65
41.814560204340054 15.6347
41.838394485526365 15.5946
41.86223066180303 15.5249
41.88625497706819 15.5289
41.910094962812 15.5114
41.93393684811168 15.459000000000001
41.95778063445365 15.4004
41.981812625263366 15.3736
42.00566023303407 15.3539
42.029509746323676 15.3843
42.05336116662236 15.3147
42.077400857069705 15.3262
42.10125611078846 15.2818
42.12511327600405 15.2771
42.14897235421036 15.2494
42.173019768448455 15.2335
42.19688269209613 15.1822
42.22074753323349 15.1475
42.24461429335818 15.1186
42.268669455600495 15.0611
42.292540073217886 15.0798
42.31641261433284 15.1024
42.34028708044675 15.0843
42.36435001496739 14.9167
42.38822835065557 14.9947
42.41210861586426 14.9401
42.4359908120986 14.9629
42.46006154323262 14.907
42.48394762115317 14.8394
42.507835634632315 14.8697
42.531912233047436 14.8599
42.55580413732265 14.8323
42.579697981698 14.795
42.60359376768525 14.7788
42.62767820545945 14.7661
42.65157789440821 14.755
42.67547952952185 14.6802
42.699383112316 14.6819
42.72347541395347 14.6074
42.74738291190531 14.5858
42.771292362102166 14.6067
42.795203766063516 14.5795
42.819303956130405 14.5207
42.843219287476536 14.4986
42.86713657716324 14.4906
42.89105582671383 14.4512
42.91516392983864 14.4344
42.939087119032166 14.4106
42.963012272677304 14.4122
42.98693939230129 14.3348
43.01105543317513 14.3247
43.034986504731386 14.3089
43.05891954686589 14.2766
43.08285456110972 14.2879
43.10697856448665 14.2107
43.130917542983475 14.1722
43.15485849820081 14.2123
43.17880143167367 14.1699
43.20293342237094 14.1269
43.226880332449 14.0519
43.25082922540554 14.1367
43.27496722682525 14.1217
43.29892010567796 14.0067
43.32287497204102 13.9817
43.34683182745632 13.9431
43.370977859791836 13.94
43.39493871351105 13.9549
43.41890156092628 13.9456
43.44286640358341 13.8932
43.46702049182749 13.8588
43.49098934522816 13.828
43.51496019852649 13.8544
43.5389330532723 13.8254
43.56309522248204 13.7623
43.58707210044314 13.722999999999999
43.61105098451946 13.6856
43.63503187626491 13.6447
43.659202151562134 13.6748
43.68318707902681 13.6966
43.70717401884041 13.6647
43.731162972560874 13.6111
43.75534137913236 13.6151
43.779334381108384 13.5702
43.803329401683186 13.5334
43.82732644241872 13.484000000000002
43.8515130055166 13.4868
43.87551410707659 13.4022
43.89951723350145 13.4583
43.923709934595614 13.4186
43.94771713129917 13.3897
43.97172635758096 13.4099
43.99573761501002 13.3632
44.0199385169922 13.3115
44.04395385732619 13.2972
44.067971233533086 13.3378
44.09199064718605 13.2763
44.11619977548961 13.2397
44.14022328470671 13.1844
44.16424883610785 13.2351
44.18827643127035 13.2518
44.21249381139513 13.1906
44.236525514814076 13.1224
44.26055926674478 13.1136
44.28459506876863 13.0974
44.3088207262813 13.0438
44.33286064928722 13.0223
44.35690262714919 13.037
44.38094666145278 12.9613
44.4051806219871 12.9391
44.42922879003185 12.9582
44.45327901929361 12.8976
44.477331311362136 12.9045
44.501573600619416 12.8731
44.525630039221795 12.8247
44.54968854541895 12.8676
44.573937102200176 12.7938
44.5979997645541 12.7748
44.622064499300315 12.752
44.64613130803592 12.7825
44.67038823869318 12.7816
44.69445921643748 12.6988
44.718532272981385 12.6558
44.742607409926194 12.6222
44.76687274034801 12.6355
44.79095205918753 12.5395
44.81503346325094 12.5395
44.839116954143876 12.5611
44.86339071028742 12.542
44.88747839599524 12.5503
44.91156817336837 12.4913
44.93566004401666 12.4913
44.959942251908146 12.4446
44.984038330325966 12.4238
45.00813650686762 12.4118
45.03223678314731 12.431
45.05652746888232 12.4124
45.08063196592069 12.3504
45.104738567558705 12.3265
45.128847275414856 12.274000000000001
45.15314646515866 12.2447
45.17725940679741 12.2353
45.20137445952892 12.264000000000001
45.22568004865265 12.1969
45.24979934496396 12.1748
45.27392075725247 12.1491
45.29804428714431 12.1389
45.322358426247604 12.0855
45.346486212804315 12.1302
45.370616121861914 12.087
45.39474815505086 12.0824
45.41907087049246 12.0016
45.4432071734666 11.9866
45.46734560548283 11.9976
45.49148616817604 11.999
45.51581748638564 11.9558
45.5399623320197 11.9108
45.56410931325473 11.9056
45.58825843173002 11.9259
45.61259837920865 11.8872
45.636751793816 11.9026
45.66090735060093 11.8389
45.68506505120716 11.8339
45.7094136545275 11.7583
45.73357566449271 11.759
45.75773982322992 11.7533
45.78190613238733 11.7199
45.806263418194064 11.6611
45.83043404997326 11.7023
45.85460683713677 11.6443
45.87897065658495 11.6483
45.90314777634752 11.6166
45.92732705646868 11.6274
45.9515084986045 11.5865
45.97588104735473 11.5731
46.00006683541565 11.549000000000001
46.02425479047904 11.5026
46.04844491420549 11.5098
46.0728262191024 11.5352
46.09702070211635 11.5054
46.12121735879483 11.445
46.14541619080294 11.4213
46.169806278764455 11.4147
46.194009483459034 11.398
46.21821486849841 11.3842
46.24242243555223 11.3409
46.266821333570014 11.2839
46.29103328674601 11.2896
46.31524742696538 11.2912
46.33946375590237 11.251
46.36387149104216 11.2229
46.38809221957392 11.1701
46.41231514186606 11.1967
46.436540259597464 11.1824
46.460956858999374 11.1331
46.48518638983522 11.1073
46.509418121166966 11.0807
46.533652054678114 11.094000000000001
46.55807754555709 11.0456
46.58231590571962 11.0762
46.60655647313217 11.0351
46.630988654873654 10.9992
46.655233659129024 10.9455
46.67948087571551 10.9506
46.70373030632484 10.9522
46.72817142736393 10.937999999999999
46.752425308428684 10.9395
46.77668140861147 10.9109
46.80093972960865 10.850999999999999
46.82538981736788 10.8432
46.849652602470904 10.8077
46.87391761349769 10.7891
46.8981848521493 10.7724
46.9226439341274 10.7392
46.946915650573224 10.7152
46.97118959976749 10.727
46.99546578341598 10.6848
47.019933887188216 10.6996
47.04421456235744 10.6589
47.06849747711879 10.6416
47.09278263318286 10.6384
47.11725978640143 10.5856
47.14154944775105 10.5426
47.165841355555656 10.5724
47.1901355115306 10.565999999999999
47.214621741924994 10.4924
47.23892041698887 10.4904
47.26322134538975 10.4595
47.28771440635075 10.4674
47.31201986422527 10.4588
47.33632758061436 10.4154
47.360637557241866 10.3968
47.38513974410611 10.4122
47.40945426407847 10.3566
47.43377104948137 10.3618
47.45809010204344 10.3481
47.48260144275502 10.3003
47.506925052572285 10.2693
47.53125093475548 10.2935
47.55557909103813 10.2357
47.58009961361992 10.2337
47.60443234110732 10.1924
47.62876734791564 10.1888
47.65310463578333 10.1838
47.6776343683373 10.1453
47.7019762413987 10.1021
47.72632040075572 10.1105
47.75066684815169 10.0696
47.77520581885936 10.0612
47.799556865477655 10.0539
47.823910205386 10.0601
47.84826584033272 10.0366
47.87281407745551 10.0009
47.89717432569297 10.0285
47.92153687423484 9.98977
47.94609208429692 9.94352
47.97045925671401 9.93971
47.99482873471275 9.916360000000001
48.01920052005013 9.90814
48.04376504619224 9.858839999999999
48.068141469543484 9.86523
48.09252020552573 9.864980000000001
48.11690125590099 9.83651
48.1414751266064 9.78963
48.16586082917454 9.814589999999999
48.19024885144316 9.77326
48.2146391951793 9.75056
48.239222439012764 9.73338
48.26361744916137 9.71592
48.28801478610016 9.72982
48.31241445160131 9.7294
48.337007097209366 9.69166
48.36141144338331 9.65002
48.38581812345755 9.6487
48.41022713920929 9.65681
48.434829215320704 9.60801
48.45924292604658 9.60758
48.48365897780325 9.61021
48.50807737237308 9.54312
48.532688907799276 9.555660000000001
48.55711201168574 9.54597
48.581537463754074 9.53745
48.60615611725119 9.497539999999999
48.63058628942721 9.45177
48.65501881516546 9.46369
48.6794536962573 9.47146
48.70408185970339 9.422419999999999
48.72852147531801 9.37937
48.75296345168211 9.361839999999999
48.77740779059232 9.3751
48.80204549302823 9.39749
48.82649458091802 9.33742
48.85094603676547 9.3259
48.87539986237231 9.261239999999999
48.90004713292306 9.28068
48.92450572200832 9.26875
48.94896668628025 9.242560000000001
48.97343002754588 9.19489
48.99808689542115 9.22492
49.02255501470614 9.21748
49.04702551642794 9.17421
49.0714984023988 9.157119999999999
49.096164896893235 9.16158
49.120642575466796 9.138589999999999
49.145122643748394 9.09703
49.16960510355558 9.12876
49.19428125404938 9.07289
49.2187685210852 9.07199
49.243258185121555 9.038739999999999
49.26794160167084 9.028139999999999
49.2924360839405 8.98213
49.31693296869764 8.96772
49.34143225776915 8.98645
49.36612538195438 8.948789999999999
49.39062950396021 8.90043
49.41513603578346 8.90959
49.4396449792564 8.90301
49.46434784069503 8.88451
49.488861631846454 8.86422
49.513377840166804 8.87135
49.537896467493745 8.85673
49.56260909589029 8.7945
49.587132585683285 8.82726
49.611658500018365 8.792539999999999
49.636186840738596 8.76623
49.66090926588511 8.76885
49.685442483902584 8.72734
49.70997813385706 8.713460000000001
49.734516217597076 8.70068
49.75924846937352 8.69783
49.7837914452858 8.67057
49.80833686055187 8.63007
49.83288471702571 8.606060000000001
49.85762682540054 8.6241
49.882179588965734 8.5894
49.9067347993235 8.55366
49.93129245833333 8.58457
49.95604445336378 8.57167
49.98060703442832 8.54772
50.005172069746266 8.52247
50.02993150438364 8.50545
50.05450147301533 8.51557
50.07907390151433 8.45355
50.10364879174981 8.43475
50.12841816587289 8.422419999999999
50.1529980044635 8.443480000000001
50.17758031042124 8.41871
50.20216508562089 8.40433
50.22694442953363 8.37769
50.25153416817468 8.36128
50.27612638170508 8.34656
50.300721072005196 8.306560000000001
50.325510416102105 8.28412
50.350110084975064 8.26065
50.37471223628208 8.30081
50.39931687190919 8.278030000000001
50.424116246675766 8.291080000000001
50.44872587605249 8.242389999999999
50.47333799543065 8.2494
50.49795260670191 8.201789999999999
50.52276204271512 8.16583
50.54738166295838 8.13373
50.57200378079314 8.13371
50.596628398116835 8.10556
50.62144792604559 8.13844
50.646077567609396 8.10608
50.670709714377715 8.08607
50.69553683636198 8.08815
50.72017401885922 8.0692
50.7448137122895 8.07071
50.76945591856022 8.0148
50.79429318636823 8.03703
50.818940443716784 8.016869999999999
50.84359021965163 8.00724
50.868242516085964 7.96709
50.893089960641895 7.953689999999999
50.917747323549435 7.97777
50.94240721271973 7.942080000000001
50.96706963007175 7.91343
50.99192728239342 7.88138
51.01659478166073 7.93002
51.04126481489051 7.8659300000000005
51.06593738400761 7.877669999999999
51.090805275207074 7.817830000000001
51.11548294172845 7.79568
51.14016314993547 7.792730000000001
51.164845901758845 7.8036
51.18972406304274 7.7692
51.21441192780656 7.75445
51.23910234200271 7.74028
51.2637953075678 7.71466
51.288683770237945 7.7165300000000006
51.31338186432707 7.7016100000000005
51.33808251561888 7.6817
51.362978729967345 7.66828
51.387684521509755 7.638039999999999
51.41239287610203 7.59715
51.437103795691165 7.609030000000001
51.46201036644977 7.57304
51.486726441956634 7.56568
51.51144508832545 7.57028
51.536166307509156 7.562069999999999
51.56108326624387 7.51939
51.58580965706056 7.55337
51.61053862657523 7.5342199999999995
51.635270176746864 7.443039999999999
51.66019755512065 7.46927
51.68493429268881 7.442239999999999
51.70967361681515 7.4672600000000005
51.73441552946465 7.448510000000001
51.759353359237934 7.39928
51.7841004750961 7.4195899999999995
51.80885018539685 7.400510000000001
51.833602492111254 7.36362
51.8585508051424 7.33555
51.883308330926425 7.30859
51.90806845906181 7.29663
51.932831191525715 7.29483
51.95779001977161 7.271719999999999
51.98255798721516 7.25661
52.00732856494335 7.23117
52.03229530577543 7.26055
52.057071130455945 7.20155
52.081849571391054 7.22708
52.106630630568695 7.22612
52.13160794279417 7.168760000000001
52.15639426492067 7.16255
52.18118321127822 7.156689999999999
52.205974783860896 7.17542
52.23096269971011 7.11405
52.255759551287994 7.1063600000000005
52.280559035098186 7.08758
52.30536115314103 7.0881
52.33035970494467 7.09197
52.35516711807904 7.05749
52.37997717147198 7.029789999999999
52.40478986713005 7.0002
52.42979908731974 6.977580000000001
52.454617094216 7.002210000000001
52.47943774942214 6.9829300000000005
52.50426105495102 6.95752
52.529280976059844 6.91247
52.554109609024096 6.94919
52.57894089837482 6.9306600000000005
52.60377484613117 6.89365
52.62880550079408 6.830360000000001
52.65364479223379 6.8766
52.67848674816189 6.82627
52.70352547971946 6.84595
52.72837279155837 6.82482
52.753222773982785 6.81332
52.778075429022984 6.82543
52.80312495150885 6.80179
52.827982978797436 6.75939
52.85284368481815 6.753539999999999
52.87770707160767 6.7663
52.90276741793998 6.73186
52.92763619336701 6.70356
52.952507655698504 6.69826
52.977381806977576 6.70375
53.00245301017842 6.65932
53.02733256653592 6.65552
53.052214817996074 6.60998
53.077099766608484 6.65459
53.102181859804446 6.6134
53.127072229988265 6.62903
53.15196530349892 6.6026
53.17686108239249 6.578469999999999
53.20195409881522 6.56468
53.22685531582556 6.5601899999999995
53.25175924441303 6.52313
53.27666588664027 6.50924
53.30176985962693 6.494759999999999
53.3266819565689 6.5290099999999995
53.35159677336455 6.49953
53.376514312083096 6.47375
53.40162927507703 6.48161
53.42655228516116 6.45182
53.45147802340193 6.36751
53.47660125628886 6.39985
53.50153247842639 6.43084
53.52646643496923 6.34239
53.55140312799818 6.34273
53.576537409691696 6.3638900000000005
53.60147960336152 6.35044
53.626424539786164 6.32942
53.65137222105307 6.34175
53.67651758529126 6.28008
53.70147078399681 6.266859999999999
53.72642673383343 6.2950800000000005
53.75138543689533 6.27091
53.776541917524526 6.25199
53.801506154876755 6.24418
53.826473151763246 6.23799
53.851442910284916 6.18647
53.87661054126026 6.184130000000001
53.9015858509782 6.17933
53.92656392866066 6.1643099999999995
53.95154477641532 6.170059999999999
53.976723591801296 6.08116
54.00171000771266 6.11536
54.02669920004598 6.08263
54.051691170915745 6.09722
54.076881204886796 6.0759099999999995
54.101878760928514 6.01147
54.12687910187696 6.0409
54.152077577768296 6.01803
54.1770835166946 6.003080000000001
54.20209224691339 6.00663
54.22710377055121 5.96086
54.25231352511594 5.92654
54.27733066384342 5.94269
54.30235060239643 5.93369
54.32737334290836 5.8621
54.35259441062629 5.87153
54.377622783395324 5.87424
54.40265396455061 5.85864
54.42768795623251 5.79202
54.45292037169559 5.75875
54.477960012857906 5.75897
54.50300247099511 5.7445
54.52804774825457 5.74001
54.55329154616743 5.678059999999999
54.57834249018678 5.69001
54.6033962597977 5.64313
54.6284528571545 5.61752
54.653708072335164 5.60401
54.67877035378786 5.60141
54.70383546947698 5.59247
54.72890342156389 5.59934
54.7541700889442 5.5742
54.77924374251975 5.51121
54.8043202390049 5.476780000000001
54.82959552413022 5.46319
54.8546777351945 5.45929
54.87976279569621 5.46001
54.90485070780914 5.45629
54.930137506558005 5.41246
54.95523115074295 5.4295800000000005
54.98032765308844 5.37366
55.005427015775496 5.34662
55.03072536339621 5.3093699999999995
55.05583047570572 5.2569099999999995
55.080938454927676 5.26695
55.10604930325027 5.2916300000000005
55.131359235107396 5.23186
55.15647585066083 5.17954
55.181595341907496 5.12817
55.20671771104285 5.0961099999999995
55.232039262617704 5.09765
55.25716741665048 5.04968
55.28229845518636 5.0494
55.30743238042802 5.04705
55.33276558731939 5.05219
55.357905315183636 5.01569
55.383047936390035 4.95606
55.40819345314859 4.92469
55.433538351073295 4.946969999999999
55.458689688238415 4.9384
55.483843927614096 4.89992
55.509197623043605 4.87059
55.53435769621134 4.86285
55.55952067826466 4.78912
55.5846865714265 4.81417
55.61005202069737 4.82723
55.63522376553902 4.79272
55.66039842818645 4.72837
55.68557601087004 4.734319999999999
55.7109532500271 4.672630000000001
55.73613670233794 4.73791
