TT I
1.2716486653135266 33.6133
1.2939594142134223 34.0615
1.3162702121660406 33.1535
1.3385810600174564 32.3431
1.3608919586137629 31.4333
1.383202908801069 30.1704
1.405513911425503 29.159000000000002
1.4278249673332093 29.6701
1.4501343378461518 28.1189
1.4724455028545926 27.9771
1.4947567236847858 28.0922
1.517068001182951 28.0714
1.5393793361953272 26.3939
1.5616907295681737 26.3053
1.5840021821477681 25.2859
1.60631369478041 25.8893
1.6286252683124185 25.6523
1.6509369035901333 25.0992
1.6732468618895553 24.5622
1.695558623192809 23.5523
1.7178704487808514 24.1876
1.7401823395001077 23.6588
1.7625012545597203 23.4463
1.7848028405262486 23.9087
1.8071218901122095 23.1455
1.8294236121921872 22.0948
1.8517427996910911 22.6782
1.8740620574440425 23.2973
1.8963639900671978 23.3228
1.9186833908139995 22.8139
1.9409854680117449 23.061999999999998
1.9633050151394713 23.4566
1.9856246367570705 23.1448
2.0079269371922672 23.1457
2.03024671027244 23.6224
2.0525491637446027 23.3635
2.074869091674931 23.1573
2.097171701569106 23.7745
2.1194917877373847 24.0667
2.141811954326636 24.9867
2.164114805233074 24.354
2.186435135143035 25.433000000000003
2.208738150935709 26.0111
2.231058647554722 26.1742
2.2533792288321184 26.1549
2.275682498336085 26.4655
2.298003251406138 26.2349
2.3203066942619714 26.1383
2.3426276225136022 25.831999999999997
2.3649486396617507 24.8777
2.387252348930071 24.9457
2.4095735463442893 24.6456
2.4318774374315884 24.7862
2.4541988185014043 24.6271
2.476502894794693 24.0052
2.498824462909887 24.7584
2.521146125856138 24.9784
2.5434504863470337 24.6603
2.5657723414244717 25.0479
2.588076895590662 25.6112
2.610398946189713 26.2008
2.6327210958598384 26.1978
2.6550259469304716 26.5343
2.6773482972090137 26.8867
2.6996533504259 28.1103
2.7219759047039602 29.1702
2.744298562293959 29.4458
2.7666039251246595 30.8522
2.7889267918020164 31.9572
2.8112323652516555 33.3301
2.833555444408179 34.066
2.8558786311183852 36.0363
2.8781845268938557 37.9124
2.9005079311721484 40.5499
2.9228140460410397 42.6642
2.9451376712799635 45.1094
2.967444008632326 48.0617
2.9897678582247247 51.5599
3.0120918213106695 56.0821
3.0343984987899373 60.245
3.0567226913198637 64.5769
3.079029599759726 70.1395
3.101354025127254 74.7325
3.123678568232338 79.1709
3.145985829517914 81.2674
3.16831061055229 81.9518
3.1906181112775593 80.7856
3.212943133635653 79.6514
3.2352682779763207 74.1527
3.2575761442691227 69.9407
3.2799015350264273 64.1714
3.302209649240067 58.787
3.3245352898092655 53.5046
3.3468436553365257 49.3267
3.369169549113219 46.056999999999995
3.3914955708171384 43.0216
3.413804319727358 40.2317
3.4361305997334863 38.2844
3.4584396084414553 37.9005
3.4807661501462652 37.4943
3.503092824025881 36.8061
3.5254022288463154 36.5931
3.5477291695206588 36.4574
3.5700388426251948 37.3263
3.5923660534916446 38.7063
3.6146934007816114 39.9578
3.637003482731501 41.2118
3.6593311053109985 42.3882
3.681641464033634 42.5133
3.7039693653009733 42.1463
3.726297407241705 41.8031
3.7486081875460804 40.5843
3.7709365132734978 38.9877
3.793247578841633 38.0855
3.8155761917550093 36.9953
3.8378875459837216 36.427
3.8602164494827234 35.6948
3.882545499606844 35.9783
3.9048572932539183 35.5399
3.9271866390645718 35.525
3.9494987298666713 36.629
3.971828374764527 37.0756
3.9941581705403255 37.6112
4.016470713506008 38.2141
4.038800813471445 40.1354
4.061113662089144 41.799
4.0834440696459176 43.9534
4.105774632334751 45.8172
4.128087945865126 49.0215
4.150418821249301 52.9263
4.172732448931298 57.5633
4.195063640413578 63.8659
4.2173775856475215 70.7447
4.239709096631102 77.0826
4.262040768704612 84.20100000000001
4.284355196706267 89.4876
4.306687193387355 91.963
4.329001947444346 91.6978
4.35133427213731 87.2327
4.373666762177566 81.1109
4.395982011761091 74.8089
4.418314834921175 69.095
4.44063041906622 65.6647
4.4629635787515625 62.9932
4.4852969080429785 60.1073
4.5076130004776225 57.5359
4.529946671403969 54.9852
4.552263106909177 51.793
4.574597122877047 50.1045
4.596931312711224 48.7313
4.619248269273446 47.3261
4.6415828092605835 46.528
4.663900117405352 45.5724
4.686235010953232 45.4165
4.708552674085913 45.7286
4.730887924602802 46.4543
4.753223354952695 46.7223
4.775541557023902 47.8271
4.797877349456786 49.47
4.820195915032126 50.9922
4.842532072957498 51.9668
4.864868414979744 54.1685
4.88718753227192 56.2598
4.909524244902505 59.3599
4.931843734218147 62.0321
4.954180820867835 65.7295
4.976518095879839 70.8875
4.998838149695359 77.1136
5.021175803844231 87.0493
5.043496238205739 99.2485
5.065834274903528 111.99
5.088172504230693 123.516
5.1104935158799565 137.048
5.132832132875765 156.50799999999998
5.155153533596801 183.31400000000002
5.1774925416746225 221.107
5.199814334878411 282.296
5.2221537374521505 395.699
5.244493338631803 575.45
5.266815727034316 818.1260000000001
5.289155727832427 1204.38
5.311478517248165 2035.67
5.333818921080011 3265.23
5.356159527788849 4275.42
5.3784829252032536 3672.27
5.400823940070432 2273.54
5.423147747031976 1111.59
5.445489173474152 567.507
5.467830807066149 358.62800000000004
5.490155234831516 264.91200000000003
5.512497285125229 210.188
5.534822130975162 177.40900000000002
5.557164601388673 154.721
5.579489868738879 136.881
5.601832762690846 125.383
5.6241758697774475 116.714
5.646501775867269 111.921
5.668845311622074 108.704
5.691171647754637 106.243
5.713515615597765 103.363
5.735859800852677 100.176
5.758186788542988 97.4736
5.780531411018185 96.2666
5.802858837297399 95.7155
5.825203900414495 96.7274
5.8475491852224 98.5376
5.869877275883075 101.696
5.892223006467101 106.65700000000001
5.914551544266608 112.11399999999999
5.936897724049891 119.345
5.959244129804903 130.53
5.981573344815301 148.024
6.0039202049061 174.465
6.026249875609095 216.50900000000001
6.04859719346037 275.982
6.070927323278297 357.001
6.093275102315365 469.611
6.115623113320588 606.123
6.137953938319995 842.373
6.160302415650845 1170.77
6.182633708324452 1303.07
6.2049826554078376 1114.99
6.227331838745022 739.682
6.249663839443684 456.01199999999994
6.27201349767565 301.455
6.294345974611799 217.66
6.316696111167083 162.641
6.339046488263839 129.30200000000002
6.361379686074702 108.38799999999999
6.383730546639482 94.4156
6.406064229255215 83.6455
6.428415576718203 76.9843
6.450749747566656 71.6843
6.47310158535871 67.1913
6.495453669698332 63.8851
6.517788579421056 61.3784
6.540141159237969 58.8745
6.562476565766648 57.3841
6.5848296444934045 56.2118
6.607182974060425 55.9832
6.6295191323281015 56.1907
6.651872965955752 56.2274
6.6742096296068985 56.8782
6.6965639707294615 57.8451
6.71891856698715 58.1772
6.741255995248479 58.6066
6.763611104154477 58.2954
6.785949046381137 57.2343
6.808304671371482 55.8254
6.8306605557940046 54.0383
6.852999275508618 52.0737
6.875355681171544 50.4451
6.897694923437771 48.638000000000005
6.92005185377892 47.8636
6.9423916220322655 46.6726
6.964749080490181 45.023999999999994
6.987106804399774 44.4903
7.009447368180821 44.0406
7.031805625367033 44.0529
7.054146723727803 43.9091
7.076505517631004 43.7754
7.098864581288365 44.1701
7.121206488070854 45.0099
7.143566093607822 45.8235
7.165908543567245 47.4219
7.188268694426048 49.4003
7.2106291193438095 51.5544
7.232972390625943 54.8263
7.255333366030969 58.2978
7.277677189091925 63.4703
7.300038718428332 69.8851
7.322400526130865 73.7966
7.344745183422596 76.8669
7.367107550224791 75.1624
7.389452767901992 71.4534
7.411815697249891 66.2854
7.434161478756298 60.5897
7.456524974096713 56.1242
7.478888753837185 53.5562
7.501235387657368 53.1409
7.523599738562711 55.6488
7.545946944825532 67.4041
7.568311870344528 96.9115
7.5906770845765665 138.887
7.613025156078678 148.94899999999998
7.635390950099687 112.348
7.657739602662809 73.252
7.680105979923558 52.7483
7.702472650212829 45.3016
7.724822180948224 41.6407
7.747189439655568 40.1445
7.769539560075357 39.0144
7.791907410653562 38.7009
7.81425812420825 37.9505
7.836626570110925 37.7718
7.858995315087906 37.8668
7.881346924933401 37.5034
7.903716270417482 37.5232
7.926068482028405 37.5099
7.948438431475253 37.9994
7.9708086843180235 38.1776
7.993161805171116 38.1765
8.015532667162402 38.1243
8.037886398416653 38.8553
8.060257873014221 39.5604
8.082629655331942 39.3851
8.104984308787587 39.9641
8.127356708900503 40.6783
8.149711981398308 41.5268
8.172085002766314 42.2999
8.194458336181368 43.0176
8.216814543847752 44.0232
8.23918850371002 44.7396
8.26154533906492 45.6034
8.283919928836452 46.8604
8.306277395339652 47.3932
8.328652618483376 48.5713
8.351028159736202 50.1994
8.373386579575245 52.4862
8.395762759396959 54.6255
8.418121819038275 57.5633
8.440498640894003 61.6689
8.462875785192262 66.1832
8.485235811156207 71.9978
8.507613602688501 79.2167
8.529974277114228 91.1166
8.552352719347912 107.042
8.574731488360351 131.259
8.59709314210385 163.748
8.619472567021075 192.731
8.64183487789147 222.16299999999998
8.664214962183097 282.35400000000004
8.686577933647762 402.458
8.708958680784317 589.359
8.731339760774953 766.814
8.753703729764451 798.824
8.77608547780821 624.714
8.798450116065078 414.652
8.820832535634787 263.385
8.843215292401656 176.563
8.865580941199045 131.638
8.887964374703538 107.23200000000001
8.910330701447199 93.3652
8.932714815164482 83.8014
8.955099270424924 77.2827
8.977466620733543 73.0626
8.999851761421976 69.9235
9.022219798361645 66.9198
9.04460562795561 64.77
9.066991803441677 62.5606
9.089360876979615 61.3943
9.111747746589993 59.9391
9.13411751544971 59.0608
9.156505082664324 58.9538
9.178875550323522 60.156000000000006
9.20126381862328 62.4487
9.223652438908596 68.0227
9.246023961427412 83.2063
9.26841328802173 127.185
9.290785518039224 196.708
9.313175554425882 248.523
9.335565947154315 219.515
9.357939245086508 145.624
9.380330352834827 92.4839
9.40270436697103 69.0532
9.425096193225055 59.9577
9.447488380180165 56.7292
9.469863475295412 54.732
9.492256385987508 53.4043
9.514632206018318 52.7058
9.537025843935714 52.2247
9.559402392368193 52.113
9.581796761000229 52.3156
9.604191496441521 52.273
9.626569144158516 52.9633
9.648964615551032 53.1023
9.671343000390081 53.8068
9.693739211225699 54.5334
9.716135793237463 55.523999999999994
9.738515290448102 55.9205
9.760912617143402 56.4805
9.783292860202891 57.6771
9.805690935076182 58.4721
9.828089385495742 59.3031
9.850470754023561 61.0272
9.872869957865444 63.0652
9.89525208097539 65.51100000000001
9.917652041736662 68.8496
9.940052382417589 72.1922
9.962435644102392 76.6691
9.984836746950979 81.8853
10.007220771957746 89.7268
10.029622640473708 102.428
10.052007432299963 122.131
10.074410069984072 144.067
10.096813093716005 167.215
10.119199042482517 185.28599999999997
10.141602840636468 209.16299999999998
10.163989564971628 254.445
10.186394141051062 354.374
10.208799107559706 517.317
10.231187001965623 706.669
10.253592751657669 821.153
10.275981430388155 736.828
10.298387966769793 531.476
10.320794897965431 354.68199999999996
10.343184759907361 234.083
10.36559248305461 164.32299999999998
10.387983138083852 127.419
10.410391656691655 107.039
10.432800574501677 94.5371
10.455192425893369 86.5232
10.47760214443012 83.7382
10.499994797678786 84.2646
10.522405320453982 86.5743
10.54479877906917 90.0074
10.567210109595656 91.6318
10.5896218454736 94.0153
10.612016518879773 103.037
10.634429067781074 123.17
10.656824555333241 160.977
10.679237920773568 219.44299999999998
10.701651695961992 275.711
10.724048411481384 291.499
10.746463008485165 257.39099999999996
10.768860546937125 199.27900000000002
10.791275969274796 137.185
10.81369180576079 95.0739
10.836090585366925 72.4013
10.858507252467449 61.0004
10.88090686379991 55.0702
10.903324365036394 51.558
10.925724811614439 49.1587
10.948143150509463 47.9178
10.970561909719066 46.626000000000005
10.992963615930844 45.4474
11.015383218085756 44.9153
11.037785768347074 44.2829
11.06020621697282 44.0306
11.082627090322113 43.6757
11.105030913430326 43.202
11.12745263854165 43.0554
11.149857314510728 42.6722
11.172279894912576 43.0441
11.194702904450653 42.6472
11.217108866490921 42.5762
11.239532736615194 42.4298
11.26193956033512 42.3442
11.284364294577085 42.4341
11.306789462371718 42.0048
11.329197585398376 41.4219
11.351623622610898 41.1911
11.37403261614354 40.4182
11.396459526308487 39.8395
11.418869393879497 39.3645
11.441297180532617 38.9583
11.463725406927658 38.5224
11.486136592353875 38.253
11.508565700543707 38.0072
11.530977768845315 37.9909
11.553407762368774 37.8838
11.575838200059769 37.9851
11.598251599479612 37.9578
11.620682927815501 37.9527
11.64309721895548 38.1239
11.665529441478206 37.687
11.687962112597958 37.561
11.710377748130886 37.3797
11.732811318753434 37.1727
11.755227854859067 36.887
11.777662328529495 36.9351
11.800079768750786 36.9576
11.822515149015453 36.9927
11.844950984084935 37.6321
11.867369787303163 37.7242
11.889806534289491 38.3902
11.912226250487029 39.5378
11.934663912939751 41.7015
11.9571020346363 46.2808
11.979523127133968 57.0578
12.001962169624331 73.8465
12.024384183972964 87.5348
12.046824150809913 89.1599
12.069264581333726 75.673
12.091687985297767 59.8535
12.11412934550045 50.3286
12.136553680195208 46.7526
12.158995973632788 46.6489
12.181438735204349 47.3599
12.20386447284199 48.0424
12.226308172985636 49.7266
12.24873485024193 52.3865
12.271179492516982 56.3622
12.293607112949127 63.1293
12.316052700916226 73.168
12.338498763250042 86.3241
12.360927805303868 95.3934
12.383374818673879 97.3094
12.405804812803074 89.0503
12.428252780773262 75.8159
12.45070122756722 63.9334
12.473132656675375 55.6466
12.49558206341869 50.4697
12.518014453510101 46.9289
12.540464823770117 44.6572
12.562915677315177 43.1291
12.58534951575545 42.4053
12.607801338171472 41.3869
12.630236146511358 41.0643
12.652688941369085 41.4351
12.675124723177234 41.6548
12.697578494048786 41.9229
12.720032754458185 42.0019
12.742470003354093 41.9309
12.764925245138771 41.8774
12.787363476431278 41.3635
12.809819703166806 40.9972
12.83227642391173 40.7784
12.854716135692716 40.4179
12.877173846755147 40.4193
12.899614549869717 40.2575
12.9220732548287 40.1682
12.94453245827299 39.9804
12.966974655289818 40.2771
12.989434858002571 40.3175
13.011878055298721 40.5522
13.034339260862497 40.9274
13.056800969391883 41.6265
13.079245674017244 43.0699
13.101708390774869 44.2542
13.12415410463411 47.2692
13.146617833206086 52.425
13.169064559883248 57.618
13.191529303857127 61.1347
13.213994557076367 62.2694
13.236442809902437 62.5838
13.258909083908291 64.4151
13.28135835851934 67.0391
13.30382565690295 69.2996
13.326293469022952 71.8853
13.348744283242008 76.0819
13.371213125129904 84.4584
13.39366497011003 98.7258
13.416134845360597 121.389
13.438605238843131 155.984
13.46105863690397 195.84
13.483530069144786 222.583
13.505984506951902 219.62599999999998
13.528456981549432 188.416
13.550929978879088 148.971
13.573385983253365 119.57799999999999
13.595860028340867 100.65299999999999
13.618317081455832 90.3031
13.64079217790333 84.3684
13.663250283359057 80.8686
13.685726434770173 79.6158
13.708203115221277 82.2665
13.730662806148091 90.0162
13.75314054697177 103.869
13.775601299246777 128.85
13.798080104050406 165.51
13.820559442405358 200.265
13.843021793671388 211.09
13.865502201420897 190.551
13.887965623051947 150.54
13.910447103807167 111.584
13.932929122629764 85.0947
13.955394156785959 69.9189
13.977877254034569 60.3345
14.000343367582113 54.5678
14.022827546871707 51.0185
14.045294743423524 48.3164
14.06778000837062 46.6894
14.090265817715476 45.8695
14.112734645763819 45.5661
14.13522154619454 45.9817
14.157691466286913 48.7024
14.180179461423874 55.2223
14.202668005486178 66.9289
14.22513957064374 78.8333
14.247629214846473 85.9132
14.270101881097517 80.586
14.29259262906496 66.5695
14.315083930490205 54.2901
14.337558255389705 46.9347
14.360050666019726 43.2984
14.382526101071944 41.305
14.405019624534942 40.2562
14.427513705993134 39.8319
14.449990813291825 39.5816
14.47248601302899 39.0709
14.49496423954951 38.7803
14.517460561197822 38.6549
14.539939910570322 38.4384
14.562437357763558 38.2914
14.58493536931253 38.4466
14.607416409993311 38.3856
14.62991555254159 38.3745
14.652397725157423 38.3879
14.674898002342799 38.5769
14.697398848433282 38.8694
14.719882725991326 39.1294
14.74238471217934 39.3789
14.764869730765593 39.4966
14.787372860692983 39.5608
14.809876564079925 40.3005
14.83236330125751 41.045
14.854868153850365 42.053000000000004
14.877356041159485 43.6991
14.899862046604186 45.6617
14.922351087688757 47.7083
14.944858249632887 48.8084
14.967365991421232 49.7586
14.989856770231246 50.6609
15.012365673994204 52.6492
15.03485761569738 56.1956
15.05736768508665 61.8669
15.07987833888692 70.7229
15.102372032001655 84.6104
15.124883856909658 102.646
15.14737872204565 120.512
15.169891721717274 127.911
15.192405310371893 122.62100000000001
15.214901940621196 106.057
15.237416709527137 86.3019
15.259914520936249 70.9338
15.282430473753607 60.3559
15.304947020131227 53.2079
15.327446610371178 48.494
15.349964346154254 45.3946
15.372465126703139 43.72
15.394984055556009 42.5077
15.417486030076159 41.5685
15.44000615566487 40.6945
15.462526881230803 39.9503
15.485030653812652 39.61
15.507552581617434 39.2439
15.530057557334603 38.9337
15.55258069104857 38.9125
15.575104429329837 39.0174
15.597611216864632 38.8418
15.620136166564563 38.4028
15.6426441664095 38.3317
15.665170331202765 38.5179
15.687697105158826 38.5894
15.710206930593545 39.2902
15.732734925158933 39.7651
15.755245972089478 40.3951
15.77777519094324 41.6861
15.800287463046663 43.2009
15.822817909869592 44.9853
15.84534897229804 46.1842
15.867863089299354 47.3783
15.890395385222186 48.0131
15.912910736597423 49.0106
15.935444269699861 51.0914
15.957978423016485 55.0821
15.980495633101265 60.3042
16.003031029129367 69.025
16.02554948280019 82.6121
16.048086125229432 100.155
16.070623392487107 116.62200000000001
16.09314371869582 125.45700000000001
16.11568223789321 122.804
16.13820381691126 111.03299999999999
16.160743591742527 95.3409
16.183283996022084 80.2386
16.205807461423195 66.7507
16.228349126881973 55.7617
16.25087385432698 48.8269
16.27341678466365 44.2712
16.29594277784926 41.4666
16.31848697676433 39.4648
16.341031811604868 37.9429
16.36355971058487 37.2302
16.3861058195587 36.4757
16.40863499352978 35.7361
16.431182380342005 35.3259
16.453730407713202 34.9398
16.476261501364792 34.4676
16.498810812136167 34.0496
16.52134319004079 33.9638
16.54389378792203 33.5787
16.566445031001553 33.2915
16.588979342490088 33.0125
16.61153187824822 32.7562
16.634067483263312 32.4874
16.656621315414416 32.3202
16.679175797408888 32.164
16.701713349928728 32.0633
16.72426913389191 32.1602
16.74680798922351 31.9583
16.76936507887444 31.9902
16.791905240734874 32.0187
16.814463639794468 32.0415
16.837022695210294 32.1957
16.859564824093756 32.1746
16.882125194503903 32.342
16.904668639217885 32.5262
16.927230328348003 32.5812
16.949792678493612 33.5738
16.972338104193863 34.7364
16.994901778652235 36.5889
17.017448529496576 38.4539
17.040013531998152 39.8638
17.06257920018044 39.6795
17.0851279459922 38.1723
17.107694947817667 36.364000000000004
17.130245028099072 34.713
17.15281336730298 33.8689
17.17536478578733 33.5145
17.19793446610687 33.6659
17.220504818648422 34.0298
17.243058251703697 34.0738
17.265629950971032 34.36
17.288184731571736 34.4595
17.310757781306908 34.7863
17.33333150794385 34.836999999999996
17.355888317140174 35.1424
17.37846339986244 35.6564
17.401021565958885 36.9266
17.42359800851343 38.6599
17.44617513265564 40.6885
17.468735341390783 44.0628
17.491261035594565 47.7951
17.51396340099364 50.8832
17.536490463869136 51.7326
17.559018209820174 49.8227
17.58154663977963 46.3537
17.604251766089718 42.5662
17.626781572227713 39.8161
17.64931206518155 37.6827
17.671843245885103 36.5459
17.69455114821572 35.6728
17.717083712612634 35.3116
17.739616967569667 35.2621
17.762150914021706 35.4807
17.78486160749854 35.8108
17.807396945166804 36.8889
17.829932977143503 38.6584
17.85246970436452 40.3983
17.875183204129467 41.6866
17.897721330097664 42.1908
17.920260154126645 41.3199
17.942799677153296 40.1137
17.9655159983646 39.2113
17.988056927677544 39.2843
18.010598558807683 40.2817
18.033140892692916 41.3875
18.05586005052525 41.9195
18.07840379824407 42.5541
18.10094825154059 42.8306
18.12366954819864 43.3171
18.146215420998306 44.1478
18.16876200220057 45.7617
18.191309292745153 48.5304
18.214033452627167 52.5013
18.236582170236648 58.2955
18.259131600016456 67.1206
18.281681742907335 78.7374
18.304408781233683 91.5662
18.32696035875955 99.6701
18.349512652227624 100.431
18.372065662579683 93.2624
18.394795594587553 80.7797
18.41735004715306 69.3672
18.43990521943684 61.6413
18.46246111238171 57.1597
18.485193953325208 55.6059
18.507751296070428 56.6191
18.530309362314178 60.4709
18.552868153000343 65.8895
18.57560391815056 71.0258
18.59816416623245 74.3366
18.620725141597372 73.0752
18.643286845190268 68.2781
18.666025549835414 61.3748
18.688588718427933 55.0085
18.711152618092243 49.7151
18.73389353884365 45.2188
18.75645890921984 41.7066
18.77902501351406 39.3237
18.801591852673102 37.9676
18.824335739722738 36.9419
18.846904057212626 36.289
18.8694731124168 35.5392
18.89204290628315 35.4165
18.914789774966803 34.9718
18.937361054791623 34.6281
18.959933076131318 34.232
18.982505839934877 34.0236
19.00525570560582 34.1884
19.027829963004184 33.9284
19.05040496572238 33.8695
19.072980714710468 33.7072
19.095733592739563 33.7564
19.11831084296757 33.5355
19.140888842324735 33.5248
19.16346759176222 33.4672
19.18622349753803 33.5539
19.208803755869358 33.9816
19.231384767143577 34.1179
19.253966532312948 34.5266
19.276725481241822 34.9633
19.29930876296784 35.1689
19.3218928014549 35.8183
19.34465404436217 36.6034
19.36723960516257 38.2326
19.389825925592426 40.3417
19.412413006605938 42.9827
19.43517731967805 45.4841
19.457765930683355 47.1447
19.48035530514408 46.9893
19.50294544401556 46.1247
19.525712842708348 45.3294
19.54830451925909 45.8335
19.570896963095727 46.8272
19.593490175174704 48.3861
19.616260674962184 49.0996
19.638855432416964 47.5674
19.661450960992624 45.2639
19.68404726164677 41.9118
19.706820878021247 38.9126
19.729418731756834 37.0934
19.752017360452857 35.2035
19.77461676506804 34.3576
19.797393513540218 33.6514
19.819994478951667 33.0507
19.84259622316767 32.6724
19.8651987471481 32.3612
19.887978643247177 32.1704
19.91058273574792 32.0396
19.933187610901943 31.9865
19.955969879466828 32.0979
19.97857632894404 32.3417
20.00118356396599 32.4897
20.023791585494575 32.414
20.046577028914875 32.6154
20.069186632506966 32.5837
20.091797025500632 32.6767
20.114408208858933 32.7263
20.137196842715273 32.929
20.159809615886765 33.4682
20.18242318232135 33.9806
20.20503754298326 34.9969
20.227829382875154 36.4185
20.250445341109344 38.2125
20.27306209647285 40.5308
20.29567964993108 43.215
20.31847471147704 45.2684
20.34109387027612 46.5103
20.363713830075454 46.5434
20.386334591841646 45.1166
20.409132890679302 42.506
20.431755265564437 40.3196
20.454378445325528 38.9764
20.477002430930366 38.8297
20.499803982716553 39.603
20.522429589228004 41.2146
20.54505600449589 42.9789
20.567683229489194 44.403
20.590488049900088 44.3171
20.61311690359731 42.8976
20.63574656993626 40.5276
20.658553853717297 37.7624
20.681185154618298 35.4573
20.703817271080066 33.9337
20.72645020407368 32.53
20.749260783967177 31.7773
20.771895359337133 31.502
20.794530754161617 31.3424
20.817166969412938 31.511999999999997
20.83998086114876 31.9857
20.86261872660049 32.804
20.885257415405402 33.3723
20.90789692853701 33.7066
20.930714147864748 33.497
20.953355319030678 32.6496
20.97599731745334 31.6675
20.99864014410749 30.2827
21.021460706796564 29.744
21.044105199328826 29.4659
21.06675052302631 29.2684
21.089396678865015 29.073
21.112220600704806 29.0969
21.134868430275347 29.2081
21.15751709492456 28.9669
21.180166595629693 28.7748
21.202993892429635 28.8164
21.22564507473034 28.8265
21.24829709602816 28.7934
21.27112693608965 28.7253
21.293780644891275 28.8443
21.316435195634053 29.0242
21.339090589297417 29.139
21.361923832041875 29.2372
21.384580921090404 29.3463
21.407238856007325 29.6822
21.429897637773326 30.3427
21.45273429906592 31.0819
21.475394784108598 31.8653
21.498056118951983 32.3983
21.520718304578022 32.6167
21.543558400304388 32.4076
21.566222297108816 31.9629
21.58888704765135 31.3186
21.61155265291521 30.9451
21.63439619898156 30.5217
21.657063523335786 30.0204
21.67973170537063 29.7384
21.7024007460706 29.609
21.72524775840385 29.6989
21.747918526116475 29.8402
21.770590155457388 30.0658
21.79326264741238 30.3009
21.816113141960237 30.5517
21.838787368860547 30.8246
21.861462461341976 30.9249
21.884315579735777 31.0898
21.90699241312273 31.0429
21.92967011506078 31.3316
21.95234868653799 31.666
21.9752053151131 32.2168
21.997885635446785 32.9762
22.020566828293532 34.1384
22.04324889464272 35.1049
22.066109049404666 36.6141
22.088792872571794 38.6529
22.111477572219204 41.3056
22.1341631493376 44.0658
22.157026846313123 46.4019
22.179714188221507 47.5777
22.202402410582668 47.6694
22.22509151438863 46.2834
22.24795876962584 44.4263
22.270649646204486 42.5719
22.293341407213727 41.2351
22.316034053646906 40.338
22.338904883215342 39.7204
22.36159931041458 39.4635
22.38429462602756 39.2832
22.40699083104897 38.375
22.429865251039757 37.4818
22.452563244831367 36.3098
22.47526213102522 34.8501
22.49813925616515 33.4804
22.520839937143307 32.4242
22.543541513520587 31.8712
22.56624398629403 31.186999999999998
22.589124730075895 30.8506
22.611829005656723 30.5396
22.63453418063466 30.4335
22.657240256008077 30.2327
22.680124634582935 30.0547
22.70283252079775 29.8645
22.725541310413075 29.9841
22.74825100442868 29.8375
22.771139033969575 30.1363
22.79385054687155 30.0545
22.81656296718292 30.0965
22.83927629590484 30.5366
22.862167992606945 31.1178
22.88488314827121 31.6967
22.907599215359284 31.9595
22.93031619487366 32.0633
22.953211574954405 31.9407
22.975930389478226 31.7591
22.998650119445763 31.5759
23.02137076586092 31.2975
23.044269845560063 31.4879
23.06699233506288 31.7666
23.089715744034912 32.1366
23.112617610931565 32.8426
23.135342869061212 33.7377
23.158069049684816 35.1805
23.1807961538087 37.0624
23.20370174880544 39.3749
23.226430710184808 41.0612
23.249160598093425 41.9528
23.271891413539002 41.6934
23.294800752937697 40.1771
23.31753343374794 38.1626
23.340267045128353 36.062
23.36300158808808 34.4948
23.38591468821339 33.2112
23.408651104658304 32.6899
23.431388455719986 32.3744
23.454126742409 32.2453
23.4770436196085 32.5361
23.499783787914662 33.2393
23.522524894889884 33.3887
23.54526694154616 33.7844
23.56818761219047 34.1159
23.59093154860734 33.8034
23.613676427751283 33.4209
23.636422250635754 32.9926
23.659346731118656 32.6038
23.68209445191868 32.4702
23.704843119509587 32.8122
23.72759273490623 33.3231
23.750521041644767 34.4114
23.77327256312355 35.7738
23.796025035462787 37.6468
23.818956224555475 39.9301
23.841710609113413 42.1169
23.86446594758979 43.411
23.887222241002014 43.2687
23.910157285144578 41.6547
23.932915498962537 39.6207
23.955674670778713 36.9819
23.978434801611975 34.6776
24.001373717286125 32.9122
24.024135776723917 31.4902
24.046898798245582 30.649
24.06966278287146 29.9754
24.092605586582614 29.5272
24.115371508023642 29.2733
24.1381383956401 29.0362
24.16090625045381 28.8959
24.183852958731244 28.9041
24.206622758582608 28.7124
24.229393528706886 28.3335
24.252165270127392 28.1534
24.27511589952438 27.8635
24.297889594216997 27.6221
24.32066426328598 27.2897
24.34343990775613 27.1748
24.36639447485003 26.9995
24.38917208083877 26.9839
24.41195066531332 26.7988
24.43490819850244 26.8524
24.457688750692377 26.7198
24.48047028445616 26.7065
24.503252800821233 26.6749
24.526214300784112 26.6191
24.548998793132213 26.6718
24.57178427117417 26.4989
24.59457073593893 26.4091
24.617536219319863 26.4708
24.64032466834748 26.5834
24.663114107195035 26.7133
24.685904536893013 26.6573
24.708874020360852 26.9134
24.731666442613744 27.2231
24.754459858818787 27.4594
24.777254270007962 27.8413
24.80022777025625 27.875999999999998
24.82302418230472 27.9205
24.845821592443674 27.6761
24.86862000170663 27.412
24.891597535453727 27.1085
24.914397953892728 26.8917
24.93719937456671 26.6911
24.96000179851076 26.4951
24.98298338249997 26.4175
25.00578782394922 26.4486
25.028593271784167 26.2836
25.05157790644186 26.3709
25.07438537804115 26.2351
25.097193859145293 26.2209
25.120003350792075 26.2435
25.142992065061257 26.3061
25.165803588823465 26.3322
25.18861612625217 26.4061
25.211429678386736 26.5318
25.234422489079968 26.5527
25.257238081693636 26.7051
25.280054692141732 26.9306
25.3028723214652 27.1549
25.325869245420463 27.3574
25.348688923599397 27.8523
25.371509623787006 28.2847
25.394331347025812 28.7547
25.41733240110666 29.3127
25.440156181590016 29.6598
25.46298098826268 29.9742
25.48580682216873 30.0213
25.50881202326435 29.9553
25.53163992281684 29.9843
25.55446885274561 30.0339
25.577298814096377 30.2098
25.600308179121807 30.8841
25.623140214533745 31.4735
25.64597328451537 31.8104
25.66898578564376 31.5381
25.691820936010206 31.0645
25.714657124097695 30.2059
25.737494350954734 29.2066
25.760511045684957 28.2257
25.783350361364224 27.6158
25.806190718969255 26.9811
25.82903211955018 26.8232
25.852053024868923 26.6644
25.874896522722523 26.6336
25.897741066713106 26.5196
25.920586657892454 26.5616
25.943611790812668 26.808000000000003
25.966459487728237 26.7071
25.989308234998564 26.4639
26.01215803367705 26.4978
26.03518741123814 26.3126
26.05803932412957 25.9443
26.080892291600094 25.8195
26.10374631470478 25.6351
26.12677995397268 25.6134
26.14963609978026 25.7514
26.172493304397875 25.5378
26.19535156888223 25.7462
26.218389486949604 25.7599
26.241249882640123 25.9814
26.26411134137826 26.0215
26.28715248187403 26.4376
26.31001607820869 26.6174
26.3328807407756 26.9749
26.35574647063438 27.7168
26.37879191991473 28.116999999999997
26.401659795896734 28.3579
26.424528742360263 28.4902
26.447398760366614 28.3072
26.470448535598294 27.9041
26.49332070826805 27.4548
26.516193955675355 27.0339
26.53906827888316 26.7235
26.562122397260108 26.3735
26.584998883685063 26.2733
26.607876449110325 26.1371
26.63075509460056 25.9735
26.65381357334404 25.8879
26.67669439061878 25.9341
26.699576291163382 25.9741
26.722459276044212 26.0628
26.745522132402975 26.1098
26.768407297649354 26.2709
26.791293550442003 26.4321
26.814180891848974 26.7377
26.837248143099337 26.9728
26.860137673466657 27.5492
26.88302829566349 28.0811
26.90592001075963 28.737
26.92899167420566 29.5223
26.951885586870763 29.9523
26.974780595655517 30.1808
26.99785558178161 30.2383
27.020752794605112 30.1421
27.043651106772522 29.7568
27.06655051935668 29.5994
27.089629948036183 29.296999999999997
27.112531573292053 28.9724
27.135434302194138 28.7175
27.158338135817015 28.1671
27.181422024430987 27.561
27.204328079372566 26.978
27.22723524226965 26.5944
27.250143514198573 26.1291
27.273231880156334 25.7214
27.296142382065014 25.4201
27.319053996245536 25.2529
27.341966723775965 25.0675
27.365059584515222 24.9372
27.38797455070062 24.9431
27.410890633481237 24.7718
27.433807833936918 24.5906
27.456905206923906 24.7365
27.47982465472398 24.6007
27.502745223449743 24.6693
27.525666914182825 24.6266
27.548768816912457 24.5806
27.571692763693633 24.6469
27.59461783573812 24.588
27.617723149491244 24.6188
27.640650484125285 24.7235
27.66357894728264 24.7321
27.686508540048052 24.7059
27.709618414237887 24.8238
27.732550278321757 24.8229
27.755483275279115 24.8103
27.778417406196485 25.0176
27.801531858397514 25.2598
27.824468269376716 25.3516
27.847405817586786 25.4623
27.870344504116094 25.5354
27.893463551932008 25.5276
27.916404527281053 25.5525
27.93934664422563 25.2973
27.962289903855886 25.057
27.98541356491974 25.0203
28.00835912214229 24.824
28.03130582533231 24.8135
28.054253675581805 24.9761
28.077381967556104 24.925
28.100332124185126 25.1492
28.123283431160893 25.3003
28.146235889577238 25.5574
28.169368830154156 25.6903
28.192323603752033 25.7949
28.215279532083304 25.7215
28.238415973016764 25.785999999999998
28.261374223145094 25.9457
28.284333631303806 26.1839
28.307294198589954 26.6286
28.330435319167677 26.9746
28.353398217078915 27.5526
28.376362277420153 27.9023
28.39932750129032 28.0618
28.422473319286713 27.9233
28.44544088262495 27.7887
28.468409612800283 27.4208
28.491379510913497 26.9729
28.51453004413313 26.7858
28.53750229057244 26.6721
28.56047570826344 26.4802
28.583450298308804 26.2629
28.606605564586562 25.8898
28.629582511831156 25.6879
28.65256063474956 25.2258
28.675539934446338 24.8917
28.698699951647605 24.6658
28.72168161743193 24.2349
28.74466446331978 24.0621
28.767648490417624 23.771
28.790813276438353 23.6141
28.813799678527303 23.3408
28.836787265157085 23.2344
28.859955641890075 23.1108
28.882945610203045 23.0498
28.905936766392035 22.9627
28.928929111566863 22.8738
28.952102288520145 22.8665
28.975097024308607 22.8232
28.998092952423807 22.6879
29.021090073977508 22.7071
29.04426806913204 22.7668
29.067267590245258 22.628
29.090268308143695 22.664
29.11327022394099 22.7311
29.13645305530891 22.7813
29.159457379627167 22.8765
29.18246290519685 23.039
29.20546963313352 23.1347
29.22865731875826 23.3843
29.25166646419296 23.3868
29.27467681535305 23.131
29.29768837335608 23.101
29.320880931312562 22.9954
29.34389491580634 22.6738
29.366910110507334 22.5949
29.38992651653503 22.3789
29.41312396492981 22.2811
29.436142806456754 22.1414
29.45916286268059 22.1241
29.48236399319994 22.1832
29.50538649169417 21.9876
29.528410208259935 21.9741
29.55143514402014 21.9853
29.574641196749695 22.0457
29.597668583816574 22.1293
29.6206971934585 22.1542
29.64372702680042 22.2239
29.666938019934474 22.2834
29.689970313635285 22.5044
29.713003834422636 22.5888
29.73603858342347 22.6792
29.759254535188578 22.7068
29.78229175361658 22.6229
29.80533020365064 22.5654
29.82836988641968 22.3609
29.85159081507472 22.1078
29.874632976355343 21.8586
29.89767637376955 21.7516
29.920721008448314 21.5336
29.9439469322847 21.4581
29.96699405457564 21.4288
29.9900424175358 21.3148
30.013092022298157 21.2372
30.03632295963995 21.1681
30.059375061131373 21.1675
30.08242840783577 21.269000000000002
30.105483000888153 21.2066
30.128718970092244 21.205
30.151776069006917 21.369
30.17483441768648 21.4176
30.198074175317235 21.4819
30.221135036724256 21.5329
30.24419715131772 21.3255
30.267260520236203 21.3809
30.290505341942243 21.3723
30.313571232750228 21.2787
30.336638381310948 21.1791
30.35970678876503 21.0524
30.38295669299435 20.9627
30.40602763151657 21.1003
30.429099832366074 21.0637
30.452173296685572 21.0464
30.47542830191959 21.1364
30.498504306502497 21.2023
30.521581577995562 21.3619
30.544660117543582 21.3626
30.56792024229725 21.484
30.59100133132069 21.4346
30.614083691845494 21.4726
30.637167325018545 21.41
30.660432587840603 21.3718
30.683518779717886 21.1717
30.70660624769615 21.2303
30.729694992924372 20.9965
30.75296541239743 21.0292
30.77605672557558 20.9801
30.799149319462742 20.9796
30.8224236211637 20.9663
30.845518789950724 21.0217
30.868615242910597 21.1643
30.891712981195973 21.1384
30.91499247215866 21.2241
30.938092794619365 21.3962
30.96119440587579 21.4768
30.984297307082752 21.7785
31.00758200598383 21.9764
31.030687500658694 22.2434
31.053794288760695 22.4171
31.076902371446767 22.4211
31.100192296997445 22.5563
31.12330298246119 22.4209
31.14641496599209 22.3915
31.169528248749216 22.2564
31.19282341969534 22.0523
31.215939314557186 22.0147
31.239056512134788 21.9073
31.262175013589378 21.6231
31.28547544871168 21.429000000000002
31.30859657161541 21.1864
31.331719001892175 21.1493
31.35484274070538 21.1382
31.378148458819545 20.8588
31.401274828443725 20.6724
31.424402510106933 20.5975
31.447712205419993 20.6713
31.470842524931633 20.457
31.493974159989783 20.458
31.51710711176168 20.4437
31.54042212308802 20.4957
31.563557722100917 20.5015
31.586694641341655 20.5029
31.609832881979628 20.5128
31.63315322823208 20.4997
31.656294125521327 20.5659
31.679436347728515 20.7403
31.70257989602529 20.711
31.725905596152327 20.7403
31.74905181052835 20.8152
31.772199354521323 20.9376
31.79534822930507 21.0819
31.818679302290967 21.2613
31.84183085259981 21.2389
31.864983737233473 21.2584
31.88813795736804 21.2834
31.911474422233013 21.0722
31.934631327356435 20.9346
31.9577895715215 20.8036
31.980949155906522 20.5933
32.004291031706956 20.4698
32.027453310562606 20.3693
32.05061693318573 20.2235
32.07396288236386 20.2586
32.09712920658542 20.2408
32.12029687812702 20.2942
32.14346589817093 20.3461
32.166817291729984 20.4013
32.18998902288583 20.3736
32.21316210610336 20.4277
32.23633654256711 20.5101
32.259693399663725 20.6227
32.282870556771144 20.6473
32.30604907069099 20.8248
32.329228942610065 20.8996
32.35259128243769 20.794
32.375773884550505 20.7
32.398957848235646 20.6573
32.422143174682176 20.4424
32.445511016471215 20.3338
32.468699082679954 20.2457
32.49188851523011 20.1015
32.51507931531304 19.9564
32.538452678331 19.8774
32.56164622776311 19.7064
32.58484114831493 19.5707
32.60803744118015 19.4502
32.631416344731896 19.4609
32.654615396551876 19.4168
32.67781582427913 19.2997
32.701198898634416 19.1413
32.72440209253756 19.0736
32.747606665947124 19.1112
32.77081262006088 18.9555
32.79420126883317 19.0034
32.81740999876112 18.8496
32.840620112999424 18.7402
32.86383161274818 18.7583
32.88722585534586 18.8092
32.91044014056596 18.8632
32.933655814909734 18.8017
32.95687287957963 18.7586
32.98027273544904 18.7595
33.00349259526636 18.7193
33.026713849030116 18.7542
33.04993649794511 18.8063
33.073341986570746 18.8105
33.09656744032826 18.8472
33.11979429286444 18.8959
33.14302254538647 18.8314
33.166433686291185 18.7143
33.18966475336992 18.6242
33.212897224069096 18.6466
33.23613109959831 18.4759
33.259547912343415 18.4925
33.2827846121627 18.5183
33.306022720453775 18.4606
33.32926223842861 18.4276
33.352684742614166 18.5251
33.37592709463173 18.5334
33.399170859982064 18.4884
33.422597648419426 18.4932
33.44584425514446 18.5707
33.46909227885668 18.5707
33.4923417207723 18.6057
33.51577423505344 18.7902
33.539026528130385 18.7791
33.56228024307245 18.8015
33.585535381098246 18.7675
33.60897364093058 18.885
33.63223163992385 18.8899
33.6554910656699 18.9132
33.678751919389796 18.9508
33.702195944520106 18.8729
33.72545966903325 18.8073
33.74872482519663 18.6242
33.771991414233746 18.5128
33.79544122444841 18.3174
33.81871069412428 18.1564
33.84198160035767 18.0653
33.86525394437455 18.0235
33.88870955949969 17.9204
33.911984794020626 17.8814
33.93526147001624 17.8378
33.958539588715006 17.7664
33.98200102861669 17.7891
34.0052820477047 17.7518
34.02856451319451 17.753
34.05203033759056 17.6538
34.07531571090147 17.6119
34.09860253431845 17.6386
34.121890809074316 17.5962
34.145362493118924 17.6188
34.16865368561615 17.6797
34.191946333164054 17.6676
34.21524043699793 17.6274
34.23871800066799 17.5983
34.26201503218366 17.5892
34.28531352370466 17.5866
34.30861347646881 17.5934
34.33209693978188 17.5212
34.3553998301885 17.5284
34.378704185565205 17.4499
34.402010007152356 17.2516
34.42549939016683 17.2176
34.44880815937748 17.1838
34.472118398533134 17.1899
34.49543010887669 17.174
34.51892543169198 17.0803
34.54224009966052 17.1217
34.56555624255917 17.1534
34.58887386163339 17.0709
34.61237514439016 16.9439
34.6356957311114 17.0383
34.65901779775809 17.0622
34.68252356662995 17.0716
34.705848608458616 17.0662
34.72917513396849 17.1052
34.75250314440949 17.0198
34.77601490857862 16.9986
34.799345904259795 16.8867
34.82267838863559 16.8888
34.846012362958525 16.8838
34.869530142679984 16.7857
34.89286711232212 16.7892
34.91620557568269 16.7021
34.93954553401677 16.6391
34.9630693495876 16.588
34.986412313340814 16.5952
35.00975677584668 16.609
35.033102738362956 16.5541
35.05663261012228 16.5368
35.0799815881786 16.4317
35.10333207003229 16.4179
35.12668405694369 16.4351
35.150220005273056 16.3237
35.17357501786656 16.432000000000002
35.19693153931268 16.3438
35.220289570874385 16.3046
35.24383161619786 16.3652
35.267192683604904 16.4021
35.290555264930376 16.3065
35.314101899412165 16.3233
35.33746752422433 16.3679
35.36083466676374 16.3185
35.38420332829803 16.2657
35.407756095629054 16.3663
35.43112781085063 16.3749
35.45450104888391 16.2795
35.477875810999194 16.2702
35.50143473172161 16.2568
35.52481255774625 16.2637
35.54819191167777 16.2189
35.57157279478914 16.2006
35.595137889488406 16.2114
35.61852184675279 16.1952
35.641907337029984 16.1875
35.665294361595684 16.2223
35.68886565090076 16.2481
35.7122557598848 16.3206
35.73564740699838 16.3616
35.759040593519934 16.3667
35.78261809810353 16.4918
35.80601437933051 16.4477
35.829412203814705 16.54
35.85281157283719 16.5663
35.876395313415884 16.6193
35.8997977874528 16.5879
35.92320180988546 16.5736
35.946790244133936 16.3807
35.97019737933222 16.3526
35.993606066789866 16.3576
36.01701630779276 16.2737
36.04061101440684 16.2204
36.06402437852291 16.1153
36.08743930005611 16.0764
36.1108557802951 15.9257
36.13445678011326 15.8792
36.15787639383515 15.8356
36.18129757014299 15.7619
36.20472031032821 15.7437
36.22832762423364 15.6641
36.25175350829375 15.6291
36.275180960119776 15.5227
36.298609981005924 15.6539
36.32222362992669 15.6229
36.34565580510207 15.6404
36.36908955323448 15.5633
36.39252487562093 15.5363
36.416144880530226 15.4975
36.43958336764275 15.5451
36.463023432914625 15.5189
36.486465077645676 15.4925
36.51009145956204 15.5709
36.53353627947859 15.6117
36.55698268276811 15.5252
36.58043067073321 15.5188
36.60406345072071 15.502
36.62751462435344 15.5084
36.65096738658405 15.5512
36.67460498210655 15.5158
36.69806093788647 15.4378
36.72151848619297 15.3087
36.744977628333636 15.2887
36.76862165890998 15.1667
36.79208400512205 15.219000000000001
36.81554794910557 15.2032
36.83901349217101 15.1368
36.862663978991606 15.1088
36.88613273667352 15.1879
36.90960309738324 15.1965
36.933075062434064 15.1763
36.95673202673572 15.1714
36.98020721697122 15.1101
37.003684015502365 15.1836
37.027162423645365 15.2167
37.050825886711465 15.1723
37.07430753063053 15.0647
37.09779078812467 15.0688
37.121275660513014 15.0312
37.144945643673694 14.9859
37.16843376245278 14.9294
37.19192350009803 14.9048
37.215414857931435 14.8929
37.239091382563885 14.8569
37.262585997426164 14.7901
37.28608223645736 14.6896
37.309763684451696 14.6934
37.33326318851098 14.5969
37.356764320726555 14.6926
37.380267082425526 14.6163
37.40395510942588 14.5884
37.42746114683234 14.5908
37.45096881771841 14.5355
37.474478123414166 14.5003
37.49817275092816 14.505999999999998
37.52168534303452 14.4902
37.54519957395567 14.3853
37.568715445024665 14.446
37.592416694607714 14.4045
37.61593586281424 14.4427
37.63945667518264 14.4201
37.66297913304891 14.3276
37.68668702630454 14.3363
37.710212792059274 14.2725
37.733740207334854 14.2653
37.757269273470364 14.2833
37.780983832050374 14.1626
37.80451621684926 14.2139
37.82805025654007 14.1497
37.851585952464795 14.0846
37.8753071980695 14.0577
37.89884622345676 14.1211
37.92238690911902 14.0802
37.94611318753442 14.0542
37.969657210779765 14.0553
37.99320289834801 14.0357
38.016750251586465 14.024000000000001
38.04048325513017 14.0198
38.06403395679343 14.022
38.087586328183946 13.9557
38.11114037065203 13.9597
38.13488012115898 14.0158
38.1584375229181 13.9691
38.181996599821 13.8934
38.205557353221124 13.9488
38.229303872575656 13.875
38.2528679961576 13.8452
38.27643380031219 13.7603
38.30000128639589 13.7287
38.32375459653193 13.7382
38.34732546371299 13.7468
38.37089801690786 13.6647
38.39447225747609 13.6104
38.418232380377425 13.5308
38.441810012983396 13.6272
38.46538933705673 13.5755
38.488970353960084 13.5089
38.51273731166058 13.4921
38.536321731567014 13.5141
38.55990784840681 13.4918
38.58367995004091 13.4924
38.60726947812959 13.5057
38.63086070726198 13.4722
38.654453638806274 13.4849
38.678232613930824 13.4568
38.70182896773327 13.4541
38.72542702806741 13.4605
38.7490267963045 13.3951
38.77281266709232 13.3769
38.79641586862214 13.4078
38.8200207821842 13.2255
38.843627409152944 13.2719
38.86742019782782 13.3142
38.891030269149255 13.225999999999999
38.914642058016156 13.2383
38.938255565806124 13.1959
38.96205529464307 13.1816
38.98567225787121 13.1876
39.00929094417078 13.1828
39.03291135492255 13.2534
39.05671804624804 13.1969
39.080341923549106 13.194
39.103967529460334 13.1641
39.127594865365744 13.1202
39.15140854155791 13.0996
39.17503935514948 13.0809
39.19867190290282 13.1105
39.22249083587951 13.003
39.24612686969409 13.0282
39.269764641845306 12.9753
39.293404153722804 12.9348
39.317230110864074 12.8421
39.34087311998506 12.8398
39.36451787301696 12.7937
39.388164371352595 12.7913
39.41199737518003 12.7893
39.43564738196752 12.7576
39.45929913825317 12.8064
39.48295264543308 12.6977
39.506792718520884 12.6664
39.530449745387216 12.6105
39.55410852735203 12.6428
39.57776906581474 12.714
39.60161623079 12.6327
39.625280300200025 12.6069
39.64894613032202 12.539000000000001
39.67261372255866 12.5006
39.6964680021016 12.5829
39.72013913657293 12.5433
39.74381203738292 12.5549
39.76748670593756 12.4839
39.79134812278169 12.4676
39.81502634488497 12.4597
39.83870633896685 12.478
39.862388106436654 12.4757
39.88625668336918 12.4167
39.90994201572829 12.4445
39.933629125719285 12.363
39.957503091207826 12.2854
39.9811937746168 12.3754
40.00488623990914 12.3136
40.02858048850006 12.2561
40.05246165409549 12.254000000000001
40.076159487492085 12.277999999999999
40.099859108448875 12.2836
40.123560518384345 12.2895
40.1474489070226 12.2551
40.171153913178564 12.2091
40.194860712584955 12.2319
40.2185693066637 12.2569
40.242464941335314 12.2012
40.26617714307655 12.2369
40.289891143772046 12.2144
40.3136069448471 12.1583
40.33750984859743 12.1354
40.3612292688043 12.1656
40.3849504936829 12.1052
40.40867352466194 12.1355
40.43258372059144 12.0407
40.45631038219906 12.0255
40.48003885420956 11.9733
40.503769138055105 11.9778
40.52768664931955 12.0001
40.55142057531802 12.0089
40.57515631746428 11.9748
40.599079334038514 11.9233
40.62281872700477 11.9618
40.64655994043941 11.8601
40.67030297578061 11.8633
40.69423334835778 11.8757
40.71798004609188 11.8522
40.74172857006355 11.8183
40.76547892171441 11.8176
40.7894166736039 11.8336
40.813170699248566 11.7767
40.83692655691388 11.7769
40.86068424804498 11.8187
40.884629402612525 11.7561
40.908390779366385 11.6896
40.932153993938 11.6875
40.95591904777605 11.702
40.979871628443995 11.7025
41.003640379561936 11.6684
41.02741097430883 11.6312
41.05118341413683 11.6326
41.075143444384416 11.630999999999998
41.098919593177826 11.6145
41.1226975914255 11.6661
41.14647744058318 11.6051
41.170444943946755 11.620999999999999
41.19422851378379 11.6181
41.218013938914645 11.5591
41.24198706625173 11.5283
41.26577622087193 11.4926
41.289567235177785 11.4908
41.31336011063129 11.4712
41.337340752422875 11.4091
41.361137369129835 11.4266
41.38493585138705 11.4419
41.40873620066004 11.3685
41.43272438060107 11.3224
41.45652848292052 11.3522
41.48033445666918 11.2576
41.50414230331616 11.2519
41.528138045159764 11.2699
41.551949656675205 11.2543
41.575763145513235 11.1811
41.59957851314666 11.2161
41.62358184070442 11.1601
41.64740098505737 11.1545
41.6712220126409 11.1689
41.69504492493139 11.1117
41.71905586207357 11.0935
41.74288256296395 11.0739
41.766711153007456 11.0613
41.79054163368412 11.0224
41.814560204340054 11.0043
41.838394485526365 11.0194
41.86223066180303 11.0153
41.88625497706819 10.9884
41.910094962812 10.9639
41.93393684811168 10.9385
41.95778063445365 10.9399
41.981812625263366 10.9352
42.00566023303407 10.9074
42.029509746323676 10.9246
42.05336116662236 10.9367
42.077400857069705 10.9088
42.10125611078846 10.9303
42.12511327600405 10.8088
42.14897235421036 10.8213
42.173019768448455 10.8361
42.19688269209613 10.8279
42.22074753323349 10.8406
42.24461429335818 10.7953
42.268669455600495 10.7682
42.292540073217886 10.7404
42.31641261433284 10.734000000000002
42.34028708044675 10.6881
42.36435001496739 10.6253
42.38822835065557 10.648
42.41210861586426 10.6196
42.4359908120986 10.6224
42.46006154323262 10.5884
42.48394762115317 10.5357
42.507835634632315 10.5181
42.531912233047436 10.5344
42.55580413732265 10.5181
42.579697981698 10.46
42.60359376768525 10.4689
42.62767820545945 10.38
42.65157789440821 10.4485
42.67547952952185 10.4026
42.699383112316 10.3603
42.72347541395347 10.3492
42.74738291190531 10.3198
42.771292362102166 10.3386
42.795203766063516 10.2939
42.819303956130405 10.3299
42.843219287476536 10.2786
42.86713657716324 10.2601
42.89105582671383 10.249
42.91516392983864 10.2654
42.939087119032166 10.1951
42.963012272677304 10.2052
42.98693939230129 10.1365
43.01105543317513 10.1209
43.034986504731386 10.0938
43.05891954686589 10.0948
43.08285456110972 10.0759
43.10697856448665 10.0829
43.130917542983475 10.0196
43.15485849820081 10.0605
43.17880143167367 9.99768
43.20293342237094 10.0049
43.226880332449 10.0054
43.25082922540554 9.983939999999999
43.27496722682525 9.94075
43.29892010567796 9.94491
43.32287497204102 9.91971
43.34683182745632 9.8801
43.370977859791836 9.87306
43.39493871351105 9.86926
43.41890156092628 9.852039999999999
43.44286640358341 9.84865
43.46702049182749 9.82542
43.49098934522816 9.808869999999999
43.51496019852649 9.81065
43.5389330532723 9.80152
43.56309522248204 9.78771
43.58707210044314 9.7669
43.61105098451946 9.724160000000001
43.63503187626491 9.70236
43.659202151562134 9.72711
43.68318707902681 9.70963
43.70717401884041 9.63673
43.731162972560874 9.65461
43.75534137913236 9.60028
43.779334381108384 9.61001
43.803329401683186 9.5669
43.82732644241872 9.54846
43.8515130055166 9.54669
43.87551410707659 9.55512
43.89951723350145 9.52407
43.923709934595614 9.5087
43.94771713129917 9.52493
43.97172635758096 9.51135
43.99573761501002 9.476289999999999
44.0199385169922 9.47499
44.04395385732619 9.441930000000001
44.067971233533086 9.45615
44.09199064718605 9.4758
44.11619977548961 9.467030000000001
44.14022328470671 9.42794
44.16424883610785 9.42602
44.18827643127035 9.42366
44.21249381139513 9.35585
44.236525514814076 9.31552
44.26055926674478 9.37673
44.28459506876863 9.38676
44.3088207262813 9.30437
44.33286064928722 9.27867
44.35690262714919 9.26409
44.38094666145278 9.234810000000001
44.4051806219871 9.2627
44.42922879003185 9.24648
44.45327901929361 9.22165
44.477331311362136 9.18569
44.501573600619416 9.15115
44.525630039221795 9.16274
44.54968854541895 9.14949
44.573937102200176 9.13979
44.5979997645541 9.10818
44.622064499300315 9.08569
44.64613130803592 9.09924
44.67038823869318 9.09141
44.69445921643748 9.068769999999999
44.718532272981385 9.04814
44.742607409926194 9.044410000000001
44.76687274034801 9.08132
44.79095205918753 8.98943
44.81503346325094 8.98863
44.839116954143876 9.008339999999999
44.86339071028742 8.95573
44.88747839599524 8.92944
44.91156817336837 8.933539999999999
44.93566004401666 8.91716
44.959942251908146 8.91227
44.984038330325966 8.9075
45.00813650686762 8.87607
45.03223678314731 8.87674
45.05652746888232 8.87102
45.08063196592069 8.898430000000001
45.104738567558705 8.81869
45.128847275414856 8.78808
45.15314646515866 8.77073
45.17725940679741 8.74264
45.20137445952892 8.74965
45.22568004865265 8.748339999999999
45.24979934496396 8.75042
45.27392075725247 8.68361
45.29804428714431 8.668330000000001
45.322358426247604 8.67667
45.346486212804315 8.67867
45.370616121861914 8.65974
45.39474815505086 8.64965
45.41907087049246 8.57506
45.4432071734666 8.57545
45.46734560548283 8.58555
45.49148616817604 8.56953
45.51581748638564 8.59543
45.5399623320197 8.55452
45.56410931325473 8.50402
45.58825843173002 8.5127
45.61259837920865 8.515130000000001
45.636751793816 8.50901
45.66090735060093 8.43193
45.68506505120716 8.43784
45.7094136545275 8.43404
45.73357566449271 8.41168
45.75773982322992 8.41653
45.78190613238733 8.40197
45.806263418194064 8.376430000000001
45.83043404997326 8.38557
45.85460683713677 8.39591
45.87897065658495 8.34333
45.90314777634752 8.33694
45.92732705646868 8.33094
45.9515084986045 8.289710000000001
45.97588104735473 8.279860000000001
46.00006683541565 8.3011
46.02425479047904 8.3116
46.04844491420549 8.264330000000001
46.0728262191024 8.2631
46.09702070211635 8.26927
46.12121735879483 8.19387
46.14541619080294 8.21101
46.169806278764455 8.15628
46.194009483459034 8.16413
46.21821486849841 8.140839999999999
46.24242243555223 8.15185
46.266821333570014 8.10856
46.29103328674601 8.10781
46.31524742696538 8.09034
46.33946375590237 8.04989
46.36387149104216 8.074910000000001
46.38809221957392 8.04261
46.41231514186606 8.01882
46.436540259597464 8.0296
46.460956858999374 8.03308
46.48518638983522 8.04055
46.509418121166966 7.99706
46.533652054678114 7.9721
46.55807754555709 7.97509
46.58231590571962 7.9836
46.60655647313217 7.925330000000001
46.630988654873654 7.90217
46.655233659129024 7.877619999999999
46.67948087571551 7.90198
46.70373030632484 7.85655
46.72817142736393 7.85538
46.752425308428684 7.86406
46.77668140861147 7.84563
46.80093972960865 7.83051
46.82538981736788 7.83055
46.849652602470904 7.80655
46.87391761349769 7.77492
46.8981848521493 7.7805800000000005
46.9226439341274 7.76019
46.946915650573224 7.732989999999999
46.97118959976749 7.716539999999999
46.99546578341598 7.665039999999999
47.019933887188216 7.66525
47.04421456235744 7.7107399999999995
47.06849747711879 7.6429
47.09278263318286 7.631480000000001
47.11725978640143 7.633719999999999
47.14154944775105 7.59467
47.165841355555656 7.61837
47.1901355115306 7.57833
47.214621741924994 7.56015
47.23892041698887 7.573589999999999
47.26322134538975 7.56307
47.28771440635075 7.5240800000000005
47.31201986422527 7.523969999999999
47.33632758061436 7.49719
47.360637557241866 7.474069999999999
47.38513974410611 7.49003
47.40945426407847 7.445810000000001
47.43377104948137 7.434189999999999
47.45809010204344 7.4234100000000005
47.48260144275502 7.406210000000001
47.506925052572285 7.413589999999999
47.53125093475548 7.40083
47.55557909103813 7.39468
47.58009961361992 7.378710000000001
47.60443234110732 7.330189999999999
47.62876734791564 7.347060000000001
47.65310463578333 7.33033
47.6776343683373 7.336310000000001
47.7019762413987 7.31474
47.72632040075572 7.282030000000001
47.75066684815169 7.27481
47.77520581885936 7.2820100000000005
47.799556865477655 7.21281
47.823910205386 7.24528
47.84826584033272 7.245660000000001
47.87281407745551 7.241510000000001
47.89717432569297 7.206060000000001
47.92153687423484 7.23153
47.94609208429692 7.1997800000000005
47.97045925671401 7.1921
47.99482873471275 7.13737
48.01920052005013 7.12741
48.04376504619224 7.15033
48.068141469543484 7.124789999999999
48.09252020552573 7.119089999999999
48.11690125590099 7.09068
48.1414751266064 7.07848
48.16586082917454 7.06268
48.19024885144316 7.042039999999999
48.2146391951793 7.040489999999999
48.239222439012764 7.003889999999999
48.26361744916137 7.025289999999999
48.28801478610016 7.014869999999999
48.31241445160131 7.01
48.337007097209366 6.99834
48.36141144338331 6.99344
48.38581812345755 6.946330000000001
48.41022713920929 6.955189999999999
48.434829215320704 6.9116
48.45924292604658 6.905130000000001
48.48365897780325 6.90026
48.50807737237308 6.8861300000000005
48.532688907799276 6.8864600000000005
48.55711201168574 6.8654399999999995
48.581537463754074 6.840039999999999
48.60615611725119 6.845860000000001
48.63058628942721 6.82677
48.65501881516546 6.8432
48.6794536962573 6.82845
48.70408185970339 6.7866
48.72852147531801 6.808
48.75296345168211 6.794289999999999
48.77740779059232 6.78384
48.80204549302823 6.739039999999999
48.82649458091802 6.76408
48.85094603676547 6.7223
48.87539986237231 6.71793
48.90004713292306 6.71962
48.92450572200832 6.68973
48.94896668628025 6.685569999999999
48.97343002754588 6.6721
48.99808689542115 6.62863
49.02255501470614 6.65159
49.04702551642794 6.636639999999999
49.0714984023988 6.634860000000001
49.096164896893235 6.622139999999999
49.120642575466796 6.60124
49.145122643748394 6.59255
49.16960510355558 6.57027
49.19428125404938 6.5843
49.2187685210852 6.571910000000001
49.243258185121555 6.579330000000001
49.26794160167084 6.52535
49.2924360839405 6.5090699999999995
49.31693296869764 6.50791
49.34143225776915 6.49253
49.36612538195438 6.4488199999999996
49.39062950396021 6.46397
49.41513603578346 6.43481
49.4396449792564 6.43041
49.46434784069503 6.42201
49.488861631846454 6.4025
49.513377840166804 6.39463
49.537896467493745 6.3828
49.56260909589029 6.35815
49.587132585683285 6.38215
49.611658500018365 6.37835
49.636186840738596 6.360180000000001
49.66090926588511 6.352040000000001
49.685442483902584 6.32806
49.70997813385706 6.3118300000000005
49.734516217597076 6.31396
49.75924846937352 6.271669999999999
49.7837914452858 6.29296
49.80833686055187 6.27229
49.83288471702571 6.26973
49.85762682540054 6.24937
49.882179588965734 6.236759999999999
49.9067347993235 6.22586
49.93129245833333 6.2318
49.95604445336378 6.2157599999999995
49.98060703442832 6.18668
50.005172069746266 6.21122
50.02993150438364 6.177219999999999
50.05450147301533 6.15435
50.07907390151433 6.13981
50.10364879174981 6.1554
50.12841816587289 6.1437
50.1529980044635 6.14743
50.17758031042124 6.14058
50.20216508562089 6.10326
50.22694442953363 6.08469
50.25153416817468 6.06653
50.27612638170508 6.02957
50.300721072005196 6.04959
50.325510416102105 6.02254
50.350110084975064 6.01726
50.37471223628208 6.02754
50.39931687190919 6.00304
50.424116246675766 5.990559999999999
50.44872587605249 6.03006
50.47333799543065 6.01092
50.49795260670191 5.97693
50.52276204271512 5.986190000000001
50.54738166295838 5.96325
50.57200378079314 5.9591400000000005
50.596628398116835 5.935309999999999
50.62144792604559 5.91857
50.646077567609396 5.90503
50.670709714377715 5.91568
50.69553683636198 5.884580000000001
50.72017401885922 5.85994
50.7448137122895 5.85302
50.76945591856022 5.84569
50.79429318636823 5.84463
50.818940443716784 5.83781
50.84359021965163 5.79518
50.868242516085964 5.793069999999999
50.893089960641895 5.79169
50.917747323549435 5.74084
50.94240721271973 5.748880000000001
50.96706963007175 5.7547
50.99192728239342 5.73994
51.01659478166073 5.74241
51.04126481489051 5.7184
51.06593738400761 5.72079
51.090805275207074 5.71906
51.11548294172845 5.69594
51.14016314993547 5.70573
51.164845901758845 5.694
51.18972406304274 5.68135
51.21441192780656 5.63046
51.23910234200271 5.63416
51.2637953075678 5.6023
51.288683770237945 5.62247
51.31338186432707 5.59748
51.33808251561888 5.59612
51.362978729967345 5.60581
51.387684521509755 5.611190000000001
51.41239287610203 5.57008
51.437103795691165 5.532019999999999
51.46201036644977 5.55537
51.486726441956634 5.5182199999999995
51.51144508832545 5.550269999999999
51.536166307509156 5.5206
51.56108326624387 5.50906
51.58580965706056 5.4882599999999995
51.61053862657523 5.47363
51.635270176746864 5.48106
51.66019755512065 5.46157
51.68493429268881 5.46554
51.70967361681515 5.44147
51.73441552946465 5.40399
51.759353359237934 5.43642
51.7841004750961 5.4362900000000005
51.80885018539685 5.39689
51.833602492111254 5.38322
51.8585508051424 5.37903
51.883308330926425 5.37677
51.90806845906181 5.3503300000000005
51.932831191525715 5.3478900000000005
51.95779001977161 5.328869999999999
51.98255798721516 5.3373
52.00732856494335 5.29019
52.03229530577543 5.29601
52.057071130455945 5.27261
52.081849571391054 5.26826
52.106630630568695 5.28841
52.13160794279417 5.26171
52.15639426492067 5.2554099999999995
52.18118321127822 5.24639
52.205974783860896 5.23412
52.23096269971011 5.22671
52.255759551287994 5.22959
52.280559035098186 5.209980000000001
52.30536115314103 5.16843
52.33035970494467 5.19041
52.35516711807904 5.173019999999999
52.37997717147198 5.159330000000001
52.40478986713005 5.16931
52.42979908731974 5.12764
52.454617094216 5.12775
52.47943774942214 5.10032
52.50426105495102 5.1464300000000005
52.529280976059844 5.08983
52.554109609024096 5.0929199999999994
52.57894089837482 5.087619999999999
52.60377484613117 5.06427
52.62880550079408 5.0319
52.65364479223379 5.04063
52.67848674816189 5.03951
52.70352547971946 5.00265
52.72837279155837 4.99898
52.753222773982785 4.99262
52.778075429022984 5.00076
52.80312495150885 5.02902
52.827982978797436 4.99524
52.85284368481815 4.9827900000000005
52.87770707160767 4.95941
52.90276741793998 4.9553199999999995
52.92763619336701 4.94872
52.952507655698504 4.94874
52.977381806977576 4.903169999999999
53.00245301017842 4.9341099999999996
53.02733256653592 4.91481
53.052214817996074 4.90457
53.077099766608484 4.86359
53.102181859804446 4.8425
53.127072229988265 4.87946
53.15196530349892 4.882969999999999
53.17686108239249 4.85454
53.20195409881522 4.81979
53.22685531582556 4.83579
53.25175924441303 4.7946800000000005
53.27666588664027 4.7988
53.30176985962693 4.81248
53.3266819565689 4.74669
53.35159677336455 4.7682400000000005
53.376514312083096 4.73016
53.40162927507703 4.75175
53.42655228516116 4.76772
53.45147802340193 4.74538
53.47660125628886 4.706919999999999
53.50153247842639 4.70533
53.52646643496923 4.69447
53.55140312799818 4.684019999999999
53.576537409691696 4.68556
53.60147960336152 4.67747
53.626424539786164 4.69106
53.65137222105307 4.687119999999999
53.67651758529126 4.66306
53.70147078399681 4.656619999999999
53.72642673383343 4.60568
53.75138543689533 4.62119
53.776541917524526 4.60398
53.801506154876755 4.61658
53.826473151763246 4.62144
53.851442910284916 4.62453
53.87661054126026 4.57875
53.9015858509782 4.5359300000000005
53.92656392866066 4.55936
53.95154477641532 4.54411
53.976723591801296 4.50066
54.00171000771266 4.47248
54.02669920004598 4.4970099999999995
54.051691170915745 4.4798800000000005
54.076881204886796 4.477
54.101878760928514 4.474880000000001
54.12687910187696 4.4360599999999994
54.152077577768296 4.43003
54.1770835166946 4.40642
54.20209224691339 4.40494
54.22710377055121 4.3811599999999995
54.25231352511594 4.3703
54.27733066384342 4.3623199999999995
54.30235060239643 4.3509
54.32737334290836 4.31879
54.35259441062629 4.26818
54.377622783395324 4.325740000000001
54.40265396455061 4.29552
54.42768795623251 4.27574
54.45292037169559 4.25975
54.477960012857906 4.25486
54.50300247099511 4.24812
54.52804774825457 4.26176
54.55329154616743 4.19145
54.57834249018678 4.17815
54.6033962597977 4.12645
54.6284528571545 4.13915
54.653708072335164 4.1344
54.67877035378786 4.12292
54.70383546947698 4.11382
54.72890342156389 4.1076
54.7541700889442 4.03544
54.77924374251975 4.03546
54.8043202390049 4.10668
54.82959552413022 4.000719999999999
54.8546777351945 3.9791800000000004
54.87976279569621 3.9716199999999997
54.90485070780914 4.0064400000000004
54.930137506558005 4.00737
54.95523115074295 4.00496
54.98032765308844 3.94981
55.005427015775496 3.9805800000000002
55.03072536339621 3.93495
55.05583047570572 3.94213
55.080938454927676 3.9421
55.10604930325027 3.89765
55.131359235107396 3.87822
55.15647585066083 3.81492
55.181595341907496 3.80747
55.20671771104285 3.78126
55.232039262617704 3.77661
55.25716741665048 3.71509
55.28229845518636 3.7557400000000003
55.30743238042802 3.67244
55.33276558731939 3.6857599999999997
55.357905315183636 3.72315
55.383047936390035 3.64632
55.40819345314859 3.6212800000000005
55.433538351073295 3.61805
55.458689688238415 3.61885
55.483843927614096 3.5678699999999997
55.509197623043605 3.5889300000000004
55.53435769621134 3.5815699999999997
55.55952067826466 3.51399
55.5846865714265 3.53862
55.61005202069737 3.54296
55.63522376553902 3.55873
55.66039842818645 3.53013
55.68557601087004 3.5096300000000005
55.7109532500271 3.4594199999999997
55.73613670233794 3.5146599999999997
