TT I
1.2716486653135266 7.40722
1.2939594142134223 6.89083
1.3162702121660406 6.15536
1.3385810600174564 6.00253
1.3608919586137629 6.60513
1.383202908801069 6.713539999999999
1.405513911425503 6.64348
1.4278249673332093 6.13539
1.4501343378461518 6.15791
1.4724455028545926 5.8172
1.4947567236847858 5.98802
1.517068001182951 6.20752
1.5393793361953272 5.54282
1.5616907295681737 5.5097
1.5840021821477681 6.04715
1.60631369478041 5.38128
1.6286252683124185 5.20257
1.6509369035901333 4.94192
1.6732468618895553 5.0704
1.695558623192809 4.81136
1.7178704487808514 4.59955
1.7401823395001077 4.94968
1.7625012545597203 5.12809
1.7848028405262486 4.60238
1.8071218901122095 4.68762
1.8294236121921872 4.48649
1.8517427996910911 5.19819
1.8740620574440425 4.932180000000001
1.8963639900671978 4.77263
1.9186833908139995 4.86388
1.9409854680117449 5.07006
1.9633050151394713 4.64441
1.9856246367570705 4.97634
2.0079269371922672 4.38135
2.03024671027244 5.25676
2.0525491637446027 4.73307
2.074869091674931 4.94505
2.097171701569106 4.94114
2.1194917877373847 5.28103
2.141811954326636 5.5149
2.164114805233074 4.811719999999999
2.186435135143035 5.64701
2.208738150935709 12.0698
2.231058647554722 22.7961
2.2533792288321184 17.4306
2.275682498336085 8.663969999999999
2.298003251406138 6.20432
2.3203066942619714 5.50066
2.3426276225136022 5.54434
2.3649486396617507 5.65871
2.387252348930071 5.91205
2.4095735463442893 5.52963
2.4318774374315884 6.012490000000001
2.4541988185014043 6.15754
2.476502894794693 7.3472
2.498824462909887 7.7046600000000005
2.521146125856138 7.10389
2.5434504863470337 7.6036600000000005
2.5657723414244717 8.297410000000001
2.588076895590662 8.13367
2.610398946189713 8.26918
2.6327210958598384 7.39354
2.6550259469304716 8.48738
2.6773482972090137 7.889069999999999
2.6996533504259 7.87471
2.7219759047039602 7.65185
2.744298562293959 8.583960000000001
2.7666039251246595 8.549389999999999
2.7889267918020164 7.7342
2.8112323652516555 8.23437
2.833555444408179 8.942910000000001
2.8558786311183852 8.13321
2.8781845268938557 8.92464
2.9005079311721484 9.03792
2.9228140460410397 9.00532
2.9451376712799635 9.081710000000001
2.967444008632326 9.16613
2.9897678582247247 9.88557
3.0120918213106695 10.6744
3.0343984987899373 10.7659
3.0567226913198637 11.7153
3.079029599759726 11.7588
3.101354025127254 12.5074
3.123678568232338 12.9464
3.145985829517914 13.5255
3.16831061055229 13.6673
3.1906181112775593 13.812999999999999
3.212943133635653 14.853
3.2352682779763207 15.0993
3.2575761442691227 15.4751
3.2799015350264273 15.7658
3.302209649240067 16.3564
3.3245352898092655 16.4909
3.3468436553365257 17.1633
3.369169549113219 17.6345
3.3914955708171384 18.4281
3.413804319727358 18.6707
3.4361305997334863 18.7368
3.4584396084414553 19.7875
3.4807661501462652 20.5002
3.503092824025881 21.0685
3.5254022288463154 20.94
3.5477291695206588 21.3307
3.5700388426251948 22.1497
3.5923660534916446 23.1267
3.6146934007816114 35.2295
3.637003482731501 73.7184
3.6593311053109985 81.5692
3.681641464033634 48.7738
3.7039693653009733 28.9779
3.726297407241705 26.0412
3.7486081875460804 25.7122
3.7709365132734978 26.2954
3.793247578841633 26.6519
3.8155761917550093 26.6123
3.8378875459837216 27.348000000000003
3.8602164494827234 27.608
3.882545499606844 28.2642
3.9048572932539183 28.7245
3.9271866390645718 29.2122
3.9494987298666713 29.8952
3.971828374764527 30.4111
3.9941581705403255 31.0002
4.016470713506008 31.5682
4.038800813471445 31.8577
4.061113662089144 32.4409
4.0834440696459176 33.2605
4.105774632334751 33.7678
4.128087945865126 34.5526
4.150418821249301 35.1867
4.172732448931298 36.3269
4.195063640413578 38.0385
4.2173775856475215 41.0466
4.239709096631102 65.8947
4.262040768704612 190.71599999999998
4.284355196706267 249.924
4.306687193387355 163.091
4.329001947444346 70.5297
4.35133427213731 45.9015
4.373666762177566 44.1672
4.395982011761091 44.0657
4.418314834921175 45.1819
4.44063041906622 51.5067
4.4629635787515625 59.833
4.4852969080429785 59.9218
4.5076130004776225 53.0004
4.529946671403969 50.2175
4.552263106909177 50.5672
4.574597122877047 51.7899
4.596931312711224 52.81399999999999
4.619248269273446 53.7073
4.6415828092605835 54.2977
4.663900117405352 55.5858
4.686235010953232 57.5438
4.708552674085913 58.2376
4.730887924602802 59.3887
4.753223354952695 60.8824
4.775541557023902 62.9881
4.797877349456786 64.3474
4.820195915032126 66.6128
4.842532072957498 67.3989
4.864868414979744 69.5006
4.88718753227192 71.7858
4.909524244902505 73.8422
4.931843734218147 75.6903
4.954180820867835 77.6172
4.976518095879839 80.9821
4.998838149695359 84.0761
5.021175803844231 87.3061
5.043496238205739 90.5681
5.065834274903528 95.2014
5.088172504230693 99.7719
5.1104935158799565 106.28
5.132832132875765 126.586
5.155153533596801 162.895
5.1774925416746225 199.22400000000002
5.199814334878411 383.56199999999995
5.2221537374521505 1074.38
5.244493338631803 2980.53
5.266815727034316 7798.47
5.289155727832427 12453.2
5.311478517248165 8645.94
5.333818921080011 2714.47
5.356159527788849 515.687
5.3784829252032536 181.271
5.400823940070432 143.08100000000002
5.423147747031976 127.634
5.445489173474152 118.3
5.467830807066149 113.331
5.490155234831516 109.689
5.512497285125229 106.09700000000001
5.534822130975162 104.09
5.557164601388673 101.82799999999999
5.579489868738879 99.4012
5.601832762690846 98.5379
5.6241758697774475 97.2732
5.646501775867269 96.4543
5.668845311622074 94.9019
5.691171647754637 94.0328
5.713515615597765 92.906
5.735859800852677 92.2679
5.758186788542988 91.1744
5.780531411018185 91.9808
5.802858837297399 91.9044
5.825203900414495 91.7912
5.8475491852224 91.8103
5.869877275883075 92.4851
5.892223006467101 93.3308
5.914551544266608 95.4072
5.936897724049891 98.5009
5.959244129804903 104.836
5.981573344815301 126.395
6.0039202049061 225.388
6.026249875609095 486.466
6.04859719346037 998.957
6.070927323278297 2257.49
6.093275102315365 4528.96
6.115623113320588 5273.48
6.137953938319995 3226.53
6.160302415650845 950.8910000000001
6.182633708324452 221.395
6.2049826554078376 110.54700000000001
6.227331838745022 91.3684
6.249663839443684 84.566
6.27201349767565 81.6945
6.294345974611799 86.4356
6.316696111167083 94.1222
6.339046488263839 89.4362
6.361379686074702 77.3194
6.383730546639482 71.1676
6.406064229255215 68.7015
6.428415576718203 68.5586
6.450749747566656 67.1699
6.47310158535871 65.9915
6.495453669698332 65.3657
6.517788579421056 64.4361
6.540141159237969 63.428000000000004
6.562476565766648 62.9728
6.5848296444934045 62.4486
6.607182974060425 62.0169
6.6295191323281015 62.1967
6.651872965955752 64.5791
6.6742096296068985 84.5385
6.6965639707294615 118.30799999999999
6.71891856698715 119.516
6.741255995248479 86.225
6.763611104154477 65.5736
6.785949046381137 59.9142
6.808304671371482 58.3321
6.8306605557940046 58.03
6.852999275508618 57.3633
6.875355681171544 56.9364
6.897694923437771 56.5957
6.92005185377892 56.0849
6.9423916220322655 56.4848
6.964749080490181 55.7313
6.987106804399774 55.7037
7.009447368180821 55.6148
7.031805625367033 55.2357
7.054146723727803 55.3331
7.076505517631004 55.302
7.098864581288365 55.2918
7.121206488070854 54.4452
7.143566093607822 54.8435
7.165908543567245 55.1899
7.188268694426048 55.1505
7.2106291193438095 54.9724
7.232972390625943 56.1185
7.255333366030969 66.0392
7.277677189091925 106.948
7.300038718428332 141.452
7.322400526130865 120.87100000000001
7.344745183422596 80.5081
7.367107550224791 59.6622
7.389452767901992 55.6579
7.411815697249891 55.0508
7.434161478756298 54.28
7.456524974096713 53.9437
7.478888753837185 54.0715
7.501235387657368 54.501999999999995
7.523599738562711 54.7389
7.545946944825532 54.9322
7.568311870344528 55.2792
7.5906770845765665 55.1819
7.613025156078678 56.2506
7.635390950099687 57.2156
7.657739602662809 56.5313
7.680105979923558 55.6725
7.702472650212829 55.8939
7.724822180948224 55.9615
7.747189439655568 56.0663
7.769539560075357 56.0712
7.791907410653562 56.5772
7.81425812420825 56.732
7.836626570110925 56.888999999999996
7.858995315087906 57.5908
7.881346924933401 57.8181
7.903716270417482 58.4711
7.926068482028405 58.4542
7.948438431475253 59.0023
7.9708086843180235 59.7115
7.993161805171116 60.4886
8.015532667162402 60.9723
8.037886398416653 61.8063
8.060257873014221 62.2436
8.082629655331942 62.8596
8.104984308787587 63.6848
8.127356708900503 66.6245
8.149711981398308 70.8371
8.172085002766314 72.8928
8.194458336181368 70.5507
8.216814543847752 69.1949
8.23918850371002 69.9006
8.26154533906492 70.3996
8.283919928836452 71.8067
8.306277395339652 73.1228
8.328652618483376 74.0976
8.351028159736202 76.3908
8.373386579575245 78.196
8.395762759396959 80.4325
8.418121819038275 85.0326
8.440498640894003 95.85700000000001
8.462875785192262 109.42299999999999
8.485235811156207 125.979
8.507613602688501 175.46
8.529974277114228 268.284
8.552352719347912 406.916
8.574731488360351 673.283
8.59709314210385 1228.9
8.619472567021075 1929.99
8.64183487789147 2200.21
8.664214962183097 1769.43
8.686577933647762 922.065
8.708958680784317 354.995
8.731339760774953 154.77100000000002
8.753703729764451 108.905
8.77608547780821 98.25200000000001
8.798450116065078 94.9357
8.820832535634787 92.3607
8.843215292401656 90.9816
8.865580941199045 89.5945
8.887964374703538 88.3125
8.910330701447199 88.9529
8.932714815164482 90.6786
8.955099270424924 89.7253
8.977466620733543 86.9332
8.999851761421976 84.8881
9.022219798361645 83.4304
9.04460562795561 83.5223
9.066991803441677 83.0801
9.089360876979615 83.0622
9.111747746589993 82.5843
9.13411751544971 81.9453
9.156505082664324 81.7285
9.178875550323522 81.9787
9.20126381862328 81.9906
9.223652438908596 82.4774
9.246023961427412 82.4539
9.26841328802173 81.8717
9.290785518039224 81.9826
9.313175554425882 82.4328
9.335565947154315 82.3448
9.357939245086508 83.1806
9.380330352834827 83.4715
9.40270436697103 83.4389
9.425096193225055 83.2373
9.447488380180165 84.072
9.469863475295412 84.1012
9.492256385987508 84.1145
9.514632206018318 85.1457
9.537025843935714 85.5606
9.559402392368193 86.439
9.581796761000229 87.6495
9.604191496441521 88.7028
9.626569144158516 91.0132
9.648964615551032 94.9397
9.671343000390081 96.0775
9.693739211225699 94.8598
9.716135793237463 92.8936
9.738515290448102 92.9433
9.760912617143402 93.9058
9.783292860202891 95.3773
9.805690935076182 96.4864
9.828089385495742 97.3224
9.850470754023561 99.8572
9.872869957865444 106.54899999999999
9.89525208097539 118.625
9.917652041736662 129.084
9.940052382417589 132.369
9.962435644102392 146.283
9.984836746950979 187.454
10.007220771957746 254.544
10.029622640473708 362.129
10.052007432299963 540.1030000000001
10.074410069984072 840.441
10.096813093716005 1293.28
10.119199042482517 1785.28
10.141602840636468 2015.59
10.163989564971628 1566.33
10.186394141051062 861.0989999999999
10.208799107559706 377.397
10.231187001965623 178.265
10.253592751657669 123.301
10.275981430388155 112.508
10.298387966769793 111.302
10.320794897965431 112.936
10.343184759907361 111.81299999999999
10.36559248305461 107.18799999999999
10.387983138083852 104.53
10.410391656691655 109.005
10.432800574501677 121.416
10.455192425893369 139.513
10.47760214443012 164.706
10.499994797678786 210.158
10.522405320453982 289.625
10.54479877906917 409.284
10.567210109595656 512.623
10.5896218454736 566.378
10.612016518879773 496.416
10.634429067781074 337.22900000000004
10.656824555333241 188.3
10.679237920773568 118.29799999999999
10.701651695961992 94.4821
10.724048411481384 88.9308
10.746463008485165 86.28399999999999
10.768860546937125 84.4666
10.791275969274796 82.6645
10.81369180576079 82.1326
10.836090585366925 81.0504
10.858507252467449 79.6107
10.88090686379991 78.5085
10.903324365036394 77.8678
10.925724811614439 77.5625
10.948143150509463 78.4914
10.970561909719066 78.0878
10.992963615930844 76.4442
11.015383218085756 74.7902
11.037785768347074 72.8541
11.06020621697282 72.2969
11.082627090322113 72.0866
11.105030913430326 71.6984
11.12745263854165 71.7473
11.149857314510728 74.28699999999999
11.172279894912576 78.5791
11.194702904450653 78.7911
11.217108866490921 75.7068
11.239532736615194 72.3903
11.26193956033512 70.556
11.284364294577085 69.5101
11.306789462371718 67.8165
11.329197585398376 66.7856
11.351623622610898 66.7893
11.37403261614354 65.8871
11.396459526308487 65.88
11.418869393879497 65.499
11.441297180532617 65.3534
11.463725406927658 64.9013
11.486136592353875 64.5431
11.508565700543707 65.1709
11.530977768845315 66.55199999999999
11.553407762368774 67.0876
11.575838200059769 66.3219
11.598251599479612 64.6381
11.620682927815501 63.793
11.64309721895548 63.3268
11.665529441478206 62.845
11.687962112597958 62.7358
11.710377748130886 62.8566
11.732811318753434 62.611999999999995
11.755227854859067 62.715
11.777662328529495 62.7295
11.800079768750786 62.4666
11.822515149015453 62.3337
11.844950984084935 62.3894
11.867369787303163 62.18
11.889806534289491 62.3349
11.912226250487029 62.7278
11.934663912939751 62.5603
11.9571020346363 62.7387
11.979523127133968 62.9028
12.001962169624331 63.9319
12.024384183972964 65.2488
12.046824150809913 68.7927
12.069264581333726 73.9428
12.091687985297767 79.825
12.11412934550045 88.6649
12.136553680195208 103.902
12.158995973632788 125.899
12.181438735204349 154.115
12.20386447284199 183.484
12.226308172985636 204.891
12.24873485024193 198.696
12.271179492516982 159.519
12.293607112949127 120.86200000000001
12.316052700916226 89.5231
12.338498763250042 75.017
12.360927805303868 68.7793
12.383374818673879 65.7365
12.405804812803074 64.2096
12.428252780773262 63.8867
12.45070122756722 64.0647
12.473132656675375 64.0709
12.49558206341869 64.1472
12.518014453510101 64.045
12.540464823770117 64.2659
12.562915677315177 64.4473
12.58534951575545 65.2728
12.607801338171472 66.693
12.630236146511358 70.9199
12.652688941369085 74.5589
12.675124723177234 74.7742
12.697578494048786 72.1919
12.720032754458185 68.9552
12.742470003354093 67.6653
12.764925245138771 67.6619
12.787363476431278 67.9714
12.809819703166806 67.9536
12.83227642391173 69.0469
12.854716135692716 69.7132
12.877173846755147 70.8188
12.899614549869717 70.8666
12.9220732548287 71.7079
12.94453245827299 71.9216
12.966974655289818 73.1935
12.989434858002571 74.0481
13.011878055298721 74.6663
13.034339260862497 75.8555
13.056800969391883 77.2888
13.079245674017244 79.3945
13.101708390774869 82.2571
13.12415410463411 90.0377
13.146617833206086 102.141
13.169064559883248 114.164
13.191529303857127 128.606
13.213994557076367 151.905
13.236442809902437 189.68099999999998
13.258909083908291 246.785
13.28135835851934 314.765
13.30382565690295 379.56199999999995
13.326293469022952 432.514
13.348744283242008 419.41
13.371213125129904 348.471
13.39366497011003 249.96900000000002
13.416134845360597 165.16
13.438605238843131 120.00299999999999
13.46105863690397 105.258
13.483530069144786 107.051
13.505984506951902 112.984
13.528456981549432 122.292
13.550929978879088 137.634
13.573385983253365 161.72899999999998
13.595860028340867 201.822
13.618317081455832 253.975
13.64079217790333 311.753
13.663250283359057 358.153
13.685726434770173 373.74300000000005
13.708203115221277 329.139
13.730662806148091 250.175
13.75314054697177 171.095
13.775601299246777 120.76100000000001
13.798080104050406 94.088
13.820559442405358 84.1614
13.843021793671388 81.3199
13.865502201420897 79.7592
13.887965623051947 79.3316
13.910447103807167 78.0876
13.932929122629764 76.7893
13.955394156785959 76.5366
13.977877254034569 75.5129
14.000343367582113 74.7575
14.022827546871707 74.2531
14.045294743423524 73.6213
14.06778000837062 72.8805
14.090265817715476 72.7383
14.112734645763819 72.403
14.13522154619454 72.0901
14.157691466286913 72.1377
14.180179461423874 71.8372
14.202668005486178 71.102
14.22513957064374 70.4745
14.247629214846473 70.3924
14.270101881097517 69.9621
14.29259262906496 70.1591
14.315083930490205 70.6018
14.337558255389705 70.8114
14.360050666019726 70.5795
14.382526101071944 69.7033
14.405019624534942 69.2348
14.427513705993134 68.8711
14.449990813291825 68.9336
14.47248601302899 68.6099
14.49496423954951 68.8003
14.517460561197822 69.0265
14.539939910570322 68.459
14.562437357763558 69.0613
14.58493536931253 69.9792
14.607416409993311 70.5893
14.62991555254159 71.2127
14.652397725157423 70.9846
14.674898002342799 70.587
14.697398848433282 70.2468
14.719882725991326 71.3023
14.74238471217934 72.694
14.764869730765593 76.1713
14.787372860692983 79.7344
14.809876564079925 84.2138
14.83236330125751 89.9526
14.854868153850365 98.70100000000001
14.877356041159485 112.46600000000001
14.899862046604186 131.736
14.922351087688757 157.917
14.944858249632887 188.042
14.967365991421232 211.87900000000002
14.989856770231246 226.99599999999998
15.012365673994204 216.025
15.03485761569738 183.09099999999998
15.05736768508665 141.507
15.07987833888692 108.09299999999999
15.102372032001655 86.6019
15.124883856909658 75.5608
15.14737872204565 71.7389
15.169891721717274 70.0229
15.192405310371893 69.9623
15.214901940621196 70.3925
15.237416709527137 70.2426
15.259914520936249 70.3044
15.282430473753607 69.3712
15.304947020131227 68.4669
15.327446610371178 67.7848
15.349964346154254 67.079
15.372465126703139 66.7275
15.394984055556009 66.3268
15.417486030076159 66.2596
15.44000615566487 66.0348
15.462526881230803 65.9057
15.485030653812652 65.9349
15.507552581617434 66.0264
15.530057557334603 66.0107
15.55258069104857 66.179
15.575104429329837 66.1463
15.597611216864632 65.9002
15.620136166564563 66.1915
15.6426441664095 67.4205
15.665170331202765 69.9896
15.687697105158826 73.1991
15.710206930593545 76.2486
15.732734925158933 80.4291
15.755245972089478 86.7801
15.77777519094324 96.0957
15.800287463046663 109.414
15.822817909869592 129.091
15.84534897229804 150.072
15.867863089299354 175.13099999999997
15.890395385222186 190.58
15.912910736597423 194.63400000000001
15.935444269699861 178.601
15.957978423016485 152.428
15.980495633101265 117.27
16.003031029129367 92.4103
16.02554948280019 74.5568
16.048086125229432 66.6277
16.070623392487107 64.2108
16.09314371869582 63.4851
16.11568223789321 62.8694
16.13820381691126 61.8701
16.160743591742527 61.136
16.183283996022084 60.102
16.205807461423195 59.3925
16.228349126881973 58.8553
16.25087385432698 58.7003
16.27341678466365 57.9866
16.29594277784926 57.9767
16.31848697676433 58.3399
16.341031811604868 58.3012
16.36355971058487 58.4229
16.3861058195587 58.2749
16.40863499352978 57.2014
16.431182380342005 56.5524
16.453730407713202 55.9947
16.476261501364792 55.6181
16.498810812136167 55.4618
16.52134319004079 55.6623
16.54389378792203 55.3117
16.566445031001553 54.9953
16.588979342490088 55.0262
16.61153187824822 54.8332
16.634067483263312 54.7716
16.656621315414416 54.7265
16.679175797408888 54.4634
16.701713349928728 54.266999999999996
16.72426913389191 54.7331
16.74680798922351 54.7063
16.76936507887444 54.5379
16.791905240734874 54.6116
16.814463639794468 54.4092
16.837022695210294 54.7964
16.859564824093756 55.1753
16.882125194503903 55.5923
16.904668639217885 56.1726
16.927230328348003 56.326
16.949792678493612 56.5203
16.972338104193863 55.7364
16.994901778652235 55.4379
17.017448529496576 55.5291
17.040013531998152 56.0108
17.06257920018044 56.4038
17.0851279459922 57.0649
17.107694947817667 57.8854
17.130245028099072 58.7769
17.15281336730298 60.082
17.17536478578733 61.8682
17.19793446610687 64.1884
17.220504818648422 67.0769
17.243058251703697 70.312
17.265629950971032 74.917
17.288184731571736 79.1723
17.310757781306908 83.2765
17.33333150794385 83.89
17.355888317140174 81.8813
17.37846339986244 75.5842
17.401021565958885 69.7995
17.42359800851343 64.6695
17.44617513265564 61.4225
17.468735341390783 59.78
17.491261035594565 59.1434
17.51396340099364 58.9112
17.536490463869136 59.0343
17.559018209820174 59.1064
17.58154663977963 59.291000000000004
17.604251766089718 59.242
17.626781572227713 59.6389
17.64931206518155 59.4598
17.671843245885103 60.0159
17.69455114821572 60.4294
17.717083712612634 60.7486
17.739616967569667 60.8117
17.762150914021706 61.1306
17.78486160749854 61.2695
17.807396945166804 62.0335
17.829932977143503 62.7292
17.85246970436452 64.6866
17.875183204129467 66.7815
17.897721330097664 68.8888
17.920260154126645 71.0823
17.942799677153296 74.3002
17.9655159983646 78.1734
17.988056927677544 83.6119
18.010598558807683 91.3731
18.033140892692916 101.704
18.05586005052525 112.633
18.07840379824407 124.11
18.10094825154059 134.814
18.12366954819864 142.694
18.146215420998306 140.618
18.16876200220057 130.525
18.191309292745153 115.435
18.214033452627167 100.9
18.236582170236648 90.2829
18.259131600016456 85.6297
18.281681742907335 86.6163
18.304408781233683 91.014
18.32696035875955 96.536
18.349512652227624 100.97399999999999
18.372065662579683 104.97
18.394795594587553 105.73299999999999
18.41735004715306 101.785
18.43990521943684 94.2135
18.46246111238171 84.9358
18.485193953325208 75.4496
18.507751296070428 68.8712
18.530309362314178 64.9791
18.552868153000343 63.0987
18.57560391815056 61.7934
18.59816416623245 61.4302
18.620725141597372 61.0034
18.643286845190268 60.635
18.666025549835414 60.1956
18.688588718427933 59.5089
18.711152618092243 59.3366
18.73389353884365 59.0425
18.75645890921984 58.8623
18.77902501351406 58.6034
18.801591852673102 58.4299
18.824335739722738 57.7749
18.846904057212626 57.8633
18.8694731124168 57.6825
18.89204290628315 57.6233
18.914789774966803 57.3374
18.937361054791623 57.1167
18.959933076131318 56.9569
18.982505839934877 57.0015
19.00525570560582 57.0404
19.027829963004184 56.7504
19.05040496572238 56.8382
19.072980714710468 56.9533
19.095733592739563 57.2026
19.11831084296757 57.3461
19.140888842324735 57.8799
19.16346759176222 57.9914
19.18622349753803 58.4008
19.208803755869358 59.395
19.231384767143577 60.6051
19.253966532312948 62.3396
19.276725481241822 64.4634
19.29930876296784 67.1622
19.3218928014549 70.4052
19.34465404436217 73.3671
19.36723960516257 75.7718
19.389825925592426 76.6675
19.412413006605938 75.4412
19.43517731967805 71.5247
19.457765930683355 66.8768
19.48035530514408 62.5358
19.50294544401556 58.7113
19.525712842708348 56.3327
19.54830451925909 54.9041
19.570896963095727 53.9973
19.593490175174704 53.7871
19.616260674962184 53.9077
19.638855432416964 53.5048
19.661450960992624 53.6625
19.68404726164677 53.3029
19.706820878021247 53.1505
19.729418731756834 53.4782
19.752017360452857 53.1869
19.77461676506804 53.5646
19.797393513540218 53.4361
19.819994478951667 53.8894
19.84259622316767 54.4412
19.8651987471481 54.7753
19.887978643247177 55.0583
19.91058273574792 55.5356
19.933187610901943 56.3809
19.955969879466828 57.6365
19.97857632894404 59.0987
20.00118356396599 60.8388
20.023791585494575 62.8796
20.046577028914875 65.6884
20.069186632506966 67.7739
20.091797025500632 69.3253
20.114408208858933 70.0046
20.137196842715273 69.3359
20.159809615886765 67.7104
20.18242318232135 65.0974
20.20503754298326 62.9142
20.227829382875154 62.0631
20.250445341109344 62.0865
20.27306209647285 62.8063
20.29567964993108 64.1661
20.31847471147704 64.8517
20.34109387027612 65.5188
20.363713830075454 64.9958
20.386334591841646 63.2834
20.409132890679302 60.6085
20.431755265564437 57.3543
20.454378445325528 54.8431
20.477002430930366 52.8486
20.499803982716553 51.9188
20.522429589228004 51.2633
20.54505600449589 50.7317
20.567683229489194 50.6379
20.590488049900088 50.4289
20.61311690359731 50.1483
20.63574656993626 49.8293
20.658553853717297 49.5923
20.681185154618298 49.5568
20.703817271080066 49.5717
20.72645020407368 49.1087
20.749260783967177 49.0176
20.771895359337133 48.9185
20.794530754161617 48.8178
20.817166969412938 48.8581
20.83998086114876 48.7011
20.86261872660049 48.6679
20.885257415405402 48.6572
20.90789692853701 48.6224
20.930714147864748 48.5041
20.953355319030678 48.574
20.97599731745334 48.7021
20.99864014410749 48.5966
21.021460706796564 48.4231
21.044105199328826 48.6726
21.06675052302631 49.0264
21.089396678865015 49.1333
21.112220600704806 49.3587
21.134868430275347 49.8303
21.15751709492456 50.1498
21.180166595629693 50.3673
21.202993892429635 50.751000000000005
21.22564507473034 51.1267
21.24829709602816 51.4498
21.27112693608965 51.2365
21.293780644891275 51.3485
21.316435195634053 50.3188
21.339090589297417 49.7522
21.361923832041875 49.4189
21.384580921090404 48.7787
21.407238856007325 48.2839
21.429897637773326 48.1716
21.45273429906592 48.2122
21.475394784108598 48.2929
21.498056118951983 48.2872
21.520718304578022 48.3851
21.543558400304388 48.5787
21.566222297108816 48.7916
21.58888704765135 48.8689
21.61155265291521 49.1954
21.63439619898156 49.8663
21.657063523335786 49.8498
21.67973170537063 50.3825
21.7024007460706 50.82899999999999
21.72524775840385 51.7493
21.747918526116475 52.7574
21.770590155457388 54.1874
21.79326264741238 55.5264
21.816113141960237 57.5211
21.838787368860547 59.4595
21.861462461341976 61.4771
21.884315579735777 63.1029
21.90699241312273 64.251
21.92967011506078 64.8267
21.95234868653799 64.4192
21.9752053151131 63.1141
21.997885635446785 60.8518
22.020566828293532 58.9291
22.04324889464272 57.3228
22.066109049404666 56.2769
22.088792872571794 55.8491
22.111477572219204 55.986000000000004
22.1341631493376 56.1958
22.157026846313123 55.8746
22.179714188221507 54.784
22.202402410582668 54.013999999999996
22.22509151438863 52.5812
22.24795876962584 51.1345
22.270649646204486 50.2194
22.293341407213727 49.7017
22.316034053646906 49.2035
22.338904883215342 48.9612
22.36159931041458 48.9295
22.38429462602756 48.9034
22.40699083104897 48.6146
22.429865251039757 48.6876
22.452563244831367 48.7262
22.47526213102522 48.662
22.49813925616515 48.6069
22.520839937143307 48.614
22.543541513520587 48.5157
22.56624398629403 48.4008
22.589124730075895 48.455
22.611829005656723 48.6718
22.63453418063466 48.6897
22.657240256008077 48.8671
22.680124634582935 48.8834
22.70283252079775 49.3325
22.725541310413075 49.6709
22.74825100442868 49.7806
22.771139033969575 50.2426
22.79385054687155 50.3845
22.81656296718292 51.1962
22.83927629590484 52.1141
22.862167992606945 53.1918
22.88488314827121 54.2946
22.907599215359284 55.2084
22.93031619487366 56.326
22.953211574954405 57.1536
22.975930389478226 57.9979
22.998650119445763 58.1917
23.02137076586092 57.0875
23.044269845560063 55.7899
23.06699233506288 54.2797
23.089715744034912 52.321999999999996
23.112617610931565 50.7708
23.135342869061212 49.5327
23.158069049684816 49.0304
23.1807961538087 48.7533
23.20370174880544 48.6476
23.226430710184808 48.7046
23.249160598093425 48.8328
23.271891413539002 48.7905
23.294800752937697 48.6686
23.31753343374794 48.8627
23.340267045128353 49.0984
23.36300158808808 49.4029
23.38591468821339 49.7076
23.408651104658304 50.239
23.431388455719986 50.7852
23.454126742409 51.7501
23.4770436196085 52.8554
23.499783787914662 54.1189
23.522524894889884 55.0954
23.54526694154616 55.9452
23.56818761219047 57.2255
23.59093154860734 57.7145
23.613676427751283 58.0046
23.636422250635754 56.7636
23.659346731118656 55.0454
23.68209445191868 53.0758
23.704843119509587 51.076
23.72759273490623 49.157
23.750521041644767 47.8357
23.77327256312355 46.9706
23.796025035462787 46.5164
23.818956224555475 45.9355
23.841710609113413 45.8698
23.86446594758979 45.5737
23.887222241002014 45.5118
23.910157285144578 45.031000000000006
23.932915498962537 45.1722
23.955674670778713 45.0569
23.978434801611975 44.7329
24.001373717286125 44.7221
24.024135776723917 44.5307
24.046898798245582 44.463
24.06966278287146 44.4567
24.092605586582614 44.1989
24.115371508023642 44.0727
24.1381383956401 43.8738
24.16090625045381 43.9152
24.183852958731244 43.7745
24.206622758582608 43.7297
24.229393528706886 43.5909
24.252165270127392 43.6232
24.27511589952438 43.5707
24.297889594216997 43.288999999999994
24.32066426328598 43.2091
24.34343990775613 43.1144
24.36639447485003 43.1072
24.38917208083877 43.0416
24.41195066531332 42.9316
24.43490819850244 42.9605
24.457688750692377 42.8264
24.48047028445616 42.9713
24.503252800821233 43.0508
24.526214300784112 42.9006
24.548998793132213 43.0506
24.57178427117417 42.7084
24.59457073593893 42.8907
24.617536219319863 42.8808
24.64032466834748 42.8148
24.663114107195035 42.825
24.685904536893013 42.4092
24.708874020360852 42.3323
24.731666442613744 42.2283
24.754459858818787 42.382
24.777254270007962 42.1963
24.80022777025625 42.1635
24.82302418230472 42.0822
24.845821592443674 42.1582
24.86862000170663 42.1804
24.891597535453727 42.0474
24.914397953892728 42.2858
24.93719937456671 42.2905
24.96000179851076 42.1519
24.98298338249997 42.4679
25.00578782394922 42.7528
25.028593271784167 42.8139
25.05157790644186 43.2125
25.07438537804115 43.3675
25.097193859145293 43.7018
25.120003350792075 43.8103
25.142992065061257 44.1637
25.165803588823465 44.36
25.18861612625217 44.4742
25.211429678386736 44.8034
25.234422489079968 44.7774
25.257238081693636 44.7325
25.280054692141732 44.7356
25.3028723214652 44.6857
25.325869245420463 44.842
25.348688923599397 44.7835
25.371509623787006 44.8076
25.394331347025812 44.4265
25.41733240110666 44.0186
25.440156181590016 43.2941
25.46298098826268 42.7757
25.48580682216873 42.1929
25.50881202326435 41.7026
25.53163992281684 41.3274
25.55446885274561 41.1693
25.577298814096377 40.7435
25.600308179121807 40.7463
25.623140214533745 40.7754
25.64597328451537 40.6748
25.66898578564376 40.556999999999995
25.691820936010206 40.5248
25.714657124097695 40.4854
25.737494350954734 40.5108
25.760511045684957 40.3393
25.783350361364224 40.4075
25.806190718969255 40.4475
25.82903211955018 40.5011
25.852053024868923 40.4672
25.874896522722523 40.5597
25.897741066713106 40.5215
25.920586657892454 40.6575
25.943611790812668 40.8002
25.966459487728237 40.9439
25.989308234998564 40.9455
26.01215803367705 41.3634
26.03518741123814 41.5625
26.05803932412957 41.5219
26.080892291600094 41.6066
26.10374631470478 41.6403
26.12677995397268 41.6104
26.14963609978026 41.6345
26.172493304397875 41.2651
26.19535156888223 41.0974
26.218389486949604 40.7129
26.241249882640123 40.4684
26.26411134137826 40.1983
26.28715248187403 40.1263
26.31001607820869 40.0862
26.3328807407756 39.8342
26.35574647063438 40.0476
26.37879191991473 40.0522
26.401659795896734 40.1834
26.424528742360263 40.1444
26.447398760366614 40.3393
26.470448535598294 40.5574
26.49332070826805 40.7547
26.516193955675355 41.1524
26.53906827888316 41.2933
26.562122397260108 41.3793
26.584998883685063 41.7404
26.607876449110325 41.9336
26.63075509460056 41.9397
26.65381357334404 42.2951
26.67669439061878 42.137
26.699576291163382 41.9815
26.722459276044212 41.8373
26.745522132402975 41.6401
26.768407297649354 41.3853
26.791293550442003 41.0185
26.814180891848974 40.6806
26.837248143099337 40.3567
26.860137673466657 40.3302
26.88302829566349 40.0658
26.90592001075963 39.8485
26.92899167420566 39.6773
26.951885586870763 39.407
26.974780595655517 39.0853
26.99785558178161 39.101
27.020752794605112 38.8775
27.043651106772522 38.9619
27.06655051935668 38.8694
27.089629948036183 38.7737
27.112531573292053 38.6251
27.135434302194138 38.7938
27.158338135817015 38.5395
27.181422024430987 38.588
27.204328079372566 38.5201
27.22723524226965 38.5449
27.250143514198573 38.4934
27.273231880156334 38.5355
27.296142382065014 38.3441
27.319053996245536 38.2617
27.341966723775965 38.2593
27.365059584515222 38.4216
27.38797455070062 38.4938
27.410890633481237 38.3367
27.433807833936918 38.3977
27.456905206923906 38.4985
27.47982465472398 38.5522
27.502745223449743 38.542
27.525666914182825 38.6357
27.548768816912457 38.5754
27.571692763693633 38.4462
27.59461783573812 38.2851
27.617723149491244 38.1143
27.640650484125285 38.0249
27.66357894728264 38.0204
27.686508540048052 37.993
27.709618414237887 37.8557
27.732550278321757 37.9107
27.755483275279115 37.9069
27.778417406196485 37.881
27.801531858397514 37.7593
27.824468269376716 37.7152
27.847405817586786 37.7845
27.870344504116094 38.0589
27.893463551932008 38.1117
27.916404527281053 38.2193
27.93934664422563 38.2628
27.962289903855886 38.3456
27.98541356491974 38.7022
28.00835912214229 38.7845
28.03130582533231 38.9864
28.054253675581805 39.2593
28.077381967556104 38.9823
28.100332124185126 39.0485
28.123283431160893 39.0367
28.146235889577238 38.7806
28.169368830154156 38.4169
28.192323603752033 38.3892
28.215279532083304 38.0908
28.238415973016764 37.8974
28.261374223145094 37.7822
28.284333631303806 37.4493
28.307294198589954 37.3696
28.330435319167677 36.9771
28.353398217078915 36.7927
28.376362277420153 36.5751
28.39932750129032 36.4394
28.422473319286713 36.3746
28.44544088262495 36.3152
28.468409612800283 36.2347
28.491379510913497 35.9979
28.51453004413313 35.7805
28.53750229057244 35.8258
28.56047570826344 35.7699
28.583450298308804 35.86
28.606605564586562 35.5432
28.629582511831156 35.7325
28.65256063474956 35.5918
28.675539934446338 35.6871
28.698699951647605 35.578
28.72168161743193 35.5061
28.74466446331978 35.4592
28.767648490417624 35.4747
28.790813276438353 35.3542
28.813799678527303 35.4705
28.836787265157085 35.4692
28.859955641890075 35.5557
28.882945610203045 35.4287
28.905936766392035 35.1312
28.928929111566863 35.2173
28.952102288520145 35.247
28.975097024308607 35.1804
28.998092952423807 35.0364
29.021090073977508 34.8662
29.04426806913204 34.7324
29.067267590245258 34.656
29.090268308143695 34.5711
29.11327022394099 34.5288
29.13645305530891 34.3973
29.159457379627167 34.3462
29.18246290519685 34.3333
29.20546963313352 34.2077
29.22865731875826 34.2688
29.25166646419296 34.2917
29.27467681535305 34.2183
29.29768837335608 34.2852
29.320880931312562 34.146
29.34389491580634 34.2078
29.366910110507334 34.1217
29.38992651653503 34.2074
29.41312396492981 34.2341
29.436142806456754 34.1194
29.45916286268059 33.9793
29.48236399319994 33.8672
29.50538649169417 33.8882
29.528410208259935 33.6929
29.55143514402014 33.4585
29.574641196749695 33.4645
29.597668583816574 33.2447
29.6206971934585 33.1733
29.64372702680042 33.1583
29.666938019934474 33.0466
29.689970313635285 32.9885
29.713003834422636 32.9085
29.73603858342347 32.8342
29.759254535188578 32.8948
29.78229175361658 32.8508
29.80533020365064 32.8586
29.82836988641968 32.7859
29.85159081507472 32.7396
29.874632976355343 32.6515
29.89767637376955 32.7553
29.920721008448314 32.4977
29.9439469322847 32.5831
29.96699405457564 32.4489
29.9900424175358 32.4756
30.013092022298157 32.4864
30.03632295963995 32.4191
30.059375061131373 32.5307
30.08242840783577 32.3702
30.105483000888153 32.3449
30.128718970092244 32.3525
30.151776069006917 32.3788
30.17483441768648 32.4335
30.198074175317235 32.402
30.221135036724256 32.3533
30.24419715131772 32.4034
30.267260520236203 32.2983
30.290505341942243 32.2949
30.313571232750228 32.2604
30.336638381310948 32.2256
30.35970678876503 32.2421
30.38295669299435 32.1054
30.40602763151657 32.1254
30.429099832366074 32.1572
30.452173296685572 32.0168
30.47542830191959 32.0456
30.498504306502497 31.912
30.521581577995562 32.0885
30.544660117543582 32.1238
30.56792024229725 32.1553
30.59100133132069 32.0887
30.614083691845494 32.0255
30.637167325018545 32.1896
30.660432587840603 32.199
30.683518779717886 32.1941
30.70660624769615 32.2352
30.729694992924372 32.1408
30.75296541239743 32.1399
30.77605672557558 32.1117
30.799149319462742 32.0345
30.8224236211637 31.9237
30.845518789950724 31.7382
30.868615242910597 31.7887
30.891712981195973 31.6661
30.91499247215866 31.6026
30.938092794619365 31.4979
30.96119440587579 31.3514
30.984297307082752 31.3495
31.00758200598383 31.2482
31.030687500658694 31.2175
31.053794288760695 31.1607
31.076902371446767 31.0493
31.100192296997445 31.1468
31.12330298246119 31.054000000000002
31.14641496599209 30.9947
31.169528248749216 30.9577
31.19282341969534 30.9703
31.215939314557186 30.9245
31.239056512134788 30.9586
31.262175013589378 30.9025
31.28547544871168 30.8351
31.30859657161541 30.7439
31.331719001892175 30.7075
31.35484274070538 30.8788
31.378148458819545 30.8585
31.401274828443725 30.8452
31.424402510106933 30.836
31.447712205419993 31.0105
31.470842524931633 30.7698
31.493974159989783 30.8605
31.51710711176168 30.713
31.54042212308802 30.7056
31.563557722100917 30.7668
31.586694641341655 30.6113
31.609832881979628 30.4995
31.63315322823208 30.3607
31.656294125521327 30.345
31.679436347728515 30.3308
31.70257989602529 30.176
31.725905596152327 30.0586
31.74905181052835 30.0274
31.772199354521323 30.1043
31.79534822930507 30.1841
31.818679302290967 30.1294
31.84183085259981 30.1436
31.864983737233473 30.131
31.88813795736804 30.1665
31.911474422233013 30.024
31.934631327356435 30.1145
31.9577895715215 29.9841
31.980949155906522 30.0057
32.004291031706956 30.0679
32.027453310562606 29.9649
32.05061693318573 29.7399
32.07396288236386 29.8675
32.09712920658542 29.7556
32.12029687812702 29.635
32.14346589817093 29.4551
32.166817291729984 29.4844
32.18998902288583 29.3259
32.21316210610336 29.3166
32.23633654256711 29.1434
32.259693399663725 29.2001
32.282870556771144 29.1331
32.30604907069099 29.1784
32.329228942610065 29.1668
32.35259128243769 28.9513
32.375773884550505 28.9382
32.398957848235646 28.9115
32.422143174682176 28.8571
32.445511016471215 28.7367
32.468699082679954 28.6821
32.49188851523011 28.721999999999998
32.51507931531304 28.658
32.538452678331 28.5888
32.56164622776311 28.5218
32.58484114831493 28.4787
32.60803744118015 28.534000000000002
32.631416344731896 28.5027
32.654615396551876 28.3563
32.67781582427913 28.3725
32.701198898634416 28.2785
32.72440209253756 28.2498
32.747606665947124 28.2097
32.77081262006088 28.1488
32.79420126883317 28.1545
32.81740999876112 28.1369
32.840620112999424 27.9883
32.86383161274818 27.9343
32.88722585534586 27.9499
32.91044014056596 28.0802
32.933655814909734 28.053
32.95687287957963 27.9992
32.98027273544904 27.9097
33.00349259526636 27.885
33.026713849030116 27.9472
33.04993649794511 27.8127
33.073341986570746 27.8114
33.09656744032826 27.7639
33.11979429286444 27.8733
33.14302254538647 27.8205
33.166433686291185 27.7144
33.18966475336992 27.6884
33.212897224069096 27.569000000000003
33.23613109959831 27.6252
33.259547912343415 27.5961
33.2827846121627 27.5367
33.306022720453775 27.4404
33.32926223842861 27.413
33.352684742614166 27.4604
33.37592709463173 27.3957
33.399170859982064 27.2229
33.422597648419426 27.1654
33.44584425514446 27.0459
33.46909227885668 27.0347
33.4923417207723 26.8894
33.51577423505344 26.9894
33.539026528130385 26.8988
33.56228024307245 26.8658
33.585535381098246 26.7109
33.60897364093058 26.7507
33.63223163992385 26.6721
33.6554910656699 26.5561
33.678751919389796 26.6223
33.702195944520106 26.5139
33.72545966903325 26.575
33.74872482519663 26.5318
33.771991414233746 26.5125
33.79544122444841 26.4663
33.81871069412428 26.4449
33.84198160035767 26.2933
33.86525394437455 26.3484
33.88870955949969 26.3076
33.911984794020626 26.2203
33.93526147001624 26.2407
33.958539588715006 26.1788
33.98200102861669 26.0604
34.0052820477047 26.0395
34.02856451319451 26.0285
34.05203033759056 25.9981
34.07531571090147 26.0095
34.09860253431845 25.895
34.121890809074316 25.8498
34.145362493118924 25.7635
34.16865368561615 25.7696
34.191946333164054 25.8188
34.21524043699793 25.7523
34.23871800066799 25.7206
34.26201503218366 25.665
34.28531352370466 25.5792
34.30861347646881 25.5481
34.33209693978188 25.5441
34.3553998301885 25.5089
34.378704185565205 25.4799
34.402010007152356 25.2935
34.42549939016683 25.4188
34.44880815937748 25.3179
34.472118398533134 25.2136
34.49543010887669 25.2412
34.51892543169198 25.1221
34.54224009966052 25.1335
34.56555624255917 25.0838
34.58887386163339 25.0626
34.61237514439016 24.9965
34.6356957311114 24.9324
34.65901779775809 24.9512
34.68252356662995 24.8589
34.705848608458616 24.8024
34.72917513396849 24.7576
34.75250314440949 24.8337
34.77601490857862 24.7227
34.799345904259795 24.7275
34.82267838863559 24.6859
34.846012362958525 24.638
34.869530142679984 24.6057
34.89286711232212 24.5769
34.91620557568269 24.5373
34.93954553401677 24.5511
34.9630693495876 24.4149
34.986412313340814 24.4811
35.00975677584668 24.5275
35.033102738362956 24.4457
35.05663261012228 24.3652
35.0799815881786 24.3741
35.10333207003229 24.2407
35.12668405694369 24.2427
35.150220005273056 24.2744
35.17357501786656 24.2015
35.19693153931268 24.1839
35.220289570874385 24.1494
35.24383161619786 24.1772
35.267192683604904 24.1208
35.290555264930376 24.0524
35.314101899412165 23.9769
35.33746752422433 23.9973
35.36083466676374 23.8956
35.38420332829803 24.0045
35.407756095629054 24.0662
35.43112781085063 24.0504
35.45450104888391 23.9966
35.477875810999194 23.9398
35.50143473172161 23.9021
35.52481255774625 23.855999999999998
35.54819191167777 23.7844
35.57157279478914 23.8271
35.595137889488406 23.7239
35.61852184675279 23.6947
35.641907337029984 23.6181
35.665294361595684 23.5748
35.68886565090076 23.4521
35.7122557598848 23.4367
35.73564740699838 23.4636
35.759040593519934 23.4284
35.78261809810353 23.4378
35.80601437933051 23.3293
35.829412203814705 23.2486
35.85281157283719 23.2039
35.876395313415884 23.229
35.8997977874528 23.2046
35.92320180988546 23.1287
35.946790244133936 23.0908
35.97019737933222 23.1003
35.993606066789866 23.0146
36.01701630779276 22.9965
36.04061101440684 22.9944
36.06402437852291 23.0247
36.08743930005611 22.9845
36.1108557802951 22.8023
36.13445678011326 22.9295
36.15787639383515 22.8394
36.18129757014299 22.8533
36.20472031032821 22.7676
36.22832762423364 22.7045
36.25175350829375 22.6554
36.275180960119776 22.5848
36.298609981005924 22.5974
36.32222362992669 22.7045
36.34565580510207 22.6638
36.36908955323448 22.5567
36.39252487562093 22.4785
36.416144880530226 22.4441
36.43958336764275 22.4391
36.463023432914625 22.3792
36.486465077645676 22.3056
36.51009145956204 22.3614
36.53353627947859 22.3007
36.55698268276811 22.2972
36.58043067073321 22.2132
36.60406345072071 22.1259
36.62751462435344 22.1615
36.65096738658405 22.1536
36.67460498210655 22.0874
36.69806093788647 22.0858
36.72151848619297 22.0406
36.744977628333636 22.0575
36.76862165890998 21.9377
36.79208400512205 22.0087
36.81554794910557 21.9471
36.83901349217101 21.8419
36.862663978991606 21.7468
36.88613273667352 21.7866
36.90960309738324 21.7753
36.933075062434064 21.7431
36.95673202673572 21.6068
36.98020721697122 21.5987
37.003684015502365 21.6063
37.027162423645365 21.5151
37.050825886711465 21.5109
37.07430753063053 21.5054
37.09779078812467 21.5277
37.121275660513014 21.4692
37.144945643673694 21.479
37.16843376245278 21.4208
37.19192350009803 21.4391
37.215414857931435 21.3283
37.239091382563885 21.2525
37.262585997426164 21.1816
37.28608223645736 21.1683
37.309763684451696 21.2181
37.33326318851098 21.1507
37.356764320726555 21.1385
37.380267082425526 21.1659
37.40395510942588 21.0528
37.42746114683234 20.9566
37.45096881771841 20.96
37.474478123414166 20.9822
37.49817275092816 20.9219
37.52168534303452 20.8619
37.54519957395567 20.8835
37.568715445024665 20.8517
37.592416694607714 20.7369
37.61593586281424 20.7588
37.63945667518264 20.83
37.66297913304891 20.6959
37.68668702630454 20.6646
37.710212792059274 20.5899
37.733740207334854 20.5756
37.757269273470364 20.5355
37.780983832050374 20.5009
37.80451621684926 20.5304
37.82805025654007 20.4872
37.851585952464795 20.4311
37.8753071980695 20.3303
37.89884622345676 20.2742
37.92238690911902 20.3158
37.94611318753442 20.2248
37.969657210779765 20.255
37.99320289834801 20.2583
38.016750251586465 20.1768
38.04048325513017 20.1406
38.06403395679343 20.0989
38.087586328183946 20.0829
38.11114037065203 20.0741
38.13488012115898 20.1039
38.1584375229181 19.917
38.181996599821 20.0038
38.205557353221124 19.9636
38.229303872575656 19.9042
38.2528679961576 19.8397
38.27643380031219 19.7803
38.30000128639589 19.7099
38.32375459653193 19.8217
38.34732546371299 19.8268
38.37089801690786 19.7712
38.39447225747609 19.7152
38.418232380377425 19.7216
38.441810012983396 19.6884
38.46538933705673 19.6041
38.488970353960084 19.5651
38.51273731166058 19.557000000000002
38.536321731567014 19.4996
38.55990784840681 19.4793
38.58367995004091 19.4785
38.60726947812959 19.4281
38.63086070726198 19.3842
38.654453638806274 19.3477
38.678232613930824 19.2762
38.70182896773327 19.2388
38.72542702806741 19.1632
38.7490267963045 19.2786
38.77281266709232 19.1951
38.79641586862214 19.1893
38.8200207821842 19.1351
38.843627409152944 19.1091
38.86742019782782 19.0957
38.891030269149255 19.0457
38.914642058016156 19.0751
38.938255565806124 18.9814
38.96205529464307 18.9279
38.98567225787121 18.9539
39.00929094417078 18.8754
39.03291135492255 18.8509
39.05671804624804 18.8352
39.080341923549106 18.8603
39.103967529460334 18.7773
39.127594865365744 18.7579
39.15140854155791 18.6809
39.17503935514948 18.6515
39.19867190290282 18.6166
39.22249083587951 18.6554
39.24612686969409 18.6348
39.269764641845306 18.5973
39.293404153722804 18.5651
39.317230110864074 18.5485
39.34087311998506 18.4226
39.36451787301696 18.4372
39.388164371352595 18.3333
39.41199737518003 18.3972
39.43564738196752 18.3867
39.45929913825317 18.2493
39.48295264543308 18.3055
39.506792718520884 18.2391
39.530449745387216 18.2459
39.55410852735203 18.1941
39.57776906581474 18.2634
39.60161623079 18.1248
39.625280300200025 18.1247
39.64894613032202 18.0624
39.67261372255866 18.0573
39.6964680021016 17.9887
39.72013913657293 18.0071
39.74381203738292 17.9331
39.76748670593756 17.980999999999998
39.79134812278169 17.9998
39.81502634488497 17.9249
39.83870633896685 17.8477
39.862388106436654 17.822
39.88625668336918 17.834
39.90994201572829 17.7891
39.933629125719285 17.7859
39.957503091207826 17.7442
39.9811937746168 17.7534
40.00488623990914 17.6359
40.02858048850006 17.6439
40.05246165409549 17.607
40.076159487492085 17.549
40.099859108448875 17.5127
40.123560518384345 17.5786
40.1474489070226 17.4997
40.171153913178564 17.4213
40.194860712584955 17.4618
40.2185693066637 17.4094
40.242464941335314 17.3727
40.26617714307655 17.3227
40.289891143772046 17.2687
40.3136069448471 17.2827
40.33750984859743 17.2885
40.3612292688043 17.3179
40.3849504936829 17.2515
40.40867352466194 17.2224
40.43258372059144 17.191
40.45631038219906 17.1609
40.48003885420956 17.1281
40.503769138055105 17.1183
40.52768664931955 17.0776
40.55142057531802 17.1523
40.57515631746428 17.0378
40.599079334038514 17.0173
40.62281872700477 16.9274
40.64655994043941 16.8658
40.67030297578061 16.9391
40.69423334835778 16.9107
40.71798004609188 16.8352
40.74172857006355 16.805999999999997
40.76547892171441 16.8217
40.7894166736039 16.8021
40.813170699248566 16.7364
40.83692655691388 16.6978
40.86068424804498 16.7173
40.884629402612525 16.6833
40.908390779366385 16.6744
40.932153993938 16.506
40.95591904777605 16.5121
40.979871628443995 16.6069
41.003640379561936 16.5568
41.02741097430883 16.5255
41.05118341413683 16.457
41.075143444384416 16.4488
41.098919593177826 16.4087
41.1226975914255 16.4312
41.14647744058318 16.3546
41.170444943946755 16.3212
41.19422851378379 16.3662
41.218013938914645 16.3064
41.24198706625173 16.2362
41.26577622087193 16.2372
41.289567235177785 16.1821
41.31336011063129 16.1693
41.337340752422875 16.105
41.361137369129835 16.1094
41.38493585138705 16.090999999999998
41.40873620066004 16.0686
41.43272438060107 16.0353
41.45652848292052 16.0304
41.48033445666918 15.9962
41.50414230331616 15.92
41.528138045159764 15.9474
41.551949656675205 15.9132
41.575763145513235 15.8764
41.59957851314666 15.8787
41.62358184070442 15.7851
41.64740098505737 15.8263
41.6712220126409 15.7786
41.69504492493139 15.7573
41.71905586207357 15.6793
41.74288256296395 15.6597
41.766711153007456 15.6842
41.79054163368412 15.6743
41.814560204340054 15.6865
41.838394485526365 15.6081
41.86223066180303 15.5332
41.88625497706819 15.5605
41.910094962812 15.5079
41.93393684811168 15.4884
41.95778063445365 15.4261
41.981812625263366 15.4604
42.00566023303407 15.4127
42.029509746323676 15.3868
42.05336116662236 15.3803
42.077400857069705 15.3591
42.10125611078846 15.3721
42.12511327600405 15.2973
42.14897235421036 15.2874
42.173019768448455 15.2414
42.19688269209613 15.1677
42.22074753323349 15.1122
42.24461429335818 15.133
42.268669455600495 15.1282
42.292540073217886 15.1139
42.31641261433284 15.0698
42.34028708044675 15.0541
42.36435001496739 15.0261
42.38822835065557 15.037
42.41210861586426 14.9608
42.4359908120986 14.9885
42.46006154323262 14.9587
42.48394762115317 14.9073
42.507835634632315 14.8867
42.531912233047436 14.8519
42.55580413732265 14.7787
42.579697981698 14.8154
42.60359376768525 14.7985
42.62767820545945 14.7571
42.65157789440821 14.7237
42.67547952952185 14.7148
42.699383112316 14.7161
42.72347541395347 14.6258
42.74738291190531 14.5978
42.771292362102166 14.6262
42.795203766063516 14.5242
42.819303956130405 14.5278
42.843219287476536 14.4997
42.86713657716324 14.530999999999999
42.89105582671383 14.4876
42.91516392983864 14.4595
42.939087119032166 14.4446
42.963012272677304 14.4096
42.98693939230129 14.345999999999998
43.01105543317513 14.3291
43.034986504731386 14.311
43.05891954686589 14.3318
43.08285456110972 14.2823
43.10697856448665 14.2757
43.130917542983475 14.2799
43.15485849820081 14.2499
43.17880143167367 14.1638
43.20293342237094 14.1804
43.226880332449 14.1049
43.25082922540554 14.1346
43.27496722682525 14.1096
43.29892010567796 14.0097
43.32287497204102 14.0337
43.34683182745632 13.9854
43.370977859791836 13.9603
43.39493871351105 13.9469
43.41890156092628 13.9514
43.44286640358341 13.8995
43.46702049182749 13.8819
43.49098934522816 13.8454
43.51496019852649 13.8452
43.5389330532723 13.8333
43.56309522248204 13.7788
43.58707210044314 13.8121
43.61105098451946 13.7274
43.63503187626491 13.6895
43.659202151562134 13.6717
43.68318707902681 13.7064
43.70717401884041 13.6496
43.731162972560874 13.605
43.75534137913236 13.5729
43.779334381108384 13.5903
43.803329401683186 13.6014
43.82732644241872 13.5614
43.8515130055166 13.5217
43.87551410707659 13.4722
43.89951723350145 13.4499
43.923709934595614 13.4152
43.94771713129917 13.4098
43.97172635758096 13.432
43.99573761501002 13.4013
44.0199385169922 13.3819
44.04395385732619 13.3135
44.067971233533086 13.2854
44.09199064718605 13.2807
44.11619977548961 13.2366
44.14022328470671 13.2247
44.16424883610785 13.222000000000001
44.18827643127035 13.1698
44.21249381139513 13.1554
44.236525514814076 13.110999999999999
44.26055926674478 13.1364
44.28459506876863 13.1103
44.3088207262813 13.0637
44.33286064928722 13.0496
44.35690262714919 13.0168
44.38094666145278 12.9674
44.4051806219871 12.9808
44.42922879003185 12.9767
44.45327901929361 12.9092
44.477331311362136 12.8971
44.501573600619416 12.8982
44.525630039221795 12.8415
44.54968854541895 12.8226
44.573937102200176 12.7906
44.5979997645541 12.8227
44.622064499300315 12.7855
44.64613130803592 12.7108
44.67038823869318 12.6856
44.69445921643748 12.7395
44.718532272981385 12.6311
44.742607409926194 12.6682
44.76687274034801 12.6039
44.79095205918753 12.5524
44.81503346325094 12.5829
44.839116954143876 12.5918
44.86339071028742 12.5574
44.88747839599524 12.5325
44.91156817336837 12.5195
44.93566004401666 12.4921
44.959942251908146 12.4686
44.984038330325966 12.4519
45.00813650686762 12.3918
45.03223678314731 12.4096
45.05652746888232 12.353
45.08063196592069 12.367
45.104738567558705 12.3308
45.128847275414856 12.3369
45.15314646515866 12.3022
45.17725940679741 12.2759
45.20137445952892 12.2521
45.22568004865265 12.2154
45.24979934496396 12.1834
45.27392075725247 12.1423
45.29804428714431 12.1665
45.322358426247604 12.1282
45.346486212804315 12.1212
45.370616121861914 12.1692
45.39474815505086 12.0265
45.41907087049246 12.0004
45.4432071734666 12.0565
45.46734560548283 12.0524
45.49148616817604 12.0363
45.51581748638564 11.9912
45.5399623320197 11.9564
45.56410931325473 11.9433
45.58825843173002 11.9165
45.61259837920865 11.9105
45.636751793816 11.8644
45.66090735060093 11.8339
45.68506505120716 11.8077
45.7094136545275 11.809000000000001
45.73357566449271 11.7609
45.75773982322992 11.7625
45.78190613238733 11.7053
45.806263418194064 11.6521
45.83043404997326 11.6874
45.85460683713677 11.6649
45.87897065658495 11.7131
45.90314777634752 11.6396
45.92732705646868 11.5825
45.9515084986045 11.5816
45.97588104735473 11.5402
46.00006683541565 11.5597
46.02425479047904 11.4984
46.04844491420549 11.4715
46.0728262191024 11.4948
46.09702070211635 11.4902
46.12121735879483 11.4741
46.14541619080294 11.4146
46.169806278764455 11.4214
46.194009483459034 11.4294
46.21821486849841 11.3644
46.24242243555223 11.3359
46.266821333570014 11.3336
46.29103328674601 11.3121
46.31524742696538 11.2894
46.33946375590237 11.2691
46.36387149104216 11.2478
46.38809221957392 11.2691
46.41231514186606 11.1986
46.436540259597464 11.1473
46.460956858999374 11.1626
46.48518638983522 11.1303
46.509418121166966 11.1191
46.533652054678114 11.11
46.55807754555709 11.0881
46.58231590571962 11.0985
46.60655647313217 11.0449
46.630988654873654 11.0034
46.655233659129024 10.9851
46.67948087571551 10.9705
46.70373030632484 10.9558
46.72817142736393 10.9602
46.752425308428684 10.9171
46.77668140861147 10.9126
46.80093972960865 10.8837
46.82538981736788 10.8777
46.849652602470904 10.8289
46.87391761349769 10.8139
46.8981848521493 10.8143
46.9226439341274 10.7766
46.946915650573224 10.7646
46.97118959976749 10.6985
46.99546578341598 10.6834
47.019933887188216 10.6758
47.04421456235744 10.6717
47.06849747711879 10.6539
47.09278263318286 10.6202
47.11725978640143 10.5863
47.14154944775105 10.5832
47.165841355555656 10.5473
47.1901355115306 10.5237
47.214621741924994 10.5608
47.23892041698887 10.5295
47.26322134538975 10.485999999999999
47.28771440635075 10.469000000000001
47.31201986422527 10.459000000000001
47.33632758061436 10.4514
47.360637557241866 10.4061
47.38513974410611 10.3982
47.40945426407847 10.37
47.43377104948137 10.3775
47.45809010204344 10.3499
47.48260144275502 10.2743
47.506925052572285 10.3026
47.53125093475548 10.2511
47.55557909103813 10.2379
47.58009961361992 10.2615
47.60443234110732 10.2245
47.62876734791564 10.2128
47.65310463578333 10.2006
47.6776343683373 10.1618
47.7019762413987 10.1025
47.72632040075572 10.0929
47.75066684815169 10.1107
47.77520581885936 10.1022
47.799556865477655 10.0616
47.823910205386 10.0523
47.84826584033272 10.0338
47.87281407745551 9.99875
47.89717432569297 10.0341
47.92153687423484 10.0238
47.94609208429692 9.97061
47.97045925671401 9.962010000000001
47.99482873471275 9.92373
48.01920052005013 9.89095
48.04376504619224 9.9255
48.068141469543484 9.9199
48.09252020552573 9.870330000000001
48.11690125590099 9.849
48.1414751266064 9.79235
48.16586082917454 9.786719999999999
48.19024885144316 9.76998
48.2146391951793 9.73137
48.239222439012764 9.7748
48.26361744916137 9.7312
48.28801478610016 9.713289999999999
48.31241445160131 9.73926
48.337007097209366 9.70675
48.36141144338331 9.64482
48.38581812345755 9.65649
48.41022713920929 9.667910000000001
48.434829215320704 9.620519999999999
48.45924292604658 9.63449
48.48365897780325 9.623560000000001
48.50807737237308 9.57549
48.532688907799276 9.58682
48.55711201168574 9.53828
48.581537463754074 9.49901
48.60615611725119 9.51708
48.63058628942721 9.47781
48.65501881516546 9.45919
48.6794536962573 9.45669
48.70408185970339 9.42399
48.72852147531801 9.39837
48.75296345168211 9.41896
48.77740779059232 9.37527
48.80204549302823 9.36625
48.82649458091802 9.35582
48.85094603676547 9.316460000000001
48.87539986237231 9.304889999999999
48.90004713292306 9.3184
48.92450572200832 9.28843
48.94896668628025 9.24357
48.97343002754588 9.23828
48.99808689542115 9.22075
49.02255501470614 9.21031
49.04702551642794 9.169780000000001
49.0714984023988 9.13521
49.096164896893235 9.18551
49.120642575466796 9.166269999999999
49.145122643748394 9.15335
49.16960510355558 9.08806
49.19428125404938 9.04268
49.2187685210852 9.05749
49.243258185121555 9.05037
49.26794160167084 9.04519
49.2924360839405 8.980410000000001
49.31693296869764 8.95081
49.34143225776915 8.98113
49.36612538195438 8.94352
49.39062950396021 8.951839999999999
49.41513603578346 8.92752
49.4396449792564 8.86619
49.46434784069503 8.86007
49.488861631846454 8.87772
49.513377840166804 8.8423
49.537896467493745 8.83441
49.56260909589029 8.81113
49.587132585683285 8.79834
49.611658500018365 8.78222
49.636186840738596 8.7365
49.66090926588511 8.76848
49.685442483902584 8.74174
49.70997813385706 8.68641
49.734516217597076 8.7157
49.75924846937352 8.67572
49.7837914452858 8.68091
49.80833686055187 8.64504
49.83288471702571 8.611080000000001
49.85762682540054 8.65456
49.882179588965734 8.6184
49.9067347993235 8.563039999999999
49.93129245833333 8.58193
49.95604445336378 8.55607
49.98060703442832 8.553139999999999
50.005172069746266 8.50521
50.02993150438364 8.526110000000001
50.05450147301533 8.52171
50.07907390151433 8.472380000000001
50.10364879174981 8.469560000000001
50.12841816587289 8.46579
50.1529980044635 8.43448
50.17758031042124 8.414530000000001
50.20216508562089 8.40129
50.22694442953363 8.38433
50.25153416817468 8.35047
50.27612638170508 8.33765
50.300721072005196 8.298810000000001
50.325510416102105 8.29169
50.350110084975064 8.29677
50.37471223628208 8.27931
50.39931687190919 8.239180000000001
50.424116246675766 8.20537
50.44872587605249 8.21402
50.47333799543065 8.18047
50.49795260670191 8.18173
50.52276204271512 8.18833
50.54738166295838 8.15893
50.57200378079314 8.182310000000001
50.596628398116835 8.13799
50.62144792604559 8.1098
50.646077567609396 8.12919
50.670709714377715 8.11701
50.69553683636198 8.04497
50.72017401885922 8.068710000000001
50.7448137122895 8.05125
50.76945591856022 8.051910000000001
50.79429318636823 8.01914
50.818940443716784 8.00966
50.84359021965163 7.97916
50.868242516085964 7.97278
50.893089960641895 7.94953
50.917747323549435 7.919789999999999
50.94240721271973 7.93883
50.96706963007175 7.8855
50.99192728239342 7.86569
51.01659478166073 7.861389999999999
51.04126481489051 7.87218
51.06593738400761 7.8517399999999995
51.090805275207074 7.81871
51.11548294172845 7.77865
51.14016314993547 7.78845
51.164845901758845 7.79587
51.18972406304274 7.76226
51.21441192780656 7.73412
51.23910234200271 7.7522
51.2637953075678 7.696330000000001
51.288683770237945 7.6886399999999995
51.31338186432707 7.6778699999999995
51.33808251561888 7.646560000000001
51.362978729967345 7.628080000000001
51.387684521509755 7.63633
51.41239287610203 7.630330000000001
51.437103795691165 7.602580000000001
51.46201036644977 7.56561
51.486726441956634 7.551069999999999
51.51144508832545 7.5563
51.536166307509156 7.56579
51.56108326624387 7.523810000000001
51.58580965706056 7.5038100000000005
51.61053862657523 7.5096
51.635270176746864 7.46364
51.66019755512065 7.441739999999999
51.68493429268881 7.434830000000001
51.70967361681515 7.47013
51.73441552946465 7.43687
51.759353359237934 7.43469
51.7841004750961 7.41933
51.80885018539685 7.39849
51.833602492111254 7.34477
51.8585508051424 7.3264
51.883308330926425 7.30876
51.90806845906181 7.2835399999999995
51.932831191525715 7.3077
51.95779001977161 7.2500100000000005
51.98255798721516 7.25785
52.00732856494335 7.2608
52.03229530577543 7.2287300000000005
52.057071130455945 7.2061
52.081849571391054 7.1683699999999995
52.106630630568695 7.19712
52.13160794279417 7.16147
52.15639426492067 7.17457
52.18118321127822 7.1512
52.205974783860896 7.1752
52.23096269971011 7.14358
52.255759551287994 7.100160000000001
52.280559035098186 7.09645
52.30536115314103 7.071910000000001
52.33035970494467 7.06089
52.35516711807904 7.05202
52.37997717147198 7.00064
52.40478986713005 7.03605
52.42979908731974 7.005139999999999
52.454617094216 6.933739999999999
52.47943774942214 6.93525
52.50426105495102 6.93973
52.529280976059844 6.93271
52.554109609024096 6.88704
52.57894089837482 6.91305
52.60377484613117 6.88594
52.62880550079408 6.90344
52.65364479223379 6.87383
52.67848674816189 6.81033
52.70352547971946 6.82428
52.72837279155837 6.88875
52.753222773982785 6.8266
52.778075429022984 6.82385
52.80312495150885 6.8088
52.827982978797436 6.7669
52.85284368481815 6.77234
52.87770707160767 6.7136
52.90276741793998 6.71771
52.92763619336701 6.676130000000001
52.952507655698504 6.7052
52.977381806977576 6.72185
53.00245301017842 6.7279
53.02733256653592 6.69217
53.052214817996074 6.70258
53.077099766608484 6.62029
53.102181859804446 6.60415
53.127072229988265 6.61205
53.15196530349892 6.571460000000001
53.17686108239249 6.564710000000001
53.20195409881522 6.5301599999999995
53.22685531582556 6.58075
53.25175924441303 6.564710000000001
53.27666588664027 6.52992
53.30176985962693 6.504
53.3266819565689 6.51661
53.35159677336455 6.49282
53.376514312083096 6.48163
53.40162927507703 6.44378
53.42655228516116 6.4564900000000005
53.45147802340193 6.39259
53.47660125628886 6.39449
53.50153247842639 6.43302
53.52646643496923 6.41421
53.55140312799818 6.38532
53.576537409691696 6.38275
53.60147960336152 6.34356
53.626424539786164 6.30299
53.65137222105307 6.35389
53.67651758529126 6.36246
53.70147078399681 6.28716
53.72642673383343 6.24656
53.75138543689533 6.24234
53.776541917524526 6.26178
53.801506154876755 6.23107
53.826473151763246 6.20753
53.851442910284916 6.173109999999999
53.87661054126026 6.138380000000001
53.9015858509782 6.1403300000000005
53.92656392866066 6.149380000000001
53.95154477641532 6.14709
53.976723591801296 6.13928
54.00171000771266 6.12249
54.02669920004598 6.11244
54.051691170915745 6.06607
54.076881204886796 6.1042
54.101878760928514 6.07434
54.12687910187696 6.04344
54.152077577768296 6.01419
54.1770835166946 6.0319400000000005
54.20209224691339 5.95748
54.22710377055121 5.95216
54.25231352511594 5.97724
54.27733066384342 5.94341
54.30235060239643 5.95129
54.32737334290836 5.92643
54.35259441062629 5.9138
54.377622783395324 5.88905
54.40265396455061 5.88499
54.42768795623251 5.85923
54.45292037169559 5.836
54.477960012857906 5.84529
54.50300247099511 5.8548
54.52804774825457 5.800669999999999
54.55329154616743 5.7577
54.57834249018678 5.81738
54.6033962597977 5.718369999999999
54.6284528571545 5.71275
54.653708072335164 5.72588
54.67877035378786 5.65762
54.70383546947698 5.65717
54.72890342156389 5.62879
54.7541700889442 5.60961
54.77924374251975 5.57826
54.8043202390049 5.54996
54.82959552413022 5.53939
54.8546777351945 5.55914
54.87976279569621 5.52885
54.90485070780914 5.55169
54.930137506558005 5.45479
54.95523115074295 5.44385
54.98032765308844 5.47377
55.005427015775496 5.45472
55.03072536339621 5.41476
55.05583047570572 5.39445
55.080938454927676 5.340319999999999
55.10604930325027 5.31007
55.131359235107396 5.37533
55.15647585066083 5.27215
55.181595341907496 5.265280000000001
55.20671771104285 5.2531300000000005
55.232039262617704 5.2329
55.25716741665048 5.201919999999999
55.28229845518636 5.23555
55.30743238042802 5.14895
55.33276558731939 5.15775
55.357905315183636 5.16596
55.383047936390035 5.09704
55.40819345314859 5.08744
55.433538351073295 5.08079
55.458689688238415 5.04331
55.483843927614096 4.95514
55.509197623043605 4.9707099999999995
55.53435769621134 4.95591
55.55952067826466 4.91836
55.5846865714265 4.91761
55.61005202069737 4.88359
55.63522376553902 4.8901900000000005
55.66039842818645 4.85773
55.68557601087004 4.86011
55.7109532500271 4.77934
55.73613670233794 4.80017
