TT I
1.2716486653135266 7.2649300000000006
1.2939594142134223 6.8322
1.3162702121660406 6.883319999999999
1.3385810600174564 7.16493
1.3608919586137629 6.8200899999999995
1.383202908801069 6.51501
1.405513911425503 5.76193
1.4278249673332093 5.65285
1.4501343378461518 5.98888
1.4724455028545926 5.82995
1.4947567236847858 6.44252
1.517068001182951 6.268009999999999
1.5393793361953272 6.07889
1.5616907295681737 6.15506
1.5840021821477681 5.6860800000000005
1.60631369478041 5.21951
1.6286252683124185 5.0626
1.6509369035901333 5.44204
1.6732468618895553 4.55691
1.695558623192809 4.8580000000000005
1.7178704487808514 5.17207
1.7401823395001077 4.8583
1.7625012545597203 4.64184
1.7848028405262486 4.8368400000000005
1.8071218901122095 5.24905
1.8294236121921872 4.80888
1.8517427996910911 4.96756
1.8740620574440425 4.44334
1.8963639900671978 4.56214
1.9186833908139995 4.91752
1.9409854680117449 4.6028
1.9633050151394713 4.83873
1.9856246367570705 5.10893
2.0079269371922672 4.4934
2.03024671027244 4.1492
2.0525491637446027 4.514959999999999
2.074869091674931 4.51457
2.097171701569106 4.4611
2.1194917877373847 4.8897
2.141811954326636 4.94137
2.164114805233074 4.80538
2.186435135143035 5.82073
2.208738150935709 12.2569
2.231058647554722 23.881
2.2533792288321184 18.0793
2.275682498336085 8.69646
2.298003251406138 5.72526
2.3203066942619714 5.52853
2.3426276225136022 5.54469
2.3649486396617507 5.29279
2.387252348930071 6.10606
2.4095735463442893 5.72839
2.4318774374315884 5.66014
2.4541988185014043 5.88165
2.476502894794693 6.70655
2.498824462909887 6.304790000000001
2.521146125856138 6.12411
2.5434504863470337 6.52086
2.5657723414244717 7.4166300000000005
2.588076895590662 8.53762
2.610398946189713 8.1469
2.6327210958598384 7.2629600000000005
2.6550259469304716 7.961
2.6773482972090137 8.15496
2.6996533504259 7.771719999999999
2.7219759047039602 8.04148
2.744298562293959 7.636430000000001
2.7666039251246595 7.564489999999999
2.7889267918020164 8.17515
2.8112323652516555 8.49777
2.833555444408179 8.229230000000001
2.8558786311183852 7.51405
2.8781845268938557 8.50031
2.9005079311721484 9.01256
2.9228140460410397 9.20115
2.9451376712799635 9.3581
2.967444008632326 10.0835
2.9897678582247247 10.4386
3.0120918213106695 10.9856
3.0343984987899373 10.9759
3.0567226913198637 11.1824
3.079029599759726 11.3925
3.101354025127254 12.1036
3.123678568232338 12.8164
3.145985829517914 12.5774
3.16831061055229 13.6808
3.1906181112775593 14.1579
3.212943133635653 14.7658
3.2352682779763207 15.0639
3.2575761442691227 15.5111
3.2799015350264273 15.6672
3.302209649240067 15.9565
3.3245352898092655 16.7978
3.3468436553365257 17.4461
3.369169549113219 17.7188
3.3914955708171384 18.439
3.413804319727358 18.7883
3.4361305997334863 19.1819
3.4584396084414553 19.4074
3.4807661501462652 20.4864
3.503092824025881 20.9454
3.5254022288463154 21.1375
3.5477291695206588 22.0679
3.5700388426251948 22.252
3.5923660534916446 23.3034
3.6146934007816114 36.1556
3.637003482731501 77.1289
3.6593311053109985 83.8042
3.681641464033634 50.6108
3.7039693653009733 29.3203
3.726297407241705 26.2881
3.7486081875460804 25.7504
3.7709365132734978 25.9757
3.793247578841633 26.336
3.8155761917550093 26.5505
3.8378875459837216 27.1858
3.8602164494827234 27.5518
3.882545499606844 28.3811
3.9048572932539183 29.5844
3.9271866390645718 29.5765
3.9494987298666713 29.8791
3.971828374764527 30.6218
3.9941581705403255 30.6291
4.016470713506008 31.6035
4.038800813471445 32.0778
4.061113662089144 32.7719
4.0834440696459176 33.8189
4.105774632334751 34.2708
4.128087945865126 34.4912
4.150418821249301 35.501999999999995
4.172732448931298 36.7049
4.195063640413578 38.1914
4.2173775856475215 41.442
4.239709096631102 69.4158
4.262040768704612 199.609
4.284355196706267 262.908
4.306687193387355 172.45
4.329001947444346 73.185
4.35133427213731 46.8095
4.373666762177566 44.365
4.395982011761091 44.5634
4.418314834921175 45.4196
4.44063041906622 52.7292
4.4629635787515625 61.3578
4.4852969080429785 61.1237
4.5076130004776225 53.1208
4.529946671403969 50.5726
4.552263106909177 50.2997
4.574597122877047 51.381
4.596931312711224 52.8075
4.619248269273446 53.8699
4.6415828092605835 54.4782
4.663900117405352 55.6618
4.686235010953232 57.3877
4.708552674085913 58.5555
4.730887924602802 60.287
4.753223354952695 61.6539
4.775541557023902 62.8088
4.797877349456786 64.3953
4.820195915032126 65.9751
4.842532072957498 68.1855
4.864868414979744 70.0668
4.88718753227192 72.2432
4.909524244902505 74.6982
4.931843734218147 76.0534
4.954180820867835 78.4946
4.976518095879839 81.9053
4.998838149695359 85.0249
5.021175803844231 88.4477
5.043496238205739 91.8505
5.065834274903528 96.6806
5.088172504230693 101.855
5.1104935158799565 108.928
5.132832132875765 129.20600000000002
5.155153533596801 171.765
5.1774925416746225 211.396
5.199814334878411 409.384
5.2221537374521505 1182.42
5.244493338631803 3119.96
5.266815727034316 7832.01
5.289155727832427 12259.8
5.311478517248165 8678.21
5.333818921080011 3018.38
5.356159527788849 625.239
5.3784829252032536 195.982
5.400823940070432 146.909
5.423147747031976 130.502
5.445489173474152 120.163
5.467830807066149 114.369
5.490155234831516 110.53
5.512497285125229 107.179
5.534822130975162 105.759
5.557164601388673 103.071
5.579489868738879 100.176
5.601832762690846 99.4501
5.6241758697774475 98.76700000000001
5.646501775867269 97.719
5.668845311622074 96.0768
5.691171647754637 95.8245
5.713515615597765 94.1956
5.735859800852677 93.1106
5.758186788542988 92.5803
5.780531411018185 92.7167
5.802858837297399 91.9549
5.825203900414495 92.0076
5.8475491852224 92.9993
5.869877275883075 93.6006
5.892223006467101 95.1965
5.914551544266608 96.4478
5.936897724049891 99.4501
5.959244129804903 106.3
5.981573344815301 130.219
6.0039202049061 240.02
6.026249875609095 518.599
6.04859719346037 1077.44
6.070927323278297 2308.37
6.093275102315365 4375.31
6.115623113320588 5506.37
6.137953938319995 3434.77
6.160302415650845 1095.04
6.182633708324452 257.282
6.2049826554078376 116.941
6.227331838745022 94.2489
6.249663839443684 86.3691
6.27201349767565 83.4005
6.294345974611799 87.6595
6.316696111167083 96.5695
6.339046488263839 91.5233
6.361379686074702 78.7527
6.383730546639482 72.079
6.406064229255215 69.2764
6.428415576718203 68.6128
6.450749747566656 67.6287
6.47310158535871 66.8743
6.495453669698332 65.7662
6.517788579421056 65.2121
6.540141159237969 64.248
6.562476565766648 63.6719
6.5848296444934045 63.0862
6.607182974060425 62.7263
6.6295191323281015 62.7264
6.651872965955752 65.7369
6.6742096296068985 87.8968
6.6965639707294615 125.03399999999999
6.71891856698715 124.241
6.741255995248479 87.7124
6.763611104154477 66.362
6.785949046381137 60.3592
6.808304671371482 58.6519
6.8306605557940046 58.2573
6.852999275508618 57.5263
6.875355681171544 57.3694
6.897694923437771 57.3903
6.92005185377892 56.7612
6.9423916220322655 56.8073
6.964749080490181 56.2858
6.987106804399774 55.9845
7.009447368180821 55.8827
7.031805625367033 55.3632
7.054146723727803 56.0842
7.076505517631004 55.9682
7.098864581288365 55.7766
7.121206488070854 55.5645
7.143566093607822 55.3958
7.165908543567245 55.3854
7.188268694426048 55.2486
7.2106291193438095 55.1796
7.232972390625943 56.5224
7.255333366030969 67.1287
7.277677189091925 111.311
7.300038718428332 151.043
7.322400526130865 128.976
7.344745183422596 83.3292
7.367107550224791 60.7448
7.389452767901992 56.3928
7.411815697249891 55.6683
7.434161478756298 54.7916
7.456524974096713 54.4327
7.478888753837185 54.536
7.501235387657368 55.11
7.523599738562711 54.8643
7.545946944825532 55.4161
7.568311870344528 55.4829
7.5906770845765665 55.6928
7.613025156078678 56.7709
7.635390950099687 57.9015
7.657739602662809 57.271
7.680105979923558 55.9317
7.702472650212829 56.3806
7.724822180948224 56.4828
7.747189439655568 56.681000000000004
7.769539560075357 56.8001
7.791907410653562 57.0513
7.81425812420825 56.9929
7.836626570110925 57.4543
7.858995315087906 58.3473
7.881346924933401 58.4447
7.903716270417482 58.8149
7.926068482028405 59.1818
7.948438431475253 59.6709
7.9708086843180235 60.0438
7.993161805171116 60.5379
8.015532667162402 61.0514
8.037886398416653 62.388000000000005
8.060257873014221 62.8145
8.082629655331942 63.3218
8.104984308787587 64.2613
8.127356708900503 67.1422
8.149711981398308 71.8796
8.172085002766314 73.9042
8.194458336181368 71.2275
8.216814543847752 69.4424
8.23918850371002 70.1086
8.26154533906492 70.8448
8.283919928836452 72.3626
8.306277395339652 73.6701
8.328652618483376 75.0019
8.351028159736202 77.0735
8.373386579575245 79.3724
8.395762759396959 81.0208
8.418121819038275 86.1014
8.440498640894003 97.925
8.462875785192262 111.699
8.485235811156207 128.609
8.507613602688501 179.99
8.529974277114228 281.334
8.552352719347912 425.853
8.574731488360351 701.691
8.59709314210385 1221.9
8.619472567021075 1867.75
8.64183487789147 2217.64
8.664214962183097 1770.14
8.686577933647762 935.804
8.708958680784317 364.44
8.731339760774953 165.75099999999998
8.753703729764451 112.414
8.77608547780821 99.8968
8.798450116065078 96.0422
8.820832535634787 93.3573
8.843215292401656 91.6442
8.865580941199045 90.413
8.887964374703538 89.48100000000001
8.910330701447199 90.0169
8.932714815164482 91.8149
8.955099270424924 91.0374
8.977466620733543 88.0416
8.999851761421976 86.1023
9.022219798361645 84.5672
9.04460562795561 84.4056
9.066991803441677 83.8328
9.089360876979615 83.5503
9.111747746589993 83.3104
9.13411751544971 82.5662
9.156505082664324 82.1614
9.178875550323522 82.7507
9.20126381862328 83.0754
9.223652438908596 83.7611
9.246023961427412 83.1299
9.26841328802173 82.9244
9.290785518039224 82.6367
9.313175554425882 83.2063
9.335565947154315 83.2986
9.357939245086508 83.4179
9.380330352834827 83.39
9.40270436697103 83.521
9.425096193225055 83.7155
9.447488380180165 84.7009
9.469863475295412 85.0076
9.492256385987508 85.3426
9.514632206018318 86.0796
9.537025843935714 86.2154
9.559402392368193 86.6254
9.581796761000229 88.1164
9.604191496441521 88.9174
9.626569144158516 92.2286
9.648964615551032 95.5214
9.671343000390081 97.4982
9.693739211225699 96.1211
9.716135793237463 94.3635
9.738515290448102 94.1358
9.760912617143402 95.0047
9.783292860202891 96.2398
9.805690935076182 97.30799999999999
9.828089385495742 98.1809
9.850470754023561 100.861
9.872869957865444 107.883
9.89525208097539 120.915
9.917652041736662 132.19799999999998
9.940052382417589 134.608
9.962435644102392 148.582
9.984836746950979 192.774
10.007220771957746 263.494
10.029622640473708 371.39599999999996
10.052007432299963 555.258
10.074410069984072 846.965
10.096813093716005 1276.96
10.119199042482517 1715.0
10.141602840636468 1895.87
10.163989564971628 1559.03
10.186394141051062 881.185
10.208799107559706 384.056
10.231187001965623 182.916
10.253592751657669 125.78299999999999
10.275981430388155 113.78399999999999
10.298387966769793 113.165
10.320794897965431 114.14399999999999
10.343184759907361 113.04899999999999
10.36559248305461 108.48200000000001
10.387983138083852 105.704
10.410391656691655 109.978
10.432800574501677 123.32799999999999
10.455192425893369 141.80700000000002
10.47760214443012 168.273
10.499994797678786 212.666
10.522405320453982 292.70799999999997
10.54479877906917 409.591
10.567210109595656 517.757
10.5896218454736 564.138
10.612016518879773 501.589
10.634429067781074 340.31199999999995
10.656824555333241 191.403
10.679237920773568 119.189
10.701651695961992 95.2548
10.724048411481384 89.7353
10.746463008485165 87.4282
10.768860546937125 85.5812
10.791275969274796 83.8499
10.81369180576079 82.7174
10.836090585366925 81.8044
10.858507252467449 80.4824
10.88090686379991 79.2597
10.903324365036394 78.7628
10.925724811614439 78.5006
10.948143150509463 79.2523
10.970561909719066 78.4639
10.992963615930844 76.7462
11.015383218085756 74.9194
11.037785768347074 73.5719
11.06020621697282 73.238
11.082627090322113 72.7185
11.105030913430326 72.3465
11.12745263854165 72.8226
11.149857314510728 75.4062
11.172279894912576 80.0866
11.194702904450653 80.8214
11.217108866490921 77.1284
11.239532736615194 73.3849
11.26193956033512 71.633
11.284364294577085 70.2511
11.306789462371718 68.5692
11.329197585398376 67.4262
11.351623622610898 67.5355
11.37403261614354 66.7687
11.396459526308487 66.2941
11.418869393879497 66.0081
11.441297180532617 65.612
11.463725406927658 65.24
11.486136592353875 65.111
11.508565700543707 65.4043
11.530977768845315 66.9971
11.553407762368774 67.5122
11.575838200059769 67.0446
11.598251599479612 65.4796
11.620682927815501 64.3819
11.64309721895548 63.9166
11.665529441478206 63.5326
11.687962112597958 63.2306
11.710377748130886 63.4129
11.732811318753434 63.4104
11.755227854859067 63.2364
11.777662328529495 63.0909
11.800079768750786 62.9619
11.822515149015453 62.8721
11.844950984084935 63.2142
11.867369787303163 62.8667
11.889806534289491 62.9479
11.912226250487029 63.3061
11.934663912939751 63.3747
11.9571020346363 63.4919
11.979523127133968 63.5386
12.001962169624331 64.3632
12.024384183972964 65.6561
12.046824150809913 69.3974
12.069264581333726 75.2152
12.091687985297767 81.2448
12.11412934550045 91.4623
12.136553680195208 105.95700000000001
12.158995973632788 127.31200000000001
12.181438735204349 154.546
12.20386447284199 183.565
12.226308172985636 203.24200000000002
12.24873485024193 198.669
12.271179492516982 160.7
12.293607112949127 122.516
12.316052700916226 92.4103
12.338498763250042 77.0155
12.360927805303868 69.4628
12.383374818673879 66.3886
12.405804812803074 64.9075
12.428252780773262 64.7334
12.45070122756722 64.7501
12.473132656675375 64.425
12.49558206341869 64.8776
12.518014453510101 64.9047
12.540464823770117 64.9493
12.562915677315177 65.0698
12.58534951575545 65.944
12.607801338171472 67.3955
12.630236146511358 71.7017
12.652688941369085 76.126
12.675124723177234 76.5084
12.697578494048786 73.2686
12.720032754458185 69.6143
12.742470003354093 68.1746
12.764925245138771 68.3612
12.787363476431278 68.5469
12.809819703166806 68.8205
12.83227642391173 69.8429
12.854716135692716 70.3963
12.877173846755147 71.4943
12.899614549869717 71.5241
12.9220732548287 72.4322
12.94453245827299 72.9634
12.966974655289818 74.0462
12.989434858002571 74.6297
13.011878055298721 75.6635
13.034339260862497 76.3463
13.056800969391883 77.8093
13.079245674017244 80.1209
13.101708390774869 82.8833
13.12415410463411 91.0777
13.146617833206086 103.993
13.169064559883248 116.699
13.191529303857127 132.137
13.213994557076367 156.118
13.236442809902437 193.565
13.258909083908291 246.24099999999999
13.28135835851934 305.8
13.30382565690295 373.115
13.326293469022952 422.782
13.348744283242008 427.249
13.371213125129904 354.056
13.39366497011003 257.73400000000004
13.416134845360597 170.505
13.438605238843131 121.958
13.46105863690397 107.175
13.483530069144786 108.861
13.505984506951902 115.009
13.528456981549432 125.08200000000001
13.550929978879088 140.958
13.573385983253365 165.855
13.595860028340867 205.016
13.618317081455832 254.257
13.64079217790333 310.051
13.663250283359057 352.43699999999995
13.685726434770173 371.379
13.708203115221277 340.07599999999996
13.730662806148091 255.141
13.75314054697177 180.774
13.775601299246777 126.52799999999999
13.798080104050406 96.6157
13.820559442405358 85.5985
13.843021793671388 82.25299999999999
13.865502201420897 80.5745
13.887965623051947 80.188
13.910447103807167 79.1113
13.932929122629764 77.7358
13.955394156785959 77.1829
13.977877254034569 76.1005
14.000343367582113 75.5292
14.022827546871707 74.8552
14.045294743423524 74.2156
14.06778000837062 73.5754
14.090265817715476 73.5501
14.112734645763819 73.29
14.13522154619454 72.764
14.157691466286913 72.7797
14.180179461423874 72.5026
14.202668005486178 72.0052
14.22513957064374 71.5436
14.247629214846473 70.804
14.270101881097517 70.7545
14.29259262906496 71.0737
14.315083930490205 71.6726
14.337558255389705 71.8008
14.360050666019726 71.3932
14.382526101071944 70.4118
14.405019624534942 69.6422
14.427513705993134 69.2576
14.449990813291825 69.5154
14.47248601302899 69.3848
14.49496423954951 69.4697
14.517460561197822 69.4473
14.539939910570322 69.1853
14.562437357763558 69.5118
14.58493536931253 70.7914
14.607416409993311 71.4161
14.62991555254159 71.8432
14.652397725157423 71.8182
14.674898002342799 71.352
14.697398848433282 71.1615
14.719882725991326 71.7854
14.74238471217934 73.2578
14.764869730765593 77.0296
14.787372860692983 81.1969
14.809876564079925 85.6741
14.83236330125751 91.7476
14.854868153850365 100.788
14.877356041159485 114.243
14.899862046604186 133.291
14.922351087688757 156.997
14.944858249632887 184.217
14.967365991421232 208.89
14.989856770231246 222.21400000000003
15.012365673994204 218.267
15.03485761569738 185.584
15.05736768508665 145.609
15.07987833888692 111.704
15.102372032001655 88.7277
15.124883856909658 76.6104
15.14737872204565 72.6114
15.169891721717274 70.9434
15.192405310371893 70.9917
15.214901940621196 71.1445
15.237416709527137 71.3107
15.259914520936249 71.3815
15.282430473753607 70.0889
15.304947020131227 69.0974
15.327446610371178 68.4445
15.349964346154254 67.5407
15.372465126703139 67.1366
15.394984055556009 67.124
15.417486030076159 66.8186
15.44000615566487 66.5193
15.462526881230803 66.8015
15.485030653812652 66.9603
15.507552581617434 66.91
15.530057557334603 66.8169
15.55258069104857 66.7766
15.575104429329837 66.9575
15.597611216864632 66.4998
15.620136166564563 66.6264
15.6426441664095 67.7234
15.665170331202765 70.5945
15.687697105158826 74.0663
15.710206930593545 77.9172
15.732734925158933 82.1544
15.755245972089478 88.9353
15.77777519094324 97.8773
15.800287463046663 111.26
15.822817909869592 129.874
15.84534897229804 150.168
15.867863089299354 171.804
15.890395385222186 188.475
15.912910736597423 194.112
15.935444269699861 181.048
15.957978423016485 153.863
15.980495633101265 120.656
16.003031029129367 94.6459
16.02554948280019 75.6556
16.048086125229432 67.5521
16.070623392487107 65.1426
16.09314371869582 64.3617
16.11568223789321 63.6681
16.13820381691126 62.5504
16.160743591742527 61.6438
16.183283996022084 61.0652
16.205807461423195 59.8495
16.228349126881973 59.3767
16.25087385432698 59.4039
16.27341678466365 58.8336
16.29594277784926 58.7414
16.31848697676433 58.7661
16.341031811604868 59.0478
16.36355971058487 59.3488
16.3861058195587 58.964
16.40863499352978 57.7754
16.431182380342005 57.0567
16.453730407713202 56.4863
16.476261501364792 56.349
16.498810812136167 55.6484
16.52134319004079 56.0765
16.54389378792203 55.8435
16.566445031001553 55.6491
16.588979342490088 55.6353
16.61153187824822 55.3511
16.634067483263312 55.1679
16.656621315414416 55.2782
16.679175797408888 54.7816
16.701713349928728 54.9468
16.72426913389191 55.2798
16.74680798922351 55.3101
16.76936507887444 55.2847
16.791905240734874 55.3061
16.814463639794468 55.2632
16.837022695210294 55.2688
16.859564824093756 55.479
16.882125194503903 56.0968
16.904668639217885 56.7811
16.927230328348003 56.8611
16.949792678493612 56.9374
16.972338104193863 56.4037
16.994901778652235 56.0489
17.017448529496576 55.9894
17.040013531998152 56.288999999999994
17.06257920018044 56.7849
17.0851279459922 57.8078
17.107694947817667 58.38
17.130245028099072 59.4038
17.15281336730298 60.8437
17.17536478578733 62.5021
17.19793446610687 64.7389
17.220504818648422 67.8236
17.243058251703697 70.9778
17.265629950971032 75.3115
17.288184731571736 79.2102
17.310757781306908 82.7368
17.33333150794385 84.1635
17.355888317140174 81.7994
17.37846339986244 77.8475
17.401021565958885 71.05
17.42359800851343 65.7535
17.44617513265564 62.3025
17.468735341390783 60.4522
17.491261035594565 59.6017
17.51396340099364 59.3224
17.536490463869136 59.6129
17.559018209820174 59.5212
17.58154663977963 59.5672
17.604251766089718 59.8169
17.626781572227713 60.0388
17.64931206518155 60.1893
17.671843245885103 60.6725
17.69455114821572 61.0103
17.717083712612634 61.4347
17.739616967569667 61.4634
17.762150914021706 62.0038
17.78486160749854 61.9447
17.807396945166804 62.5377
17.829932977143503 63.5484
17.85246970436452 65.3525
17.875183204129467 67.6059
17.897721330097664 69.6024
17.920260154126645 72.0402
17.942799677153296 75.1405
17.9655159983646 79.1869
17.988056927677544 84.4184
18.010598558807683 92.2356
18.033140892692916 101.947
18.05586005052525 111.84
18.07840379824407 123.152
18.10094825154059 134.126
18.12366954819864 141.73
18.146215420998306 142.967
18.16876200220057 132.735
18.191309292745153 117.24700000000001
18.214033452627167 102.96700000000001
18.236582170236648 91.77
18.259131600016456 87.0171
18.281681742907335 87.6847
18.304408781233683 91.6591
18.32696035875955 96.4463
18.349512652227624 100.8
18.372065662579683 105.301
18.394795594587553 106.54799999999999
18.41735004715306 103.095
18.43990521943684 95.5515
18.46246111238171 86.2081
18.485193953325208 77.1374
18.507751296070428 70.2103
18.530309362314178 66.1704
18.552868153000343 63.8216
18.57560391815056 62.5703
18.59816416623245 62.0848
18.620725141597372 61.7689
18.643286845190268 61.2034
18.666025549835414 60.71
18.688588718427933 60.2059
18.711152618092243 59.99100000000001
18.73389353884365 60.032
18.75645890921984 59.3542
18.77902501351406 58.9719
18.801591852673102 59.0715
18.824335739722738 58.6369
18.846904057212626 58.4579
18.8694731124168 58.1397
18.89204290628315 58.1186
18.914789774966803 57.8857
18.937361054791623 57.6353
18.959933076131318 57.2869
18.982505839934877 57.3497
19.00525570560582 57.3801
19.027829963004184 57.3258
19.05040496572238 57.352
19.072980714710468 57.475
19.095733592739563 57.7471
19.11831084296757 58.0234
19.140888842324735 58.55
19.16346759176222 58.7365
19.18622349753803 59.3173
19.208803755869358 60.1732
19.231384767143577 61.4674
19.253966532312948 62.8968
19.276725481241822 65.0785
19.29930876296784 67.3105
19.3218928014549 70.2237
19.34465404436217 73.2718
19.36723960516257 75.5359
19.389825925592426 76.7303
19.412413006605938 75.7632
19.43517731967805 72.21300000000001
19.457765930683355 67.6458
19.48035530514408 62.9636
19.50294544401556 59.3681
19.525712842708348 56.9175
19.54830451925909 55.4565
19.570896963095727 54.6726
19.593490175174704 54.4525
19.616260674962184 54.3978
19.638855432416964 53.8783
19.661450960992624 53.9468
19.68404726164677 53.9519
19.706820878021247 53.8489
19.729418731756834 53.9672
19.752017360452857 53.6775
19.77461676506804 53.907
19.797393513540218 54.0609
19.819994478951667 54.5326
19.84259622316767 55.0898
19.8651987471481 55.3126
19.887978643247177 55.7542
19.91058273574792 56.2182
19.933187610901943 56.8134
19.955969879466828 58.1071
19.97857632894404 59.6319
20.00118356396599 61.1211
20.023791585494575 63.2308
20.046577028914875 65.7498
20.069186632506966 67.9784
20.091797025500632 69.7599
20.114408208858933 70.3893
20.137196842715273 70.0259
20.159809615886765 68.4113
20.18242318232135 65.9037
20.20503754298326 63.7381
20.227829382875154 62.5527
20.250445341109344 62.553999999999995
20.27306209647285 63.2832
20.29567964993108 64.6038
20.31847471147704 65.2305
20.34109387027612 65.9926
20.363713830075454 65.96300000000001
20.386334591841646 64.4571
20.409132890679302 61.6163
20.431755265564437 58.2786
20.454378445325528 55.5569
20.477002430930366 53.6327
20.499803982716553 52.6056
20.522429589228004 51.7626
20.54505600449589 51.3988
20.567683229489194 51.1903
20.590488049900088 50.9338
20.61311690359731 50.7475
20.63574656993626 50.4224
20.658553853717297 50.1024
20.681185154618298 50.0699
20.703817271080066 49.931000000000004
20.72645020407368 49.7429
20.749260783967177 49.4441
20.771895359337133 49.3165
20.794530754161617 49.3832
20.817166969412938 49.3942
20.83998086114876 49.3427
20.86261872660049 49.0969
20.885257415405402 49.1494
20.90789692853701 48.9632
20.930714147864748 48.8452
20.953355319030678 49.0016
20.97599731745334 49.0996
20.99864014410749 48.9675
21.021460706796564 49.0661
21.044105199328826 49.3549
21.06675052302631 49.4644
21.089396678865015 49.628
21.112220600704806 50.083
21.134868430275347 50.2821
21.15751709492456 50.583
21.180166595629693 50.7794
21.202993892429635 51.3349
21.22564507473034 51.5518
21.24829709602816 51.6828
21.27112693608965 51.7624
21.293780644891275 51.7504
21.316435195634053 50.9999
21.339090589297417 50.3403
21.361923832041875 49.9168
21.384580921090404 49.1564
21.407238856007325 48.8825
21.429897637773326 48.7424
21.45273429906592 48.7657
21.475394784108598 48.7645
21.498056118951983 48.7688
21.520718304578022 48.9563
21.543558400304388 49.0054
21.566222297108816 49.2219
21.58888704765135 49.3576
21.61155265291521 49.823
21.63439619898156 50.2448
21.657063523335786 50.5146
21.67973170537063 50.9588
21.7024007460706 51.4941
21.72524775840385 52.2037
21.747918526116475 53.2438
21.770590155457388 54.4218
21.79326264741238 55.943000000000005
21.816113141960237 57.7888
21.838787368860547 59.4674
21.861462461341976 61.4027
21.884315579735777 63.4032
21.90699241312273 64.3492
21.92967011506078 65.0304
21.95234868653799 64.7771
21.9752053151131 63.5628
21.997885635446785 61.6681
22.020566828293532 59.7824
22.04324889464272 57.986000000000004
22.066109049404666 56.7433
22.088792872571794 56.3881
22.111477572219204 56.3181
22.1341631493376 56.3545
22.157026846313123 56.0092
22.179714188221507 55.3175
22.202402410582668 54.3777
22.22509151438863 53.0618
22.24795876962584 51.6712
22.270649646204486 50.9192
22.293341407213727 50.1771
22.316034053646906 49.7516
22.338904883215342 49.3746
22.36159931041458 49.2531
22.38429462602756 49.172
22.40699083104897 49.1452
22.429865251039757 49.2344
22.452563244831367 49.2338
22.47526213102522 49.2591
22.49813925616515 48.9664
22.520839937143307 49.1362
22.543541513520587 49.0742
22.56624398629403 48.843
22.589124730075895 48.8433
22.611829005656723 49.0248
22.63453418063466 49.0588
22.657240256008077 49.3448
22.680124634582935 49.3613
22.70283252079775 49.6998
22.725541310413075 50.0752
22.74825100442868 50.2043
22.771139033969575 50.6749
22.79385054687155 50.9401
22.81656296718292 51.8232
22.83927629590484 52.6078
22.862167992606945 53.4671
22.88488314827121 54.5906
22.907599215359284 55.4336
22.93031619487366 56.5453
22.953211574954405 57.4653
22.975930389478226 58.2307
22.998650119445763 58.6339
23.02137076586092 57.6986
23.044269845560063 56.4164
23.06699233506288 54.595
23.089715744034912 52.8878
23.112617610931565 51.1596
23.135342869061212 50.0394
23.158069049684816 49.5378
23.1807961538087 49.2393
23.20370174880544 49.0133
23.226430710184808 49.1765
23.249160598093425 49.2321
23.271891413539002 49.2453
23.294800752937697 49.2682
23.31753343374794 49.3976
23.340267045128353 49.5988
23.36300158808808 50.0799
23.38591468821339 50.3415
23.408651104658304 50.5907
23.431388455719986 51.3219
23.454126742409 52.1599
23.4770436196085 53.3054
23.499783787914662 54.3714
23.522524894889884 55.1617
23.54526694154616 56.1174
23.56818761219047 57.2675
23.59093154860734 57.8881
23.613676427751283 58.3814
23.636422250635754 57.2072
23.659346731118656 55.8151
23.68209445191868 53.8923
23.704843119509587 51.7182
23.72759273490623 49.6671
23.750521041644767 48.4634
23.77327256312355 47.4693
23.796025035462787 46.9171
23.818956224555475 46.481
23.841710609113413 46.5145
23.86446594758979 45.997
23.887222241002014 45.9546
23.910157285144578 45.5662
23.932915498962537 45.5112
23.955674670778713 45.409
23.978434801611975 45.2694
24.001373717286125 45.0014
24.024135776723917 44.9145
24.046898798245582 44.8367
24.06966278287146 44.7817
24.092605586582614 44.5571
24.115371508023642 44.3843
24.1381383956401 44.2884
24.16090625045381 44.3654
24.183852958731244 44.1502
24.206622758582608 44.1121
24.229393528706886 44.0518
24.252165270127392 43.9355
24.27511589952438 43.9326
24.297889594216997 43.7612
24.32066426328598 43.5032
24.34343990775613 43.663999999999994
24.36639447485003 43.4926
24.38917208083877 43.4273
24.41195066531332 43.2483
24.43490819850244 43.2884
24.457688750692377 43.3058
24.48047028445616 43.1909
24.503252800821233 43.2706
24.526214300784112 43.1559
24.548998793132213 43.3668
24.57178427117417 43.2572
24.59457073593893 43.3104
24.617536219319863 43.1767
24.64032466834748 43.2771
24.663114107195035 43.0913
24.685904536893013 42.8369
24.708874020360852 42.7034
24.731666442613744 42.7808
24.754459858818787 42.7021
24.777254270007962 42.6374
24.80022777025625 42.6396
24.82302418230472 42.538999999999994
24.845821592443674 42.558
24.86862000170663 42.4457
24.891597535453727 42.4629
24.914397953892728 42.6927
24.93719937456671 42.5534
24.96000179851076 42.6975
24.98298338249997 42.8135
25.00578782394922 43.1311
25.028593271784167 43.1663
25.05157790644186 43.5766
25.07438537804115 43.7502
25.097193859145293 43.9134
25.120003350792075 44.2197
25.142992065061257 44.5727
25.165803588823465 44.6668
25.18861612625217 44.8885
25.211429678386736 44.9698
25.234422489079968 44.9666
25.257238081693636 45.1859
25.280054692141732 45.2326
25.3028723214652 45.1012
25.325869245420463 45.1391
25.348688923599397 45.2406
25.371509623787006 45.208999999999996
25.394331347025812 44.8893
25.41733240110666 44.4957
25.440156181590016 43.7472
25.46298098826268 43.187
25.48580682216873 42.6885
25.50881202326435 42.0514
25.53163992281684 41.5389
25.55446885274561 41.4579
25.577298814096377 41.2483
25.600308179121807 40.9508
25.623140214533745 41.0659
25.64597328451537 40.9728
25.66898578564376 40.7297
25.691820936010206 40.8676
25.714657124097695 40.9378
25.737494350954734 40.8985
25.760511045684957 40.6901
25.783350361364224 40.7258
25.806190718969255 40.7423
25.82903211955018 40.9231
25.852053024868923 40.9202
25.874896522722523 40.9511
25.897741066713106 40.8017
25.920586657892454 41.0122
25.943611790812668 41.1752
25.966459487728237 41.3564
25.989308234998564 41.2826
26.01215803367705 41.6772
26.03518741123814 41.7235
26.05803932412957 41.833
26.080892291600094 41.971000000000004
26.10374631470478 41.933
26.12677995397268 41.9893
26.14963609978026 41.9204
26.172493304397875 41.5972
26.19535156888223 41.5389
26.218389486949604 41.0212
26.241249882640123 40.8264
26.26411134137826 40.5354
26.28715248187403 40.5674
26.31001607820869 40.3683
26.3328807407756 40.2503
26.35574647063438 40.4554
26.37879191991473 40.4055
26.401659795896734 40.5177
26.424528742360263 40.6504
26.447398760366614 40.7425
26.470448535598294 40.9773
26.49332070826805 41.0647
26.516193955675355 41.387
26.53906827888316 41.43899999999999
26.562122397260108 41.6884
26.584998883685063 42.0555
26.607876449110325 42.2732
26.63075509460056 42.5281
26.65381357334404 42.5199
26.67669439061878 42.5543
26.699576291163382 42.3694
26.722459276044212 42.2401
26.745522132402975 41.9474
26.768407297649354 41.6955
26.791293550442003 41.3302
26.814180891848974 41.0719
26.837248143099337 40.7038
26.860137673466657 40.6691
26.88302829566349 40.4775
26.90592001075963 40.3285
26.92899167420566 40.1822
26.951885586870763 39.7814
26.974780595655517 39.5009
26.99785558178161 39.476
27.020752794605112 39.3619
27.043651106772522 39.2915
27.06655051935668 39.215
27.089629948036183 39.0727
27.112531573292053 39.0098
27.135434302194138 39.0475
27.158338135817015 38.8062
27.181422024430987 38.6585
27.204328079372566 38.7914
27.22723524226965 38.8179
27.250143514198573 38.819
27.273231880156334 38.86
27.296142382065014 38.7151
27.319053996245536 38.6242
27.341966723775965 38.7184
27.365059584515222 38.7303
27.38797455070062 38.9169
27.410890633481237 38.5663
27.433807833936918 38.724000000000004
27.456905206923906 38.8098
27.47982465472398 38.7073
27.502745223449743 38.7296
27.525666914182825 38.7811
27.548768816912457 38.9069
27.571692763693633 38.8569
27.59461783573812 38.6946
27.617723149491244 38.6033
27.640650484125285 38.4593
27.66357894728264 38.2829
27.686508540048052 38.3884
27.709618414237887 38.3379
27.732550278321757 38.0832
27.755483275279115 38.1622
27.778417406196485 38.1037
27.801531858397514 38.2331
27.824468269376716 38.1113
27.847405817586786 38.2077
27.870344504116094 38.2429
27.893463551932008 38.3114
27.916404527281053 38.59
27.93934664422563 38.732
27.962289903855886 38.7198
27.98541356491974 38.9663
28.00835912214229 38.9591
28.03130582533231 39.2477
28.054253675581805 39.3667
28.077381967556104 39.3774
28.100332124185126 39.2692
28.123283431160893 39.2372
28.146235889577238 39.1766
28.169368830154156 38.9798
28.192323603752033 38.6809
28.215279532083304 38.2458
28.238415973016764 38.1263
28.261374223145094 38.0826
28.284333631303806 37.913000000000004
28.307294198589954 37.6799
28.330435319167677 37.3649
28.353398217078915 37.219
28.376362277420153 36.9318
28.39932750129032 36.8921
28.422473319286713 36.766999999999996
28.44544088262495 36.7156
28.468409612800283 36.538000000000004
28.491379510913497 36.334
28.51453004413313 36.3003
28.53750229057244 36.2254
28.56047570826344 36.0446
28.583450298308804 36.0413
28.606605564586562 35.8616
28.629582511831156 36.0646
28.65256063474956 35.7915
28.675539934446338 35.7878
28.698699951647605 35.8175
28.72168161743193 35.6279
28.74466446331978 35.6839
28.767648490417624 35.7332
28.790813276438353 35.7127
28.813799678527303 35.7136
28.836787265157085 35.6793
28.859955641890075 35.6279
28.882945610203045 35.6976
28.905936766392035 35.5906
28.928929111566863 35.6161
28.952102288520145 35.5896
28.975097024308607 35.3343
28.998092952423807 35.3248
29.021090073977508 35.1185
29.04426806913204 34.9674
29.067267590245258 34.9341
29.090268308143695 34.8978
29.11327022394099 34.8729
29.13645305530891 34.5755
29.159457379627167 34.6422
29.18246290519685 34.6175
29.20546963313352 34.4277
29.22865731875826 34.4419
29.25166646419296 34.5686
29.27467681535305 34.4382
29.29768837335608 34.501
29.320880931312562 34.4374
29.34389491580634 34.5657
29.366910110507334 34.521
29.38992651653503 34.492
29.41312396492981 34.5204
29.436142806456754 34.4214
29.45916286268059 34.2982
29.48236399319994 34.1533
29.50538649169417 34.0122
29.528410208259935 33.9729
29.55143514402014 33.7293
29.574641196749695 33.7602
29.597668583816574 33.5797
29.6206971934585 33.4448
29.64372702680042 33.3769
29.666938019934474 33.2562
29.689970313635285 33.2465
29.713003834422636 33.1981
29.73603858342347 33.2061
29.759254535188578 33.1777
29.78229175361658 33.0701
29.80533020365064 33.15
29.82836988641968 33.0877
29.85159081507472 33.0621
29.874632976355343 32.959
29.89767637376955 33.0243
29.920721008448314 32.8705
29.9439469322847 32.876
29.96699405457564 32.8255
29.9900424175358 32.7624
30.013092022298157 32.7308
30.03632295963995 32.7498
30.059375061131373 32.7472
30.08242840783577 32.7345
30.105483000888153 32.7872
30.128718970092244 32.6716
30.151776069006917 32.6578
30.17483441768648 32.68
30.198074175317235 32.6962
30.221135036724256 32.6402
30.24419715131772 32.6011
30.267260520236203 32.5249
30.290505341942243 32.5374
30.313571232750228 32.5469
30.336638381310948 32.5368
30.35970678876503 32.5254
30.38295669299435 32.5221
30.40602763151657 32.3852
30.429099832366074 32.365
30.452173296685572 32.249
30.47542830191959 32.2645
30.498504306502497 32.2752
30.521581577995562 32.3911
30.544660117543582 32.3362
30.56792024229725 32.3689
30.59100133132069 32.3521
30.614083691845494 32.3339
30.637167325018545 32.4204
30.660432587840603 32.5022
30.683518779717886 32.4127
30.70660624769615 32.4211
30.729694992924372 32.4374
30.75296541239743 32.4102
30.77605672557558 32.3474
30.799149319462742 32.2615
30.8224236211637 32.1478
30.845518789950724 32.1362
30.868615242910597 32.0977
30.891712981195973 31.9333
30.91499247215866 31.8882
30.938092794619365 31.8184
30.96119440587579 31.7735
30.984297307082752 31.6311
31.00758200598383 31.5067
31.030687500658694 31.4701
31.053794288760695 31.3718
31.076902371446767 31.2912
31.100192296997445 31.2722
31.12330298246119 31.3498
31.14641496599209 31.1611
31.169528248749216 31.1807
31.19282341969534 31.1398
31.215939314557186 31.1099
31.239056512134788 31.2101
31.262175013589378 31.1887
31.28547544871168 30.9892
31.30859657161541 30.9713
31.331719001892175 31.0351
31.35484274070538 31.1768
31.378148458819545 31.1852
31.401274828443725 31.0314
31.424402510106933 31.1493
31.447712205419993 31.205
31.470842524931633 31.0273
31.493974159989783 31.0274
31.51710711176168 31.0108
31.54042212308802 31.0089
31.563557722100917 30.9709
31.586694641341655 30.8127
31.609832881979628 30.6942
31.63315322823208 30.6653
31.656294125521327 30.5644
31.679436347728515 30.5772
31.70257989602529 30.4846
31.725905596152327 30.4017
31.74905181052835 30.395
31.772199354521323 30.4046
31.79534822930507 30.4323
31.818679302290967 30.4154
31.84183085259981 30.3646
31.864983737233473 30.3173
31.88813795736804 30.4844
31.911474422233013 30.2138
31.934631327356435 30.3561
31.9577895715215 30.3373
31.980949155906522 30.3148
32.004291031706956 30.2077
32.027453310562606 30.1128
32.05061693318573 30.0012
32.07396288236386 29.9651
32.09712920658542 29.9219
32.12029687812702 29.7329
32.14346589817093 29.7848
32.166817291729984 29.6934
32.18998902288583 29.6856
32.21316210610336 29.5769
32.23633654256711 29.4364
32.259693399663725 29.3887
32.282870556771144 29.3765
32.30604907069099 29.4122
32.329228942610065 29.2567
32.35259128243769 29.1656
32.375773884550505 29.2299
32.398957848235646 29.1468
32.422143174682176 29.1195
32.445511016471215 28.9505
32.468699082679954 28.9322
32.49188851523011 28.8655
32.51507931531304 28.8486
32.538452678331 28.8264
32.56164622776311 28.6997
32.58484114831493 28.6842
32.60803744118015 28.6982
32.631416344731896 28.7642
32.654615396551876 28.6838
32.67781582427913 28.6783
32.701198898634416 28.5441
32.72440209253756 28.4644
32.747606665947124 28.4673
32.77081262006088 28.3151
32.79420126883317 28.3069
32.81740999876112 28.3931
32.840620112999424 28.2137
32.86383161274818 28.1981
32.88722585534586 28.2046
32.91044014056596 28.2861
32.933655814909734 28.189
32.95687287957963 28.2328
32.98027273544904 28.1553
33.00349259526636 28.0601
33.026713849030116 28.0499
33.04993649794511 28.0226
33.073341986570746 28.0002
33.09656744032826 28.0015
33.11979429286444 28.0003
33.14302254538647 28.0155
33.166433686291185 27.8578
33.18966475336992 27.958000000000002
33.212897224069096 27.7851
33.23613109959831 27.7779
33.259547912343415 27.721999999999998
33.2827846121627 27.8081
33.306022720453775 27.7524
33.32926223842861 27.6301
33.352684742614166 27.609
33.37592709463173 27.6272
33.399170859982064 27.4478
33.422597648419426 27.4277
33.44584425514446 27.2856
33.46909227885668 27.314
33.4923417207723 27.1647
33.51577423505344 27.1481
33.539026528130385 27.1295
33.56228024307245 27.095
33.585535381098246 26.9099
33.60897364093058 26.9677
33.63223163992385 26.9743
33.6554910656699 26.8788
33.678751919389796 26.8622
33.702195944520106 26.8019
33.72545966903325 26.7932
33.74872482519663 26.688000000000002
33.771991414233746 26.6767
33.79544122444841 26.7537
33.81871069412428 26.671
33.84198160035767 26.6628
33.86525394437455 26.58
33.88870955949969 26.5557
33.911984794020626 26.4984
33.93526147001624 26.5036
33.958539588715006 26.4041
33.98200102861669 26.2653
34.0052820477047 26.2156
34.02856451319451 26.171
34.05203033759056 26.1821
34.07531571090147 26.1319
34.09860253431845 26.1308
34.121890809074316 26.1024
34.145362493118924 26.1147
34.16865368561615 26.0056
34.191946333164054 25.9756
34.21524043699793 25.9798
34.23871800066799 25.9639
34.26201503218366 25.8262
34.28531352370466 25.7513
34.30861347646881 25.736
34.33209693978188 25.7046
34.3553998301885 25.6972
34.378704185565205 25.5839
34.402010007152356 25.5541
34.42549939016683 25.5554
34.44880815937748 25.5356
34.472118398533134 25.4288
34.49543010887669 25.3966
34.51892543169198 25.3243
34.54224009966052 25.3558
34.56555624255917 25.3116
34.58887386163339 25.1627
34.61237514439016 25.1744
34.6356957311114 25.1643
34.65901779775809 25.1089
34.68252356662995 25.1424
34.705848608458616 25.0624
34.72917513396849 24.9819
34.75250314440949 24.9583
34.77601490857862 24.8779
34.799345904259795 24.8588
34.82267838863559 24.8791
34.846012362958525 24.8363
34.869530142679984 24.8695
34.89286711232212 24.7787
34.91620557568269 24.8126
34.93954553401677 24.7792
34.9630693495876 24.625
34.986412313340814 24.6556
35.00975677584668 24.6457
35.033102738362956 24.576999999999998
35.05663261012228 24.499000000000002
35.0799815881786 24.5176
35.10333207003229 24.5059
35.12668405694369 24.514
35.150220005273056 24.4688
35.17357501786656 24.4042
35.19693153931268 24.3923
35.220289570874385 24.2946
35.24383161619786 24.3138
35.267192683604904 24.3285
35.290555264930376 24.2347
35.314101899412165 24.2131
35.33746752422433 24.2075
35.36083466676374 24.1829
35.38420332829803 24.1121
35.407756095629054 24.1727
35.43112781085063 24.1826
35.45450104888391 24.0019
35.477875810999194 24.0275
35.50143473172161 24.0307
35.52481255774625 24.0115
35.54819191167777 23.9221
35.57157279478914 23.846
35.595137889488406 23.8492
35.61852184675279 23.8342
35.641907337029984 23.793000000000003
35.665294361595684 23.7292
35.68886565090076 23.6341
35.7122557598848 23.6055
35.73564740699838 23.6567
35.759040593519934 23.5667
35.78261809810353 23.5636
35.80601437933051 23.5043
35.829412203814705 23.3909
35.85281157283719 23.3636
35.876395313415884 23.502
35.8997977874528 23.3451
35.92320180988546 23.3318
35.946790244133936 23.275
35.97019737933222 23.331999999999997
35.993606066789866 23.2965
36.01701630779276 23.2364
36.04061101440684 23.1321
36.06402437852291 23.1505
36.08743930005611 23.1293
36.1108557802951 23.1109
36.13445678011326 23.0766
36.15787639383515 22.9529
36.18129757014299 23.0363
36.20472031032821 22.9619
36.22832762423364 22.8091
36.25175350829375 22.8441
36.275180960119776 22.8563
36.298609981005924 22.8428
36.32222362992669 22.8083
36.34565580510207 22.7834
36.36908955323448 22.7921
36.39252487562093 22.6409
36.416144880530226 22.531999999999996
36.43958336764275 22.6142
36.463023432914625 22.5836
36.486465077645676 22.5516
36.51009145956204 22.5392
36.53353627947859 22.5904
36.55698268276811 22.5023
36.58043067073321 22.3718
36.60406345072071 22.3189
36.62751462435344 22.3541
36.65096738658405 22.3668
36.67460498210655 22.3519
36.69806093788647 22.2717
36.72151848619297 22.2395
36.744977628333636 22.2598
36.76862165890998 22.1377
36.79208400512205 22.1872
36.81554794910557 22.13
36.83901349217101 22.024
36.862663978991606 21.934
36.88613273667352 21.945
36.90960309738324 21.9432
36.933075062434064 21.8967
36.95673202673572 21.898000000000003
36.98020721697122 21.794
37.003684015502365 21.7276
37.027162423645365 21.7592
37.050825886711465 21.7421
37.07430753063053 21.6419
37.09779078812467 21.6419
37.121275660513014 21.6111
37.144945643673694 21.5701
37.16843376245278 21.5421
37.19192350009803 21.541
37.215414857931435 21.4235
37.239091382563885 21.4507
37.262585997426164 21.4604
37.28608223645736 21.4018
37.309763684451696 21.3522
37.33326318851098 21.2381
37.356764320726555 21.3876
37.380267082425526 21.2835
37.40395510942588 21.2515
37.42746114683234 21.1864
37.45096881771841 21.0952
37.474478123414166 21.1222
37.49817275092816 21.0915
37.52168534303452 21.1121
37.54519957395567 21.0321
37.568715445024665 21.0229
37.592416694607714 20.9004
37.61593586281424 20.9433
37.63945667518264 21.0136
37.66297913304891 20.8943
37.68668702630454 20.8314
37.710212792059274 20.7223
37.733740207334854 20.7571
37.757269273470364 20.6893
37.780983832050374 20.7023
37.80451621684926 20.6432
37.82805025654007 20.6417
37.851585952464795 20.6014
37.8753071980695 20.5246
37.89884622345676 20.4588
37.92238690911902 20.4768
37.94611318753442 20.4418
37.969657210779765 20.4577
37.99320289834801 20.4166
38.016750251586465 20.3653
38.04048325513017 20.256
38.06403395679343 20.2594
38.087586328183946 20.2728
38.11114037065203 20.2207
38.13488012115898 20.2741
38.1584375229181 20.192
38.181996599821 20.0942
38.205557353221124 20.1101
38.229303872575656 20.0813
38.2528679961576 20.0213
38.27643380031219 20.0128
38.30000128639589 19.9466
38.32375459653193 19.9497
38.34732546371299 20.0094
38.37089801690786 19.8971
38.39447225747609 19.8729
38.418232380377425 19.7974
38.441810012983396 19.8282
38.46538933705673 19.7858
38.488970353960084 19.7579
38.51273731166058 19.7498
38.536321731567014 19.6592
38.55990784840681 19.6426
38.58367995004091 19.5508
38.60726947812959 19.5232
38.63086070726198 19.5067
38.654453638806274 19.5645
38.678232613930824 19.4614
38.70182896773327 19.4223
38.72542702806741 19.3984
38.7490267963045 19.3366
38.77281266709232 19.3831
38.79641586862214 19.3393
38.8200207821842 19.3178
38.843627409152944 19.2733
38.86742019782782 19.2427
38.891030269149255 19.1586
38.914642058016156 19.1641
38.938255565806124 19.1972
38.96205529464307 19.0148
38.98567225787121 19.0653
39.00929094417078 19.1111
39.03291135492255 19.0786
39.05671804624804 18.9414
39.080341923549106 18.9552
39.103967529460334 18.957
39.127594865365744 18.9233
39.15140854155791 18.8217
39.17503935514948 18.7916
39.19867190290282 18.7824
39.22249083587951 18.7568
39.24612686969409 18.7625
39.269764641845306 18.721
39.293404153722804 18.7143
39.317230110864074 18.6183
39.34087311998506 18.5642
39.36451787301696 18.5964
39.388164371352595 18.5231
39.41199737518003 18.4866
39.43564738196752 18.4548
39.45929913825317 18.4193
39.48295264543308 18.4252
39.506792718520884 18.3827
39.530449745387216 18.3849
39.55410852735203 18.3354
39.57776906581474 18.3323
39.60161623079 18.3744
39.625280300200025 18.3043
39.64894613032202 18.2095
39.67261372255866 18.1981
39.6964680021016 18.1943
39.72013913657293 18.1541
39.74381203738292 18.1529
39.76748670593756 18.1102
39.79134812278169 18.1126
39.81502634488497 18.0663
39.83870633896685 18.0073
39.862388106436654 17.9644
39.88625668336918 17.9765
39.90994201572829 17.9679
39.933629125719285 17.8785
39.957503091207826 17.8349
39.9811937746168 17.837
40.00488623990914 17.773
40.02858048850006 17.7556
40.05246165409549 17.7507
40.076159487492085 17.7025
40.099859108448875 17.7198
40.123560518384345 17.6862
40.1474489070226 17.6305
40.171153913178564 17.5358
40.194860712584955 17.559
40.2185693066637 17.5709
40.242464941335314 17.459
40.26617714307655 17.468
40.289891143772046 17.4235
40.3136069448471 17.3998
40.33750984859743 17.444000000000003
40.3612292688043 17.3557
40.3849504936829 17.3386
40.40867352466194 17.348
40.43258372059144 17.2817
40.45631038219906 17.3188
40.48003885420956 17.1874
40.503769138055105 17.2389
40.52768664931955 17.1961
40.55142057531802 17.2255
40.57515631746428 17.1461
40.599079334038514 17.099
40.62281872700477 17.0531
40.64655994043941 17.0035
40.67030297578061 17.0207
40.69423334835778 17.0652
40.71798004609188 17.039
40.74172857006355 16.9607
40.76547892171441 16.9298
40.7894166736039 16.8517
40.813170699248566 16.8534
40.83692655691388 16.8416
40.86068424804498 16.8248
40.884629402612525 16.8164
40.908390779366385 16.8165
40.932153993938 16.7285
40.95591904777605 16.6777
40.979871628443995 16.6913
41.003640379561936 16.6836
41.02741097430883 16.6817
41.05118341413683 16.6402
41.075143444384416 16.6169
41.098919593177826 16.5635
41.1226975914255 16.5648
41.14647744058318 16.5336
41.170444943946755 16.4807
41.19422851378379 16.5022
41.218013938914645 16.3874
41.24198706625173 16.365
41.26577622087193 16.3506
41.289567235177785 16.2921
41.31336011063129 16.2721
41.337340752422875 16.2567
41.361137369129835 16.2367
41.38493585138705 16.2024
41.40873620066004 16.1909
41.43272438060107 16.1178
41.45652848292052 16.0906
41.48033445666918 16.0823
41.50414230331616 16.0007
41.528138045159764 16.0101
41.551949656675205 15.9791
41.575763145513235 16.0166
41.59957851314666 15.9991
41.62358184070442 15.9895
41.64740098505737 15.9431
41.6712220126409 15.8627
41.69504492493139 15.8882
41.71905586207357 15.8134
41.74288256296395 15.8308
41.766711153007456 15.7511
41.79054163368412 15.7366
41.814560204340054 15.7873
41.838394485526365 15.7491
41.86223066180303 15.6848
41.88625497706819 15.6668
41.910094962812 15.6682
41.93393684811168 15.6348
41.95778063445365 15.4897
41.981812625263366 15.4866
42.00566023303407 15.5329
42.029509746323676 15.5072
42.05336116662236 15.4407
42.077400857069705 15.4873
42.10125611078846 15.4596
42.12511327600405 15.3907
42.14897235421036 15.329
42.173019768448455 15.386
42.19688269209613 15.3433
42.22074753323349 15.3354
42.24461429335818 15.2721
42.268669455600495 15.2304
42.292540073217886 15.2282
42.31641261433284 15.2098
42.34028708044675 15.1408
42.36435001496739 15.125
42.38822835065557 15.1524
42.41210861586426 15.1426
42.4359908120986 15.0534
42.46006154323262 15.0631
42.48394762115317 14.9927
42.507835634632315 15.0416
42.531912233047436 14.9877
42.55580413732265 14.9814
42.579697981698 14.9423
42.60359376768525 14.9164
42.62767820545945 14.8752
42.65157789440821 14.8838
42.67547952952185 14.8364
42.699383112316 14.8343
42.72347541395347 14.7986
42.74738291190531 14.7683
42.771292362102166 14.7416
42.795203766063516 14.6942
42.819303956130405 14.6587
42.843219287476536 14.597000000000001
42.86713657716324 14.5782
42.89105582671383 14.6467
42.91516392983864 14.6692
42.939087119032166 14.5266
42.963012272677304 14.4856
42.98693939230129 14.5431
43.01105543317513 14.482000000000001
43.034986504731386 14.4605
43.05891954686589 14.4344
43.08285456110972 14.4015
43.10697856448665 14.3931
43.130917542983475 14.3057
43.15485849820081 14.3549
43.17880143167367 14.3038
43.20293342237094 14.2142
43.226880332449 14.2556
43.25082922540554 14.2189
43.27496722682525 14.1921
43.29892010567796 14.1608
43.32287497204102 14.1767
43.34683182745632 14.1264
43.370977859791836 14.1157
43.39493871351105 14.064
43.41890156092628 14.0602
43.44286640358341 14.0546
43.46702049182749 13.9812
43.49098934522816 13.9622
43.51496019852649 13.9533
43.5389330532723 13.9684
43.56309522248204 13.942
43.58707210044314 13.9001
43.61105098451946 13.8623
43.63503187626491 13.8579
43.659202151562134 13.8054
43.68318707902681 13.7789
43.70717401884041 13.7592
43.731162972560874 13.7426
43.75534137913236 13.6945
43.779334381108384 13.6801
43.803329401683186 13.6495
43.82732644241872 13.6881
43.8515130055166 13.66
43.87551410707659 13.6118
43.89951723350145 13.6067
43.923709934595614 13.5049
43.94771713129917 13.5424
43.97172635758096 13.5224
43.99573761501002 13.4854
44.0199385169922 13.4768
44.04395385732619 13.43
44.067971233533086 13.3887
44.09199064718605 13.3825
44.11619977548961 13.3578
44.14022328470671 13.3246
44.16424883610785 13.3718
44.18827643127035 13.2848
44.21249381139513 13.2978
44.236525514814076 13.2446
44.26055926674478 13.2158
44.28459506876863 13.2593
44.3088207262813 13.1676
44.33286064928722 13.1312
44.35690262714919 13.1406
44.38094666145278 13.1023
44.4051806219871 13.1296
44.42922879003185 13.0566
44.45327901929361 12.9751
44.477331311362136 12.9818
44.501573600619416 13.0217
44.525630039221795 12.9593
44.54968854541895 12.9587
44.573937102200176 13.0102
44.5979997645541 12.8957
44.622064499300315 12.8785
44.64613130803592 12.8988
44.67038823869318 12.9066
44.69445921643748 12.8027
44.718532272981385 12.7435
44.742607409926194 12.7759
44.76687274034801 12.7527
44.79095205918753 12.6921
44.81503346325094 12.7401
44.839116954143876 12.7237
44.86339071028742 12.6812
44.88747839599524 12.634
44.91156817336837 12.579
44.93566004401666 12.562999999999999
44.959942251908146 12.5677
44.984038330325966 12.5292
45.00813650686762 12.4917
45.03223678314731 12.5016
45.05652746888232 12.481
45.08063196592069 12.4261
45.104738567558705 12.425
45.128847275414856 12.3966
45.15314646515866 12.3639
45.17725940679741 12.3815
45.20137445952892 12.3564
45.22568004865265 12.3694
45.24979934496396 12.3255
45.27392075725247 12.2914
45.29804428714431 12.2736
45.322358426247604 12.2743
45.346486212804315 12.2161
45.370616121861914 12.197000000000001
45.39474815505086 12.1764
45.41907087049246 12.149000000000001
45.4432071734666 12.1172
45.46734560548283 12.1136
45.49148616817604 12.0699
45.51581748638564 12.0784
45.5399623320197 12.0301
45.56410931325473 12.0134
45.58825843173002 12.0068
45.61259837920865 11.9822
45.636751793816 11.985999999999999
45.66090735060093 11.9581
45.68506505120716 11.8814
45.7094136545275 11.8872
45.73357566449271 11.8607
45.75773982322992 11.8707
45.78190613238733 11.8143
45.806263418194064 11.7968
45.83043404997326 11.7872
45.85460683713677 11.7666
45.87897065658495 11.7536
45.90314777634752 11.7231
45.92732705646868 11.6759
45.9515084986045 11.6777
45.97588104735473 11.6677
46.00006683541565 11.6548
46.02425479047904 11.6428
46.04844491420549 11.5717
46.0728262191024 11.6143
46.09702070211635 11.5609
46.12121735879483 11.5023
46.14541619080294 11.5231
46.169806278764455 11.4934
46.194009483459034 11.5071
46.21821486849841 11.4747
46.24242243555223 11.4087
46.266821333570014 11.4517
46.29103328674601 11.4205
46.31524742696538 11.3908
46.33946375590237 11.3611
46.36387149104216 11.3399
46.38809221957392 11.2946
46.41231514186606 11.2764
46.436540259597464 11.261
46.460956858999374 11.2483
46.48518638983522 11.2089
46.509418121166966 11.1811
46.533652054678114 11.1491
46.55807754555709 11.1777
46.58231590571962 11.1773
46.60655647313217 11.1301
46.630988654873654 11.1328
46.655233659129024 11.0809
46.67948087571551 11.0859
46.70373030632484 11.0628
46.72817142736393 11.0736
46.752425308428684 11.0328
46.77668140861147 11.0257
46.80093972960865 10.9355
46.82538981736788 10.9157
46.849652602470904 10.9209
46.87391761349769 10.874
46.8981848521493 10.8595
46.9226439341274 10.8407
46.946915650573224 10.8371
46.97118959976749 10.7979
46.99546578341598 10.8156
47.019933887188216 10.8099
47.04421456235744 10.7688
47.06849747711879 10.7148
47.09278263318286 10.7038
47.11725978640143 10.6961
47.14154944775105 10.6619
47.165841355555656 10.6362
47.1901355115306 10.6013
47.214621741924994 10.6172
47.23892041698887 10.6245
47.26322134538975 10.5435
47.28771440635075 10.5305
47.31201986422527 10.5709
47.33632758061436 10.5129
47.360637557241866 10.5161
47.38513974410611 10.5455
47.40945426407847 10.453
47.43377104948137 10.4412
47.45809010204344 10.4332
47.48260144275502 10.3945
47.506925052572285 10.4175
47.53125093475548 10.3402
47.55557909103813 10.350999999999999
47.58009961361992 10.3088
47.60443234110732 10.302
47.62876734791564 10.2991
47.65310463578333 10.2494
47.6776343683373 10.2648
47.7019762413987 10.2385
47.72632040075572 10.2013
47.75066684815169 10.2034
47.77520581885936 10.1565
47.799556865477655 10.1422
47.823910205386 10.1707
47.84826584033272 10.1166
47.87281407745551 10.0935
47.89717432569297 10.095
47.92153687423484 10.0557
47.94609208429692 10.0608
47.97045925671401 10.0262
47.99482873471275 9.99863
48.01920052005013 9.98896
48.04376504619224 9.98767
48.068141469543484 9.98569
48.09252020552573 9.98493
48.11690125590099 9.94258
48.1414751266064 9.890889999999999
48.16586082917454 9.9089
48.19024885144316 9.86759
48.2146391951793 9.8813
48.239222439012764 9.85327
48.26361744916137 9.836689999999999
48.28801478610016 9.81805
48.31241445160131 9.79221
48.337007097209366 9.78743
48.36141144338331 9.783
48.38581812345755 9.74879
48.41022713920929 9.72147
48.434829215320704 9.71678
48.45924292604658 9.70417
48.48365897780325 9.69943
48.50807737237308 9.65081
48.532688907799276 9.66709
48.55711201168574 9.60585
48.581537463754074 9.6101
48.60615611725119 9.61962
48.63058628942721 9.56529
48.65501881516546 9.514389999999999
48.6794536962573 9.51719
48.70408185970339 9.49762
48.72852147531801 9.492980000000001
48.75296345168211 9.46746
48.77740779059232 9.41559
48.80204549302823 9.43777
48.82649458091802 9.42308
48.85094603676547 9.37314
48.87539986237231 9.34948
48.90004713292306 9.37765
48.92450572200832 9.37769
48.94896668628025 9.3433
48.97343002754588 9.29064
48.99808689542115 9.30588
49.02255501470614 9.27018
49.04702551642794 9.24729
49.0714984023988 9.2236
49.096164896893235 9.203439999999999
49.120642575466796 9.19033
49.145122643748394 9.17859
49.16960510355558 9.146939999999999
49.19428125404938 9.1227
49.2187685210852 9.13926
49.243258185121555 9.13492
49.26794160167084 9.10609
49.2924360839405 9.09121
49.31693296869764 9.04823
49.34143225776915 9.01882
49.36612538195438 9.029810000000001
49.39062950396021 8.987630000000001
49.41513603578346 8.974689999999999
49.4396449792564 9.004710000000001
49.46434784069503 8.987589999999999
49.488861631846454 8.91142
49.513377840166804 8.9
49.537896467493745 8.87219
49.56260909589029 8.8557
49.587132585683285 8.88278
49.611658500018365 8.81962
49.636186840738596 8.851569999999999
49.66090926588511 8.86793
49.685442483902584 8.80739
49.70997813385706 8.741439999999999
49.734516217597076 8.788260000000001
49.75924846937352 8.726460000000001
49.7837914452858 8.74056
49.80833686055187 8.7216
49.83288471702571 8.67999
49.85762682540054 8.69748
49.882179588965734 8.68063
49.9067347993235 8.65475
49.93129245833333 8.65755
49.95604445336378 8.61715
49.98060703442832 8.56702
50.005172069746266 8.59075
50.02993150438364 8.60694
50.05450147301533 8.589189999999999
50.07907390151433 8.53689
50.10364879174981 8.49981
50.12841816587289 8.493260000000001
50.1529980044635 8.47374
50.17758031042124 8.4578
50.20216508562089 8.454089999999999
50.22694442953363 8.45321
50.25153416817468 8.413310000000001
50.27612638170508 8.41597
50.300721072005196 8.40882
50.325510416102105 8.32311
50.350110084975064 8.34061
50.37471223628208 8.36766
50.39931687190919 8.31783
50.424116246675766 8.2897
50.44872587605249 8.28847
50.47333799543065 8.276530000000001
50.49795260670191 8.27459
50.52276204271512 8.236939999999999
50.54738166295838 8.24003
50.57200378079314 8.21895
50.596628398116835 8.185410000000001
50.62144792604559 8.17182
50.646077567609396 8.17515
50.670709714377715 8.15647
50.69553683636198 8.12913
50.72017401885922 8.132530000000001
50.7448137122895 8.108410000000001
50.76945591856022 8.1191
50.79429318636823 8.06523
50.818940443716784 8.066989999999999
50.84359021965163 8.04833
50.868242516085964 8.02063
50.893089960641895 8.001430000000001
50.917747323549435 7.9919899999999995
50.94240721271973 7.98292
50.96706963007175 7.965610000000001
50.99192728239342 7.994339999999999
51.01659478166073 7.968439999999999
51.04126481489051 7.930810000000001
51.06593738400761 7.9318100000000005
51.090805275207074 7.87715
51.11548294172845 7.851360000000001
51.14016314993547 7.8474699999999995
51.164845901758845 7.842960000000001
51.18972406304274 7.806719999999999
51.21441192780656 7.77802
51.23910234200271 7.82902
51.2637953075678 7.791510000000001
51.288683770237945 7.73982
51.31338186432707 7.76025
51.33808251561888 7.7167
51.362978729967345 7.700810000000001
51.387684521509755 7.6984699999999995
51.41239287610203 7.69222
51.437103795691165 7.64555
51.46201036644977 7.65158
51.486726441956634 7.6125300000000005
51.51144508832545 7.65382
51.536166307509156 7.60125
51.56108326624387 7.55855
51.58580965706056 7.55837
51.61053862657523 7.60474
51.635270176746864 7.55705
51.66019755512065 7.524369999999999
51.68493429268881 7.46155
51.70967361681515 7.48573
51.73441552946465 7.482530000000001
51.759353359237934 7.474589999999999
51.7841004750961 7.4532300000000005
51.80885018539685 7.4409
51.833602492111254 7.44412
51.8585508051424 7.411569999999999
51.883308330926425 7.39849
51.90806845906181 7.39577
51.932831191525715 7.31442
51.95779001977161 7.34875
51.98255798721516 7.314710000000001
52.00732856494335 7.293189999999999
52.03229530577543 7.29162
52.057071130455945 7.262289999999999
52.081849571391054 7.27815
52.106630630568695 7.27513
52.13160794279417 7.25121
52.15639426492067 7.21541
52.18118321127822 7.19607
52.205974783860896 7.175
52.23096269971011 7.13254
52.255759551287994 7.1383600000000005
52.280559035098186 7.11765
52.30536115314103 7.08161
52.33035970494467 7.1142199999999995
52.35516711807904 7.0999300000000005
52.37997717147198 7.072310000000001
52.40478986713005 7.06888
52.42979908731974 7.04069
52.454617094216 7.03578
52.47943774942214 7.003080000000001
52.50426105495102 6.97726
52.529280976059844 6.97766
52.554109609024096 6.98177
52.57894089837482 6.99785
52.60377484613117 6.98022
52.62880550079408 6.959910000000001
52.65364479223379 6.90728
52.67848674816189 6.88675
52.70352547971946 6.8658600000000005
52.72837279155837 6.881539999999999
52.753222773982785 6.8487100000000005
52.778075429022984 6.8867199999999995
52.80312495150885 6.831589999999999
52.827982978797436 6.8455699999999995
52.85284368481815 6.802230000000001
52.87770707160767 6.788939999999999
52.90276741793998 6.75255
52.92763619336701 6.76053
52.952507655698504 6.7513
52.977381806977576 6.77718
53.00245301017842 6.72438
53.02733256653592 6.69872
53.052214817996074 6.661580000000001
53.077099766608484 6.66527
53.102181859804446 6.675889999999999
53.127072229988265 6.65505
53.15196530349892 6.61326
53.17686108239249 6.618580000000001
53.20195409881522 6.6435699999999995
53.22685531582556 6.587160000000001
53.25175924441303 6.50617
53.27666588664027 6.52346
53.30176985962693 6.54092
53.3266819565689 6.53686
53.35159677336455 6.55096
53.376514312083096 6.51248
53.40162927507703 6.51663
53.42655228516116 6.4698199999999995
53.45147802340193 6.48908
53.47660125628886 6.49305
53.50153247842639 6.4615599999999995
53.52646643496923 6.40449
53.55140312799818 6.4233
53.576537409691696 6.39535
53.60147960336152 6.39056
53.626424539786164 6.3741900000000005
53.65137222105307 6.32139
53.67651758529126 6.32543
53.70147078399681 6.32235
53.72642673383343 6.29322
53.75138543689533 6.25936
53.776541917524526 6.30092
53.801506154876755 6.282719999999999
53.826473151763246 6.24557
53.851442910284916 6.2247900000000005
53.87661054126026 6.21926
53.9015858509782 6.21708
53.92656392866066 6.19453
53.95154477641532 6.1896
53.976723591801296 6.14153
54.00171000771266 6.1387
54.02669920004598 6.161580000000001
54.051691170915745 6.13707
54.076881204886796 6.13324
54.101878760928514 6.04075
54.12687910187696 6.07134
54.152077577768296 6.06274
54.1770835166946 6.06094
54.20209224691339 6.08137
54.22710377055121 6.05309
54.25231352511594 6.04776
54.27733066384342 6.0079
54.30235060239643 6.0145800000000005
54.32737334290836 5.9713400000000005
54.35259441062629 5.94295
54.377622783395324 5.94458
54.40265396455061 5.95247
54.42768795623251 5.88462
54.45292037169559 5.92511
54.477960012857906 5.89993
54.50300247099511 5.88213
54.52804774825457 5.858630000000001
54.55329154616743 5.81236
54.57834249018678 5.81406
54.6033962597977 5.8208400000000005
54.6284528571545 5.769480000000001
54.653708072335164 5.75995
54.67877035378786 5.78865
54.70383546947698 5.69417
54.72890342156389 5.66854
54.7541700889442 5.59326
54.77924374251975 5.63373
54.8043202390049 5.63382
54.82959552413022 5.5911
54.8546777351945 5.55934
54.87976279569621 5.55581
54.90485070780914 5.552309999999999
54.930137506558005 5.5385599999999995
54.95523115074295 5.564769999999999
54.98032765308844 5.50285
55.005427015775496 5.47081
55.03072536339621 5.53426
55.05583047570572 5.42824
55.080938454927676 5.4394599999999995
55.10604930325027 5.41365
55.131359235107396 5.40909
55.15647585066083 5.38111
55.181595341907496 5.31695
55.20671771104285 5.34971
55.232039262617704 5.29442
55.25716741665048 5.22259
55.28229845518636 5.24797
55.30743238042802 5.19951
55.33276558731939 5.19033
55.357905315183636 5.15212
55.383047936390035 5.15185
55.40819345314859 5.12789
55.433538351073295 5.13848
55.458689688238415 5.11892
55.483843927614096 5.04805
55.509197623043605 5.029780000000001
55.53435769621134 4.94051
55.55952067826466 4.95274
55.5846865714265 4.95067
55.61005202069737 4.917619999999999
55.63522376553902 4.92735
55.66039842818645 4.91445
55.68557601087004 4.931369999999999
55.7109532500271 4.83319
55.73613670233794 4.81536
