TT I
1.2716486653135266 7.731889999999999
1.2939594142134223 7.322660000000001
1.3162702121660406 6.995760000000001
1.3385810600174564 6.4646099999999995
1.3608919586137629 7.04137
1.383202908801069 6.71793
1.405513911425503 6.46235
1.4278249673332093 5.952380000000001
1.4501343378461518 5.99377
1.4724455028545926 5.466559999999999
1.4947567236847858 5.61827
1.517068001182951 6.09319
1.5393793361953272 5.90297
1.5616907295681737 5.62944
1.5840021821477681 5.5149099999999995
1.60631369478041 5.14783
1.6286252683124185 5.1126
1.6509369035901333 4.8712
1.6732468618895553 5.04053
1.695558623192809 5.343
1.7178704487808514 5.17781
1.7401823395001077 5.34349
1.7625012545597203 5.13394
1.7848028405262486 4.82635
1.8071218901122095 4.7603
1.8294236121921872 4.60323
1.8517427996910911 5.09854
1.8740620574440425 5.38221
1.8963639900671978 5.169
1.9186833908139995 4.7714099999999995
1.9409854680117449 4.870830000000001
1.9633050151394713 5.09704
1.9856246367570705 4.54421
2.0079269371922672 4.8759
2.03024671027244 4.70341
2.0525491637446027 4.5989
2.074869091674931 4.36459
2.097171701569106 4.45207
2.1194917877373847 4.82988
2.141811954326636 5.04111
2.164114805233074 4.693230000000001
2.186435135143035 5.27221
2.208738150935709 9.30972
2.231058647554722 16.7246
2.2533792288321184 14.4118
2.275682498336085 7.63628
2.298003251406138 5.19599
2.3203066942619714 4.80091
2.3426276225136022 4.70545
2.3649486396617507 5.03175
2.387252348930071 5.0529
2.4095735463442893 5.96192
2.4318774374315884 5.693630000000001
2.4541988185014043 5.56957
2.476502894794693 5.834219999999999
2.498824462909887 6.28653
2.521146125856138 5.99664
2.5434504863470337 6.11736
2.5657723414244717 6.8463199999999995
2.588076895590662 7.87517
2.610398946189713 7.909689999999999
2.6327210958598384 7.336139999999999
2.6550259469304716 6.954280000000001
2.6773482972090137 7.364330000000001
2.6996533504259 7.76785
2.7219759047039602 7.263489999999999
2.744298562293959 7.71087
2.7666039251246595 7.6714
2.7889267918020164 8.18863
2.8112323652516555 8.150319999999999
2.833555444408179 8.5886
2.8558786311183852 7.753019999999999
2.8781845268938557 9.15355
2.9005079311721484 8.88296
2.9228140460410397 8.509319999999999
2.9451376712799635 9.39837
2.967444008632326 9.65771
2.9897678582247247 9.93201
3.0120918213106695 10.6195
3.0343984987899373 10.7593
3.0567226913198637 11.3932
3.079029599759726 11.5511
3.101354025127254 12.0767
3.123678568232338 12.4867
3.145985829517914 12.9158
3.16831061055229 13.3948
3.1906181112775593 14.0233
3.212943133635653 14.5859
3.2352682779763207 14.9988
3.2575761442691227 15.0597
3.2799015350264273 15.6711
3.302209649240067 16.0465
3.3245352898092655 16.5821
3.3468436553365257 17.0689
3.369169549113219 17.6821
3.3914955708171384 18.8868
3.413804319727358 18.5002
3.4361305997334863 18.7387
3.4584396084414553 19.7525
3.4807661501462652 20.6123
3.503092824025881 20.741
3.5254022288463154 20.9374
3.5477291695206588 21.8864
3.5700388426251948 22.4917
3.5923660534916446 23.3555
3.6146934007816114 32.3118
3.637003482731501 59.3028
3.6593311053109985 64.1307
3.681641464033634 41.3967
3.7039693653009733 27.6526
3.726297407241705 25.820999999999998
3.7486081875460804 25.3568
3.7709365132734978 26.1249
3.793247578841633 26.5198
3.8155761917550093 26.9266
3.8378875459837216 27.0615
3.8602164494827234 27.9362
3.882545499606844 28.3661
3.9048572932539183 28.8436
3.9271866390645718 29.2178
3.9494987298666713 30.0016
3.971828374764527 30.4673
3.9941581705403255 31.0407
4.016470713506008 31.6639
4.038800813471445 32.0141
4.061113662089144 32.8146
4.0834440696459176 33.611
4.105774632334751 34.0683
4.128087945865126 34.9166
4.150418821249301 35.1639
4.172732448931298 36.5124
4.195063640413578 37.965
4.2173775856475215 41.0844
4.239709096631102 59.5607
4.262040768704612 145.204
4.284355196706267 188.483
4.306687193387355 126.669
4.329001947444346 62.6447
4.35133427213731 45.6327
4.373666762177566 44.2829
4.395982011761091 44.3264
4.418314834921175 45.6033
4.44063041906622 50.5368
4.4629635787515625 56.6141
4.4852969080429785 56.9073
4.5076130004776225 53.1854
4.529946671403969 53.0272
4.552263106909177 53.2593
4.574597122877047 53.7307
4.596931312711224 53.9273
4.619248269273446 54.0805
4.6415828092605835 55.3584
4.663900117405352 56.2935
4.686235010953232 57.6846
4.708552674085913 59.1518
4.730887924602802 60.9814
4.753223354952695 62.6298
4.775541557023902 64.4622
4.797877349456786 66.6556
4.820195915032126 67.798
4.842532072957498 68.5249
4.864868414979744 71.0166
4.88718753227192 74.1846
4.909524244902505 75.8903
4.931843734218147 77.4064
4.954180820867835 80.0669
4.976518095879839 83.23899999999999
4.998838149695359 86.2211
5.021175803844231 90.3003
5.043496238205739 93.9818
5.065834274903528 98.661
5.088172504230693 104.414
5.1104935158799565 112.055
5.132832132875765 131.97899999999998
5.155153533596801 166.36599999999999
5.1774925416746225 226.43
5.199814334878411 526.649
5.2221537374521505 1410.23
5.244493338631803 3462.95
5.266815727034316 7734.55
5.289155727832427 11778.9
5.311478517248165 8638.43
5.333818921080011 2923.72
5.356159527788849 600.716
5.3784829252032536 205.43599999999998
5.400823940070432 154.899
5.423147747031976 134.792
5.445489173474152 123.279
5.467830807066149 119.40700000000001
5.490155234831516 115.075
5.512497285125229 110.446
5.534822130975162 107.79899999999999
5.557164601388673 104.773
5.579489868738879 101.695
5.601832762690846 100.74
5.6241758697774475 99.1269
5.646501775867269 98.5585
5.668845311622074 97.5239
5.691171647754637 96.8109
5.713515615597765 95.9792
5.735859800852677 95.2089
5.758186788542988 95.5005
5.780531411018185 96.3376
5.802858837297399 95.8291
5.825203900414495 96.3123
5.8475491852224 97.5294
5.869877275883075 97.117
5.892223006467101 97.3728
5.914551544266608 99.259
5.936897724049891 103.01799999999999
5.959244129804903 111.79299999999999
5.981573344815301 148.171
6.0039202049061 291.94
6.026249875609095 602.748
6.04859719346037 1183.4
6.070927323278297 2350.43
6.093275102315365 4284.31
6.115623113320588 5166.14
6.137953938319995 3299.1
6.160302415650845 1067.14
6.182633708324452 257.981
6.2049826554078376 119.926
6.227331838745022 96.3317
6.249663839443684 87.2524
6.27201349767565 83.4604
6.294345974611799 85.5199
6.316696111167083 90.1085
6.339046488263839 85.9026
6.361379686074702 76.9185
6.383730546639482 71.9264
6.406064229255215 70.4385
6.428415576718203 70.1771
6.450749747566656 68.7983
6.47310158535871 67.4593
6.495453669698332 66.25399999999999
6.517788579421056 65.3227
6.540141159237969 64.4525
6.562476565766648 64.3293
6.5848296444934045 63.2432
6.607182974060425 63.4181
6.6295191323281015 63.1775
6.651872965955752 64.6833
6.6742096296068985 78.2308
6.6965639707294615 102.84299999999999
6.71891856698715 102.475
6.741255995248479 78.9356
6.763611104154477 64.3478
6.785949046381137 59.8692
6.808304671371482 59.1795
6.8306605557940046 59.4594
6.852999275508618 58.5357
6.875355681171544 57.9054
6.897694923437771 57.5449
6.92005185377892 56.92
6.9423916220322655 56.9127
6.964749080490181 56.3931
6.987106804399774 56.117
7.009447368180821 56.2747
7.031805625367033 55.9208
7.054146723727803 55.8971
7.076505517631004 55.8377
7.098864581288365 55.8158
7.121206488070854 55.8739
7.143566093607822 55.4029
7.165908543567245 56.2846
7.188268694426048 55.7998
7.2106291193438095 55.5387
7.232972390625943 56.2469
7.255333366030969 62.5985
7.277677189091925 90.8108
7.300038718428332 116.039
7.322400526130865 103.57799999999999
7.344745183422596 73.7792
7.367107550224791 59.1882
7.389452767901992 56.0906
7.411815697249891 55.6643
7.434161478756298 54.4093
7.456524974096713 54.8291
7.478888753837185 54.5143
7.501235387657368 54.7994
7.523599738562711 55.0876
7.545946944825532 55.3591
7.568311870344528 55.6246
7.5906770845765665 55.8036
7.613025156078678 56.678999999999995
7.635390950099687 57.6681
7.657739602662809 56.8475
7.680105979923558 56.6337
7.702472650212829 57.1947
7.724822180948224 56.6492
7.747189439655568 56.7821
7.769539560075357 56.8419
7.791907410653562 57.3924
7.81425812420825 57.0436
7.836626570110925 57.5683
7.858995315087906 58.3793
7.881346924933401 58.4306
7.903716270417482 59.4685
7.926068482028405 59.5316
7.948438431475253 60.4439
7.9708086843180235 60.7944
7.993161805171116 61.284
8.015532667162402 61.4374
8.037886398416653 62.599
8.060257873014221 63.2821
8.082629655331942 64.072
8.104984308787587 64.6992
8.127356708900503 67.4198
8.149711981398308 71.4098
8.172085002766314 72.8559
8.194458336181368 71.0936
8.216814543847752 70.0242
8.23918850371002 70.6234
8.26154533906492 71.5634
8.283919928836452 73.2301
8.306277395339652 74.2178
8.328652618483376 75.7172
8.351028159736202 77.6393
8.373386579575245 80.0144
8.395762759396959 82.2655
8.418121819038275 86.6693
8.440498640894003 95.8391
8.462875785192262 110.25299999999999
8.485235811156207 139.194
8.507613602688501 209.33900000000003
8.529974277114228 316.069
8.552352719347912 466.278
8.574731488360351 741.485
8.59709314210385 1228.91
8.619472567021075 1821.88
8.64183487789147 2135.75
8.664214962183097 1826.21
8.686577933647762 1022.54
8.708958680784317 388.209
8.731339760774953 170.25099999999998
8.753703729764451 114.944
8.77608547780821 101.569
8.798450116065078 97.6516
8.820832535634787 94.5143
8.843215292401656 93.2559
8.865580941199045 91.9912
8.887964374703538 91.2379
8.910330701447199 91.3947
8.932714815164482 91.9276
8.955099270424924 90.6128
8.977466620733543 88.0984
8.999851761421976 86.7106
9.022219798361645 85.2496
9.04460562795561 84.7102
9.066991803441677 84.7796
9.089360876979615 84.5996
9.111747746589993 84.3837
9.13411751544971 83.5089
9.156505082664324 83.3645
9.178875550323522 83.3238
9.20126381862328 83.2534
9.223652438908596 83.4319
9.246023961427412 83.59100000000001
9.26841328802173 83.2629
9.290785518039224 83.6244
9.313175554425882 85.0155
9.335565947154315 85.3899
9.357939245086508 85.09
9.380330352834827 85.2783
9.40270436697103 85.7273
9.425096193225055 85.0797
9.447488380180165 85.8827
9.469863475295412 85.56700000000001
9.492256385987508 86.195
9.514632206018318 87.0419
9.537025843935714 87.0243
9.559402392368193 88.2098
9.581796761000229 89.4449
9.604191496441521 90.5994
9.626569144158516 93.064
9.648964615551032 95.8634
9.671343000390081 96.6851
9.693739211225699 95.6056
9.716135793237463 94.6343
9.738515290448102 95.3534
9.760912617143402 95.92399999999999
9.783292860202891 97.5712
9.805690935076182 99.6329
9.828089385495742 100.40899999999999
9.850470754023561 102.212
9.872869957865444 107.66
9.89525208097539 116.714
9.917652041736662 126.181
9.940052382417589 134.81
9.962435644102392 164.858
9.984836746950979 220.264
10.007220771957746 295.07
10.029622640473708 410.945
10.052007432299963 599.145
10.074410069984072 886.7239999999999
10.096813093716005 1279.01
10.119199042482517 1727.06
10.141602840636468 1915.97
10.163989564971628 1625.13
10.186394141051062 933.788
10.208799107559706 406.325
10.231187001965623 193.641
10.253592751657669 130.27700000000002
10.275981430388155 115.67399999999999
10.298387966769793 113.042
10.320794897965431 113.295
10.343184759907361 112.08200000000001
10.36559248305461 108.634
10.387983138083852 108.277
10.410391656691655 116.37899999999999
10.432800574501677 131.842
10.455192425893369 150.586
10.47760214443012 178.72
10.499994797678786 223.648
10.522405320453982 300.256
10.54479877906917 401.944
10.567210109595656 503.56300000000005
10.5896218454736 571.567
10.612016518879773 495.04400000000004
10.634429067781074 352.319
10.656824555333241 203.532
10.679237920773568 125.435
10.701651695961992 97.4551
10.724048411481384 91.1859
10.746463008485165 88.2051
10.768860546937125 86.6476
10.791275969274796 84.6478
10.81369180576079 83.2617
10.836090585366925 82.3153
10.858507252467449 80.9184
10.88090686379991 80.0446
10.903324365036394 79.476
10.925724811614439 79.0608
10.948143150509463 79.7694
10.970561909719066 79.1446
10.992963615930844 77.5528
11.015383218085756 75.763
11.037785768347074 74.3977
11.06020621697282 73.6949
11.082627090322113 73.1587
11.105030913430326 72.4896
11.12745263854165 72.8011
11.149857314510728 74.0675
11.172279894912576 77.2953
11.194702904450653 77.3744
11.217108866490921 74.6945
11.239532736615194 72.2625
11.26193956033512 71.0984
11.284364294577085 70.1393
11.306789462371718 68.8379
11.329197585398376 67.8193
11.351623622610898 67.8407
11.37403261614354 66.9875
11.396459526308487 67.0373
11.418869393879497 66.4346
11.441297180532617 65.9713
11.463725406927658 65.8991
11.486136592353875 65.3378
11.508565700543707 65.7358
11.530977768845315 66.9101
11.553407762368774 66.7639
11.575838200059769 66.4639
11.598251599479612 65.5546
11.620682927815501 64.6641
11.64309721895548 64.3283
11.665529441478206 63.7476
11.687962112597958 63.9492
11.710377748130886 63.7747
11.732811318753434 63.5739
11.755227854859067 63.6278
11.777662328529495 63.801
11.800079768750786 63.6366
11.822515149015453 63.3895
11.844950984084935 63.5572
11.867369787303163 63.2879
11.889806534289491 63.4209
11.912226250487029 63.8813
11.934663912939751 63.8261
11.9571020346363 63.8674
11.979523127133968 64.1892
12.001962169624331 65.5755
12.024384183972964 67.9177
12.046824150809913 72.1274
12.069264581333726 77.6504
12.091687985297767 83.9693
12.11412934550045 93.9953
12.136553680195208 109.061
12.158995973632788 130.68
12.181438735204349 156.625
12.20386447284199 184.50799999999998
12.226308172985636 201.93599999999998
12.24873485024193 203.847
12.271179492516982 170.386
12.293607112949127 124.97399999999999
12.316052700916226 92.2069
12.338498763250042 76.3507
12.360927805303868 68.9995
12.383374818673879 66.391
12.405804812803074 65.168
12.428252780773262 65.1428
12.45070122756722 65.3394
12.473132656675375 65.1035
12.49558206341869 65.6256
12.518014453510101 65.2385
12.540464823770117 65.4899
12.562915677315177 65.795
12.58534951575545 66.1673
12.607801338171472 67.3556
12.630236146511358 70.2559
12.652688941369085 72.7879
12.675124723177234 73.3915
12.697578494048786 71.6714
12.720032754458185 69.5928
12.742470003354093 68.6375
12.764925245138771 68.9179
12.787363476431278 68.9905
12.809819703166806 69.6457
12.83227642391173 70.4237
12.854716135692716 70.8708
12.877173846755147 72.0624
12.899614549869717 72.3113
12.9220732548287 72.9579
12.94453245827299 73.7374
12.966974655289818 74.8048
12.989434858002571 75.6958
13.011878055298721 76.3432
13.034339260862497 77.4839
13.056800969391883 78.8332
13.079245674017244 81.9485
13.101708390774869 86.7589
13.12415410463411 97.2704
13.146617833206086 109.898
13.169064559883248 122.316
13.191529303857127 138.253
13.213994557076367 162.741
13.236442809902437 199.524
13.258909083908291 251.07299999999998
13.28135835851934 304.99
13.30382565690295 369.82599999999996
13.326293469022952 416.665
13.348744283242008 421.579
13.371213125129904 356.945
13.39366497011003 261.682
13.416134845360597 170.78
13.438605238843131 124.301
13.46105863690397 111.568
13.483530069144786 113.62799999999999
13.505984506951902 119.89299999999999
13.528456981549432 130.778
13.550929978879088 146.619
13.573385983253365 170.771
13.595860028340867 207.415
13.618317081455832 252.935
13.64079217790333 299.324
13.663250283359057 340.144
13.685726434770173 368.094
13.708203115221277 338.19699999999995
13.730662806148091 267.781
13.75314054697177 187.834
13.775601299246777 128.517
13.798080104050406 98.1607
13.820559442405358 86.926
13.843021793671388 82.8761
13.865502201420897 81.4694
13.887965623051947 80.8893
13.910447103807167 79.9425
13.932929122629764 78.484
13.955394156785959 78.0223
13.977877254034569 77.183
14.000343367582113 76.2517
14.022827546871707 75.7708
14.045294743423524 75.036
14.06778000837062 74.1802
14.090265817715476 74.0334
14.112734645763819 73.5658
14.13522154619454 73.1808
14.157691466286913 73.1856
14.180179461423874 72.7646
14.202668005486178 72.5279
14.22513957064374 71.7834
14.247629214846473 71.5533
14.270101881097517 71.4547
14.29259262906496 71.4585
14.315083930490205 71.9469
14.337558255389705 71.8074
14.360050666019726 71.7314
14.382526101071944 70.988
14.405019624534942 70.1918
14.427513705993134 69.8836
14.449990813291825 69.9392
14.47248601302899 69.8014
14.49496423954951 70.0514
14.517460561197822 70.0528
14.539939910570322 69.8567
14.562437357763558 70.307
14.58493536931253 70.9032
14.607416409993311 71.6936
14.62991555254159 71.9821
14.652397725157423 71.9076
14.674898002342799 71.84
14.697398848433282 72.0183
14.719882725991326 73.1713
14.74238471217934 75.7218
14.764869730765593 80.4835
14.787372860692983 83.9377
14.809876564079925 88.5843
14.83236330125751 95.045
14.854868153850365 104.80799999999999
14.877356041159485 118.225
14.899862046604186 135.876
14.922351087688757 157.366
14.944858249632887 181.85299999999998
14.967365991421232 203.22299999999998
14.989856770231246 216.832
15.012365673994204 215.238
15.03485761569738 187.375
15.05736768508665 147.736
15.07987833888692 114.265
15.102372032001655 90.4887
15.124883856909658 77.6912
15.14737872204565 73.2707
15.169891721717274 71.4662
15.192405310371893 71.4405
15.214901940621196 71.4826
15.237416709527137 70.8616
15.259914520936249 70.9807
15.282430473753607 70.1725
15.304947020131227 69.1924
15.327446610371178 68.6857
15.349964346154254 68.1272
15.372465126703139 67.8373
15.394984055556009 67.7943
15.417486030076159 67.6568
15.44000615566487 67.1884
15.462526881230803 66.8983
15.485030653812652 67.0824
15.507552581617434 66.8719
15.530057557334603 67.0431
15.55258069104857 66.8757
15.575104429329837 67.5005
15.597611216864632 67.1603
15.620136166564563 67.9588
15.6426441664095 70.0418
15.665170331202765 73.2672
15.687697105158826 76.4376
15.710206930593545 80.0194
15.732734925158933 84.6352
15.755245972089478 91.4146
15.77777519094324 101.057
15.800287463046663 113.73299999999999
15.822817909869592 130.528
15.84534897229804 148.453
15.867863089299354 168.71400000000003
15.890395385222186 183.149
15.912910736597423 191.044
15.935444269699861 181.5
15.957978423016485 155.031
15.980495633101265 123.06299999999999
16.003031029129367 95.3365
16.02554948280019 76.7303
16.048086125229432 68.1794
16.070623392487107 65.5575
16.09314371869582 64.3193
16.11568223789321 63.5261
16.13820381691126 62.7944
16.160743591742527 61.8458
16.183283996022084 61.3838
16.205807461423195 60.2233
16.228349126881973 59.739
16.25087385432698 59.5899
16.27341678466365 59.1993
16.29594277784926 59.0098
16.31848697676433 58.8423
16.341031811604868 58.8482
16.36355971058487 59.0779
16.3861058195587 58.8472
16.40863499352978 57.9846
16.431182380342005 57.3559
16.453730407713202 56.9576
16.476261501364792 56.7929
16.498810812136167 56.3314
16.52134319004079 56.506
16.54389378792203 56.2729
16.566445031001553 56.148999999999994
16.588979342490088 56.0639
16.61153187824822 55.7422
16.634067483263312 55.6741
16.656621315414416 55.6451
16.679175797408888 55.4381
16.701713349928728 55.4428
16.72426913389191 55.6183
16.74680798922351 55.3977
16.76936507887444 55.583999999999996
16.791905240734874 55.6191
16.814463639794468 55.5051
16.837022695210294 55.5406
16.859564824093756 55.8141
16.882125194503903 56.2093
16.904668639217885 56.6405
16.927230328348003 56.8345
16.949792678493612 56.8391
16.972338104193863 56.5764
16.994901778652235 56.3693
17.017448529496576 56.6604
17.040013531998152 57.086000000000006
17.06257920018044 57.7822
17.0851279459922 58.70399999999999
17.107694947817667 59.4599
17.130245028099072 60.3756
17.15281336730298 61.592
17.17536478578733 63.3683
17.19793446610687 65.9512
17.220504818648422 68.6684
17.243058251703697 71.4692
17.265629950971032 75.2014
17.288184731571736 78.7506
17.310757781306908 82.4542
17.33333150794385 83.5277
17.355888317140174 82.7361
17.37846339986244 77.9055
17.401021565958885 71.6202
17.42359800851343 66.4545
17.44617513265564 62.911
17.468735341390783 61.163999999999994
17.491261035594565 60.1115
17.51396340099364 59.9808
17.536490463869136 60.1039
17.559018209820174 59.9904
17.58154663977963 60.2344
17.604251766089718 60.5363
17.626781572227713 60.6726
17.64931206518155 60.5686
17.671843245885103 61.2718
17.69455114821572 61.5116
17.717083712612634 61.7424
17.739616967569667 61.9831
17.762150914021706 62.5852
17.78486160749854 62.8086
17.807396945166804 63.8998
17.829932977143503 65.2944
17.85246970436452 67.2505
17.875183204129467 69.1551
17.897721330097664 71.1617
17.920260154126645 73.9334
17.942799677153296 77.2355
17.9655159983646 81.0886
17.988056927677544 86.6311
18.010598558807683 94.2831
18.033140892692916 102.662
18.05586005052525 111.788
18.07840379824407 121.772
18.10094825154059 132.306
18.12366954819864 140.15200000000002
18.146215420998306 140.762
18.16876200220057 132.982
18.191309292745153 119.865
18.214033452627167 105.774
18.236582170236648 94.2988
18.259131600016456 88.7707
18.281681742907335 88.5043
18.304408781233683 91.8975
18.32696035875955 95.7972
18.349512652227624 100.234
18.372065662579683 105.23
18.394795594587553 106.84200000000001
18.41735004715306 103.787
18.43990521943684 97.3166
18.46246111238171 87.4029
18.485193953325208 77.9667
18.507751296070428 70.77199999999999
18.530309362314178 66.8229
18.552868153000343 64.4483
18.57560391815056 63.1801
18.59816416623245 62.6124
18.620725141597372 62.2563
18.643286845190268 61.8567
18.666025549835414 61.2957
18.688588718427933 60.8521
18.711152618092243 60.6642
18.73389353884365 60.3703
18.75645890921984 59.8156
18.77902501351406 59.5654
18.801591852673102 59.4727
18.824335739722738 59.0075
18.846904057212626 58.9683
18.8694731124168 58.6658
18.89204290628315 58.6417
18.914789774966803 58.2535
18.937361054791623 58.0601
18.959933076131318 57.9968
18.982505839934877 57.7297
19.00525570560582 58.0437
19.027829963004184 57.8069
19.05040496572238 57.8741
19.072980714710468 58.0749
19.095733592739563 58.3049
19.11831084296757 58.527
19.140888842324735 58.903999999999996
19.16346759176222 59.3684
19.18622349753803 59.8698
19.208803755869358 60.9733
19.231384767143577 62.1469
19.253966532312948 63.7809
19.276725481241822 65.5573
19.29930876296784 67.7612
19.3218928014549 70.1442
19.34465404436217 72.6462
19.36723960516257 75.4488
19.389825925592426 76.5346
19.412413006605938 76.315
19.43517731967805 73.0546
19.457765930683355 68.487
19.48035530514408 63.9289
19.50294544401556 60.0553
19.525712842708348 57.5673
19.54830451925909 56.0458
19.570896963095727 55.0527
19.593490175174704 54.7572
19.616260674962184 54.6782
19.638855432416964 54.4011
19.661450960992624 54.505
19.68404726164677 54.3693
19.706820878021247 54.2116
19.729418731756834 54.6283
19.752017360452857 54.2872
19.77461676506804 54.5133
19.797393513540218 54.8017
19.819994478951667 55.0454
19.84259622316767 55.5053
19.8651987471481 55.958999999999996
19.887978643247177 56.143
19.91058273574792 56.7103
19.933187610901943 57.69
19.955969879466828 58.8098
19.97857632894404 60.4492
20.00118356396599 61.7272
20.023791585494575 63.6922
20.046577028914875 66.0577
20.069186632506966 68.0405
20.091797025500632 69.7913
20.114408208858933 70.7342
20.137196842715273 70.6412
20.159809615886765 69.1665
20.18242318232135 66.6316
20.20503754298326 64.4881
20.227829382875154 63.3354
20.250445341109344 63.0916
20.27306209647285 63.4772
20.29567964993108 64.4284
20.31847471147704 65.3582
20.34109387027612 66.047
20.363713830075454 66.0389
20.386334591841646 64.7354
20.409132890679302 61.9545
20.431755265564437 58.8507
20.454378445325528 56.2974
20.477002430930366 54.1797
20.499803982716553 52.698
20.522429589228004 52.056000000000004
20.54505600449589 51.6029
20.567683229489194 51.4794
20.590488049900088 51.2329
20.61311690359731 51.0376
20.63574656993626 50.8958
20.658553853717297 50.3229
20.681185154618298 50.4909
20.703817271080066 50.2707
20.72645020407368 49.9323
20.749260783967177 49.6203
20.771895359337133 49.7008
20.794530754161617 49.798
20.817166969412938 49.7009
20.83998086114876 49.7191
20.86261872660049 49.6857
20.885257415405402 49.5851
20.90789692853701 49.672
20.930714147864748 49.4993
20.953355319030678 49.4525
20.97599731745334 49.5685
20.99864014410749 49.4084
21.021460706796564 49.3307
21.044105199328826 49.5514
21.06675052302631 49.9106
21.089396678865015 50.1445
21.112220600704806 50.4028
21.134868430275347 50.828
21.15751709492456 50.9083
21.180166595629693 51.1171
21.202993892429635 51.3807
21.22564507473034 51.7905
21.24829709602816 51.9883
21.27112693608965 52.196000000000005
21.293780644891275 52.3069
21.316435195634053 51.5624
21.339090589297417 50.8543
21.361923832041875 50.2672
21.384580921090404 49.6581
21.407238856007325 49.2165
21.429897637773326 49.2049
21.45273429906592 49.4482
21.475394784108598 49.3055
21.498056118951983 49.2644
21.520718304578022 49.2853
21.543558400304388 49.705
21.566222297108816 49.8412
21.58888704765135 50.0411
21.61155265291521 50.4345
21.63439619898156 50.765
21.657063523335786 51.0517
21.67973170537063 51.5877
21.7024007460706 52.0974
21.72524775840385 52.8407
21.747918526116475 53.955
21.770590155457388 55.3194
21.79326264741238 56.8343
21.816113141960237 58.1882
21.838787368860547 59.9106
21.861462461341976 61.5146
21.884315579735777 63.3452
21.90699241312273 64.809
21.92967011506078 65.343
21.95234868653799 65.2219
21.9752053151131 64.0631
21.997885635446785 62.1962
22.020566828293532 60.2525
22.04324889464272 58.4619
22.066109049404666 57.0691
22.088792872571794 56.5819
22.111477572219204 56.4594
22.1341631493376 56.6273
22.157026846313123 56.5154
22.179714188221507 55.8987
22.202402410582668 55.0909
22.22509151438863 53.5808
22.24795876962584 52.1134
22.270649646204486 51.2622
22.293341407213727 50.7229
22.316034053646906 50.0466
22.338904883215342 49.7207
22.36159931041458 49.761
22.38429462602756 49.6568
22.40699083104897 49.5433
22.429865251039757 49.3338
22.452563244831367 49.4594
22.47526213102522 49.5398
22.49813925616515 49.4297
22.520839937143307 49.3091
22.543541513520587 49.4997
22.56624398629403 49.2627
22.589124730075895 49.3726
22.611829005656723 49.6345
22.63453418063466 49.6573
22.657240256008077 49.9038
22.680124634582935 50.0265
22.70283252079775 50.4593
22.725541310413075 50.7443
22.74825100442868 50.7278
22.771139033969575 51.3628
22.79385054687155 51.4906
22.81656296718292 52.3498
22.83927629590484 53.2051
22.862167992606945 54.0087
22.88488314827121 55.093999999999994
22.907599215359284 55.7626
22.93031619487366 56.6041
22.953211574954405 57.4516
22.975930389478226 58.3566
22.998650119445763 58.5901
23.02137076586092 57.8156
23.044269845560063 56.6799
23.06699233506288 55.2212
23.089715744034912 53.2767
23.112617610931565 51.8027
23.135342869061212 50.7116
23.158069049684816 49.95
23.1807961538087 49.6007
23.20370174880544 49.8295
23.226430710184808 49.7935
23.249160598093425 49.9809
23.271891413539002 49.8202
23.294800752937697 49.7525
23.31753343374794 50.0147
23.340267045128353 50.2032
23.36300158808808 50.6639
23.38591468821339 50.784
23.408651104658304 51.3704
23.431388455719986 52.0494
23.454126742409 52.7586
23.4770436196085 53.5488
23.499783787914662 54.7778
23.522524894889884 55.5269
23.54526694154616 56.3691
23.56818761219047 57.4896
23.59093154860734 58.0575
23.613676427751283 58.4352
23.636422250635754 57.7787
23.659346731118656 56.3231
23.68209445191868 54.3097
23.704843119509587 52.3144
23.72759273490623 50.3948
23.750521041644767 49.0348
23.77327256312355 47.8444
23.796025035462787 47.3501
23.818956224555475 46.8047
23.841710609113413 46.7598
23.86446594758979 46.4422
23.887222241002014 46.2133
23.910157285144578 45.9504
23.932915498962537 45.8352
23.955674670778713 45.8044
23.978434801611975 45.6351
24.001373717286125 45.3214
24.024135776723917 45.2686
24.046898798245582 45.1775
24.06966278287146 44.9737
24.092605586582614 44.8833
24.115371508023642 44.8518
24.1381383956401 44.8027
24.16090625045381 44.606
24.183852958731244 44.5187
24.206622758582608 44.3729
24.229393528706886 44.2615
24.252165270127392 44.4266
24.27511589952438 44.3172
24.297889594216997 44.082
24.32066426328598 43.8779
24.34343990775613 43.9429
24.36639447485003 43.7884
24.38917208083877 43.7651
24.41195066531332 43.6073
24.43490819850244 43.8729
24.457688750692377 43.736000000000004
24.48047028445616 43.5698
24.503252800821233 43.7122
24.526214300784112 43.7772
24.548998793132213 43.623000000000005
24.57178427117417 43.5518
24.59457073593893 43.5944
24.617536219319863 43.7217
24.64032466834748 43.5894
24.663114107195035 43.4496
24.685904536893013 43.1361
24.708874020360852 43.202
24.731666442613744 43.1513
24.754459858818787 43.0247
24.777254270007962 42.9517
24.80022777025625 42.8945
24.82302418230472 42.9249
24.845821592443674 42.9497
24.86862000170663 42.9375
24.891597535453727 42.7933
24.914397953892728 43.053999999999995
24.93719937456671 42.955
24.96000179851076 43.1541
24.98298338249997 43.4118
25.00578782394922 43.6089
25.028593271784167 43.6752
25.05157790644186 43.9459
25.07438537804115 44.0908
25.097193859145293 44.1756
25.120003350792075 44.4057
25.142992065061257 44.7431
25.165803588823465 45.1774
25.18861612625217 45.3998
25.211429678386736 45.4707
25.234422489079968 45.4798
25.257238081693636 45.5925
25.280054692141732 45.4791
25.3028723214652 45.2856
25.325869245420463 45.5201
25.348688923599397 45.5341
25.371509623787006 45.5773
25.394331347025812 45.2057
25.41733240110666 44.9091
25.440156181590016 44.2252
25.46298098826268 43.6382
25.48580682216873 43.0618
25.50881202326435 42.4952
25.53163992281684 42.0591
25.55446885274561 41.9717
25.577298814096377 41.604
25.600308179121807 41.5456
25.623140214533745 41.4693
25.64597328451537 41.4466
25.66898578564376 41.1725
25.691820936010206 41.1681
25.714657124097695 41.3154
25.737494350954734 41.2663
25.760511045684957 41.1058
25.783350361364224 41.191
25.806190718969255 41.1863
25.82903211955018 41.2282
25.852053024868923 41.2954
25.874896522722523 41.2822
25.897741066713106 41.2842
25.920586657892454 41.3451
25.943611790812668 41.4919
25.966459487728237 41.6943
25.989308234998564 41.6886
26.01215803367705 42.1125
26.03518741123814 42.1458
26.05803932412957 42.1237
26.080892291600094 42.0782
26.10374631470478 42.1519
26.12677995397268 42.2844
26.14963609978026 42.3589
26.172493304397875 42.0934
26.19535156888223 41.8423
26.218389486949604 41.3548
26.241249882640123 41.1912
26.26411134137826 41.0242
26.28715248187403 40.9852
26.31001607820869 40.8616
26.3328807407756 40.7635
26.35574647063438 40.8727
26.37879191991473 40.7602
26.401659795896734 40.7945
26.424528742360263 41.0306
26.447398760366614 41.1311
26.470448535598294 41.2866
26.49332070826805 41.4225
26.516193955675355 41.7607
26.53906827888316 41.8975
26.562122397260108 42.0457
26.584998883685063 42.3221
26.607876449110325 42.4253
26.63075509460056 42.6451
26.65381357334404 42.8055
26.67669439061878 42.8239
26.699576291163382 42.7239
26.722459276044212 42.6519
26.745522132402975 42.3057
26.768407297649354 41.9178
26.791293550442003 41.5962
26.814180891848974 41.4181
26.837248143099337 41.1739
26.860137673466657 41.1084
26.88302829566349 40.8726
26.90592001075963 40.6961
26.92899167420566 40.5857
26.951885586870763 40.1271
26.974780595655517 39.8063
26.99785558178161 39.821999999999996
27.020752794605112 39.6024
27.043651106772522 39.5015
27.06655051935668 39.5817
27.089629948036183 39.3013
27.112531573292053 39.3876
27.135434302194138 39.3931
27.158338135817015 39.1675
27.181422024430987 39.288000000000004
27.204328079372566 39.0917
27.22723524226965 39.0855
27.250143514198573 39.2088
27.273231880156334 39.1059
27.296142382065014 39.1179
27.319053996245536 39.071999999999996
27.341966723775965 39.0411
27.365059584515222 39.0377
27.38797455070062 39.0988
27.410890633481237 38.951
27.433807833936918 38.8725
27.456905206923906 39.1023
27.47982465472398 39.0301
27.502745223449743 39.0605
27.525666914182825 39.2869
27.548768816912457 39.284
27.571692763693633 39.196
27.59461783573812 39.0862
27.617723149491244 38.845
27.640650484125285 38.8365
27.66357894728264 38.8133
27.686508540048052 38.6821
27.709618414237887 38.7405
27.732550278321757 38.5516
27.755483275279115 38.5451
27.778417406196485 38.4391
27.801531858397514 38.58
27.824468269376716 38.3999
27.847405817586786 38.4908
27.870344504116094 38.7033
27.893463551932008 38.7731
27.916404527281053 38.9421
27.93934664422563 38.9456
27.962289903855886 38.9518
27.98541356491974 39.1803
28.00835912214229 39.355
28.03130582533231 39.5806
28.054253675581805 39.6975
28.077381967556104 39.6109
28.100332124185126 39.7025
28.123283431160893 39.5331
28.146235889577238 39.3896
28.169368830154156 39.2233
28.192323603752033 39.021
28.215279532083304 38.7347
28.238415973016764 38.5306
28.261374223145094 38.226
28.284333631303806 38.1445
28.307294198589954 38.073
28.330435319167677 37.7545
28.353398217078915 37.5839
28.376362277420153 37.2484
28.39932750129032 37.1298
28.422473319286713 36.9278
28.44544088262495 36.9627
28.468409612800283 36.7342
28.491379510913497 36.6322
28.51453004413313 36.5232
28.53750229057244 36.5436
28.56047570826344 36.3571
28.583450298308804 36.4231
28.606605564586562 36.3346
28.629582511831156 36.2635
28.65256063474956 36.1995
28.675539934446338 36.201
28.698699951647605 36.129
28.72168161743193 36.1228
28.74466446331978 36.1244
28.767648490417624 35.9871
28.790813276438353 35.9196
28.813799678527303 35.946
28.836787265157085 35.9478
28.859955641890075 35.9202
28.882945610203045 35.9745
28.905936766392035 35.888000000000005
28.928929111566863 35.9251
28.952102288520145 35.8547
28.975097024308607 35.6546
28.998092952423807 35.5276
29.021090073977508 35.5375
29.04426806913204 35.3765
29.067267590245258 35.2613
29.090268308143695 35.2499
29.11327022394099 35.1651
29.13645305530891 35.0056
29.159457379627167 35.0206
29.18246290519685 34.8978
29.20546963313352 34.8278
29.22865731875826 34.8929
29.25166646419296 34.8551
29.27467681535305 34.7415
29.29768837335608 34.9075
29.320880931312562 34.7794
29.34389491580634 34.8128
29.366910110507334 34.8102
29.38992651653503 34.7448
29.41312396492981 34.8756
29.436142806456754 34.6677
29.45916286268059 34.5705
29.48236399319994 34.4554
29.50538649169417 34.257
29.528410208259935 34.2401
29.55143514402014 34.1247
29.574641196749695 33.9851
29.597668583816574 33.769
29.6206971934585 33.6135
29.64372702680042 33.6757
29.666938019934474 33.6252
29.689970313635285 33.5226
29.713003834422636 33.5686
29.73603858342347 33.4391
29.759254535188578 33.3486
29.78229175361658 33.3776
29.80533020365064 33.4675
29.82836988641968 33.4898
29.85159081507472 33.3543
29.874632976355343 33.275
29.89767637376955 33.3143
29.920721008448314 33.1654
29.9439469322847 33.0846
29.96699405457564 33.0739
29.9900424175358 33.1471
30.013092022298157 33.0868
30.03632295963995 32.9756
30.059375061131373 33.06
30.08242840783577 33.0378
30.105483000888153 32.9082
30.128718970092244 32.9072
30.151776069006917 32.9974
30.17483441768648 32.9228
30.198074175317235 32.8928
30.221135036724256 32.9785
30.24419715131772 32.9498
30.267260520236203 32.7716
30.290505341942243 32.8671
30.313571232750228 32.8229
30.336638381310948 32.7883
30.35970678876503 32.8549
30.38295669299435 32.701
30.40602763151657 32.7154
30.429099832366074 32.6771
30.452173296685572 32.5032
30.47542830191959 32.5498
30.498504306502497 32.5906
30.521581577995562 32.6673
30.544660117543582 32.6827
30.56792024229725 32.7286
30.59100133132069 32.7082
30.614083691845494 32.5854
30.637167325018545 32.7336
30.660432587840603 32.7618
30.683518779717886 32.7029
30.70660624769615 32.6835
30.729694992924372 32.7068
30.75296541239743 32.703
30.77605672557558 32.6103
30.799149319462742 32.6235
30.8224236211637 32.4384
30.845518789950724 32.4062
30.868615242910597 32.3761
30.891712981195973 32.2646
30.91499247215866 32.1371
30.938092794619365 32.0469
30.96119440587579 31.9226
30.984297307082752 31.9258
31.00758200598383 31.8071
31.030687500658694 31.6716
31.053794288760695 31.6631
31.076902371446767 31.6206
31.100192296997445 31.585
31.12330298246119 31.5276
31.14641496599209 31.3994
31.169528248749216 31.4219
31.19282341969534 31.4614
31.215939314557186 31.4844
31.239056512134788 31.4563
31.262175013589378 31.3883
31.28547544871168 31.4024
31.30859657161541 31.3405
31.331719001892175 31.3614
31.35484274070538 31.4199
31.378148458819545 31.4559
31.401274828443725 31.3674
31.424402510106933 31.3377
31.447712205419993 31.4593
31.470842524931633 31.2931
31.493974159989783 31.271
31.51710711176168 31.2699
31.54042212308802 31.2608
31.563557722100917 31.2158
31.586694641341655 31.0499
31.609832881979628 30.9591
31.63315322823208 30.8916
31.656294125521327 30.785
31.679436347728515 30.8549
31.70257989602529 30.7115
31.725905596152327 30.7229
31.74905181052835 30.5355
31.772199354521323 30.6627
31.79534822930507 30.5878
31.818679302290967 30.6844
31.84183085259981 30.5615
31.864983737233473 30.5444
31.88813795736804 30.6065
31.911474422233013 30.4991
31.934631327356435 30.5636
31.9577895715215 30.3987
31.980949155906522 30.469
32.004291031706956 30.4119
32.027453310562606 30.3888
32.05061693318573 30.1577
32.07396288236386 30.2332
32.09712920658542 30.1945
32.12029687812702 30.0657
32.14346589817093 29.9509
32.166817291729984 30.0003
32.18998902288583 29.8748
32.21316210610336 29.7558
32.23633654256711 29.7462
32.259693399663725 29.7436
32.282870556771144 29.6621
32.30604907069099 29.703000000000003
32.329228942610065 29.5583
32.35259128243769 29.4121
32.375773884550505 29.3802
32.398957848235646 29.3914
32.422143174682176 29.3534
32.445511016471215 29.1823
32.468699082679954 29.0891
32.49188851523011 29.1178
32.51507931531304 29.139
32.538452678331 29.0992
32.56164622776311 29.1118
32.58484114831493 28.9452
32.60803744118015 28.9207
32.631416344731896 28.9324
32.654615396551876 28.8959
32.67781582427913 28.8936
32.701198898634416 28.8571
32.72440209253756 28.6947
32.747606665947124 28.7147
32.77081262006088 28.5415
32.79420126883317 28.5672
32.81740999876112 28.5742
32.840620112999424 28.5177
32.86383161274818 28.4737
32.88722585534586 28.5155
32.91044014056596 28.5761
32.933655814909734 28.4439
32.95687287957963 28.4373
32.98027273544904 28.3052
33.00349259526636 28.3467
33.026713849030116 28.3127
33.04993649794511 28.3135
33.073341986570746 28.2498
33.09656744032826 28.2438
33.11979429286444 28.2179
33.14302254538647 28.2395
33.166433686291185 28.1258
33.18966475336992 28.0722
33.212897224069096 28.0574
33.23613109959831 27.9952
33.259547912343415 27.8847
33.2827846121627 28.0878
33.306022720453775 28.0336
33.32926223842861 27.7776
33.352684742614166 27.8797
33.37592709463173 27.8521
33.399170859982064 27.7527
33.422597648419426 27.6409
33.44584425514446 27.5013
33.46909227885668 27.5651
33.4923417207723 27.3838
33.51577423505344 27.4695
33.539026528130385 27.3501
33.56228024307245 27.3522
33.585535381098246 27.1674
33.60897364093058 27.1552
33.63223163992385 27.211
33.6554910656699 27.1163
33.678751919389796 27.0984
33.702195944520106 26.9998
33.72545966903325 27.0727
33.74872482519663 26.9658
33.771991414233746 27.0138
33.79544122444841 26.8826
33.81871069412428 26.7888
33.84198160035767 26.7274
33.86525394437455 26.7863
33.88870955949969 26.6329
33.911984794020626 26.7409
33.93526147001624 26.7394
33.958539588715006 26.6233
33.98200102861669 26.5063
34.0052820477047 26.434
34.02856451319451 26.3924
34.05203033759056 26.3925
34.07531571090147 26.4202
34.09860253431845 26.3335
34.121890809074316 26.3195
34.145362493118924 26.3744
34.16865368561615 26.1847
34.191946333164054 26.1935
34.21524043699793 26.2042
34.23871800066799 26.1798
34.26201503218366 26.037
34.28531352370466 25.9711
34.30861347646881 25.9008
34.33209693978188 25.9379
34.3553998301885 25.9654
34.378704185565205 25.8769
34.402010007152356 25.8065
34.42549939016683 25.7497
34.44880815937748 25.7445
34.472118398533134 25.6747
34.49543010887669 25.6919
34.51892543169198 25.5403
34.54224009966052 25.6064
34.56555624255917 25.5541
34.58887386163339 25.3932
34.61237514439016 25.4277
34.6356957311114 25.3343
34.65901779775809 25.3041
34.68252356662995 25.3138
34.705848608458616 25.2913
34.72917513396849 25.2139
34.75250314440949 25.1956
34.77601490857862 25.1554
34.799345904259795 25.0892
34.82267838863559 25.0891
34.846012362958525 25.0958
34.869530142679984 25.0759
34.89286711232212 24.9835
34.91620557568269 24.9047
34.93954553401677 24.9278
34.9630693495876 24.840999999999998
34.986412313340814 24.8918
35.00975677584668 24.891
35.033102738362956 24.7721
35.05663261012228 24.6727
35.0799815881786 24.6856
35.10333207003229 24.674
35.12668405694369 24.6631
35.150220005273056 24.5997
35.17357501786656 24.5739
35.19693153931268 24.4471
35.220289570874385 24.4444
35.24383161619786 24.4783
35.267192683604904 24.5434
35.290555264930376 24.4733
35.314101899412165 24.4194
35.33746752422433 24.4875
35.36083466676374 24.4294
35.38420332829803 24.2821
35.407756095629054 24.3636
35.43112781085063 24.3736
35.45450104888391 24.3074
35.477875810999194 24.2572
35.50143473172161 24.1939
35.52481255774625 24.3362
35.54819191167777 24.208000000000002
35.57157279478914 24.0932
35.595137889488406 24.0766
35.61852184675279 24.0585
35.641907337029984 23.9805
35.665294361595684 23.9647
35.68886565090076 23.9448
35.7122557598848 23.8219
35.73564740699838 23.8432
35.759040593519934 23.8458
35.78261809810353 23.7797
35.80601437933051 23.6923
35.829412203814705 23.6354
35.85281157283719 23.5927
35.876395313415884 23.6853
35.8997977874528 23.6359
35.92320180988546 23.5278
35.946790244133936 23.4541
35.97019737933222 23.4711
35.993606066789866 23.4209
36.01701630779276 23.405
36.04061101440684 23.3561
36.06402437852291 23.378
36.08743930005611 23.3126
36.1108557802951 23.2563
36.13445678011326 23.2405
36.15787639383515 23.177
36.18129757014299 23.151999999999997
36.20472031032821 23.0883
36.22832762423364 23.0046
36.25175350829375 22.9855
36.275180960119776 22.965999999999998
36.298609981005924 23.0284
36.32222362992669 23.0118
36.34565580510207 22.9868
36.36908955323448 22.8817
36.39252487562093 22.8154
36.416144880530226 22.7857
36.43958336764275 22.7374
36.463023432914625 22.7766
36.486465077645676 22.6955
36.51009145956204 22.7917
36.53353627947859 22.7704
36.55698268276811 22.6819
36.58043067073321 22.5846
36.60406345072071 22.5564
36.62751462435344 22.6145
36.65096738658405 22.5471
36.67460498210655 22.4772
36.69806093788647 22.4124
36.72151848619297 22.3758
36.744977628333636 22.3741
36.76862165890998 22.2211
36.79208400512205 22.302
36.81554794910557 22.3343
36.83901349217101 22.1512
36.862663978991606 22.1973
36.88613273667352 22.1689
36.90960309738324 22.1259
36.933075062434064 22.0598
36.95673202673572 22.0487
36.98020721697122 21.9617
37.003684015502365 21.875
37.027162423645365 21.9198
37.050825886711465 21.8858
37.07430753063053 21.8512
37.09779078812467 21.8068
37.121275660513014 21.7952
37.144945643673694 21.7288
37.16843376245278 21.7593
37.19192350009803 21.6476
37.215414857931435 21.664
37.239091382563885 21.588
37.262585997426164 21.5638
37.28608223645736 21.5564
37.309763684451696 21.5654
37.33326318851098 21.4473
37.356764320726555 21.4024
37.380267082425526 21.5141
37.40395510942588 21.4622
37.42746114683234 21.4016
37.45096881771841 21.269000000000002
37.474478123414166 21.3947
37.49817275092816 21.285999999999998
37.52168534303452 21.2168
37.54519957395567 21.1173
37.568715445024665 21.1308
37.592416694607714 21.0968
37.61593586281424 21.0842
37.63945667518264 21.1099
37.66297913304891 21.1293
37.68668702630454 21.0284
37.710212792059274 20.9771
37.733740207334854 20.9637
37.757269273470364 20.7931
37.780983832050374 20.8296
37.80451621684926 20.8364
37.82805025654007 20.7357
37.851585952464795 20.7071
37.8753071980695 20.7443
37.89884622345676 20.6981
37.92238690911902 20.643
37.94611318753442 20.5856
37.969657210779765 20.5555
37.99320289834801 20.4705
38.016750251586465 20.471
38.04048325513017 20.4325
38.06403395679343 20.4474
38.087586328183946 20.3452
38.11114037065203 20.3997
38.13488012115898 20.3755
38.1584375229181 20.2984
38.181996599821 20.2174
38.205557353221124 20.1912
38.229303872575656 20.1816
38.2528679961576 20.178
38.27643380031219 20.185
38.30000128639589 20.1583
38.32375459653193 20.1626
38.34732546371299 20.1111
38.37089801690786 19.9641
38.39447225747609 19.9661
38.418232380377425 19.9229
38.441810012983396 19.9286
38.46538933705673 19.8797
38.488970353960084 19.8878
38.51273731166058 19.859
38.536321731567014 19.7742
38.55990784840681 19.7562
38.58367995004091 19.7289
38.60726947812959 19.7277
38.63086070726198 19.7042
38.654453638806274 19.7176
38.678232613930824 19.5937
38.70182896773327 19.5766
38.72542702806741 19.5962
38.7490267963045 19.5607
38.77281266709232 19.4737
38.79641586862214 19.4418
38.8200207821842 19.452
38.843627409152944 19.3975
38.86742019782782 19.3504
38.891030269149255 19.2708
38.914642058016156 19.3467
38.938255565806124 19.2553
38.96205529464307 19.1729
38.98567225787121 19.2029
39.00929094417078 19.2079
39.03291135492255 19.1867
39.05671804624804 19.1373
39.080341923549106 19.0944
39.103967529460334 19.0595
39.127594865365744 19.0016
39.15140854155791 19.0232
39.17503935514948 18.9965
39.19867190290282 18.8903
39.22249083587951 18.8736
39.24612686969409 18.9154
39.269764641845306 18.8912
39.293404153722804 18.8406
39.317230110864074 18.7674
39.34087311998506 18.7305
39.36451787301696 18.7294
39.388164371352595 18.6839
39.41199737518003 18.6522
39.43564738196752 18.6475
39.45929913825317 18.6813
39.48295264543308 18.5767
39.506792718520884 18.5967
39.530449745387216 18.5039
39.55410852735203 18.5298
39.57776906581474 18.4932
39.60161623079 18.4952
39.625280300200025 18.4354
39.64894613032202 18.4076
39.67261372255866 18.3697
39.6964680021016 18.3625
39.72013913657293 18.3606
39.74381203738292 18.3375
39.76748670593756 18.3363
39.79134812278169 18.2522
39.81502634488497 18.2182
39.83870633896685 18.1532
39.862388106436654 18.06
39.88625668336918 18.0708
39.90994201572829 18.0706
39.933629125719285 18.0018
39.957503091207826 17.977999999999998
39.9811937746168 17.9995
40.00488623990914 17.9209
40.02858048850006 17.94
40.05246165409549 17.901
40.076159487492085 17.8321
40.099859108448875 17.8225
40.123560518384345 17.8217
40.1474489070226 17.7855
40.171153913178564 17.7269
40.194860712584955 17.7124
40.2185693066637 17.7334
40.242464941335314 17.6175
40.26617714307655 17.639
40.289891143772046 17.6184
40.3136069448471 17.5463
40.33750984859743 17.5284
40.3612292688043 17.5515
40.3849504936829 17.4773
40.40867352466194 17.477
40.43258372059144 17.4291
40.45631038219906 17.4693
40.48003885420956 17.3917
40.503769138055105 17.3804
40.52768664931955 17.3368
40.55142057531802 17.3382
40.57515631746428 17.2759
40.599079334038514 17.2639
40.62281872700477 17.2097
40.64655994043941 17.2028
40.67030297578061 17.144000000000002
40.69423334835778 17.1571
40.71798004609188 17.1317
40.74172857006355 17.1024
40.76547892171441 17.1092
40.7894166736039 17.0644
40.813170699248566 17.0133
40.83692655691388 16.9658
40.86068424804498 17.0479
40.884629402612525 16.8944
40.908390779366385 16.9129
40.932153993938 16.927
40.95591904777605 16.8637
40.979871628443995 16.8586
41.003640379561936 16.8168
41.02741097430883 16.8194
41.05118341413683 16.8378
41.075143444384416 16.7195
41.098919593177826 16.674
41.1226975914255 16.6549
41.14647744058318 16.6167
41.170444943946755 16.5672
41.19422851378379 16.623
41.218013938914645 16.4908
41.24198706625173 16.4979
41.26577622087193 16.4641
41.289567235177785 16.4584
41.31336011063129 16.4962
41.337340752422875 16.4451
41.361137369129835 16.4693
41.38493585138705 16.3306
41.40873620066004 16.3471
41.43272438060107 16.2882
41.45652848292052 16.2751
41.48033445666918 16.2323
41.50414230331616 16.2033
41.528138045159764 16.166
41.551949656675205 16.1253
41.575763145513235 16.1596
41.59957851314666 16.1243
41.62358184070442 16.0881
41.64740098505737 16.0331
41.6712220126409 16.0161
41.69504492493139 15.9934
41.71905586207357 15.9829
41.74288256296395 15.9398
41.766711153007456 15.9087
41.79054163368412 15.8845
41.814560204340054 15.919
41.838394485526365 15.8744
41.86223066180303 15.7725
41.88625497706819 15.8158
41.910094962812 15.777000000000001
41.93393684811168 15.7235
41.95778063445365 15.7148
41.981812625263366 15.7081
42.00566023303407 15.695
42.029509746323676 15.6187
42.05336116662236 15.6145
42.077400857069705 15.6128
42.10125611078846 15.5554
42.12511327600405 15.4858
42.14897235421036 15.4728
42.173019768448455 15.5017
42.19688269209613 15.4285
42.22074753323349 15.4158
42.24461429335818 15.4323
42.268669455600495 15.3543
42.292540073217886 15.3829
42.31641261433284 15.3864
42.34028708044675 15.3602
42.36435001496739 15.2674
42.38822835065557 15.2808
42.41210861586426 15.1668
42.4359908120986 15.1503
42.46006154323262 15.142999999999999
42.48394762115317 15.1321
42.507835634632315 15.1774
42.531912233047436 15.0612
42.55580413732265 15.0396
42.579697981698 15.0651
42.60359376768525 15.0025
42.62767820545945 14.9462
42.65157789440821 14.9578
42.67547952952185 14.9295
42.699383112316 14.9309
42.72347541395347 14.8899
42.74738291190531 14.8256
42.771292362102166 14.8485
42.795203766063516 14.8134
42.819303956130405 14.8098
42.843219287476536 14.7245
42.86713657716324 14.6939
42.89105582671383 14.6832
42.91516392983864 14.6786
42.939087119032166 14.6886
42.963012272677304 14.6255
42.98693939230129 14.5733
43.01105543317513 14.5666
43.034986504731386 14.5153
43.05891954686589 14.5189
43.08285456110972 14.4979
43.10697856448665 14.4573
43.130917542983475 14.399000000000001
43.15485849820081 14.4223
43.17880143167367 14.3834
43.20293342237094 14.3654
43.226880332449 14.347999999999999
43.25082922540554 14.3306
43.27496722682525 14.3118
43.29892010567796 14.3197
43.32287497204102 14.3048
43.34683182745632 14.2194
43.370977859791836 14.1462
43.39493871351105 14.1776
43.41890156092628 14.1397
43.44286640358341 14.1178
43.46702049182749 14.0785
43.49098934522816 14.0904
43.51496019852649 14.0601
43.5389330532723 14.0097
43.56309522248204 14.0162
43.58707210044314 13.9695
43.61105098451946 13.9622
43.63503187626491 13.9389
43.659202151562134 13.8835
43.68318707902681 13.8517
43.70717401884041 13.8733
43.731162972560874 13.8304
43.75534137913236 13.815999999999999
43.779334381108384 13.8197
43.803329401683186 13.7957
43.82732644241872 13.7412
43.8515130055166 13.7489
43.87551410707659 13.6922
43.89951723350145 13.687000000000001
43.923709934595614 13.687999999999999
43.94771713129917 13.6155
43.97172635758096 13.6401
43.99573761501002 13.557
44.0199385169922 13.5218
44.04395385732619 13.5013
44.067971233533086 13.503
44.09199064718605 13.534
44.11619977548961 13.4642
44.14022328470671 13.383
44.16424883610785 13.4302
44.18827643127035 13.3698
44.21249381139513 13.3931
44.236525514814076 13.3664
44.26055926674478 13.338
44.28459506876863 13.2765
44.3088207262813 13.2328
44.33286064928722 13.2537
44.35690262714919 13.2434
44.38094666145278 13.17
44.4051806219871 13.1926
44.42922879003185 13.1547
44.45327901929361 13.119000000000002
44.477331311362136 13.1187
44.501573600619416 13.1048
44.525630039221795 13.0691
44.54968854541895 13.0523
44.573937102200176 13.0148
44.5979997645541 13.0071
44.622064499300315 12.9814
44.64613130803592 12.9464
44.67038823869318 12.9565
44.69445921643748 12.9366
44.718532272981385 12.8624
44.742607409926194 12.8613
44.76687274034801 12.8591
44.79095205918753 12.7966
44.81503346325094 12.7725
44.839116954143876 12.7617
44.86339071028742 12.7538
44.88747839599524 12.7476
44.91156817336837 12.7503
44.93566004401666 12.7222
44.959942251908146 12.6392
44.984038330325966 12.6354
45.00813650686762 12.6063
45.03223678314731 12.6056
45.05652746888232 12.5529
45.08063196592069 12.525
45.104738567558705 12.5407
45.128847275414856 12.4818
45.15314646515866 12.394
45.17725940679741 12.4169
45.20137445952892 12.3948
45.22568004865265 12.4336
45.24979934496396 12.4314
45.27392075725247 12.3902
45.29804428714431 12.344000000000001
45.322358426247604 12.3629
45.346486212804315 12.2887
45.370616121861914 12.2679
45.39474815505086 12.2901
45.41907087049246 12.2489
45.4432071734666 12.2247
45.46734560548283 12.2228
45.49148616817604 12.2436
45.51581748638564 12.1764
45.5399623320197 12.0974
45.56410931325473 12.0903
45.58825843173002 12.1111
45.61259837920865 12.038
45.636751793816 12.1104
45.66090735060093 12.0401
45.68506505120716 11.9926
45.7094136545275 11.9399
45.73357566449271 11.9613
45.75773982322992 11.9437
45.78190613238733 11.9252
45.806263418194064 11.8617
45.83043404997326 11.8587
45.85460683713677 11.8552
45.87897065658495 11.8452
45.90314777634752 11.849
45.92732705646868 11.7833
45.9515084986045 11.7614
45.97588104735473 11.7511
46.00006683541565 11.704
46.02425479047904 11.687000000000001
46.04844491420549 11.6769
46.0728262191024 11.6526
46.09702070211635 11.6487
46.12121735879483 11.6158
46.14541619080294 11.5919
46.169806278764455 11.5637
46.194009483459034 11.5468
46.21821486849841 11.559000000000001
46.24242243555223 11.5218
46.266821333570014 11.5134
46.29103328674601 11.4502
46.31524742696538 11.4971
46.33946375590237 11.4179
46.36387149104216 11.4304
46.38809221957392 11.412
46.41231514186606 11.3828
46.436540259597464 11.3635
46.460956858999374 11.3421
46.48518638983522 11.3069
46.509418121166966 11.2753
46.533652054678114 11.3059
46.55807754555709 11.2212
46.58231590571962 11.2325
46.60655647313217 11.1803
46.630988654873654 11.1972
46.655233659129024 11.1225
46.67948087571551 11.1416
46.70373030632484 11.1193
46.72817142736393 11.125
46.752425308428684 11.0929
46.77668140861147 11.0786
46.80093972960865 11.0351
46.82538981736788 11.0099
46.849652602470904 10.9694
46.87391761349769 10.9399
46.8981848521493 10.953
46.9226439341274 10.9058
46.946915650573224 10.8823
46.97118959976749 10.8673
46.99546578341598 10.8524
47.019933887188216 10.8549
47.04421456235744 10.8535
47.06849747711879 10.8133
47.09278263318286 10.7836
47.11725978640143 10.7592
47.14154944775105 10.7537
47.165841355555656 10.7354
47.1901355115306 10.7085
47.214621741924994 10.7066
47.23892041698887 10.712
47.26322134538975 10.6346
47.28771440635075 10.6339
47.31201986422527 10.6499
47.33632758061436 10.600999999999999
47.360637557241866 10.5563
47.38513974410611 10.5501
47.40945426407847 10.5094
47.43377104948137 10.5157
47.45809010204344 10.5141
47.48260144275502 10.4988
47.506925052572285 10.4652
47.53125093475548 10.4153
47.55557909103813 10.4202
47.58009961361992 10.3781
47.60443234110732 10.3805
47.62876734791564 10.4005
47.65310463578333 10.3648
47.6776343683373 10.3733
47.7019762413987 10.2663
47.72632040075572 10.2404
47.75066684815169 10.2917
47.77520581885936 10.2527
47.799556865477655 10.2377
47.823910205386 10.1841
47.84826584033272 10.1589
47.87281407745551 10.1574
47.89717432569297 10.1757
47.92153687423484 10.1539
47.94609208429692 10.0851
47.97045925671401 10.1191
47.99482873471275 10.0476
48.01920052005013 10.062000000000001
48.04376504619224 10.021
48.068141469543484 10.0333
48.09252020552573 10.0361
48.11690125590099 10.008
48.1414751266064 9.9724
48.16586082917454 9.97911
48.19024885144316 9.91733
48.2146391951793 9.93816
48.239222439012764 9.93832
48.26361744916137 9.87284
48.28801478610016 9.87553
48.31241445160131 9.85571
48.337007097209366 9.85799
48.36141144338331 9.85851
48.38581812345755 9.789710000000001
48.41022713920929 9.78089
48.434829215320704 9.773660000000001
48.45924292604658 9.75211
48.48365897780325 9.798680000000001
48.50807737237308 9.7483
48.532688907799276 9.71183
48.55711201168574 9.67365
48.581537463754074 9.67104
48.60615611725119 9.65591
48.63058628942721 9.67729
48.65501881516546 9.60666
48.6794536962573 9.58188
48.70408185970339 9.56827
48.72852147531801 9.5343
48.75296345168211 9.528210000000001
48.77740779059232 9.54428
48.80204549302823 9.48905
48.82649458091802 9.455860000000001
48.85094603676547 9.48428
48.87539986237231 9.44768
48.90004713292306 9.39613
48.92450572200832 9.40444
48.94896668628025 9.383389999999999
48.97343002754588 9.3618
48.99808689542115 9.37598
49.02255501470614 9.3537
49.04702551642794 9.30343
49.0714984023988 9.2831
49.096164896893235 9.229230000000001
49.120642575466796 9.25176
49.145122643748394 9.246080000000001
49.16960510355558 9.27776
49.19428125404938 9.23054
49.2187685210852 9.23402
49.243258185121555 9.17041
49.26794160167084 9.15896
49.2924360839405 9.13176
49.31693296869764 9.11978
49.34143225776915 9.114180000000001
49.36612538195438 9.06512
49.39062950396021 9.08013
49.41513603578346 9.07187
49.4396449792564 9.049339999999999
49.46434784069503 9.03882
49.488861631846454 9.01275
49.513377840166804 8.996139999999999
49.537896467493745 8.947289999999999
49.56260909589029 8.96417
49.587132585683285 8.92731
49.611658500018365 8.92534
49.636186840738596 8.88642
49.66090926588511 8.88401
49.685442483902584 8.87425
49.70997813385706 8.81634
49.734516217597076 8.82005
49.75924846937352 8.843960000000001
49.7837914452858 8.82467
49.80833686055187 8.79387
49.83288471702571 8.73
49.85762682540054 8.74925
49.882179588965734 8.735619999999999
49.9067347993235 8.71579
49.93129245833333 8.714310000000001
49.95604445336378 8.70468
49.98060703442832 8.67118
50.005172069746266 8.66058
50.02993150438364 8.63561
50.05450147301533 8.6046
50.07907390151433 8.586110000000001
50.10364879174981 8.577960000000001
50.12841816587289 8.580910000000001
50.1529980044635 8.57967
50.17758031042124 8.53102
50.20216508562089 8.526480000000001
50.22694442953363 8.49255
50.25153416817468 8.453339999999999
50.27612638170508 8.47863
50.300721072005196 8.44548
50.325510416102105 8.43207
50.350110084975064 8.38895
50.37471223628208 8.383569999999999
50.39931687190919 8.37947
50.424116246675766 8.38335
50.44872587605249 8.3709
50.47333799543065 8.339210000000001
50.49795260670191 8.31489
50.52276204271512 8.29532
50.54738166295838 8.258519999999999
50.57200378079314 8.28983
50.596628398116835 8.21048
50.62144792604559 8.21344
50.646077567609396 8.214210000000001
50.670709714377715 8.23506
50.69553683636198 8.18907
50.72017401885922 8.2296
50.7448137122895 8.171669999999999
50.76945591856022 8.13255
50.79429318636823 8.12583
50.818940443716784 8.12595
50.84359021965163 8.06799
50.868242516085964 8.05061
50.893089960641895 8.1006
50.917747323549435 8.06452
50.94240721271973 8.07125
50.96706963007175 8.051260000000001
50.99192728239342 8.02485
51.01659478166073 7.98574
51.04126481489051 7.967689999999999
51.06593738400761 7.975289999999999
51.090805275207074 7.93538
51.11548294172845 7.927230000000001
51.14016314993547 7.91838
51.164845901758845 7.879010000000001
51.18972406304274 7.872380000000001
51.21441192780656 7.87255
51.23910234200271 7.8567100000000005
51.2637953075678 7.82194
51.288683770237945 7.773439999999999
51.31338186432707 7.8001
51.33808251561888 7.75783
51.362978729967345 7.78332
51.387684521509755 7.78883
51.41239287610203 7.73928
51.437103795691165 7.7114899999999995
51.46201036644977 7.696789999999999
51.486726441956634 7.68726
51.51144508832545 7.66713
51.536166307509156 7.654210000000001
51.56108326624387 7.629519999999999
51.58580965706056 7.6207899999999995
51.61053862657523 7.615989999999999
51.635270176746864 7.55853
51.66019755512065 7.592039999999999
51.68493429268881 7.55761
51.70967361681515 7.54732
51.73441552946465 7.5235899999999996
51.759353359237934 7.49562
51.7841004750961 7.48663
51.80885018539685 7.51479
51.833602492111254 7.4907699999999995
51.8585508051424 7.47226
51.883308330926425 7.44707
51.90806845906181 7.418839999999999
51.932831191525715 7.4101300000000005
51.95779001977161 7.37091
51.98255798721516 7.33597
52.00732856494335 7.36685
52.03229530577543 7.347110000000001
52.057071130455945 7.301360000000001
52.081849571391054 7.2953600000000005
52.106630630568695 7.27465
52.13160794279417 7.238630000000001
52.15639426492067 7.2660800000000005
52.18118321127822 7.269080000000001
52.205974783860896 7.2162
52.23096269971011 7.226839999999999
52.255759551287994 7.20839
52.280559035098186 7.21053
52.30536115314103 7.15845
52.33035970494467 7.17784
52.35516711807904 7.210139999999999
52.37997717147198 7.12755
52.40478986713005 7.10533
52.42979908731974 7.09325
52.454617094216 7.09753
52.47943774942214 7.05064
52.50426105495102 7.04258
52.529280976059844 7.02693
52.554109609024096 7.0255600000000005
52.57894089837482 7.02728
52.60377484613117 7.013039999999999
52.62880550079408 6.982480000000001
52.65364479223379 6.95666
52.67848674816189 6.940289999999999
52.70352547971946 6.92888
52.72837279155837 6.939189999999999
52.753222773982785 6.92673
52.778075429022984 6.914060000000001
52.80312495150885 6.90115
52.827982978797436 6.908189999999999
52.85284368481815 6.8600699999999994
52.87770707160767 6.85497
52.90276741793998 6.856380000000001
52.92763619336701 6.76818
52.952507655698504 6.77734
52.977381806977576 6.76803
53.00245301017842 6.8093699999999995
53.02733256653592 6.7231
53.052214817996074 6.744510000000001
53.077099766608484 6.7668800000000005
53.102181859804446 6.71789
53.127072229988265 6.7123800000000005
53.15196530349892 6.69561
53.17686108239249 6.688610000000001
53.20195409881522 6.64877
53.22685531582556 6.62827
53.25175924441303 6.63289
53.27666588664027 6.645569999999999
53.30176985962693 6.60785
53.3266819565689 6.6062
53.35159677336455 6.580539999999999
53.376514312083096 6.51635
53.40162927507703 6.53796
53.42655228516116 6.54169
53.45147802340193 6.5163400000000005
53.47660125628886 6.50708
53.50153247842639 6.50643
53.52646643496923 6.45967
53.55140312799818 6.458469999999999
53.576537409691696 6.47524
53.60147960336152 6.47647
53.626424539786164 6.44706
53.65137222105307 6.39423
53.67651758529126 6.4008400000000005
53.70147078399681 6.35059
53.72642673383343 6.3554
53.75138543689533 6.36405
53.776541917524526 6.3277
53.801506154876755 6.31534
53.826473151763246 6.307230000000001
53.851442910284916 6.2807900000000005
53.87661054126026 6.27878
53.9015858509782 6.243469999999999
53.92656392866066 6.218430000000001
53.95154477641532 6.22244
53.976723591801296 6.206869999999999
54.00171000771266 6.2255
54.02669920004598 6.186719999999999
54.051691170915745 6.17635
54.076881204886796 6.18291
54.101878760928514 6.19289
54.12687910187696 6.14414
54.152077577768296 6.13225
54.1770835166946 6.1058900000000005
54.20209224691339 6.11373
54.22710377055121 6.10841
54.25231352511594 6.07267
54.27733066384342 6.03338
54.30235060239643 6.01508
54.32737334290836 6.0254
54.35259441062629 5.9774400000000005
54.377622783395324 5.96066
54.40265396455061 5.97763
54.42768795623251 5.987480000000001
54.45292037169559 5.91047
54.477960012857906 5.92889
54.50300247099511 5.90817
54.52804774825457 5.87688
54.55329154616743 5.8769
54.57834249018678 5.854419999999999
54.6033962597977 5.78032
54.6284528571545 5.78552
54.653708072335164 5.78149
54.67877035378786 5.76118
54.70383546947698 5.76049
54.72890342156389 5.68979
54.7541700889442 5.6841800000000005
54.77924374251975 5.62181
54.8043202390049 5.68281
54.82959552413022 5.67477
54.8546777351945 5.62745
54.87976279569621 5.5966
54.90485070780914 5.62482
54.930137506558005 5.56418
54.95523115074295 5.5417
54.98032765308844 5.47499
55.005427015775496 5.496519999999999
55.03072536339621 5.5637099999999995
55.05583047570572 5.4586
55.080938454927676 5.42243
55.10604930325027 5.4074
55.131359235107396 5.44919
55.15647585066083 5.43534
55.181595341907496 5.39141
55.20671771104285 5.31725
55.232039262617704 5.29903
55.25716741665048 5.27768
55.28229845518636 5.249969999999999
55.30743238042802 5.18191
55.33276558731939 5.23034
55.357905315183636 5.2017
55.383047936390035 5.1736699999999995
55.40819345314859 5.13561
55.433538351073295 5.15428
55.458689688238415 5.13213
55.483843927614096 5.07881
55.509197623043605 5.04217
55.53435769621134 5.00962
55.55952067826466 5.02378
55.5846865714265 5.00673
55.61005202069737 4.95794
55.63522376553902 4.95214
55.66039842818645 4.94215
55.68557601087004 4.91988
55.7109532500271 4.8791400000000005
55.73613670233794 4.87141
