TT I
1.2716486653135266 7.50937
1.2939594142134223 7.321510000000001
1.3162702121660406 6.92927
1.3385810600174564 7.276210000000001
1.3608919586137629 6.60066
1.383202908801069 6.52342
1.405513911425503 6.36033
1.4278249673332093 6.0252099999999995
1.4501343378461518 6.26935
1.4724455028545926 6.21239
1.4947567236847858 6.77953
1.517068001182951 6.07255
1.5393793361953272 6.13364
1.5616907295681737 5.9515
1.5840021821477681 5.53977
1.60631369478041 5.58341
1.6286252683124185 5.27607
1.6509369035901333 4.70777
1.6732468618895553 5.6554199999999994
1.695558623192809 4.73621
1.7178704487808514 5.34271
1.7401823395001077 4.84513
1.7625012545597203 5.1509
1.7848028405262486 5.28454
1.8071218901122095 5.22886
1.8294236121921872 4.788530000000001
1.8517427996910911 5.46685
1.8740620574440425 4.4583900000000005
1.8963639900671978 5.09835
1.9186833908139995 5.24796
1.9409854680117449 4.8666599999999995
1.9633050151394713 5.29865
1.9856246367570705 4.958130000000001
2.0079269371922672 4.87699
2.03024671027244 5.10628
2.0525491637446027 4.43645
2.074869091674931 4.32868
2.097171701569106 4.2892
2.1194917877373847 4.98442
2.141811954326636 5.45359
2.164114805233074 4.84503
2.186435135143035 5.68848
2.208738150935709 14.9037
2.231058647554722 31.6693
2.2533792288321184 24.8524
2.275682498336085 11.2566
2.298003251406138 6.27359
2.3203066942619714 5.1483
2.3426276225136022 5.172630000000001
2.3649486396617507 5.29894
2.387252348930071 5.58438
2.4095735463442893 5.34053
2.4318774374315884 5.43055
2.4541988185014043 5.91062
2.476502894794693 6.035019999999999
2.498824462909887 6.40993
2.521146125856138 6.40196
2.5434504863470337 6.5404599999999995
2.5657723414244717 6.71541
2.588076895590662 7.797960000000001
2.610398946189713 7.593560000000001
2.6327210958598384 7.377730000000001
2.6550259469304716 7.37945
2.6773482972090137 7.2826699999999995
2.6996533504259 7.56031
2.7219759047039602 7.560910000000001
2.744298562293959 8.03657
2.7666039251246595 7.59773
2.7889267918020164 7.18952
2.8112323652516555 7.94331
2.833555444408179 8.41061
2.8558786311183852 8.16077
2.8781845268938557 8.66756
2.9005079311721484 8.77713
2.9228140460410397 8.404530000000001
2.9451376712799635 8.79984
2.967444008632326 9.57191
2.9897678582247247 10.1931
3.0120918213106695 10.5969
3.0343984987899373 11.0798
3.0567226913198637 11.1661
3.079029599759726 11.869000000000002
3.101354025127254 12.3181
3.123678568232338 12.9174
3.145985829517914 12.8697
3.16831061055229 13.4301
3.1906181112775593 14.3803
3.212943133635653 14.6415
3.2352682779763207 14.7712
3.2575761442691227 15.4275
3.2799015350264273 15.5512
3.302209649240067 16.482
3.3245352898092655 17.3144
3.3468436553365257 17.38
3.369169549113219 18.0117
3.3914955708171384 19.1657
3.413804319727358 19.3811
3.4361305997334863 19.3941
3.4584396084414553 19.7655
3.4807661501462652 20.4724
3.503092824025881 21.8726
3.5254022288463154 21.7242
3.5477291695206588 22.2802
3.5700388426251948 23.0974
3.5923660534916446 24.8481
3.6146934007816114 40.6355
3.637003482731501 100.72200000000001
3.6593311053109985 112.243
3.681641464033634 63.1701
3.7039693653009733 32.1784
3.726297407241705 26.5886
3.7486081875460804 25.9445
3.7709365132734978 26.8197
3.793247578841633 27.0318
3.8155761917550093 27.1426
3.8378875459837216 27.6395
3.8602164494827234 28.5046
3.882545499606844 28.9772
3.9048572932539183 29.5048
3.9271866390645718 29.6282
3.9494987298666713 30.6707
3.971828374764527 30.8887
3.9941581705403255 31.3381
4.016470713506008 32.2233
4.038800813471445 32.5932
4.061113662089144 33.7672
4.0834440696459176 34.1576
4.105774632334751 34.0107
4.128087945865126 35.5805
4.150418821249301 36.2743
4.172732448931298 37.6304
4.195063640413578 40.0234
4.2173775856475215 44.9264
4.239709096631102 80.0077
4.262040768704612 266.465
4.284355196706267 367.82599999999996
4.306687193387355 237.604
4.329001947444346 89.7068
4.35133427213731 50.4124
4.373666762177566 45.6913
4.395982011761091 45.7538
4.418314834921175 47.0012
4.44063041906622 55.6288
4.4629635787515625 68.6605
4.4852969080429785 68.5982
4.5076130004776225 56.5791
4.529946671403969 52.1129
4.552263106909177 51.7334
4.574597122877047 52.2124
4.596931312711224 53.1637
4.619248269273446 54.169
4.6415828092605835 55.0329
4.663900117405352 56.0536
4.686235010953232 58.2025
4.708552674085913 59.3777
4.730887924602802 60.8274
4.753223354952695 62.2873
4.775541557023902 63.3056
4.797877349456786 65.2201
4.820195915032126 67.5326
4.842532072957498 68.6502
4.864868414979744 71.0664
4.88718753227192 73.1332
4.909524244902505 74.9946
4.931843734218147 77.4024
4.954180820867835 79.7254
4.976518095879839 82.4354
4.998838149695359 85.8776
5.021175803844231 89.3978
5.043496238205739 93.3009
5.065834274903528 97.6594
5.088172504230693 102.86399999999999
5.1104935158799565 111.11200000000001
5.132832132875765 137.983
5.155153533596801 192.112
5.1774925416746225 235.78599999999997
5.199814334878411 443.10699999999997
5.2221537374521505 1221.26
5.244493338631803 3085.82
5.266815727034316 7004.07
5.289155727832427 11703.4
5.311478517248165 9319.82
5.333818921080011 3642.62
5.356159527788849 779.165
5.3784829252032536 225.17
5.400823940070432 160.934
5.423147747031976 138.341
5.445489173474152 126.323
5.467830807066149 120.084
5.490155234831516 114.72
5.512497285125229 110.475
5.534822130975162 108.28200000000001
5.557164601388673 105.39200000000001
5.579489868738879 102.461
5.601832762690846 101.428
5.6241758697774475 100.912
5.646501775867269 99.8331
5.668845311622074 97.99799999999999
5.691171647754637 96.8956
5.713515615597765 95.4282
5.735859800852677 94.4805
5.758186788542988 94.2214
5.780531411018185 95.1674
5.802858837297399 94.5989
5.825203900414495 94.3411
5.8475491852224 95.4584
5.869877275883075 95.5961
5.892223006467101 96.7524
5.914551544266608 98.24600000000001
5.936897724049891 101.61
5.959244129804903 107.889
5.981573344815301 131.47
6.0039202049061 238.658
6.026249875609095 525.655
6.04859719346037 1068.34
6.070927323278297 2145.55
6.093275102315365 4025.26
6.115623113320588 4945.16
6.137953938319995 3495.22
6.160302415650845 1255.2
6.182633708324452 310.83
6.2049826554078376 131.157
6.227331838745022 101.17
6.249663839443684 91.1195
6.27201349767565 86.8413
6.294345974611799 93.9453
6.316696111167083 107.634
6.339046488263839 101.881
6.361379686074702 84.2852
6.383730546639482 74.7124
6.406064229255215 71.5413
6.428415576718203 70.4142
6.450749747566656 69.1489
6.47310158535871 68.2523
6.495453669698332 66.9705
6.517788579421056 66.3381
6.540141159237969 65.5902
6.562476565766648 65.3071
6.5848296444934045 64.7172
6.607182974060425 64.5696
6.6295191323281015 64.2382
6.651872965955752 68.3574
6.6742096296068985 97.7007
6.6965639707294615 153.89
6.71891856698715 154.35299999999998
6.741255995248479 102.889
6.763611104154477 71.5928
6.785949046381137 62.31399999999999
6.808304671371482 60.183
6.8306605557940046 60.0443
6.852999275508618 58.7467
6.875355681171544 58.6455
6.897694923437771 58.3797
6.92005185377892 57.7359
6.9423916220322655 57.6313
6.964749080490181 57.0472
6.987106804399774 57.2839
7.009447368180821 57.2573
7.031805625367033 56.9013
7.054146723727803 56.974
7.076505517631004 56.5106
7.098864581288365 56.6476
7.121206488070854 56.4826
7.143566093607822 56.1789
7.165908543567245 56.5663
7.188268694426048 56.943000000000005
7.2106291193438095 57.1812
7.232972390625943 58.7554
7.255333366030969 72.5157
7.277677189091925 136.466
7.300038718428332 194.435
7.322400526130865 163.121
7.344745183422596 97.4799
7.367107550224791 64.7843
7.389452767901992 57.9618
7.411815697249891 56.6073
7.434161478756298 55.9516
7.456524974096713 55.7807
7.478888753837185 55.3839
7.501235387657368 55.9198
7.523599738562711 56.159
7.545946944825532 56.3307
7.568311870344528 56.1157
7.5906770845765665 56.7609
7.613025156078678 58.4557
7.635390950099687 59.8175
7.657739602662809 59.2166
7.680105979923558 57.5811
7.702472650212829 57.6509
7.724822180948224 57.1858
7.747189439655568 57.4765
7.769539560075357 57.5503
7.791907410653562 58.0277
7.81425812420825 57.8904
7.836626570110925 58.4428
7.858995315087906 59.0862
7.881346924933401 59.3144
7.903716270417482 59.7519
7.926068482028405 60.0802
7.948438431475253 60.5464
7.9708086843180235 61.0787
7.993161805171116 61.9262
8.015532667162402 62.2375
8.037886398416653 63.1526
8.060257873014221 63.6766
8.082629655331942 64.1266
8.104984308787587 65.3872
8.127356708900503 69.2243
8.149711981398308 75.6202
8.172085002766314 78.7005
8.194458336181368 74.4548
8.216814543847752 71.0821
8.23918850371002 71.2447
8.26154533906492 71.557
8.283919928836452 73.6572
8.306277395339652 74.637
8.328652618483376 75.7743
8.351028159736202 77.9179
8.373386579575245 80.3034
8.395762759396959 82.1421
8.418121819038275 87.4869
8.440498640894003 102.694
8.462875785192262 120.065
8.485235811156207 134.608
8.507613602688501 180.02900000000002
8.529974277114228 280.921
8.552352719347912 425.769
8.574731488360351 669.4910000000001
8.59709314210385 1104.85
8.619472567021075 1665.98
8.64183487789147 2133.92
8.664214962183097 1908.61
8.686577933647762 1147.27
8.708958680784317 483.68300000000005
8.731339760774953 200.985
8.753703729764451 122.44200000000001
8.77608547780821 104.445
8.798450116065078 99.4805
8.820832535634787 96.1971
8.843215292401656 94.1725
8.865580941199045 92.2802
8.887964374703538 91.0785
8.910330701447199 92.5684
8.932714815164482 95.7004
8.955099270424924 94.6506
8.977466620733543 90.9718
8.999851761421976 87.5344
9.022219798361645 85.7233
9.04460562795561 85.3688
9.066991803441677 84.8237
9.089360876979615 84.8061
9.111747746589993 84.2927
9.13411751544971 83.7983
9.156505082664324 83.7178
9.178875550323522 84.0699
9.20126381862328 84.338
9.223652438908596 84.4972
9.246023961427412 84.2562
9.26841328802173 83.7262
9.290785518039224 83.6918
9.313175554425882 84.7232
9.335565947154315 84.8775
9.357939245086508 84.7915
9.380330352834827 85.0525
9.40270436697103 85.0633
9.425096193225055 84.8864
9.447488380180165 85.5739
9.469863475295412 85.7886
9.492256385987508 86.3262
9.514632206018318 86.8312
9.537025843935714 87.5855
9.559402392368193 88.2432
9.581796761000229 89.3187
9.604191496441521 90.12700000000001
9.626569144158516 94.6185
9.648964615551032 99.9567
9.671343000390081 101.92
9.693739211225699 99.2578
9.716135793237463 96.2334
9.738515290448102 95.4614
9.760912617143402 96.0342
9.783292860202891 97.7606
9.805690935076182 98.8719
9.828089385495742 99.8216
9.850470754023561 102.177
9.872869957865444 110.698
9.89525208097539 128.19299999999998
9.917652041736662 143.562
9.940052382417589 143.563
9.962435644102392 149.99
9.984836746950979 189.56400000000002
10.007220771957746 263.64599999999996
10.029622640473708 374.465
10.052007432299963 542.258
10.074410069984072 786.178
10.096813093716005 1160.47
10.119199042482517 1598.22
10.141602840636468 1870.29
10.163989564971628 1738.82
10.186394141051062 1111.56
10.208799107559706 512.031
10.231187001965623 240.13299999999998
10.253592751657669 142.99
10.275981430388155 119.78299999999999
10.298387966769793 118.21799999999999
10.320794897965431 121.21600000000001
10.343184759907361 119.72200000000001
10.36559248305461 112.944
10.387983138083852 108.26
10.410391656691655 111.04299999999999
10.432800574501677 123.603
10.455192425893369 142.782
10.47760214443012 168.96400000000003
10.499994797678786 206.69099999999997
10.522405320453982 273.934
10.54479877906917 369.51300000000003
10.567210109595656 476.764
10.5896218454736 538.899
10.612016518879773 528.306
10.634429067781074 390.282
10.656824555333241 232.31599999999997
10.679237920773568 140.373
10.701651695961992 102.639
10.724048411481384 92.7928
10.746463008485165 89.7004
10.768860546937125 87.3932
10.791275969274796 85.445
10.81369180576079 84.2569
10.836090585366925 83.0745
10.858507252467449 81.6559
10.88090686379991 80.6526
10.903324365036394 80.3501
10.925724811614439 80.4681
10.948143150509463 81.8109
10.970561909719066 81.3548
10.992963615930844 79.5102
11.015383218085756 77.0135
11.037785768347074 74.9419
11.06020621697282 74.4192
11.082627090322113 74.27199999999999
11.105030913430326 73.791
11.12745263854165 74.0598
11.149857314510728 77.9653
11.172279894912576 85.3812
11.194702904450653 87.0903
11.217108866490921 82.165
11.239532736615194 76.7228
11.26193956033512 73.9808
11.284364294577085 72.3985
11.306789462371718 70.2908
11.329197585398376 68.7145
11.351623622610898 68.8144
11.37403261614354 67.749
11.396459526308487 67.4779
11.418869393879497 67.1087
11.441297180532617 66.8833
11.463725406927658 66.1924
11.486136592353875 66.2005
11.508565700543707 67.1524
11.530977768845315 69.3213
11.553407762368774 70.2922
11.575838200059769 69.7071
11.598251599479612 67.2752
11.620682927815501 65.4959
11.64309721895548 64.9931
11.665529441478206 64.7218
11.687962112597958 64.5167
11.710377748130886 64.6181
11.732811318753434 64.5419
11.755227854859067 64.4471
11.777662328529495 64.5769
11.800079768750786 64.2298
11.822515149015453 64.3151
11.844950984084935 64.2667
11.867369787303163 63.7305
11.889806534289491 63.6842
11.912226250487029 64.1029
11.934663912939751 64.2348
11.9571020346363 64.6753
11.979523127133968 64.4741
12.001962169624331 65.2369
12.024384183972964 66.4792
12.046824150809913 69.9687
12.069264581333726 75.7563
12.091687985297767 82.7867
12.11412934550045 91.9325
12.136553680195208 104.7
12.158995973632788 122.925
12.181438735204349 147.493
12.20386447284199 173.40900000000002
12.226308172985636 196.25900000000001
12.24873485024193 204.44299999999998
12.271179492516982 180.149
12.293607112949127 140.442
12.316052700916226 107.728
12.338498763250042 85.6278
12.360927805303868 74.0185
12.383374818673879 68.7498
12.405804812803074 66.5043
12.428252780773262 66.0322
12.45070122756722 65.8114
12.473132656675375 65.6081
12.49558206341869 66.1193
12.518014453510101 65.9949
12.540464823770117 65.95
12.562915677315177 66.5607
12.58534951575545 67.1267
12.607801338171472 69.3404
12.630236146511358 75.7429
12.652688941369085 81.9876
12.675124723177234 82.2071
12.697578494048786 77.3982
12.720032754458185 72.4381
12.742470003354093 69.8057
12.764925245138771 69.2215
12.787363476431278 69.7405
12.809819703166806 69.8606
12.83227642391173 70.6382
12.854716135692716 71.1989
12.877173846755147 72.4127
12.899614549869717 72.7753
12.9220732548287 73.3429
12.94453245827299 73.6032
12.966974655289818 74.8221
12.989434858002571 75.7585
13.011878055298721 76.1438
13.034339260862497 77.28
13.056800969391883 78.6368
13.079245674017244 80.8759
13.101708390774869 83.285
13.12415410463411 91.1666
13.146617833206086 104.34700000000001
13.169064559883248 118.05
13.191529303857127 133.415
13.213994557076367 154.358
13.236442809902437 185.658
13.258909083908291 231.791
13.28135835851934 286.723
13.30382565690295 346.50699999999995
13.326293469022952 407.05300000000005
13.348744283242008 429.635
13.371213125129904 386.39300000000003
13.39366497011003 299.875
13.416134845360597 202.743
13.438605238843131 139.075
13.46105863690397 113.53399999999999
13.483530069144786 111.094
13.505984506951902 116.43
13.528456981549432 126.85600000000001
13.550929978879088 140.91899999999998
13.573385983253365 161.187
13.595860028340867 192.204
13.618317081455832 234.82
13.64079217790333 282.752
13.663250283359057 328.199
13.685726434770173 362.673
13.708203115221277 353.954
13.730662806148091 289.642
13.75314054697177 216.229
13.775601299246777 148.08
13.798080104050406 106.895
13.820559442405358 89.6725
13.843021793671388 84.7734
13.865502201420897 82.5694
13.887965623051947 81.9325
13.910447103807167 80.361
13.932929122629764 79.1627
13.955394156785959 78.4439
13.977877254034569 77.8087
14.000343367582113 76.8866
14.022827546871707 76.17699999999999
14.045294743423524 75.42399999999999
14.06778000837062 74.8033
14.090265817715476 74.7518
14.112734645763819 74.319
14.13522154619454 74.3058
14.157691466286913 74.4733
14.180179461423874 74.1836
14.202668005486178 73.273
14.22513957064374 72.5287
14.247629214846473 72.217
14.270101881097517 71.878
14.29259262906496 72.3632
14.315083930490205 73.3974
14.337558255389705 73.6958
14.360050666019726 73.4868
14.382526101071944 72.2963
14.405019624534942 71.1828
14.427513705993134 70.6388
14.449990813291825 70.3534
14.47248601302899 70.2611
14.49496423954951 70.5513
14.517460561197822 70.5741
14.539939910570322 70.2855
14.562437357763558 71.0498
14.58493536931253 72.2391
14.607416409993311 73.2115
14.62991555254159 74.1236
14.652397725157423 73.7776
14.674898002342799 72.6907
14.697398848433282 72.0439
14.719882725991326 72.8217
14.74238471217934 73.8646
14.764869730765593 77.1801
14.787372860692983 81.1776
14.809876564079925 86.6234
14.83236330125751 92.98700000000001
14.854868153850365 100.868
14.877356041159485 112.12299999999999
14.899862046604186 127.589
14.922351087688757 148.597
14.944858249632887 173.237
14.967365991421232 198.144
14.989856770231246 217.61
15.012365673994204 220.64700000000002
15.03485761569738 201.44299999999998
15.05736768508665 166.387
15.07987833888692 130.213
15.102372032001655 100.949
15.124883856909658 82.2754
15.14737872204565 75.1643
15.169891721717274 72.6937
15.192405310371893 72.3958
15.214901940621196 73.1145
15.237416709527137 73.1359
15.259914520936249 73.2005
15.282430473753607 72.484
15.304947020131227 71.1787
15.327446610371178 69.8236
15.349964346154254 68.8929
15.372465126703139 68.5316
15.394984055556009 68.1021
15.417486030076159 67.8827
15.44000615566487 67.6628
15.462526881230803 67.6174
15.485030653812652 67.7785
15.507552581617434 67.9059
15.530057557334603 67.9355
15.55258069104857 67.6784
15.575104429329837 67.8471
15.597611216864632 67.5332
15.620136166564563 67.4924
15.6426441664095 68.3543
15.665170331202765 71.0792
15.687697105158826 74.4013
15.710206930593545 78.3938
15.732734925158933 83.0072
15.755245972089478 88.9886
15.77777519094324 96.6622
15.800287463046663 107.667
15.822817909869592 123.148
15.84534897229804 141.025
15.867863089299354 162.597
15.890395385222186 180.986
15.912910736597423 193.505
15.935444269699861 190.81099999999998
15.957978423016485 171.40200000000002
15.980495633101265 140.32399999999998
16.003031029129367 108.62100000000001
16.02554948280019 84.1978
16.048086125229432 71.9671
16.070623392487107 67.9626
16.09314371869582 66.707
16.11568223789321 65.8161
16.13820381691126 64.7939
16.160743591742527 63.4336
16.183283996022084 62.1283
16.205807461423195 61.2766
16.228349126881973 60.4758
16.25087385432698 60.6867
16.27341678466365 59.8327
16.29594277784926 60.0007
16.31848697676433 60.2742
16.341031811604868 60.6098
16.36355971058487 60.8918
16.3861058195587 60.6192
16.40863499352978 59.3421
16.431182380342005 58.5907
16.453730407713202 57.8415
16.476261501364792 57.2234
16.498810812136167 56.8367
16.52134319004079 57.0218
16.54389378792203 57.0247
16.566445031001553 56.7409
16.588979342490088 56.5469
16.61153187824822 56.2978
16.634067483263312 56.1834
16.656621315414416 56.1835
16.679175797408888 55.9323
16.701713349928728 55.968999999999994
16.72426913389191 56.3911
16.74680798922351 56.6137
16.76936507887444 56.5488
16.791905240734874 56.3387
16.814463639794468 56.1492
16.837022695210294 56.1893
16.859564824093756 56.7451
16.882125194503903 57.6502
16.904668639217885 58.6365
16.927230328348003 58.692
16.949792678493612 58.8285
16.972338104193863 57.7627
16.994901778652235 57.312
17.017448529496576 57.2237
17.040013531998152 57.2398
17.06257920018044 57.674
17.0851279459922 58.5965
17.107694947817667 59.49
17.130245028099072 60.3529
17.15281336730298 61.8385
17.17536478578733 63.4321
17.19793446610687 65.4884
17.220504818648422 67.8463
17.243058251703697 70.2604
17.265629950971032 73.9059
17.288184731571736 78.2125
17.310757781306908 82.2508
17.33333150794385 84.449
17.355888317140174 84.1662
17.37846339986244 80.2376
17.401021565958885 74.7818
17.42359800851343 68.9081
17.44617513265564 64.5495
17.468735341390783 62.0906
17.491261035594565 60.9489
17.51396340099364 60.4366
17.536490463869136 60.6471
17.559018209820174 60.6968
17.58154663977963 60.657
17.604251766089718 60.8258
17.626781572227713 61.0245
17.64931206518155 61.218999999999994
17.671843245885103 61.9583
17.69455114821572 62.1853
17.717083712612634 62.485
17.739616967569667 62.6706
17.762150914021706 62.9678
17.78486160749854 62.8181
17.807396945166804 63.3517
17.829932977143503 64.215
17.85246970436452 65.8786
17.875183204129467 68.089
17.897721330097664 70.4485
17.920260154126645 72.9389
17.942799677153296 76.5406
17.9655159983646 79.3699
17.988056927677544 83.9647
18.010598558807683 90.5208
18.033140892692916 98.6483
18.05586005052525 107.54
18.07840379824407 117.416
18.10094825154059 127.986
18.12366954819864 137.74
18.146215420998306 141.778
18.16876200220057 138.671
18.191309292745153 126.79799999999999
18.214033452627167 112.456
18.236582170236648 99.1566
18.259131600016456 90.9308
18.281681742907335 88.4959
18.304408781233683 90.6453
18.32696035875955 94.4651
18.349512652227624 98.8986
18.372065662579683 104.17200000000001
18.394795594587553 107.148
18.41735004715306 106.14
18.43990521943684 101.05
18.46246111238171 92.9778
18.485193953325208 82.3416
18.507751296070428 73.8993
18.530309362314178 68.7377
18.552868153000343 65.5829
18.57560391815056 64.0055
18.59816416623245 63.5042
18.620725141597372 62.9159
18.643286845190268 62.3914
18.666025549835414 62.0071
18.688588718427933 61.346000000000004
18.711152618092243 60.9531
18.73389353884365 60.8617
18.75645890921984 60.5712
18.77902501351406 60.1216
18.801591852673102 60.1831
18.824335739722738 59.5025
18.846904057212626 59.5226
18.8694731124168 59.2545
18.89204290628315 59.3887
18.914789774966803 59.0774
18.937361054791623 58.7954
18.959933076131318 58.4993
18.982505839934877 58.4068
19.00525570560582 58.4114
19.027829963004184 58.2674
19.05040496572238 58.443999999999996
19.072980714710468 58.3824
19.095733592739563 58.5217
19.11831084296757 59.0546
19.140888842324735 59.3668
19.16346759176222 59.8688
19.18622349753803 60.4938
19.208803755869358 61.2102
19.231384767143577 62.2126
19.253966532312948 63.1267
19.276725481241822 64.9867
19.29930876296784 66.8764
19.3218928014549 69.4483
19.34465404436217 72.3328
19.36723960516257 75.3128
19.389825925592426 76.999
19.412413006605938 77.6576
19.43517731967805 75.138
19.457765930683355 71.3507
19.48035530514408 66.7493
19.50294544401556 62.4877
19.525712842708348 59.0977
19.54830451925909 57.2335
19.570896963095727 55.7866
19.593490175174704 55.2371
19.616260674962184 55.2391
19.638855432416964 54.833999999999996
19.661450960992624 54.9613
19.68404726164677 54.8875
19.706820878021247 54.5275
19.729418731756834 54.8799
19.752017360452857 54.5933
19.77461676506804 54.8096
19.797393513540218 55.0103
19.819994478951667 55.3062
19.84259622316767 55.8373
19.8651987471481 56.2584
19.887978643247177 56.655
19.91058273574792 56.9266
19.933187610901943 57.6976
19.955969879466828 58.7451
19.97857632894404 59.7649
20.00118356396599 61.1422
20.023791585494575 62.9807
20.046577028914875 65.4254
20.069186632506966 67.3728
20.091797025500632 69.381
20.114408208858933 70.5956
20.137196842715273 71.3647
20.159809615886765 70.5393
20.18242318232135 68.4713
20.20503754298326 66.0896
20.227829382875154 64.2244
20.250445341109344 63.7472
20.27306209647285 63.6801
20.29567964993108 64.3427
20.31847471147704 65.172
20.34109387027612 66.223
20.363713830075454 66.7794
20.386334591841646 66.0301
20.409132890679302 64.1755
20.431755265564437 61.1568
20.454378445325528 58.284
20.477002430930366 55.8831
20.499803982716553 54.4238
20.522429589228004 53.2447
20.54505600449589 52.799
20.567683229489194 52.5267
20.590488049900088 51.9981
20.61311690359731 51.7582
20.63574656993626 51.3249
20.658553853717297 50.9445
20.681185154618298 50.8109
20.703817271080066 50.8313
20.72645020407368 50.6454
20.749260783967177 50.477
20.771895359337133 50.38399999999999
20.794530754161617 50.2345
20.817166969412938 50.1252
20.83998086114876 50.0965
20.86261872660049 49.9141
20.885257415405402 49.9533
20.90789692853701 49.9539
20.930714147864748 49.794
20.953355319030678 49.9188
20.97599731745334 49.9892
20.99864014410749 49.8969
21.021460706796564 49.8341
21.044105199328826 50.0382
21.06675052302631 50.2239
21.089396678865015 50.4444
21.112220600704806 50.592
21.134868430275347 51.0774
21.15751709492456 51.4406
21.180166595629693 51.4056
21.202993892429635 51.8567
21.22564507473034 52.1822
21.24829709602816 52.4143
21.27112693608965 52.7526
21.293780644891275 52.9981
21.316435195634053 52.3678
21.339090589297417 51.7194
21.361923832041875 51.2731
21.384580921090404 50.4899
21.407238856007325 49.8728
21.429897637773326 49.8926
21.45273429906592 49.6708
21.475394784108598 49.4708
21.498056118951983 49.6431
21.520718304578022 49.7604
21.543558400304388 49.8628
21.566222297108816 50.0481
21.58888704765135 50.2004
21.61155265291521 50.5297
21.63439619898156 51.0749
21.657063523335786 51.1642
21.67973170537063 51.855
21.7024007460706 52.2716
21.72524775840385 52.9374
21.747918526116475 53.9346
21.770590155457388 54.8218
21.79326264741238 56.2848
21.816113141960237 57.8361
21.838787368860547 59.53
21.861462461341976 61.3107
21.884315579735777 63.2453
21.90699241312273 64.5142
21.92967011506078 65.5747
21.95234868653799 66.2056
21.9752053151131 65.6926
21.997885635446785 64.0631
22.020566828293532 62.0743
22.04324889464272 59.8656
22.066109049404666 58.2566
22.088792872571794 57.3219
22.111477572219204 57.1223
22.1341631493376 57.0266
22.157026846313123 57.2906
22.179714188221507 56.9051
22.202402410582668 56.1184
22.22509151438863 54.864
22.24795876962584 53.3734
22.270649646204486 52.3445
22.293341407213727 51.474
22.316034053646906 50.8328
22.338904883215342 50.412
22.36159931041458 50.31399999999999
22.38429462602756 50.2958
22.40699083104897 50.1014
22.429865251039757 50.13399999999999
22.452563244831367 50.2289
22.47526213102522 50.2587
22.49813925616515 50.0722
22.520839937143307 49.7286
22.543541513520587 49.8356
22.56624398629403 49.7822
22.589124730075895 49.742
22.611829005656723 49.9184
22.63453418063466 49.9046
22.657240256008077 50.0787
22.680124634582935 50.2846
22.70283252079775 50.5592
22.725541310413075 50.9309
22.74825100442868 51.1529
22.771139033969575 51.5124
22.79385054687155 51.6162
22.81656296718292 52.2442
22.83927629590484 52.9417
22.862167992606945 53.8076
22.88488314827121 54.9704
22.907599215359284 55.7662
22.93031619487366 56.6835
22.953211574954405 57.6108
22.975930389478226 58.5542
22.998650119445763 59.302
23.02137076586092 59.036
23.044269845560063 58.0277
23.06699233506288 56.5125
23.089715744034912 55.0061
23.112617610931565 53.1311
23.135342869061212 51.7664
23.158069049684816 50.9119
23.1807961538087 50.2673
23.20370174880544 50.2475
23.226430710184808 50.1986
23.249160598093425 50.1965
23.271891413539002 50.1747
23.294800752937697 50.0762
23.31753343374794 50.348
23.340267045128353 50.4597
23.36300158808808 50.7066
23.38591468821339 51.0664
23.408651104658304 51.5347
23.431388455719986 52.0028
23.454126742409 52.5527
23.4770436196085 53.4484
23.499783787914662 54.7018
23.522524894889884 55.3488
23.54526694154616 56.1782
23.56818761219047 57.3777
23.59093154860734 58.2872
23.613676427751283 59.028
23.636422250635754 58.5074
23.659346731118656 57.5373
23.68209445191868 55.9616
23.704843119509587 53.9732
23.72759273490623 51.864
23.750521041644767 50.1968
23.77327256312355 49.006
23.796025035462787 47.9673
23.818956224555475 47.3423
23.841710609113413 47.2844
23.86446594758979 46.9917
23.887222241002014 46.8922
23.910157285144578 46.4331
23.932915498962537 46.3468
23.955674670778713 46.2664
23.978434801611975 46.1069
24.001373717286125 45.8396
24.024135776723917 45.8936
24.046898798245582 45.6864
24.06966278287146 45.7
24.092605586582614 45.4663
24.115371508023642 45.3493
24.1381383956401 45.1883
24.16090625045381 45.0399
24.183852958731244 45.0991
24.206622758582608 45.0216
24.229393528706886 44.8381
24.252165270127392 44.8544
24.27511589952438 44.6937
24.297889594216997 44.5305
24.32066426328598 44.5396
24.34343990775613 44.3736
24.36639447485003 44.4326
24.38917208083877 44.2995
24.41195066531332 44.1317
24.43490819850244 44.2205
24.457688750692377 44.0006
24.48047028445616 43.8544
24.503252800821233 44.2107
24.526214300784112 44.1701
24.548998793132213 44.0889
24.57178427117417 43.8475
24.59457073593893 44.0442
24.617536219319863 44.0518
24.64032466834748 44.1545
24.663114107195035 43.997
24.685904536893013 43.6919
24.708874020360852 43.6863
24.731666442613744 43.7047
24.754459858818787 43.5622
24.777254270007962 43.4195
24.80022777025625 43.418
24.82302418230472 43.2475
24.845821592443674 43.4161
24.86862000170663 43.3023
24.891597535453727 43.0553
24.914397953892728 43.4568
24.93719937456671 43.2375
24.96000179851076 43.3658
24.98298338249997 43.556999999999995
25.00578782394922 43.8668
25.028593271784167 43.8324
25.05157790644186 44.1431
25.07438537804115 44.3012
25.097193859145293 44.391000000000005
25.120003350792075 44.5741
25.142992065061257 45.0389
25.165803588823465 45.312
25.18861612625217 45.6897
25.211429678386736 45.8042
25.234422489079968 45.7598
25.257238081693636 45.728
25.280054692141732 45.8299
25.3028723214652 45.7712
25.325869245420463 45.8895
25.348688923599397 45.9361
25.371509623787006 45.9766
25.394331347025812 45.7994
25.41733240110666 45.5392
25.440156181590016 44.9957
25.46298098826268 44.5
25.48580682216873 43.7909
25.50881202326435 43.0707
25.53163992281684 42.7938
25.55446885274561 42.3512
25.577298814096377 41.9831
25.600308179121807 41.9665
25.623140214533745 41.9869
25.64597328451537 41.8887
25.66898578564376 41.5228
25.691820936010206 41.5728
25.714657124097695 41.5404
25.737494350954734 41.5862
25.760511045684957 41.5431
25.783350361364224 41.6735
25.806190718969255 41.5458
25.82903211955018 41.7595
25.852053024868923 41.7735
25.874896522722523 41.7287
25.897741066713106 41.522
25.920586657892454 41.4941
25.943611790812668 41.9661
25.966459487728237 42.0199
25.989308234998564 41.8769
26.01215803367705 42.3912
26.03518741123814 42.4209
26.05803932412957 42.422
26.080892291600094 42.5219
26.10374631470478 42.5286
26.12677995397268 42.6323
26.14963609978026 42.7621
26.172493304397875 42.4885
26.19535156888223 42.3049
26.218389486949604 41.9382
26.241249882640123 41.7814
26.26411134137826 41.4745
26.28715248187403 41.4739
26.31001607820869 41.3166
26.3328807407756 41.015
26.35574647063438 41.2742
26.37879191991473 41.0852
26.401659795896734 41.1553
26.424528742360263 41.2388
26.447398760366614 41.3807
26.470448535598294 41.5522
26.49332070826805 41.751000000000005
26.516193955675355 42.0717
26.53906827888316 42.1912
26.562122397260108 42.271
26.584998883685063 42.5201
26.607876449110325 42.9525
26.63075509460056 43.0808
26.65381357334404 43.1159
26.67669439061878 43.1261
26.699576291163382 43.0846
26.722459276044212 43.1395
26.745522132402975 42.8877
26.768407297649354 42.6593
26.791293550442003 42.2904
26.814180891848974 41.9647
26.837248143099337 41.5736
26.860137673466657 41.4648
26.88302829566349 41.3286
26.90592001075963 41.2115
26.92899167420566 41.0102
26.951885586870763 40.5657
26.974780595655517 40.4661
26.99785558178161 40.2424
27.020752794605112 40.0535
27.043651106772522 39.8584
27.06655051935668 39.902
27.089629948036183 39.8269
27.112531573292053 39.7107
27.135434302194138 39.7805
27.158338135817015 39.5609
27.181422024430987 39.5668
27.204328079372566 39.4514
27.22723524226965 39.5313
27.250143514198573 39.6676
27.273231880156334 39.5717
27.296142382065014 39.4362
27.319053996245536 39.2917
27.341966723775965 39.4319
27.365059584515222 39.5824
27.38797455070062 39.5833
27.410890633481237 39.3016
27.433807833936918 39.2809
27.456905206923906 39.3855
27.47982465472398 39.3658
27.502745223449743 39.4445
27.525666914182825 39.575
27.548768816912457 39.5966
27.571692763693633 39.4354
27.59461783573812 39.3386
27.617723149491244 39.1428
27.640650484125285 39.0678
27.66357894728264 39.1062
27.686508540048052 39.0999
27.709618414237887 38.9846
27.732550278321757 38.7755
27.755483275279115 38.8003
27.778417406196485 38.7441
27.801531858397514 38.7962
27.824468269376716 38.8158
27.847405817586786 38.7601
27.870344504116094 38.9744
27.893463551932008 39.1022
27.916404527281053 39.2944
27.93934664422563 39.2514
27.962289903855886 39.2666
27.98541356491974 39.412
28.00835912214229 39.4985
28.03130582533231 39.7132
28.054253675581805 39.8089
28.077381967556104 39.9029
28.100332124185126 39.954
28.123283431160893 39.8627
28.146235889577238 39.7913
28.169368830154156 39.6709
28.192323603752033 39.4677
28.215279532083304 39.1564
28.238415973016764 39.0586
28.261374223145094 38.9531
28.284333631303806 38.7692
28.307294198589954 38.6151
28.330435319167677 38.225
28.353398217078915 37.9292
28.376362277420153 37.7099
28.39932750129032 37.4969
28.422473319286713 37.3951
28.44544088262495 37.4125
28.468409612800283 37.2298
28.491379510913497 37.0722
28.51453004413313 36.895
28.53750229057244 36.9763
28.56047570826344 36.8413
28.583450298308804 36.7811
28.606605564586562 36.6927
28.629582511831156 36.5414
28.65256063474956 36.5428
28.675539934446338 36.5599
28.698699951647605 36.5512
28.72168161743193 36.3618
28.74466446331978 36.4132
28.767648490417624 36.2566
28.790813276438353 36.1907
28.813799678527303 36.1913
28.836787265157085 36.3542
28.859955641890075 36.3391
28.882945610203045 36.2527
28.905936766392035 36.1706
28.928929111566863 36.2439
28.952102288520145 36.1167
28.975097024308607 36.0478
28.998092952423807 35.902
29.021090073977508 35.8392
29.04426806913204 35.8003
29.067267590245258 35.4979
29.090268308143695 35.5761
29.11327022394099 35.5077
29.13645305530891 35.3353
29.159457379627167 35.2649
29.18246290519685 35.1995
29.20546963313352 35.1278
29.22865731875826 35.2064
29.25166646419296 35.1421
29.27467681535305 35.0376
29.29768837335608 35.1475
29.320880931312562 35.1951
29.34389491580634 35.0108
29.366910110507334 35.0543
29.38992651653503 35.1116
29.41312396492981 35.1194
29.436142806456754 35.0856
29.45916286268059 34.8898
29.48236399319994 34.834
29.50538649169417 34.7356
29.528410208259935 34.7679
29.55143514402014 34.4667
29.574641196749695 34.259
29.597668583816574 34.1418
29.6206971934585 33.9766
29.64372702680042 34.101
29.666938019934474 33.9583
29.689970313635285 33.7454
29.713003834422636 33.7701
29.73603858342347 33.9832
29.759254535188578 33.771
29.78229175361658 33.6648
29.80533020365064 33.7232
29.82836988641968 33.6526
29.85159081507472 33.5704
29.874632976355343 33.6733
29.89767637376955 33.6332
29.920721008448314 33.4276
29.9439469322847 33.4637
29.96699405457564 33.4412
29.9900424175358 33.4487
30.013092022298157 33.3652
30.03632295963995 33.2884
30.059375061131373 33.4274
30.08242840783577 33.3531
30.105483000888153 33.2662
30.128718970092244 33.2145
30.151776069006917 33.2901
30.17483441768648 33.2497
30.198074175317235 33.2679
30.221135036724256 33.3168
30.24419715131772 33.24
30.267260520236203 33.1406
30.290505341942243 33.1133
30.313571232750228 33.2033
30.336638381310948 33.0928
30.35970678876503 33.1136
30.38295669299435 33.0465
30.40602763151657 33.0799
30.429099832366074 33.0674
30.452173296685572 32.8254
30.47542830191959 32.8759
30.498504306502497 32.8227
30.521581577995562 32.8752
30.544660117543582 32.9296
30.56792024229725 32.9836
30.59100133132069 32.9403
30.614083691845494 32.8707
30.637167325018545 32.9349
30.660432587840603 33.0756
30.683518779717886 32.9534
30.70660624769615 33.0504
30.729694992924372 32.9809
30.75296541239743 33.0064
30.77605672557558 32.9186
30.799149319462742 32.9999
30.8224236211637 32.7863
30.845518789950724 32.7699
30.868615242910597 32.7265
30.891712981195973 32.4856
30.91499247215866 32.4578
30.938092794619365 32.3682
30.96119440587579 32.2765
30.984297307082752 32.1855
31.00758200598383 32.0747
31.030687500658694 31.9448
31.053794288760695 31.9427
31.076902371446767 31.8405
31.100192296997445 31.8709
31.12330298246119 31.8741
31.14641496599209 31.7908
31.169528248749216 31.724
31.19282341969534 31.7122
31.215939314557186 31.8087
31.239056512134788 31.6845
31.262175013589378 31.7238
31.28547544871168 31.5346
31.30859657161541 31.5058
31.331719001892175 31.6156
31.35484274070538 31.6983
31.378148458819545 31.7004
31.401274828443725 31.6034
31.424402510106933 31.6358
31.447712205419993 31.7136
31.470842524931633 31.4839
31.493974159989783 31.5878
31.51710711176168 31.5539
31.54042212308802 31.6268
31.563557722100917 31.5512
31.586694641341655 31.4227
31.609832881979628 31.3362
31.63315322823208 31.3177
31.656294125521327 31.2049
31.679436347728515 31.12
31.70257989602529 30.9955
31.725905596152327 30.9313
31.74905181052835 30.8956
31.772199354521323 31.0293
31.79534822930507 31.0039
31.818679302290967 30.8918
31.84183085259981 30.9037
31.864983737233473 30.8925
31.88813795736804 30.9217
31.911474422233013 30.7263
31.934631327356435 30.8389
31.9577895715215 30.8323
31.980949155906522 30.7947
32.004291031706956 30.8772
32.027453310562606 30.6714
32.05061693318573 30.5401
32.07396288236386 30.6994
32.09712920658542 30.5202
32.12029687812702 30.3944
32.14346589817093 30.2269
32.166817291729984 30.3159
32.18998902288583 30.1911
32.21316210610336 30.1181
32.23633654256711 30.0848
32.259693399663725 30.0212
32.282870556771144 29.9487
32.30604907069099 29.8367
32.329228942610065 29.842
32.35259128243769 29.7058
32.375773884550505 29.7187
32.398957848235646 29.6075
32.422143174682176 29.6218
32.445511016471215 29.4867
32.468699082679954 29.4491
32.49188851523011 29.4552
32.51507931531304 29.3711
32.538452678331 29.3416
32.56164622776311 29.3597
32.58484114831493 29.2575
32.60803744118015 29.2312
32.631416344731896 29.1757
32.654615396551876 29.3257
32.67781582427913 29.2345
32.701198898634416 28.9893
32.72440209253756 28.9296
32.747606665947124 28.996
32.77081262006088 28.8664
32.79420126883317 28.8361
32.81740999876112 28.9261
32.840620112999424 28.7712
32.86383161274818 28.7522
32.88722585534586 28.7759
32.91044014056596 28.7306
32.933655814909734 28.7346
32.95687287957963 28.7295
32.98027273544904 28.6274
33.00349259526636 28.5997
33.026713849030116 28.6453
33.04993649794511 28.6826
33.073341986570746 28.4936
33.09656744032826 28.4873
33.11979429286444 28.4139
33.14302254538647 28.4223
33.166433686291185 28.4126
33.18966475336992 28.4215
33.212897224069096 28.3027
33.23613109959831 28.3547
33.259547912343415 28.2373
33.2827846121627 28.3357
33.306022720453775 28.1477
33.32926223842861 28.0908
33.352684742614166 28.0424
33.37592709463173 27.9991
33.399170859982064 28.1546
33.422597648419426 27.9799
33.44584425514446 27.8422
33.46909227885668 27.8423
33.4923417207723 27.6934
33.51577423505344 27.6916
33.539026528130385 27.5893
33.56228024307245 27.5749
33.585535381098246 27.4711
33.60897364093058 27.44
33.63223163992385 27.4538
33.6554910656699 27.3932
33.678751919389796 27.3662
33.702195944520106 27.1915
33.72545966903325 27.3128
33.74872482519663 27.1501
33.771991414233746 27.2058
33.79544122444841 27.1829
33.81871069412428 27.084
33.84198160035767 27.0997
33.86525394437455 27.0159
33.88870955949969 26.9428
33.911984794020626 26.9869
33.93526147001624 26.9154
33.958539588715006 26.8885
33.98200102861669 26.8844
34.0052820477047 26.776999999999997
34.02856451319451 26.7227
34.05203033759056 26.6406
34.07531571090147 26.6566
34.09860253431845 26.611
34.121890809074316 26.4708
34.145362493118924 26.6085
34.16865368561615 26.4687
34.191946333164054 26.5168
34.21524043699793 26.3814
34.23871800066799 26.4239
34.26201503218366 26.2682
34.28531352370466 26.2961
34.30861347646881 26.2441
34.33209693978188 26.2051
34.3553998301885 26.1618
34.378704185565205 26.0137
34.402010007152356 26.0482
34.42549939016683 26.0896
34.44880815937748 25.9191
34.472118398533134 25.9201
34.49543010887669 25.8487
34.51892543169198 25.7963
34.54224009966052 25.7988
34.56555624255917 25.8825
34.58887386163339 25.73
34.61237514439016 25.6611
34.6356957311114 25.615
34.65901779775809 25.570999999999998
34.68252356662995 25.5666
34.705848608458616 25.5243
34.72917513396849 25.5302
34.75250314440949 25.4661
34.77601490857862 25.4529
34.799345904259795 25.2599
34.82267838863559 25.3195
34.846012362958525 25.2874
34.869530142679984 25.212
34.89286711232212 25.1612
34.91620557568269 25.1575
34.93954553401677 25.1238
34.9630693495876 25.1478
34.986412313340814 25.0763
35.00975677584668 25.0806
35.033102738362956 25.1026
35.05663261012228 25.0128
35.0799815881786 25.0414
35.10333207003229 24.8941
35.12668405694369 24.89
35.150220005273056 24.9145
35.17357501786656 24.8792
35.19693153931268 24.803
35.220289570874385 24.8103
35.24383161619786 24.7419
35.267192683604904 24.7295
35.290555264930376 24.699
35.314101899412165 24.6881
35.33746752422433 24.6327
35.36083466676374 24.6558
35.38420332829803 24.6408
35.407756095629054 24.5719
35.43112781085063 24.5283
35.45450104888391 24.5395
35.477875810999194 24.5787
35.50143473172161 24.4546
35.52481255774625 24.4609
35.54819191167777 24.399
35.57157279478914 24.4648
35.595137889488406 24.2977
35.61852184675279 24.217
35.641907337029984 24.201999999999998
35.665294361595684 24.162
35.68886565090076 24.0595
35.7122557598848 24.0817
35.73564740699838 24.086
35.759040593519934 24.0354
35.78261809810353 24.0007
35.80601437933051 23.8959
35.829412203814705 23.932
35.85281157283719 23.8976
35.876395313415884 23.8469
35.8997977874528 23.7339
35.92320180988546 23.7335
35.946790244133936 23.6979
35.97019737933222 23.7055
35.993606066789866 23.6829
36.01701630779276 23.5978
36.04061101440684 23.5727
36.06402437852291 23.538
36.08743930005611 23.5574
36.1108557802951 23.4205
36.13445678011326 23.3762
36.15787639383515 23.39
36.18129757014299 23.3478
36.20472031032821 23.415
36.22832762423364 23.3107
36.25175350829375 23.3153
36.275180960119776 23.1704
36.298609981005924 23.1722
36.32222362992669 23.1838
36.34565580510207 23.2189
36.36908955323448 23.2315
36.39252487562093 23.0794
36.416144880530226 23.008000000000003
36.43958336764275 22.9432
36.463023432914625 23.0138
36.486465077645676 22.9479
36.51009145956204 22.9362
36.53353627947859 22.9359
36.55698268276811 22.8597
36.58043067073321 22.7711
36.60406345072071 22.7584
36.62751462435344 22.8348
36.65096738658405 22.7616
36.67460498210655 22.6791
36.69806093788647 22.6563
36.72151848619297 22.6096
36.744977628333636 22.5377
36.76862165890998 22.5042
36.79208400512205 22.4966
36.81554794910557 22.4562
36.83901349217101 22.3483
36.862663978991606 22.3738
36.88613273667352 22.4144
36.90960309738324 22.3257
36.933075062434064 22.254
36.95673202673572 22.2437
36.98020721697122 22.2213
37.003684015502365 22.1406
37.027162423645365 22.0838
37.050825886711465 22.1419
37.07430753063053 22.0405
37.09779078812467 21.9899
37.121275660513014 22.0374
37.144945643673694 22.0162
37.16843376245278 21.9138
37.19192350009803 21.9945
37.215414857931435 21.8661
37.239091382563885 21.7739
37.262585997426164 21.8132
37.28608223645736 21.75
37.309763684451696 21.7128
37.33326318851098 21.7453
37.356764320726555 21.6931
37.380267082425526 21.6417
37.40395510942588 21.6429
37.42746114683234 21.543000000000003
37.45096881771841 21.5368
37.474478123414166 21.5312
37.49817275092816 21.4411
37.52168534303452 21.4539
37.54519957395567 21.3758
37.568715445024665 21.3072
37.592416694607714 21.2446
37.61593586281424 21.3016
37.63945667518264 21.335
37.66297913304891 21.2093
37.68668702630454 21.1963
37.710212792059274 21.1739
37.733740207334854 21.1308
37.757269273470364 21.003
37.780983832050374 21.0305
37.80451621684926 20.9081
37.82805025654007 20.9725
37.851585952464795 20.9665
37.8753071980695 20.9212
37.89884622345676 20.8911
37.92238690911902 20.8257
37.94611318753442 20.7839
37.969657210779765 20.7422
37.99320289834801 20.7406
38.016750251586465 20.6762
38.04048325513017 20.7115
38.06403395679343 20.6699
38.087586328183946 20.6146
38.11114037065203 20.622
38.13488012115898 20.5964
38.1584375229181 20.5263
38.181996599821 20.5206
38.205557353221124 20.5291
38.229303872575656 20.4754
38.2528679961576 20.4244
38.27643380031219 20.4032
38.30000128639589 20.4022
38.32375459653193 20.3566
38.34732546371299 20.3204
38.37089801690786 20.2608
38.39447225747609 20.207
38.418232380377425 20.2335
38.441810012983396 20.1722
38.46538933705673 20.1322
38.488970353960084 20.0963
38.51273731166058 20.0694
38.536321731567014 20.0073
38.55990784840681 19.9579
38.58367995004091 19.9523
38.60726947812959 19.867
38.63086070726198 19.8613
38.654453638806274 19.8625
38.678232613930824 19.8177
38.70182896773327 19.7752
38.72542702806741 19.7757
38.7490267963045 19.7122
38.77281266709232 19.7248
38.79641586862214 19.6564
38.8200207821842 19.5952
38.843627409152944 19.6079
38.86742019782782 19.5414
38.891030269149255 19.5406
38.914642058016156 19.5015
38.938255565806124 19.507
38.96205529464307 19.4649
38.98567225787121 19.3916
39.00929094417078 19.382
39.03291135492255 19.3892
39.05671804624804 19.3543
39.080341923549106 19.2711
39.103967529460334 19.2796
39.127594865365744 19.2219
39.15140854155791 19.169
39.17503935514948 19.1228
39.19867190290282 19.0644
39.22249083587951 19.0974
39.24612686969409 19.1389
39.269764641845306 19.018
39.293404153722804 19.046
39.317230110864074 18.9496
39.34087311998506 18.9356
39.36451787301696 18.8871
39.388164371352595 18.8903
39.41199737518003 18.8114
39.43564738196752 18.8795
39.45929913825317 18.8528
39.48295264543308 18.7773
39.506792718520884 18.7792
39.530449745387216 18.7289
39.55410852735203 18.686
39.57776906581474 18.6882
39.60161623079 18.6724
39.625280300200025 18.6406
39.64894613032202 18.5956
39.67261372255866 18.5651
39.6964680021016 18.5475
39.72013913657293 18.4319
39.74381203738292 18.476
39.76748670593756 18.4402
39.79134812278169 18.4201
39.81502634488497 18.3312
39.83870633896685 18.3361
39.862388106436654 18.3422
39.88625668336918 18.2906
39.90994201572829 18.2566
39.933629125719285 18.1961
39.957503091207826 18.1972
39.9811937746168 18.2017
40.00488623990914 18.1878
40.02858048850006 18.1103
40.05246165409549 18.0388
40.076159487492085 18.0319
40.099859108448875 18.0491
40.123560518384345 17.9954
40.1474489070226 17.9069
40.171153913178564 17.8903
40.194860712584955 17.869
40.2185693066637 17.8706
40.242464941335314 17.8327
40.26617714307655 17.78
40.289891143772046 17.7703
40.3136069448471 17.7337
40.33750984859743 17.7658
40.3612292688043 17.6929
40.3849504936829 17.6672
40.40867352466194 17.7323
40.43258372059144 17.5631
40.45631038219906 17.6644
40.48003885420956 17.5853
40.503769138055105 17.5754
40.52768664931955 17.5352
40.55142057531802 17.484
40.57515631746428 17.4464
40.599079334038514 17.4246
40.62281872700477 17.3598
40.64655994043941 17.3676
40.67030297578061 17.2674
40.69423334835778 17.3053
40.71798004609188 17.302
40.74172857006355 17.2804
40.76547892171441 17.279
40.7894166736039 17.1477
40.813170699248566 17.1812
40.83692655691388 17.2042
40.86068424804498 17.1435
40.884629402612525 17.0729
40.908390779366385 17.139
40.932153993938 17.0892
40.95591904777605 17.0032
40.979871628443995 16.9517
41.003640379561936 17.0132
41.02741097430883 16.9723
41.05118341413683 16.9311
41.075143444384416 16.8684
41.098919593177826 16.8446
41.1226975914255 16.8597
41.14647744058318 16.8091
41.170444943946755 16.7516
41.19422851378379 16.7313
41.218013938914645 16.7326
41.24198706625173 16.6899
41.26577622087193 16.6617
41.289567235177785 16.5892
41.31336011063129 16.5453
41.337340752422875 16.5362
41.361137369129835 16.5779
41.38493585138705 16.5279
41.40873620066004 16.5173
41.43272438060107 16.514
41.45652848292052 16.441
41.48033445666918 16.3651
41.50414230331616 16.3676
41.528138045159764 16.3213
41.551949656675205 16.2602
41.575763145513235 16.3483
41.59957851314666 16.2579
41.62358184070442 16.197
41.64740098505737 16.1998
41.6712220126409 16.1885
41.69504492493139 16.1661
41.71905586207357 16.1258
41.74288256296395 16.0742
41.766711153007456 16.0729
41.79054163368412 16.0515
41.814560204340054 15.9956
41.838394485526365 16.0643
41.86223066180303 15.9897
41.88625497706819 15.9775
41.910094962812 15.9555
41.93393684811168 15.9405
41.95778063445365 15.8799
41.981812625263366 15.8635
42.00566023303407 15.8135
42.029509746323676 15.7686
42.05336116662236 15.7791
42.077400857069705 15.7822
42.10125611078846 15.7254
42.12511327600405 15.6179
42.14897235421036 15.636
42.173019768448455 15.6799
42.19688269209613 15.6339
42.22074753323349 15.5912
42.24461429335818 15.5612
42.268669455600495 15.5034
42.292540073217886 15.5058
42.31641261433284 15.4538
42.34028708044675 15.3947
42.36435001496739 15.4537
42.38822835065557 15.5082
42.41210861586426 15.409
42.4359908120986 15.3321
42.46006154323262 15.3494
42.48394762115317 15.2989
42.507835634632315 15.2537
42.531912233047436 15.2298
42.55580413732265 15.2303
42.579697981698 15.2173
42.60359376768525 15.1456
42.62767820545945 15.1025
42.65157789440821 15.0983
42.67547952952185 15.1068
42.699383112316 15.097000000000001
42.72347541395347 15.0034
42.74738291190531 14.9353
42.771292362102166 15.0051
42.795203766063516 14.9576
42.819303956130405 14.9532
42.843219287476536 14.8986
42.86713657716324 14.8512
42.89105582671383 14.8201
42.91516392983864 14.8326
42.939087119032166 14.8284
42.963012272677304 14.7698
42.98693939230129 14.7379
43.01105543317513 14.7087
43.034986504731386 14.707
43.05891954686589 14.669
43.08285456110972 14.6741
43.10697856448665 14.6103
43.130917542983475 14.5996
43.15485849820081 14.6011
43.17880143167367 14.5767
43.20293342237094 14.5611
43.226880332449 14.4686
43.25082922540554 14.4918
43.27496722682525 14.4716
43.29892010567796 14.4295
43.32287497204102 14.4151
43.34683182745632 14.395
43.370977859791836 14.3497
43.39493871351105 14.34
43.41890156092628 14.3099
43.44286640358341 14.2781
43.46702049182749 14.2413
43.49098934522816 14.2619
43.51496019852649 14.2305
43.5389330532723 14.1541
43.56309522248204 14.1627
43.58707210044314 14.1368
43.61105098451946 14.0731
43.63503187626491 14.0882
43.659202151562134 14.0524
43.68318707902681 14.0409
43.70717401884041 13.995
43.731162972560874 14.001
43.75534137913236 13.9128
43.779334381108384 13.9066
43.803329401683186 13.9377
43.82732644241872 13.8775
43.8515130055166 13.8286
43.87551410707659 13.8248
43.89951723350145 13.8529
43.923709934595614 13.7847
43.94771713129917 13.780999999999999
43.97172635758096 13.7366
43.99573761501002 13.7189
44.0199385169922 13.6944
44.04395385732619 13.7006
44.067971233533086 13.6875
44.09199064718605 13.6424
44.11619977548961 13.6134
44.14022328470671 13.5369
44.16424883610785 13.6045
44.18827643127035 13.5772
44.21249381139513 13.5025
44.236525514814076 13.4806
44.26055926674478 13.4897
44.28459506876863 13.4635
44.3088207262813 13.3982
44.33286064928722 13.354000000000001
44.35690262714919 13.3703
44.38094666145278 13.3706
44.4051806219871 13.3165
44.42922879003185 13.2805
44.45327901929361 13.2384
44.477331311362136 13.2366
44.501573600619416 13.2543
44.525630039221795 13.179
44.54968854541895 13.1728
44.573937102200176 13.1595
44.5979997645541 13.1471
44.622064499300315 13.0847
44.64613130803592 13.1018
44.67038823869318 13.1308
44.69445921643748 13.0408
44.718532272981385 13.0344
44.742607409926194 13.0287
44.76687274034801 12.9998
44.79095205918753 12.9352
44.81503346325094 12.8972
44.839116954143876 12.9102
44.86339071028742 12.8454
44.88747839599524 12.8467
44.91156817336837 12.8308
44.93566004401666 12.8301
44.959942251908146 12.8185
44.984038330325966 12.7428
45.00813650686762 12.7436
45.03223678314731 12.7308
45.05652746888232 12.6883
45.08063196592069 12.6955
45.104738567558705 12.6696
45.128847275414856 12.6486
45.15314646515866 12.5668
45.17725940679741 12.5558
45.20137445952892 12.5609
45.22568004865265 12.5547
45.24979934496396 12.5174
45.27392075725247 12.4865
45.29804428714431 12.5005
45.322358426247604 12.4684
45.346486212804315 12.4345
45.370616121861914 12.4213
45.39474815505086 12.4062
45.41907087049246 12.3713
45.4432071734666 12.3692
45.46734560548283 12.3793
45.49148616817604 12.3204
45.51581748638564 12.2733
45.5399623320197 12.2504
45.56410931325473 12.2577
45.58825843173002 12.257
45.61259837920865 12.2087
45.636751793816 12.2265
45.66090735060093 12.1477
45.68506505120716 12.1166
45.7094136545275 12.0816
45.73357566449271 12.0797
45.75773982322992 12.0818
45.78190613238733 12.044
45.806263418194064 12.0023
45.83043404997326 12.0219
45.85460683713677 12.0137
45.87897065658495 11.9338
45.90314777634752 11.9232
45.92732705646868 11.9328
45.9515084986045 11.9226
45.97588104735473 11.8843
46.00006683541565 11.8543
46.02425479047904 11.8551
46.04844491420549 11.8463
46.0728262191024 11.7974
46.09702070211635 11.8011
46.12121735879483 11.7832
46.14541619080294 11.7373
46.169806278764455 11.7319
46.194009483459034 11.6916
46.21821486849841 11.6556
46.24242243555223 11.6654
46.266821333570014 11.6409
46.29103328674601 11.5995
46.31524742696538 11.6084
46.33946375590237 11.5843
46.36387149104216 11.569
46.38809221957392 11.5406
46.41231514186606 11.4953
46.436540259597464 11.4987
46.460956858999374 11.4643
46.48518638983522 11.4893
46.509418121166966 11.4285
46.533652054678114 11.3898
46.55807754555709 11.366
46.58231590571962 11.3553
46.60655647313217 11.3589
46.630988654873654 11.3031
46.655233659129024 11.2827
46.67948087571551 11.2535
46.70373030632484 11.2169
46.72817142736393 11.2087
46.752425308428684 11.1908
46.77668140861147 11.189
46.80093972960865 11.1875
46.82538981736788 11.1164
46.849652602470904 11.1045
46.87391761349769 11.0978
46.8981848521493 11.0769
46.9226439341274 11.0465
46.946915650573224 11.0042
46.97118959976749 11.0055
46.99546578341598 10.9713
47.019933887188216 10.9567
47.04421456235744 10.9212
47.06849747711879 10.9497
47.09278263318286 10.9463
47.11725978640143 10.8729
47.14154944775105 10.8598
47.165841355555656 10.8691
47.1901355115306 10.8055
47.214621741924994 10.8199
47.23892041698887 10.8146
47.26322134538975 10.7895
47.28771440635075 10.7356
47.31201986422527 10.7445
47.33632758061436 10.705
47.360637557241866 10.6878
47.38513974410611 10.6726
47.40945426407847 10.6282
47.43377104948137 10.6434
47.45809010204344 10.6789
47.48260144275502 10.6021
47.506925052572285 10.5686
47.53125093475548 10.5283
47.55557909103813 10.5503
47.58009961361992 10.5227
47.60443234110732 10.4597
47.62876734791564 10.4939
47.65310463578333 10.4782
47.6776343683373 10.4479
47.7019762413987 10.4143
47.72632040075572 10.4105
47.75066684815169 10.4187
47.77520581885936 10.3982
47.799556865477655 10.347999999999999
47.823910205386 10.3339
47.84826584033272 10.3024
47.87281407745551 10.254000000000001
47.89717432569297 10.2743
47.92153687423484 10.2811
47.94609208429692 10.2219
47.97045925671401 10.2119
47.99482873471275 10.2186
48.01920052005013 10.2066
48.04376504619224 10.1384
48.068141469543484 10.1413
48.09252020552573 10.1237
48.11690125590099 10.0831
48.1414751266064 10.1064
48.16586082917454 10.0916
48.19024885144316 10.0634
48.2146391951793 10.0064
48.239222439012764 10.0324
48.26361744916137 10.0273
48.28801478610016 9.985669999999999
48.31241445160131 9.955630000000001
48.337007097209366 9.94069
48.36141144338331 9.974269999999999
48.38581812345755 9.892330000000001
48.41022713920929 9.88906
48.434829215320704 9.86711
48.45924292604658 9.842989999999999
48.48365897780325 9.84595
48.50807737237308 9.82708
48.532688907799276 9.81526
48.55711201168574 9.74803
48.581537463754074 9.74832
48.60615611725119 9.78013
48.63058628942721 9.76636
48.65501881516546 9.704039999999999
48.6794536962573 9.67576
48.70408185970339 9.66619
48.72852147531801 9.633410000000001
48.75296345168211 9.58671
48.77740779059232 9.616439999999999
48.80204549302823 9.61763
48.82649458091802 9.59258
48.85094603676547 9.544369999999999
48.87539986237231 9.55177
48.90004713292306 9.55101
48.92450572200832 9.525160000000001
48.94896668628025 9.46443
48.97343002754588 9.40775
48.99808689542115 9.45996
49.02255501470614 9.46808
49.04702551642794 9.46733
49.0714984023988 9.41835
49.096164896893235 9.36557
49.120642575466796 9.38092
49.145122643748394 9.34879
49.16960510355558 9.31782
49.19428125404938 9.325439999999999
49.2187685210852 9.315710000000001
49.243258185121555 9.30342
49.26794160167084 9.27449
49.2924360839405 9.2374
49.31693296869764 9.1874
49.34143225776915 9.20261
49.36612538195438 9.18102
49.39062950396021 9.23017
49.41513603578346 9.16222
49.4396449792564 9.137360000000001
49.46434784069503 9.10802
49.488861631846454 9.07912
49.513377840166804 9.07804
49.537896467493745 9.07814
49.56260909589029 9.04049
49.587132585683285 9.04377
49.611658500018365 9.02195
49.636186840738596 9.025160000000001
49.66090926588511 9.03777
49.685442483902584 8.92221
49.70997813385706 8.91797
49.734516217597076 8.94624
49.75924846937352 8.91865
49.7837914452858 8.9194
49.80833686055187 8.89345
49.83288471702571 8.85485
49.85762682540054 8.88533
49.882179588965734 8.83182
49.9067347993235 8.82341
49.93129245833333 8.8053
49.95604445336378 8.77697
49.98060703442832 8.75073
50.005172069746266 8.74184
50.02993150438364 8.71498
50.05450147301533 8.708
50.07907390151433 8.67348
50.10364879174981 8.6605
50.12841816587289 8.640089999999999
50.1529980044635 8.626710000000001
50.17758031042124 8.64744
50.20216508562089 8.62852
50.22694442953363 8.59752
50.25153416817468 8.55369
50.27612638170508 8.571439999999999
50.300721072005196 8.54752
50.325510416102105 8.513630000000001
50.350110084975064 8.49748
50.37471223628208 8.49543
50.39931687190919 8.47016
50.424116246675766 8.46902
50.44872587605249 8.46369
50.47333799543065 8.45664
50.49795260670191 8.432780000000001
50.52276204271512 8.37192
50.54738166295838 8.39884
50.57200378079314 8.3892
50.596628398116835 8.32499
50.62144792604559 8.340580000000001
50.646077567609396 8.30896
50.670709714377715 8.3193
50.69553683636198 8.31109
50.72017401885922 8.297889999999999
50.7448137122895 8.24058
50.76945591856022 8.25243
50.79429318636823 8.25269
50.818940443716784 8.233360000000001
50.84359021965163 8.19213
50.868242516085964 8.16666
50.893089960641895 8.1402
50.917747323549435 8.15329
50.94240721271973 8.17844
50.96706963007175 8.12047
50.99192728239342 8.089
51.01659478166073 8.09441
51.04126481489051 8.07162
51.06593738400761 8.04584
51.090805275207074 8.02932
51.11548294172845 8.01655
51.14016314993547 7.98615
51.164845901758845 7.99205
51.18972406304274 7.98037
51.21441192780656 7.9131100000000005
51.23910234200271 7.9347
51.2637953075678 7.94526
51.288683770237945 7.90573
51.31338186432707 7.87195
51.33808251561888 7.81951
51.362978729967345 7.84438
51.387684521509755 7.8387199999999995
51.41239287610203 7.7925699999999996
51.437103795691165 7.7717
51.46201036644977 7.759760000000001
51.486726441956634 7.748880000000001
51.51144508832545 7.74794
51.536166307509156 7.7522199999999994
51.56108326624387 7.71547
51.58580965706056 7.667860000000001
51.61053862657523 7.659739999999999
51.635270176746864 7.6333
51.66019755512065 7.69497
51.68493429268881 7.639589999999999
51.70967361681515 7.644089999999999
51.73441552946465 7.59386
51.759353359237934 7.5770100000000005
51.7841004750961 7.58513
51.80885018539685 7.558960000000001
51.833602492111254 7.5353
51.8585508051424 7.51863
51.883308330926425 7.517010000000001
51.90806845906181 7.48884
51.932831191525715 7.4897
51.95779001977161 7.4637899999999995
51.98255798721516 7.433739999999999
52.00732856494335 7.409389999999999
52.03229530577543 7.41758
52.057071130455945 7.38692
52.081849571391054 7.36759
52.106630630568695 7.393730000000001
52.13160794279417 7.34766
52.15639426492067 7.39877
52.18118321127822 7.3657
52.205974783860896 7.30203
52.23096269971011 7.28446
52.255759551287994 7.28417
52.280559035098186 7.24021
52.30536115314103 7.23699
52.33035970494467 7.23451
52.35516711807904 7.23292
52.37997717147198 7.2389600000000005
52.40478986713005 7.219689999999999
52.42979908731974 7.16092
52.454617094216 7.1597100000000005
52.47943774942214 7.13805
52.50426105495102 7.11908
52.529280976059844 7.10802
52.554109609024096 7.088369999999999
52.57894089837482 7.105510000000001
52.60377484613117 7.07096
52.62880550079408 7.07644
52.65364479223379 7.05968
52.67848674816189 7.028689999999999
52.70352547971946 7.037030000000001
52.72837279155837 7.016539999999999
52.753222773982785 6.9859800000000005
52.778075429022984 6.98123
52.80312495150885 6.95573
52.827982978797436 6.937930000000001
52.85284368481815 6.8985
52.87770707160767 6.8905199999999995
52.90276741793998 6.875889999999999
52.92763619336701 6.88
52.952507655698504 6.867839999999999
52.977381806977576 6.85066
53.00245301017842 6.865489999999999
53.02733256653592 6.84536
53.052214817996074 6.841589999999999
53.077099766608484 6.822139999999999
53.102181859804446 6.80864
53.127072229988265 6.79022
53.15196530349892 6.77619
53.17686108239249 6.73215
53.20195409881522 6.73623
53.22685531582556 6.71325
53.25175924441303 6.680739999999999
53.27666588664027 6.6577
53.30176985962693 6.666589999999999
53.3266819565689 6.66753
53.35159677336455 6.64337
53.376514312083096 6.62696
53.40162927507703 6.63841
53.42655228516116 6.629810000000001
53.45147802340193 6.5850100000000005
53.47660125628886 6.522069999999999
53.50153247842639 6.561789999999999
53.52646643496923 6.55037
53.55140312799818 6.53716
53.576537409691696 6.50831
53.60147960336152 6.49718
53.626424539786164 6.49797
53.65137222105307 6.49418
53.67651758529126 6.44077
53.70147078399681 6.42048
53.72642673383343 6.4371599999999995
53.75138543689533 6.42099
53.776541917524526 6.41549
53.801506154876755 6.35337
53.826473151763246 6.35533
53.851442910284916 6.33611
53.87661054126026 6.35586
53.9015858509782 6.287730000000001
53.92656392866066 6.3212
53.95154477641532 6.2931
53.976723591801296 6.25638
54.00171000771266 6.2843800000000005
54.02669920004598 6.26783
54.051691170915745 6.24915
54.076881204886796 6.24516
54.101878760928514 6.1893
54.12687910187696 6.19493
54.152077577768296 6.18423
54.1770835166946 6.16504
54.20209224691339 6.18128
54.22710377055121 6.16345
54.25231352511594 6.15832
54.27733066384342 6.12247
54.30235060239643 6.15266
54.32737334290836 6.0698099999999995
54.35259441062629 6.0042800000000005
54.377622783395324 6.04935
54.40265396455061 6.0620400000000005
54.42768795623251 6.0323400000000005
54.45292037169559 5.98492
54.477960012857906 5.9849
54.50300247099511 5.93035
54.52804774825457 5.95995
54.55329154616743 5.92592
54.57834249018678 5.89803
54.6033962597977 5.8708
54.6284528571545 5.8268699999999995
54.653708072335164 5.78251
54.67877035378786 5.79169
54.70383546947698 5.77543
54.72890342156389 5.75114
54.7541700889442 5.75889
54.77924374251975 5.7622
54.8043202390049 5.70529
54.82959552413022 5.709169999999999
54.8546777351945 5.68548
54.87976279569621 5.68914
54.90485070780914 5.6394400000000005
54.930137506558005 5.60006
54.95523115074295 5.63805
54.98032765308844 5.59195
55.005427015775496 5.54162
55.03072536339621 5.5924
55.05583047570572 5.5583
55.080938454927676 5.53026
55.10604930325027 5.45531
55.131359235107396 5.51436
55.15647585066083 5.4709
55.181595341907496 5.40685
55.20671771104285 5.38831
55.232039262617704 5.40492
55.25716741665048 5.35721
55.28229845518636 5.32217
55.30743238042802 5.28034
55.33276558731939 5.2954300000000005
55.357905315183636 5.2708
55.383047936390035 5.22092
55.40819345314859 5.2392900000000004
55.433538351073295 5.23677
55.458689688238415 5.20835
55.483843927614096 5.13244
55.509197623043605 5.10174
55.53435769621134 5.11859
55.55952067826466 5.055619999999999
55.5846865714265 5.00235
55.61005202069737 5.00462
55.63522376553902 4.97961
55.66039842818645 4.98926
55.68557601087004 4.99193
55.7109532500271 4.9103
55.73613670233794 4.94741
