TT I
1.2716486653135266 7.7016800000000005
1.2939594142134223 7.69987
1.3162702121660406 6.991439999999999
1.3385810600174564 7.4625
1.3608919586137629 7.71258
1.383202908801069 6.69952
1.405513911425503 5.71624
1.4278249673332093 6.46643
1.4501343378461518 6.804869999999999
1.4724455028545926 6.036490000000001
1.4947567236847858 6.730239999999999
1.517068001182951 6.49258
1.5393793361953272 5.96315
1.5616907295681737 6.14826
1.5840021821477681 5.4063099999999995
1.60631369478041 5.73611
1.6286252683124185 5.43121
1.6509369035901333 5.96496
1.6732468618895553 5.386819999999999
1.695558623192809 5.16831
1.7178704487808514 5.37366
1.7401823395001077 4.978940000000001
1.7625012545597203 5.32397
1.7848028405262486 5.35089
1.8071218901122095 5.27871
1.8294236121921872 4.55047
1.8517427996910911 4.9653599999999996
1.8740620574440425 5.13478
1.8963639900671978 5.43533
1.9186833908139995 5.8334
1.9409854680117449 5.0711699999999995
1.9633050151394713 5.65393
1.9856246367570705 5.4505300000000005
2.0079269371922672 5.03137
2.03024671027244 4.97565
2.0525491637446027 5.278519999999999
2.074869091674931 4.97436
2.097171701569106 4.70144
2.1194917877373847 4.75116
2.141811954326636 4.55305
2.164114805233074 4.45251
2.186435135143035 4.23499
2.208738150935709 4.20549
2.231058647554722 4.6782699999999995
2.2533792288321184 4.645569999999999
2.275682498336085 4.4379
2.298003251406138 4.74084
2.3203066942619714 4.46692
2.3426276225136022 3.9544900000000003
2.3649486396617507 4.0179800000000006
2.387252348930071 4.73621
2.4095735463442893 4.14153
2.4318774374315884 5.2152
2.4541988185014043 4.84869
2.476502894794693 5.00707
2.498824462909887 4.8731800000000005
2.521146125856138 4.45665
2.5434504863470337 4.745369999999999
2.5657723414244717 5.37899
2.588076895590662 4.77949
2.610398946189713 5.02738
2.6327210958598384 5.2275
2.6550259469304716 4.7835
2.6773482972090137 5.77382
2.6996533504259 6.41412
2.7219759047039602 6.21157
2.744298562293959 6.341559999999999
2.7666039251246595 6.67143
2.7889267918020164 6.572589999999999
2.8112323652516555 6.913130000000001
2.833555444408179 7.27255
2.8558786311183852 7.28211
2.8781845268938557 8.31431
2.9005079311721484 8.56761
2.9228140460410397 8.54826
2.9451376712799635 8.77921
2.967444008632326 9.4024
2.9897678582247247 10.1926
3.0120918213106695 10.6108
3.0343984987899373 11.4583
3.0567226913198637 11.8146
3.079029599759726 12.3371
3.101354025127254 12.388
3.123678568232338 13.5167
3.145985829517914 13.4579
3.16831061055229 13.5711
3.1906181112775593 14.4559
3.212943133635653 14.985999999999999
3.2352682779763207 15.0276
3.2575761442691227 15.4236
3.2799015350264273 15.7324
3.302209649240067 16.1006
3.3245352898092655 16.9581
3.3468436553365257 17.4943
3.369169549113219 17.7178
3.3914955708171384 18.7292
3.413804319727358 18.7157
3.4361305997334863 18.5619
3.4584396084414553 19.5617
3.4807661501462652 20.4094
3.503092824025881 20.6593
3.5254022288463154 20.7736
3.5477291695206588 21.1695
3.5700388426251948 21.2287
3.5923660534916446 21.6837
3.6146934007816114 22.2343
3.637003482731501 22.6672
3.6593311053109985 23.2924
3.681641464033634 23.2122
3.7039693653009733 23.6428
3.726297407241705 24.3483
3.7486081875460804 24.7787
3.7709365132734978 25.236
3.793247578841633 25.4723
3.8155761917550093 25.8251
3.8378875459837216 26.3491
3.8602164494827234 26.7248
3.882545499606844 27.4938
3.9048572932539183 27.9177
3.9271866390645718 28.087
3.9494987298666713 28.4301
3.971828374764527 28.896
3.9941581705403255 29.4388
4.016470713506008 30.2487
4.038800813471445 30.8525
4.061113662089144 31.3412
4.0834440696459176 31.8296
4.105774632334751 32.3279
4.128087945865126 33.1291
4.150418821249301 33.2933
4.172732448931298 34.1452
4.195063640413578 34.6633
4.2173775856475215 35.4501
4.239709096631102 36.49
4.262040768704612 36.4914
4.284355196706267 37.4047
4.306687193387355 37.9876
4.329001947444346 39.2488
4.35133427213731 40.0404
4.373666762177566 40.5162
4.395982011761091 41.2974
4.418314834921175 42.7517
4.44063041906622 43.6752
4.4629635787515625 43.9912
4.4852969080429785 44.7165
4.5076130004776225 46.419
4.529946671403969 47.052
4.552263106909177 47.8819
4.574597122877047 49.4425
4.596931312711224 51.031000000000006
4.619248269273446 52.1792
4.6415828092605835 52.5263
4.663900117405352 53.5151
4.686235010953232 55.3377
4.708552674085913 56.9285
4.730887924602802 58.1143
4.753223354952695 59.9345
4.775541557023902 61.0252
4.797877349456786 62.876000000000005
4.820195915032126 64.7629
4.842532072957498 65.8403
4.864868414979744 68.4711
4.88718753227192 70.8824
4.909524244902505 73.2147
4.931843734218147 75.7777
4.954180820867835 79.1112
4.976518095879839 82.8184
4.998838149695359 86.4975
5.021175803844231 90.5355
5.043496238205739 95.6069
5.065834274903528 100.694
5.088172504230693 107.251
5.1104935158799565 116.613
5.132832132875765 130.554
5.155153533596801 153.043
5.1774925416746225 205.842
5.199814334878411 531.67
5.2221537374521505 1892.22
5.244493338631803 3759.55
5.266815727034316 5535.9
5.289155727832427 8442.49
5.311478517248165 9670.1
5.333818921080011 6168.38
5.356159527788849 1837.64
5.3784829252032536 420.084
5.400823940070432 206.72400000000002
5.423147747031976 160.627
5.445489173474152 138.969
5.467830807066149 127.084
5.490155234831516 119.337
5.512497285125229 113.867
5.534822130975162 111.145
5.557164601388673 107.521
5.579489868738879 104.11
5.601832762690846 102.23899999999999
5.6241758697774475 99.8057
5.646501775867269 99.2622
5.668845311622074 98.0812
5.691171647754637 97.6044
5.713515615597765 95.9638
5.735859800852677 95.2906
5.758186788542988 94.6843
5.780531411018185 95.009
5.802858837297399 95.0669
5.825203900414495 96.0449
5.8475491852224 96.7852
5.869877275883075 98.4571
5.892223006467101 101.789
5.914551544266608 105.51899999999999
5.936897724049891 111.305
5.959244129804903 123.51700000000001
5.981573344815301 153.158
6.0039202049061 283.555
6.026249875609095 739.41
6.04859719346037 1374.23
6.070927323278297 1965.39
6.093275102315365 2849.58
6.115623113320588 3930.18
6.137953938319995 4016.11
6.160302415650845 2167.56
6.182633708324452 655.727
6.2049826554078376 204.843
6.227331838745022 120.126
6.249663839443684 98.5573
6.27201349767565 89.0333
6.294345974611799 82.8721
6.316696111167083 78.3562
6.339046488263839 75.8762
6.361379686074702 72.6214
6.383730546639482 70.7129
6.406064229255215 68.5593
6.428415576718203 67.9808
6.450749747566656 66.8691
6.47310158535871 65.84899999999999
6.495453669698332 64.416
6.517788579421056 63.4706
6.540141159237969 62.644
6.562476565766648 61.9591
6.5848296444934045 60.8509
6.607182974060425 60.6169
6.6295191323281015 60.2221
6.651872965955752 59.4917
6.6742096296068985 58.71
6.6965639707294615 58.5592
6.71891856698715 57.748000000000005
6.741255995248479 57.2888
6.763611104154477 56.946000000000005
6.785949046381137 56.5443
6.808304671371482 56.049
6.8306605557940046 55.7107
6.852999275508618 54.7816
6.875355681171544 54.9691
6.897694923437771 54.9567
6.92005185377892 54.6383
6.9423916220322655 54.5793
6.964749080490181 53.9827
6.987106804399774 53.6162
7.009447368180821 53.6264
7.031805625367033 53.398
7.054146723727803 53.373000000000005
7.076505517631004 53.0025
7.098864581288365 53.3478
7.121206488070854 52.7841
7.143566093607822 52.346000000000004
7.165908543567245 52.6205
7.188268694426048 52.5674
7.2106291193438095 52.1158
7.232972390625943 52.4617
7.255333366030969 52.2723
7.277677189091925 52.4366
7.300038718428332 51.9697
7.322400526130865 52.2478
7.344745183422596 52.6031
7.367107550224791 52.4694
7.389452767901992 52.853
7.411815697249891 52.5967
7.434161478756298 52.0854
7.456524974096713 52.3496
7.478888753837185 52.5223
7.501235387657368 53.0641
7.523599738562711 55.7287
7.545946944825532 61.0801
7.568311870344528 62.3952
7.5906770845765665 58.6911
7.613025156078678 55.6394
7.635390950099687 54.3933
7.657739602662809 53.4942
7.680105979923558 53.8477
7.702472650212829 54.2949
7.724822180948224 54.5062
7.747189439655568 54.4243
7.769539560075357 54.5931
7.791907410653562 55.2313
7.81425812420825 54.9211
7.836626570110925 55.2889
7.858995315087906 56.1972
7.881346924933401 56.50899999999999
7.903716270417482 56.928999999999995
7.926068482028405 57.5828
7.948438431475253 58.0785
7.9708086843180235 58.4087
7.993161805171116 59.1264
8.015532667162402 59.5227
8.037886398416653 60.0803
8.060257873014221 60.6925
8.082629655331942 61.4387
8.104984308787587 62.4013
8.127356708900503 62.7068
8.149711981398308 64.0003
8.172085002766314 64.5871
8.194458336181368 65.6852
8.216814543847752 66.8427
8.23918850371002 68.1945
8.26154533906492 69.0794
8.283919928836452 71.1109
8.306277395339652 72.1543
8.328652618483376 73.7021
8.351028159736202 75.9409
8.373386579575245 78.4069
8.395762759396959 80.5179
8.418121819038275 83.9514
8.440498640894003 88.5849
8.462875785192262 95.5265
8.485235811156207 109.837
8.507613602688501 171.812
8.529974277114228 364.048
8.552352719347912 595.595
8.574731488360351 774.493
8.59709314210385 907.948
8.619472567021075 1145.69
8.64183487789147 1548.47
8.664214962183097 1880.28
8.686577933647762 1631.77
8.708958680784317 918.071
8.731339760774953 401.51300000000003
8.753703729764451 174.07
8.77608547780821 115.486
8.798450116065078 103.652
8.820832535634787 97.5206
8.843215292401656 93.9402
8.865580941199045 91.4076
8.887964374703538 89.2985
8.910330701447199 88.23100000000001
8.932714815164482 86.72200000000001
8.955099270424924 85.5168
8.977466620733543 84.8316
8.999851761421976 84.1665
9.022219798361645 83.4214
9.04460562795561 83.5686
9.066991803441677 82.5244
9.089360876979615 82.1736
9.111747746589993 82.1697
9.13411751544971 81.8157
9.156505082664324 81.4943
9.178875550323522 81.415
9.20126381862328 82.0077
9.223652438908596 86.7104
9.246023961427412 94.3881
9.26841328802173 95.5188
9.290785518039224 90.8995
9.313175554425882 85.762
9.335565947154315 83.2305
9.357939245086508 82.7375
9.380330352834827 82.4729
9.40270436697103 82.3532
9.425096193225055 82.8082
9.447488380180165 83.7767
9.469863475295412 83.5368
9.492256385987508 83.8258
9.514632206018318 84.7261
9.537025843935714 84.5923
9.559402392368193 85.2796
9.581796761000229 86.5262
9.604191496441521 86.5056
9.626569144158516 87.2101
9.648964615551032 88.0977
9.671343000390081 88.8587
9.693739211225699 89.9665
9.716135793237463 91.1209
9.738515290448102 91.65
9.760912617143402 92.8902
9.783292860202891 94.3697
9.805690935076182 95.5673
9.828089385495742 97.2142
9.850470754023561 99.1407
9.872869957865444 101.71
9.89525208097539 104.462
9.917652041736662 108.009
9.940052382417589 114.223
9.962435644102392 129.93
9.984836746950979 184.325
10.007220771957746 338.598
10.029622640473708 540.122
10.052007432299963 676.808
10.074410069984072 747.0
10.096813093716005 852.232
10.119199042482517 1068.02
10.141602840636468 1418.11
10.163989564971628 1679.96
10.186394141051062 1543.56
10.208799107559706 961.752
10.231187001965623 466.50199999999995
10.253592751657669 209.72799999999998
10.275981430388155 132.739
10.298387966769793 116.366
10.320794897965431 111.45
10.343184759907361 108.43
10.36559248305461 105.89
10.387983138083852 104.73
10.410391656691655 106.546
10.432800574501677 121.369
10.455192425893369 163.349
10.47760214443012 213.449
10.499994797678786 247.831
10.522405320453982 264.872
10.54479877906917 291.01
10.567210109595656 343.01199999999994
10.5896218454736 418.366
10.612016518879773 505.026
10.634429067781074 495.931
10.656824555333241 368.525
10.679237920773568 224.502
10.701651695961992 132.175
10.724048411481384 99.7924
10.746463008485165 90.7785
10.768860546937125 86.9269
10.791275969274796 83.9982
10.81369180576079 82.2235
10.836090585366925 80.9662
10.858507252467449 79.7067
10.88090686379991 78.3008
10.903324365036394 77.5202
10.925724811614439 76.2509
10.948143150509463 75.8027
10.970561909719066 74.5493
10.992963615930844 73.7881
11.015383218085756 73.0114
11.037785768347074 72.1773
11.06020621697282 71.3203
11.082627090322113 71.5385
11.105030913430326 70.3672
11.12745263854165 69.9913
11.149857314510728 69.0068
11.172279894912576 68.8842
11.194702904450653 67.8841
11.217108866490921 67.4212
11.239532736615194 66.9106
11.26193956033512 66.9893
11.284364294577085 66.5149
11.306789462371718 66.0825
11.329197585398376 65.6101
11.351623622610898 65.7075
11.37403261614354 64.8287
11.396459526308487 64.8741
11.418869393879497 64.5491
11.441297180532617 64.1352
11.463725406927658 63.6811
11.486136592353875 63.3109
11.508565700543707 62.9369
11.530977768845315 63.0818
11.553407762368774 62.5075
11.575838200059769 62.4306
11.598251599479612 62.4053
11.620682927815501 62.5653
11.64309721895548 62.4211
11.665529441478206 62.1228
11.687962112597958 61.7325
11.710377748130886 61.9392
11.732811318753434 61.6321
11.755227854859067 61.4472
11.777662328529495 61.3996
11.800079768750786 61.4129
11.822515149015453 61.4546
11.844950984084935 61.6017
11.867369787303163 61.5168
11.889806534289491 61.7523
11.912226250487029 62.6566
11.934663912939751 64.4251
11.9571020346363 65.6399
11.979523127133968 65.6251
12.001962169624331 65.1407
12.024384183972964 64.9825
12.046824150809913 67.7559
12.069264581333726 77.4142
12.091687985297767 90.2115
12.11412934550045 101.786
12.136553680195208 108.154
12.158995973632788 113.37899999999999
12.181438735204349 120.177
12.20386447284199 133.452
12.226308172985636 154.41899999999998
12.24873485024193 180.783
12.271179492516982 195.58700000000002
12.293607112949127 177.69299999999998
12.316052700916226 137.993
12.338498763250042 98.5322
12.360927805303868 75.0428
12.383374818673879 66.7237
12.405804812803074 64.3392
12.428252780773262 63.7615
12.45070122756722 63.4423
12.473132656675375 63.1818
12.49558206341869 63.5693
12.518014453510101 63.3205
12.540464823770117 63.3694
12.562915677315177 63.5959
12.58534951575545 64.0426
12.607801338171472 63.8524
12.630236146511358 64.214
12.652688941369085 64.4004
12.675124723177234 64.6604
12.697578494048786 65.6008
12.720032754458185 65.6197
12.742470003354093 65.8314
12.764925245138771 66.4291
12.787363476431278 67.0395
12.809819703166806 67.2816
12.83227642391173 68.2043
12.854716135692716 68.6201
12.877173846755147 69.7831
12.899614549869717 70.1545
12.9220732548287 71.1452
12.94453245827299 71.3683
12.966974655289818 72.5088
12.989434858002571 73.4311
13.011878055298721 74.1505
13.034339260862497 75.3162
13.056800969391883 77.0835
13.079245674017244 79.6426
13.101708390774869 81.582
13.12415410463411 86.8794
13.146617833206086 102.529
13.169064559883248 132.686
13.191529303857127 163.386
13.213994557076367 186.31799999999998
13.236442809902437 198.498
13.258909083908291 208.264
13.28135835851934 223.702
13.30382565690295 253.56900000000002
13.326293469022952 301.209
13.348744283242008 358.93199999999996
13.371213125129904 397.4
13.39366497011003 380.065
13.416134845360597 300.187
13.438605238843131 206.345
13.46105863690397 141.595
13.483530069144786 119.10600000000001
13.505984506951902 129.441
13.528456981549432 153.865
13.550929978879088 171.958
13.573385983253365 182.033
13.595860028340867 187.46099999999998
13.618317081455832 196.88299999999998
13.64079217790333 215.757
13.663250283359057 245.747
13.685726434770173 288.76599999999996
13.708203115221277 337.819
13.730662806148091 345.648
13.75314054697177 303.83299999999997
13.775601299246777 227.03599999999997
13.798080104050406 151.94899999999998
13.820559442405358 105.113
13.843021793671388 88.0487
13.865502201420897 82.4789
13.887965623051947 80.9897
13.910447103807167 79.3451
13.932929122629764 77.7379
13.955394156785959 77.2677
13.977877254034569 76.4027
14.000343367582113 75.5619
14.022827546871707 74.8332
14.045294743423524 74.0091
14.06778000837062 73.1848
14.090265817715476 73.1584
14.112734645763819 73.2358
14.13522154619454 73.8222
14.157691466286913 74.5448
14.180179461423874 73.9324
14.202668005486178 72.7271
14.22513957064374 71.4314
14.247629214846473 70.5768
14.270101881097517 69.8774
14.29259262906496 69.7256
14.315083930490205 69.7096
14.337558255389705 69.4499
14.360050666019726 69.5254
14.382526101071944 69.0789
14.405019624534942 69.0382
14.427513705993134 68.695
14.449990813291825 68.78
14.47248601302899 68.6201
14.49496423954951 68.583
14.517460561197822 68.7179
14.539939910570322 68.4287
14.562437357763558 68.8116
14.58493536931253 68.9527
14.607416409993311 69.1131
14.62991555254159 69.2695
14.652397725157423 69.1808
14.674898002342799 69.7996
14.697398848433282 69.92
14.719882725991326 71.0271
14.74238471217934 71.4893
14.764869730765593 74.21
14.787372860692983 80.9825
14.809876564079925 93.7766
14.83236330125751 106.93
14.854868153850365 116.525
14.877356041159485 121.499
14.899862046604186 124.345
14.922351087688757 129.42
14.944858249632887 138.141
14.967365991421232 152.429
14.989856770231246 171.925
15.012365673994204 197.165
15.03485761569738 213.31900000000002
15.05736768508665 206.023
15.07987833888692 174.747
15.102372032001655 135.991
15.124883856909658 100.81299999999999
15.14737872204565 81.8187
15.169891721717274 73.9459
15.192405310371893 71.4704
15.214901940621196 70.3729
15.237416709527137 69.2789
15.259914520936249 68.8814
15.282430473753607 68.1915
15.304947020131227 67.5977
15.327446610371178 67.4429
15.349964346154254 66.8985
15.372465126703139 66.8065
15.394984055556009 66.5114
15.417486030076159 66.60600000000001
15.44000615566487 66.0369
15.462526881230803 65.9275
15.485030653812652 65.9122
15.507552581617434 65.7597
15.530057557334603 65.6223
15.55258069104857 65.717
15.575104429329837 66.2686
15.597611216864632 65.9507
15.620136166564563 65.9276
15.6426441664095 66.6575
15.665170331202765 68.4426
15.687697105158826 74.0913
15.710206930593545 84.2796
15.732734925158933 95.1626
15.755245972089478 103.06700000000001
15.77777519094324 107.598
15.800287463046663 110.059
15.822817909869592 112.944
15.84534897229804 117.90100000000001
15.867863089299354 127.822
15.890395385222186 140.561
15.912910736597423 158.411
15.935444269699861 176.745
15.957978423016485 186.123
15.980495633101265 175.34099999999998
16.003031029129367 149.929
16.02554948280019 114.706
16.048086125229432 87.7976
16.070623392487107 72.6367
16.09314371869582 66.1845
16.11568223789321 63.4408
16.13820381691126 61.9923
16.160743591742527 61.1499
16.183283996022084 60.6177
16.205807461423195 59.638000000000005
16.228349126881973 59.1073
16.25087385432698 58.9389
16.27341678466365 58.2094
16.29594277784926 58.1072
16.31848697676433 57.645
16.341031811604868 57.0609
16.36355971058487 57.0595
16.3861058195587 56.8093
16.40863499352978 56.2102
16.431182380342005 55.8811
16.453730407713202 55.8047
16.476261501364792 55.5485
16.498810812136167 55.2855
16.52134319004079 55.3431
16.54389378792203 55.1597
16.566445031001553 55.1885
16.588979342490088 55.0141
16.61153187824822 55.0023
16.634067483263312 54.6645
16.656621315414416 54.7206
16.679175797408888 54.4724
16.701713349928728 54.3018
16.72426913389191 54.6041
16.74680798922351 54.43600000000001
16.76936507887444 54.346000000000004
16.791905240734874 54.4155
16.814463639794468 54.2927
16.837022695210294 54.5249
16.859564824093756 54.5397
16.882125194503903 54.7924
16.904668639217885 54.891000000000005
16.927230328348003 54.9489
16.949792678493612 55.478
16.972338104193863 55.2129
16.994901778652235 55.2288
17.017448529496576 55.3097
17.040013531998152 55.5751
17.06257920018044 55.8845
17.0851279459922 56.9007
17.107694947817667 59.2229
17.130245028099072 61.3485
17.15281336730298 63.3188
17.17536478578733 64.661
17.19793446610687 65.1475
17.220504818648422 66.1287
17.243058251703697 66.3349
17.265629950971032 67.9652
17.288184731571736 70.0153
17.310757781306908 73.548
17.33333150794385 76.8157
17.355888317140174 80.5412
17.37846339986244 82.8517
17.401021565958885 81.137
17.42359800851343 76.6054
17.44617513265564 70.9728
17.468735341390783 65.4692
17.491261035594565 61.7429
17.51396340099364 59.9696
17.536490463869136 59.3159
17.559018209820174 59.3862
17.58154663977963 59.4288
17.604251766089718 59.3476
17.626781572227713 59.6776
17.64931206518155 59.6931
17.671843245885103 60.0295
17.69455114821572 60.1474
17.717083712612634 60.5781
17.739616967569667 61.0139
17.762150914021706 61.6387
17.78486160749854 61.9814
17.807396945166804 62.4072
17.829932977143503 63.0406
17.85246970436452 63.9687
17.875183204129467 66.816
17.897721330097664 72.361
17.920260154126645 78.609
17.942799677153296 83.8286
17.9655159983646 86.9877
17.988056927677544 88.5121
18.010598558807683 90.2232
18.033140892692916 92.1563
18.05586005052525 94.9328
18.07840379824407 100.111
18.10094825154059 107.259
18.12366954819864 117.338
18.146215420998306 130.113
18.16876200220057 142.208
18.191309292745153 146.132
18.214033452627167 141.60299999999998
18.236582170236648 127.339
18.259131600016456 110.43
18.281681742907335 96.2128
18.304408781233683 89.0436
18.32696035875955 86.8301
18.349512652227624 87.8605
18.372065662579683 91.75
18.394795594587553 96.5951
18.41735004715306 101.766
18.43990521943684 104.205
18.46246111238171 101.867
18.485193953325208 94.6777
18.507751296070428 84.6991
18.530309362314178 75.8797
18.552868153000343 69.1787
18.57560391815056 64.9993
18.59816416623245 63.461999999999996
18.620725141597372 62.4003
18.643286845190268 61.5998
18.666025549835414 61.3053
18.688588718427933 60.4399
18.711152618092243 60.2287
18.73389353884365 59.9241
18.75645890921984 59.5039
18.77902501351406 59.117
18.801591852673102 59.1068
18.824335739722738 58.6143
18.846904057212626 58.5774
18.8694731124168 58.2066
18.89204290628315 58.2108
18.914789774966803 57.9556
18.937361054791623 57.6037
18.959933076131318 57.3969
18.982505839934877 57.3375
19.00525570560582 57.2866
19.027829963004184 57.0744
19.05040496572238 57.0222
19.072980714710468 57.1391
19.095733592739563 57.2685
19.11831084296757 57.4853
19.140888842324735 58.5407
19.16346759176222 59.7912
19.18622349753803 60.92100000000001
19.208803755869358 62.198
19.231384767143577 62.6077
19.253966532312948 62.8364
19.276725481241822 63.0941
19.29930876296784 63.6753
19.3218928014549 64.6213
19.34465404436217 65.9693
19.36723960516257 67.6619
19.389825925592426 69.8238
19.412413006605938 72.303
19.43517731967805 74.5581
19.457765930683355 74.8193
19.48035530514408 72.2661
19.50294544401556 68.0855
19.525712842708348 63.5523
19.54830451925909 59.6415
19.570896963095727 56.3757
19.593490175174704 54.8855
19.616260674962184 54.6517
19.638855432416964 54.2105
19.661450960992624 53.9911
19.68404726164677 53.9368
19.706820878021247 53.7463
19.729418731756834 53.7378
19.752017360452857 53.6596
19.77461676506804 53.83
19.797393513540218 53.773999999999994
19.819994478951667 54.1628
19.84259622316767 54.8276
19.8651987471481 56.2342
19.887978643247177 57.2337
19.91058273574792 57.6942
19.933187610901943 58.2504
19.955969879466828 58.8435
19.97857632894404 59.0648
20.00118356396599 59.1028
20.023791585494575 59.6866
20.046577028914875 60.96
20.069186632506966 62.6679
20.091797025500632 64.9723
20.114408208858933 67.47
20.137196842715273 70.7086
20.159809615886765 72.9725
20.18242318232135 72.8313
20.20503754298326 71.1192
20.227829382875154 68.4908
20.250445341109344 65.4614
20.27306209647285 63.0995
20.29567964993108 61.8803
20.31847471147704 61.3764
20.34109387027612 62.4787
20.363713830075454 63.8628
20.386334591841646 65.1213
20.409132890679302 65.5512
20.431755265564437 64.567
20.454378445325528 62.2893
20.477002430930366 59.0688
20.499803982716553 55.9445
20.522429589228004 53.5072
20.54505600449589 51.9194
20.567683229489194 51.3587
20.590488049900088 50.8758
20.61311690359731 50.5931
20.63574656993626 50.4269
20.658553853717297 50.1762
20.681185154618298 50.1845
20.703817271080066 50.1011
20.72645020407368 49.5126
20.749260783967177 49.4474
20.771895359337133 49.5763
20.794530754161617 49.5717
20.817166969412938 49.4356
20.83998086114876 49.383
20.86261872660049 49.1608
20.885257415405402 49.1512
20.90789692853701 49.0437
20.930714147864748 48.9454
20.953355319030678 48.8301
20.97599731745334 49.0412
20.99864014410749 49.1602
21.021460706796564 49.2738
21.044105199328826 49.5769
21.06675052302631 49.7429
21.089396678865015 49.8048
21.112220600704806 49.935
21.134868430275347 50.0108
21.15751709492456 49.7605
21.180166595629693 49.6646
21.202993892429635 50.0373
21.22564507473034 50.2963
21.24829709602816 50.5349
21.27112693608965 51.0536
21.293780644891275 51.7329
21.316435195634053 51.99
21.339090589297417 51.6883
21.361923832041875 51.3397
21.384580921090404 50.8734
21.407238856007325 50.1387
21.429897637773326 49.5634
21.45273429906592 49.3646
21.475394784108598 48.9065
21.498056118951983 48.6772
21.520718304578022 48.8431
21.543558400304388 49.0277
21.566222297108816 49.2312
21.58888704765135 49.3727
21.61155265291521 49.6649
21.63439619898156 50.5786
21.657063523335786 51.5051
21.67973170537063 52.5412
21.7024007460706 53.2081
21.72524775840385 53.9484
21.747918526116475 54.3703
21.770590155457388 54.5959
21.79326264741238 54.8561
21.816113141960237 55.593999999999994
21.838787368860547 56.4133
21.861462461341976 57.6396
21.884315579735777 59.2686
21.90699241312273 60.923
21.92967011506078 62.9177
21.95234868653799 64.7721
21.9752053151131 66.2512
21.997885635446785 66.7073
22.020566828293532 65.9445
22.04324889464272 63.5906
22.066109049404666 60.8195
22.088792872571794 58.3781
22.111477572219204 56.7098
22.1341631493376 55.9122
22.157026846313123 56.0029
22.179714188221507 56.3694
22.202402410582668 56.7398
22.22509151438863 56.2149
22.24795876962584 55.1104
22.270649646204486 53.8948
22.293341407213727 52.4916
22.316034053646906 51.3137
22.338904883215342 50.2974
22.36159931041458 49.931999999999995
22.38429462602756 49.5013
22.40699083104897 49.221000000000004
22.429865251039757 49.2008
22.452563244831367 49.0548
22.47526213102522 49.236000000000004
22.49813925616515 49.071999999999996
22.520839937143307 48.8767
22.543541513520587 49.2367
22.56624398629403 49.0656
22.589124730075895 48.7872
22.611829005656723 49.0922
22.63453418063466 49.156000000000006
22.657240256008077 49.3948
22.680124634582935 49.7001
22.70283252079775 50.5017
22.725541310413075 51.2029
22.74825100442868 51.6809
22.771139033969575 52.261
22.79385054687155 52.2837
22.81656296718292 52.2451
22.83927629590484 52.4791
22.862167992606945 52.7251
22.88488314827121 53.0485
22.907599215359284 53.312
22.93031619487366 53.989
22.953211574954405 54.6869
22.975930389478226 55.7593
22.998650119445763 56.8445
23.02137076586092 57.7173
23.044269845560063 58.4657
23.06699233506288 58.5394
23.089715744034912 57.9246
23.112617610931565 56.3475
23.135342869061212 54.36600000000001
23.158069049684816 52.4003
23.1807961538087 50.7818
23.20370174880544 50.1326
23.226430710184808 49.6139
23.249160598093425 49.4834
23.271891413539002 49.4321
23.294800752937697 49.8034
23.31753343374794 50.7517
23.340267045128353 51.1758
23.36300158808808 51.7975
23.38591468821339 52.0043
23.408651104658304 52.1798
23.431388455719986 52.0436
23.454126742409 52.1441
23.4770436196085 52.2901
23.499783787914662 52.6039
23.522524894889884 52.8863
23.54526694154616 53.4028
23.56818761219047 54.1798
23.59093154860734 55.0912
23.613676427751283 56.3495
23.636422250635754 57.4106
23.659346731118656 58.1261
23.68209445191868 58.3308
23.704843119509587 57.4656
23.72759273490623 55.3922
23.750521041644767 53.2932
23.77327256312355 51.2425
23.796025035462787 49.3402
23.818956224555475 47.8766
23.841710609113413 47.2707
23.86446594758979 46.8091
23.887222241002014 46.3437
23.910157285144578 45.9732
23.932915498962537 45.813
23.955674670778713 45.7286
23.978434801611975 45.4069
24.001373717286125 45.3059
24.024135776723917 45.1985
24.046898798245582 44.9446
24.06966278287146 45.0425
24.092605586582614 44.7134
24.115371508023642 44.6682
24.1381383956401 44.4164
24.16090625045381 44.3916
24.183852958731244 44.2645
24.206622758582608 44.2506
24.229393528706886 44.0493
24.252165270127392 44.1694
24.27511589952438 43.9709
24.297889594216997 44.0084
24.32066426328598 43.76
24.34343990775613 43.7801
24.36639447485003 43.6906
24.38917208083877 43.6167
24.41195066531332 43.5085
24.43490819850244 43.4882
24.457688750692377 43.3091
24.48047028445616 43.2956
24.503252800821233 43.507
24.526214300784112 43.3095
24.548998793132213 43.3979
24.57178427117417 43.263999999999996
24.59457073593893 43.18
24.617536219319863 43.2183
24.64032466834748 43.4066
24.663114107195035 43.443999999999996
24.685904536893013 43.0879
24.708874020360852 43.2219
24.731666442613744 43.1915
24.754459858818787 42.9825
24.777254270007962 42.8602
24.80022777025625 42.7362
24.82302418230472 42.6085
24.845821592443674 42.7147
24.86862000170663 42.8169
24.891597535453727 42.7494
24.914397953892728 42.9265
24.93719937456671 42.9327
24.96000179851076 42.9505
24.98298338249997 43.0689
25.00578782394922 43.2682
25.028593271784167 43.3485
25.05157790644186 43.7376
25.07438537804115 43.8321
25.097193859145293 44.1734
25.120003350792075 44.1755
25.142992065061257 44.4051
25.165803588823465 44.6217
25.18861612625217 44.8761
25.211429678386736 45.0649
25.234422489079968 45.3008
25.257238081693636 45.4072
25.280054692141732 45.3789
25.3028723214652 45.3455
25.325869245420463 45.09
25.348688923599397 44.9831
25.371509623787006 45.0407
25.394331347025812 45.3003
25.41733240110666 45.3744
25.440156181590016 45.1873
25.46298098826268 45.2187
25.48580682216873 44.7654
25.50881202326435 44.0703
25.53163992281684 43.3327
25.55446885274561 42.6414
25.577298814096377 42.2047
25.600308179121807 41.7557
25.623140214533745 41.6436
25.64597328451537 41.3306
25.66898578564376 41.1037
25.691820936010206 41.2048
25.714657124097695 41.1062
25.737494350954734 41.0423
25.760511045684957 40.9055
25.783350361364224 41.0388
25.806190718969255 41.2362
25.82903211955018 41.3316
25.852053024868923 41.372
25.874896522722523 41.4724
25.897741066713106 41.3131
25.920586657892454 41.2671
25.943611790812668 41.3382
25.966459487728237 41.3871
25.989308234998564 41.104
26.01215803367705 41.4612
26.03518741123814 41.5897
26.05803932412957 41.6626
26.080892291600094 41.6102
26.10374631470478 41.6328
26.12677995397268 42.0408
26.14963609978026 42.3413
26.172493304397875 42.3972
26.19535156888223 42.4736
26.218389486949604 42.2907
26.241249882640123 42.067
26.26411134137826 41.648
26.28715248187403 41.4173
26.31001607820869 41.1265
26.3328807407756 40.8863
26.35574647063438 41.1072
26.37879191991473 41.1082
26.401659795896734 40.9667
26.424528742360263 40.9553
26.447398760366614 41.1525
26.470448535598294 41.0768
26.49332070826805 41.2382
26.516193955675355 41.412
26.53906827888316 41.5007
26.562122397260108 41.4954
26.584998883685063 41.7117
26.607876449110325 41.9845
26.63075509460056 42.2502
26.65381357334404 42.2565
26.67669439061878 42.3392
26.699576291163382 42.582
26.722459276044212 42.9819
26.745522132402975 43.0293
26.768407297649354 42.8885
26.791293550442003 42.6161
26.814180891848974 42.2707
26.837248143099337 41.6997
26.860137673466657 41.4919
26.88302829566349 41.1734
26.90592001075963 40.9805
26.92899167420566 40.9851
26.951885586870763 40.6618
26.974780595655517 40.3762
26.99785558178161 40.1923
27.020752794605112 39.839
27.043651106772522 39.6907
27.06655051935668 39.5791
27.089629948036183 39.2999
27.112531573292053 39.3495
27.135434302194138 39.4367
27.158338135817015 39.0935
27.181422024430987 39.1944
27.204328079372566 39.1749
27.22723524226965 39.0974
27.250143514198573 39.1681
27.273231880156334 39.1366
27.296142382065014 39.0819
27.319053996245536 38.964
27.341966723775965 38.8726
27.365059584515222 38.9979
27.38797455070062 39.0983
27.410890633481237 38.9059
27.433807833936918 39.0025
27.456905206923906 38.8963
27.47982465472398 39.0041
27.502745223449743 38.9574
27.525666914182825 39.0785
27.548768816912457 39.1247
27.571692763693633 39.0208
27.59461783573812 39.0103
27.617723149491244 38.958
27.640650484125285 38.9493
27.66357894728264 39.0148
27.686508540048052 38.9973
27.709618414237887 38.9287
27.732550278321757 38.858000000000004
27.755483275279115 38.7558
27.778417406196485 38.7841
27.801531858397514 38.6701
27.824468269376716 38.6284
27.847405817586786 38.4732
27.870344504116094 38.6588
27.893463551932008 38.6493
27.916404527281053 38.775
27.93934664422563 38.7434
27.962289903855886 38.815
27.98541356491974 38.8901
28.00835912214229 38.925
28.03130582533231 39.1686
28.054253675581805 39.3246
28.077381967556104 39.3243
28.100332124185126 39.4662
28.123283431160893 39.5638
28.146235889577238 39.641999999999996
28.169368830154156 39.6566
28.192323603752033 39.5783
28.215279532083304 39.3705
28.238415973016764 39.0363
28.261374223145094 38.8733
28.284333631303806 38.6554
28.307294198589954 38.4817
28.330435319167677 38.2327
28.353398217078915 38.1252
28.376362277420153 37.8819
28.39932750129032 37.643
28.422473319286713 37.448
28.44544088262495 37.1817
28.468409612800283 36.9479
28.491379510913497 36.7278
28.51453004413313 36.6182
28.53750229057244 36.5498
28.56047570826344 36.4031
28.583450298308804 36.3509
28.606605564586562 36.291
28.629582511831156 36.1858
28.65256063474956 36.1826
28.675539934446338 36.263000000000005
28.698699951647605 36.2694
28.72168161743193 36.0497
28.74466446331978 35.9682
28.767648490417624 35.8826
28.790813276438353 35.8216
28.813799678527303 35.8654
28.836787265157085 35.7904
28.859955641890075 35.759
28.882945610203045 35.8104
28.905936766392035 35.695
28.928929111566863 35.692
28.952102288520145 35.699
28.975097024308607 35.6876
28.998092952423807 35.6986
29.021090073977508 35.7072
29.04426806913204 35.5875
29.067267590245258 35.5037
29.090268308143695 35.3595
29.11327022394099 35.254
29.13645305530891 35.1216
29.159457379627167 35.0282
29.18246290519685 34.8796
29.20546963313352 34.8338
29.22865731875826 34.7441
29.25166646419296 34.8023
29.27467681535305 34.558
29.29768837335608 34.5792
29.320880931312562 34.6292
29.34389491580634 34.5417
29.366910110507334 34.3952
29.38992651653503 34.5027
29.41312396492981 34.5862
29.436142806456754 34.5417
29.45916286268059 34.4798
29.48236399319994 34.5115
29.50538649169417 34.4422
29.528410208259935 34.418
29.55143514402014 34.2165
29.574641196749695 34.0845
29.597668583816574 33.8933
29.6206971934585 33.8508
29.64372702680042 33.8272
29.666938019934474 33.6232
29.689970313635285 33.4477
29.713003834422636 33.5026
29.73603858342347 33.2694
29.759254535188578 33.3545
29.78229175361658 33.2087
29.80533020365064 33.2699
29.82836988641968 33.3577
29.85159081507472 33.2612
29.874632976355343 33.1257
29.89767637376955 33.1262
29.920721008448314 33.0632
29.9439469322847 33.1203
29.96699405457564 32.9162
29.9900424175358 32.9258
30.013092022298157 32.8945
30.03632295963995 32.8467
30.059375061131373 32.8267
30.08242840783577 32.8464
30.105483000888153 32.946999999999996
30.128718970092244 32.8325
30.151776069006917 32.8284
30.17483441768648 32.7465
30.198074175317235 32.6961
30.221135036724256 32.7888
30.24419715131772 32.7718
30.267260520236203 32.6352
30.290505341942243 32.736999999999995
30.313571232750228 32.8457
30.336638381310948 32.8384
30.35970678876503 32.8739
30.38295669299435 32.7358
30.40602763151657 32.7765
30.429099832366074 32.6731
30.452173296685572 32.6468
30.47542830191959 32.6858
30.498504306502497 32.5938
30.521581577995562 32.6066
30.544660117543582 32.5751
30.56792024229725 32.5385
30.59100133132069 32.4601
30.614083691845494 32.4322
30.637167325018545 32.5393
30.660432587840603 32.6114
30.683518779717886 32.4553
30.70660624769615 32.5751
30.729694992924372 32.5251
30.75296541239743 32.5626
30.77605672557558 32.6044
30.799149319462742 32.7041
30.8224236211637 32.6996
30.845518789950724 32.5507
30.868615242910597 32.5858
30.891712981195973 32.4913
30.91499247215866 32.1992
30.938092794619365 32.3446
30.96119440587579 32.1904
30.984297307082752 32.0393
31.00758200598383 31.9149
31.030687500658694 31.7907
31.053794288760695 31.6854
31.076902371446767 31.6206
31.100192296997445 31.6849
31.12330298246119 31.6029
31.14641496599209 31.5791
31.169528248749216 31.5442
31.19282341969534 31.4747
31.215939314557186 31.4858
31.239056512134788 31.4289
31.262175013589378 31.2807
31.28547544871168 31.266
31.30859657161541 31.2016
31.331719001892175 31.3592
31.35484274070538 31.491
31.378148458819545 31.3658
31.401274828443725 31.3283
31.424402510106933 31.2989
31.447712205419993 31.3356
31.470842524931633 31.1772
31.493974159989783 31.1993
31.51710711176168 31.2294
31.54042212308802 31.3072
31.563557722100917 31.331999999999997
31.586694641341655 31.1737
31.609832881979628 31.1185
31.63315322823208 31.176
31.656294125521327 31.1077
31.679436347728515 30.9943
31.70257989602529 30.816
31.725905596152327 30.7409
31.74905181052835 30.6938
31.772199354521323 30.7352
31.79534822930507 30.6788
31.818679302290967 30.5243
31.84183085259981 30.6033
31.864983737233473 30.5663
31.88813795736804 30.516
31.911474422233013 30.4818
31.934631327356435 30.4537
31.9577895715215 30.4544
31.980949155906522 30.4792
32.004291031706956 30.4656
32.027453310562606 30.3789
32.05061693318573 30.3954
32.07396288236386 30.4586
32.09712920658542 30.3765
32.12029687812702 30.2796
32.14346589817093 30.2468
32.166817291729984 30.123
32.18998902288583 30.0366
32.21316210610336 29.9514
32.23633654256711 29.8646
32.259693399663725 29.7983
32.282870556771144 29.6036
32.30604907069099 29.6478
32.329228942610065 29.5146
32.35259128243769 29.4112
32.375773884550505 29.3992
32.398957848235646 29.4008
32.422143174682176 29.295
32.445511016471215 29.2575
32.468699082679954 29.1467
32.49188851523011 29.2644
32.51507931531304 29.1544
32.538452678331 29.0506
32.56164622776311 28.9599
32.58484114831493 28.9551
32.60803744118015 28.936999999999998
32.631416344731896 28.8471
32.654615396551876 28.941
32.67781582427913 28.8461
32.701198898634416 28.6685
32.72440209253756 28.7362
32.747606665947124 28.7162
32.77081262006088 28.5909
32.79420126883317 28.6087
32.81740999876112 28.6687
32.840620112999424 28.5565
32.86383161274818 28.3714
32.88722585534586 28.4577
32.91044014056596 28.3855
32.933655814909734 28.3723
32.95687287957963 28.4015
32.98027273544904 28.3301
33.00349259526636 28.288
33.026713849030116 28.354
33.04993649794511 28.2569
33.073341986570746 28.1925
33.09656744032826 28.1945
33.11979429286444 28.255
33.14302254538647 28.0993
33.166433686291185 28.0275
33.18966475336992 27.978
33.212897224069096 27.9404
33.23613109959831 27.9509
33.259547912343415 27.959
33.2827846121627 28.0677
33.306022720453775 27.9774
33.32926223842861 27.8514
33.352684742614166 27.8666
33.37592709463173 27.8853
33.399170859982064 27.7434
33.422597648419426 27.7594
33.44584425514446 27.6604
33.46909227885668 27.6037
33.4923417207723 27.4935
33.51577423505344 27.5024
33.539026528130385 27.4132
33.56228024307245 27.2873
33.585535381098246 27.1926
33.60897364093058 27.0915
33.63223163992385 27.1385
33.6554910656699 27.1162
33.678751919389796 27.1306
33.702195944520106 27.0101
33.72545966903325 26.9721
33.74872482519663 26.9428
33.771991414233746 26.9623
33.79544122444841 26.8448
33.81871069412428 26.6948
33.84198160035767 26.7096
33.86525394437455 26.6993
33.88870955949969 26.6506
33.911984794020626 26.6193
33.93526147001624 26.6397
33.958539588715006 26.6373
33.98200102861669 26.5574
34.0052820477047 26.4168
34.02856451319451 26.4874
34.05203033759056 26.3499
34.07531571090147 26.4163
34.09860253431845 26.3543
34.121890809074316 26.3353
34.145362493118924 26.3108
34.16865368561615 26.2051
34.191946333164054 26.1907
34.21524043699793 26.1475
34.23871800066799 26.1086
34.26201503218366 25.9965
34.28531352370466 26.0536
34.30861347646881 25.9454
34.33209693978188 25.8974
34.3553998301885 25.8439
34.378704185565205 25.7777
34.402010007152356 25.7709
34.42549939016683 25.7928
34.44880815937748 25.7166
34.472118398533134 25.6676
34.49543010887669 25.6942
34.51892543169198 25.5081
34.54224009966052 25.5259
34.56555624255917 25.5624
34.58887386163339 25.4003
34.61237514439016 25.3361
34.6356957311114 25.3648
34.65901779775809 25.2682
34.68252356662995 25.3677
34.705848608458616 25.2175
34.72917513396849 25.1344
34.75250314440949 25.1261
34.77601490857862 25.0498
34.799345904259795 25.0023
34.82267838863559 25.0282
34.846012362958525 24.9362
34.869530142679984 24.9729
34.89286711232212 24.9642
34.91620557568269 25.009
34.93954553401677 24.8495
34.9630693495876 24.8413
34.986412313340814 24.8561
35.00975677584668 24.8265
35.033102738362956 24.7495
35.05663261012228 24.6575
35.0799815881786 24.6932
35.10333207003229 24.6221
35.12668405694369 24.6407
35.150220005273056 24.6359
35.17357501786656 24.5786
35.19693153931268 24.5494
35.220289570874385 24.4461
35.24383161619786 24.475
35.267192683604904 24.5037
35.290555264930376 24.3966
35.314101899412165 24.4263
35.33746752422433 24.349
35.36083466676374 24.3453
35.38420332829803 24.2334
35.407756095629054 24.2993
35.43112781085063 24.2997
35.45450104888391 24.2145
35.477875810999194 24.2762
35.50143473172161 24.1255
35.52481255774625 24.1896
35.54819191167777 24.0455
35.57157279478914 24.1188
35.595137889488406 24.1231
35.61852184675279 24.0585
35.641907337029984 24.0981
35.665294361595684 24.000999999999998
35.68886565090076 23.86
35.7122557598848 23.9099
35.73564740699838 23.848000000000003
35.759040593519934 23.8785
35.78261809810353 23.8342
35.80601437933051 23.6891
35.829412203814705 23.5785
35.85281157283719 23.5683
35.876395313415884 23.5745
35.8997977874528 23.4876
35.92320180988546 23.4796
35.946790244133936 23.4369
35.97019737933222 23.4889
35.993606066789866 23.4105
36.01701630779276 23.3956
36.04061101440684 23.2907
36.06402437852291 23.3065
36.08743930005611 23.3354
36.1108557802951 23.1788
36.13445678011326 23.2348
36.15787639383515 23.2172
36.18129757014299 23.1451
36.20472031032821 23.0571
36.22832762423364 23.0831
36.25175350829375 23.0935
36.275180960119776 22.9754
36.298609981005924 22.9775
36.32222362992669 23.0183
36.34565580510207 22.9498
36.36908955323448 22.9187
36.39252487562093 22.8026
36.416144880530226 22.6875
36.43958336764275 22.6835
36.463023432914625 22.7659
36.486465077645676 22.6939
36.51009145956204 22.8548
36.53353627947859 22.7393
36.55698268276811 22.6705
36.58043067073321 22.563000000000002
36.60406345072071 22.4871
36.62751462435344 22.4352
36.65096738658405 22.5464
36.67460498210655 22.4707
36.69806093788647 22.5105
36.72151848619297 22.4149
36.744977628333636 22.3522
36.76862165890998 22.3425
36.79208400512205 22.2926
36.81554794910557 22.2856
36.83901349217101 22.206999999999997
36.862663978991606 22.2256
36.88613273667352 22.1302
36.90960309738324 22.0828
36.933075062434064 22.1172
36.95673202673572 22.0811
36.98020721697122 21.9942
37.003684015502365 21.9526
37.027162423645365 21.9103
37.050825886711465 21.9078
37.07430753063053 21.8372
37.09779078812467 21.8173
37.121275660513014 21.7861
37.144945643673694 21.802
37.16843376245278 21.7211
37.19192350009803 21.7187
37.215414857931435 21.6982
37.239091382563885 21.5751
37.262585997426164 21.576
37.28608223645736 21.565
37.309763684451696 21.4785
37.33326318851098 21.396
37.356764320726555 21.4505
37.380267082425526 21.3824
37.40395510942588 21.3709
37.42746114683234 21.3659
37.45096881771841 21.3549
37.474478123414166 21.361
37.49817275092816 21.2463
37.52168534303452 21.2521
37.54519957395567 21.1348
37.568715445024665 21.1627
37.592416694607714 21.1195
37.61593586281424 21.1286
37.63945667518264 21.1125
37.66297913304891 20.9988
37.68668702630454 21.0227
37.710212792059274 20.9711
37.733740207334854 20.8622
37.757269273470364 20.9317
37.780983832050374 20.8261
37.80451621684926 20.8577
37.82805025654007 20.7783
37.851585952464795 20.7091
37.8753071980695 20.6207
37.89884622345676 20.68
37.92238690911902 20.6004
37.94611318753442 20.5777
37.969657210779765 20.541
37.99320289834801 20.5521
38.016750251586465 20.4955
38.04048325513017 20.4981
38.06403395679343 20.458
38.087586328183946 20.3595
38.11114037065203 20.3762
38.13488012115898 20.3674
38.1584375229181 20.2999
38.181996599821 20.3192
38.205557353221124 20.2889
38.229303872575656 20.2506
38.2528679961576 20.2065
38.27643380031219 20.1545
38.30000128639589 20.0898
38.32375459653193 20.1071
38.34732546371299 20.088
38.37089801690786 20.0175
38.39447225747609 19.992
38.418232380377425 19.9708
38.441810012983396 19.9145
38.46538933705673 19.9052
38.488970353960084 19.9218
38.51273731166058 19.8952
38.536321731567014 19.789
38.55990784840681 19.74
38.58367995004091 19.762999999999998
38.60726947812959 19.6257
38.63086070726198 19.7217
38.654453638806274 19.659000000000002
38.678232613930824 19.6193
38.70182896773327 19.5234
38.72542702806741 19.4744
38.7490267963045 19.5132
38.77281266709232 19.4592
38.79641586862214 19.4673
38.8200207821842 19.4167
38.843627409152944 19.4707
38.86742019782782 19.432000000000002
38.891030269149255 19.3696
38.914642058016156 19.3641
38.938255565806124 19.32
38.96205529464307 19.2384
38.98567225787121 19.2204
39.00929094417078 19.1609
39.03291135492255 19.1349
39.05671804624804 19.082
39.080341923549106 19.090999999999998
39.103967529460334 19.0428
39.127594865365744 18.962
39.15140854155791 18.9947
39.17503935514948 19.0056
39.19867190290282 18.9211
39.22249083587951 18.9211
39.24612686969409 18.957
39.269764641845306 18.8683
39.293404153722804 18.874000000000002
39.317230110864074 18.7999
39.34087311998506 18.7205
39.36451787301696 18.7162
39.388164371352595 18.7144
39.41199737518003 18.6472
39.43564738196752 18.5869
39.45929913825317 18.5904
39.48295264543308 18.585
39.506792718520884 18.5547
39.530449745387216 18.4838
39.55410852735203 18.4695
39.57776906581474 18.4388
39.60161623079 18.4681
39.625280300200025 18.4345
39.64894613032202 18.3731
39.67261372255866 18.3498
39.6964680021016 18.2884
39.72013913657293 18.3445
39.74381203738292 18.256
39.76748670593756 18.2583
39.79134812278169 18.23
39.81502634488497 18.1798
39.83870633896685 18.2188
39.862388106436654 18.1298
39.88625668336918 18.0931
39.90994201572829 18.0871
39.933629125719285 18.0779
39.957503091207826 18.0554
39.9811937746168 17.9977
40.00488623990914 17.9884
40.02858048850006 17.9374
40.05246165409549 17.9027
40.076159487492085 17.8211
40.099859108448875 17.8388
40.123560518384345 17.8126
40.1474489070226 17.7937
40.171153913178564 17.7764
40.194860712584955 17.7949
40.2185693066637 17.7622
40.242464941335314 17.712
40.26617714307655 17.6569
40.289891143772046 17.6076
40.3136069448471 17.5673
40.33750984859743 17.5579
40.3612292688043 17.5423
40.3849504936829 17.5622
40.40867352466194 17.5094
40.43258372059144 17.4434
40.45631038219906 17.4492
40.48003885420956 17.3843
40.503769138055105 17.3484
40.52768664931955 17.392
40.55142057531802 17.3466
40.57515631746428 17.2972
40.599079334038514 17.2197
40.62281872700477 17.1945
40.64655994043941 17.1538
40.67030297578061 17.1227
40.69423334835778 17.1604
40.71798004609188 17.0808
40.74172857006355 17.0722
40.76547892171441 17.076
40.7894166736039 17.0008
40.813170699248566 16.9972
40.83692655691388 16.9202
40.86068424804498 17.0544
40.884629402612525 16.9439
40.908390779366385 16.9338
40.932153993938 16.8946
40.95591904777605 16.8243
40.979871628443995 16.862000000000002
41.003640379561936 16.8169
41.02741097430883 16.7958
41.05118341413683 16.6693
41.075143444384416 16.6734
41.098919593177826 16.7092
41.1226975914255 16.6801
41.14647744058318 16.6175
41.170444943946755 16.5925
41.19422851378379 16.5731
41.218013938914645 16.5559
41.24198706625173 16.4849
41.26577622087193 16.4895
41.289567235177785 16.4793
41.31336011063129 16.4209
41.337340752422875 16.426
41.361137369129835 16.3402
41.38493585138705 16.3396
41.40873620066004 16.3167
41.43272438060107 16.2722
41.45652848292052 16.204
41.48033445666918 16.209
41.50414230331616 16.1961
41.528138045159764 16.1951
41.551949656675205 16.1182
41.575763145513235 16.1307
41.59957851314666 16.0569
41.62358184070442 16.0742
41.64740098505737 16.0721
41.6712220126409 15.9959
41.69504492493139 15.9352
41.71905586207357 15.9107
41.74288256296395 15.9274
41.766711153007456 15.9531
41.79054163368412 15.9273
41.814560204340054 15.8877
41.838394485526365 15.8783
41.86223066180303 15.7964
41.88625497706819 15.7838
41.910094962812 15.7444
41.93393684811168 15.7
41.95778063445365 15.6829
41.981812625263366 15.6497
42.00566023303407 15.6261
42.029509746323676 15.6412
42.05336116662236 15.6426
42.077400857069705 15.638
42.10125611078846 15.5721
42.12511327600405 15.5488
42.14897235421036 15.4902
42.173019768448455 15.4599
42.19688269209613 15.4229
42.22074753323349 15.4188
42.24461429335818 15.3672
42.268669455600495 15.3669
42.292540073217886 15.2923
42.31641261433284 15.2988
42.34028708044675 15.2648
42.36435001496739 15.2732
42.38822835065557 15.2131
42.41210861586426 15.2106
42.4359908120986 15.2228
42.46006154323262 15.1822
42.48394762115317 15.1168
42.507835634632315 15.1037
42.531912233047436 15.0914
42.55580413732265 15.0388
42.579697981698 15.0513
42.60359376768525 14.9334
42.62767820545945 14.9189
42.65157789440821 14.9606
42.67547952952185 14.9638
42.699383112316 14.9258
42.72347541395347 14.8556
42.74738291190531 14.8105
42.771292362102166 14.8131
42.795203766063516 14.7585
42.819303956130405 14.8238
42.843219287476536 14.8165
42.86713657716324 14.7525
42.89105582671383 14.7215
42.91516392983864 14.6878
42.939087119032166 14.6804
42.963012272677304 14.6149
42.98693939230129 14.6369
43.01105543317513 14.5818
43.034986504731386 14.544
43.05891954686589 14.4989
43.08285456110972 14.5099
43.10697856448665 14.4544
43.130917542983475 14.4471
43.15485849820081 14.4399
43.17880143167367 14.3916
43.20293342237094 14.3428
43.226880332449 14.3089
43.25082922540554 14.3271
43.27496722682525 14.2956
43.29892010567796 14.2462
43.32287497204102 14.234000000000002
43.34683182745632 14.2125
43.370977859791836 14.1623
43.39493871351105 14.1601
43.41890156092628 14.1088
43.44286640358341 14.1306
43.46702049182749 14.0969
43.49098934522816 14.0459
43.51496019852649 14.0257
43.5389330532723 14.0269
43.56309522248204 13.9674
43.58707210044314 13.9925
43.61105098451946 13.9473
43.63503187626491 13.9581
43.659202151562134 13.8593
43.68318707902681 13.8127
43.70717401884041 13.8635
43.731162972560874 13.815
43.75534137913236 13.8442
43.779334381108384 13.7802
43.803329401683186 13.7552
43.82732644241872 13.7432
43.8515130055166 13.7536
43.87551410707659 13.6462
43.89951723350145 13.6271
43.923709934595614 13.6326
43.94771713129917 13.6219
43.97172635758096 13.5821
43.99573761501002 13.5574
44.0199385169922 13.5539
44.04395385732619 13.5149
44.067971233533086 13.51
44.09199064718605 13.4907
44.11619977548961 13.4424
44.14022328470671 13.4398
44.16424883610785 13.4518
44.18827643127035 13.4127
44.21249381139513 13.3806
44.236525514814076 13.3208
44.26055926674478 13.3234
44.28459506876863 13.3207
44.3088207262813 13.2539
44.33286064928722 13.26
44.35690262714919 13.2322
44.38094666145278 13.1416
44.4051806219871 13.1753
44.42922879003185 13.177999999999999
44.45327901929361 13.1175
44.477331311362136 13.0666
44.501573600619416 13.0649
44.525630039221795 13.0478
44.54968854541895 13.0067
44.573937102200176 13.0391
44.5979997645541 13.0306
44.622064499300315 13.0001
44.64613130803592 12.9655
44.67038823869318 12.9726
44.69445921643748 12.8832
44.718532272981385 12.8733
44.742607409926194 12.8454
44.76687274034801 12.8156
44.79095205918753 12.7744
44.81503346325094 12.7641
44.839116954143876 12.7704
44.86339071028742 12.7101
44.88747839599524 12.7251
44.91156817336837 12.6723
44.93566004401666 12.6797
44.959942251908146 12.6815
44.984038330325966 12.6679
45.00813650686762 12.5953
45.03223678314731 12.5722
45.05652746888232 12.5438
45.08063196592069 12.5323
45.104738567558705 12.5128
45.128847275414856 12.5304
45.15314646515866 12.5063
45.17725940679741 12.4809
45.20137445952892 12.4149
45.22568004865265 12.4319
45.24979934496396 12.3923
45.27392075725247 12.3228
45.29804428714431 12.3057
45.322358426247604 12.3265
45.346486212804315 12.2835
45.370616121861914 12.2817
45.39474815505086 12.3177
45.41907087049246 12.2166
45.4432071734666 12.1884
45.46734560548283 12.2058
45.49148616817604 12.1753
45.51581748638564 12.2058
45.5399623320197 12.1824
45.56410931325473 12.1181
45.58825843173002 12.1153
45.61259837920865 12.0834
45.636751793816 12.0492
45.66090735060093 12.0011
45.68506505120716 11.9697
45.7094136545275 11.9369
45.73357566449271 11.9064
45.75773982322992 11.9345
45.78190613238733 11.9068
45.806263418194064 11.8525
45.83043404997326 11.8803
45.85460683713677 11.8592
45.87897065658495 11.8882
45.90314777634752 11.7697
45.92732705646868 11.744000000000002
45.9515084986045 11.748
45.97588104735473 11.7136
46.00006683541565 11.6822
46.02425479047904 11.695
46.04844491420549 11.7127
46.0728262191024 11.7033
46.09702070211635 11.6153
46.12121735879483 11.6631
46.14541619080294 11.6209
46.169806278764455 11.6136
46.194009483459034 11.6292
46.21821486849841 11.5568
46.24242243555223 11.5134
46.266821333570014 11.4785
46.29103328674601 11.4469
46.31524742696538 11.4525
46.33946375590237 11.46
46.36387149104216 11.3897
46.38809221957392 11.3809
46.41231514186606 11.3452
46.436540259597464 11.3419
46.460956858999374 11.3142
46.48518638983522 11.3095
46.509418121166966 11.2355
46.533652054678114 11.2656
46.55807754555709 11.2554
46.58231590571962 11.2383
46.60655647313217 11.2051
46.630988654873654 11.1739
46.655233659129024 11.1429
46.67948087571551 11.1393
46.70373030632484 11.1288
46.72817142736393 11.1009
46.752425308428684 11.0682
46.77668140861147 11.0612
46.80093972960865 11.0106
46.82538981736788 10.9967
46.849652602470904 10.9658
46.87391761349769 10.9388
46.8981848521493 10.9649
46.9226439341274 10.9198
46.946915650573224 10.8855
46.97118959976749 10.8877
46.99546578341598 10.8443
47.019933887188216 10.8633
47.04421456235744 10.8431
47.06849747711879 10.8082
47.09278263318286 10.7633
47.11725978640143 10.743
47.14154944775105 10.7185
47.165841355555656 10.7019
47.1901355115306 10.6995
47.214621741924994 10.6763
47.23892041698887 10.6951
47.26322134538975 10.6234
47.28771440635075 10.6201
47.31201986422527 10.65
47.33632758061436 10.6033
47.360637557241866 10.5537
47.38513974410611 10.5294
47.40945426407847 10.5198
47.43377104948137 10.4887
47.45809010204344 10.5066
47.48260144275502 10.4748
47.506925052572285 10.468
47.53125093475548 10.4342
47.55557909103813 10.4158
47.58009961361992 10.3803
47.60443234110732 10.3575
47.62876734791564 10.3758
47.65310463578333 10.3374
47.6776343683373 10.3449
47.7019762413987 10.2788
47.72632040075572 10.2995
47.75066684815169 10.2826
47.77520581885936 10.2377
47.799556865477655 10.195
47.823910205386 10.2101
47.84826584033272 10.1729
47.87281407745551 10.1846
47.89717432569297 10.1574
47.92153687423484 10.169
47.94609208429692 10.1269
47.97045925671401 10.119
47.99482873471275 10.0579
48.01920052005013 10.0401
48.04376504619224 10.0456
48.068141469543484 10.0722
48.09252020552573 10.0115
48.11690125590099 10.0199
48.1414751266064 9.97378
48.16586082917454 9.96498
48.19024885144316 9.933589999999999
48.2146391951793 9.918280000000001
48.239222439012764 9.922419999999999
48.26361744916137 9.867239999999999
48.28801478610016 9.92175
48.31241445160131 9.84528
48.337007097209366 9.83205
48.36141144338331 9.81243
48.38581812345755 9.782630000000001
48.41022713920929 9.805589999999999
48.434829215320704 9.7744
48.45924292604658 9.7176
48.48365897780325 9.69898
48.50807737237308 9.68758
48.532688907799276 9.66305
48.55711201168574 9.68052
48.581537463754074 9.63407
48.60615611725119 9.63782
48.63058628942721 9.65508
48.65501881516546 9.61749
48.6794536962573 9.63602
48.70408185970339 9.59545
48.72852147531801 9.544830000000001
48.75296345168211 9.515089999999999
48.77740779059232 9.50975
48.80204549302823 9.543510000000001
48.82649458091802 9.485289999999999
48.85094603676547 9.45588
48.87539986237231 9.42935
48.90004713292306 9.40647
48.92450572200832 9.42003
48.94896668628025 9.377089999999999
48.97343002754588 9.36825
48.99808689542115 9.35624
49.02255501470614 9.318539999999999
49.04702551642794 9.29279
49.0714984023988 9.29319
49.096164896893235 9.29755
49.120642575466796 9.22873
49.145122643748394 9.23311
49.16960510355558 9.248660000000001
49.19428125404938 9.2053
49.2187685210852 9.20759
49.243258185121555 9.23714
49.26794160167084 9.17779
49.2924360839405 9.14666
49.31693296869764 9.135480000000001
49.34143225776915 9.1111
49.36612538195438 9.09491
49.39062950396021 9.12704
49.41513603578346 9.05718
49.4396449792564 9.00278
49.46434784069503 8.98425
49.488861631846454 9.022780000000001
49.513377840166804 8.96491
49.537896467493745 8.97397
49.56260909589029 8.9209
49.587132585683285 8.9661
49.611658500018365 8.93778
49.636186840738596 8.89334
49.66090926588511 8.92556
49.685442483902584 8.883230000000001
49.70997813385706 8.84954
49.734516217597076 8.80218
49.75924846937352 8.86615
49.7837914452858 8.82072
49.80833686055187 8.76551
49.83288471702571 8.761619999999999
49.85762682540054 8.74888
49.882179588965734 8.74438
49.9067347993235 8.7175
49.93129245833333 8.70889
49.95604445336378 8.70711
49.98060703442832 8.65065
50.005172069746266 8.64995
50.02993150438364 8.63526
50.05450147301533 8.617
50.07907390151433 8.621960000000001
50.10364879174981 8.58055
50.12841816587289 8.5432
50.1529980044635 8.53835
50.17758031042124 8.51343
50.20216508562089 8.52632
50.22694442953363 8.507480000000001
50.25153416817468 8.50596
50.27612638170508 8.44693
50.300721072005196 8.42131
50.325510416102105 8.4325
50.350110084975064 8.41953
50.37471223628208 8.4324
50.39931687190919 8.40439
50.424116246675766 8.34484
50.44872587605249 8.316460000000001
50.47333799543065 8.31888
50.49795260670191 8.32981
50.52276204271512 8.31666
50.54738166295838 8.28915
50.57200378079314 8.27543
50.596628398116835 8.22902
50.62144792604559 8.23762
50.646077567609396 8.224910000000001
50.670709714377715 8.233880000000001
50.69553683636198 8.16642
50.72017401885922 8.17891
50.7448137122895 8.15283
50.76945591856022 8.14007
50.79429318636823 8.170910000000001
50.818940443716784 8.126719999999999
50.84359021965163 8.121830000000001
50.868242516085964 8.09092
50.893089960641895 8.09423
50.917747323549435 8.04985
50.94240721271973 8.0377
50.96706963007175 8.00707
50.99192728239342 7.99897
51.01659478166073 7.97006
51.04126481489051 7.9910000000000005
51.06593738400761 7.97311
51.090805275207074 7.93213
51.11548294172845 7.940189999999999
51.14016314993547 7.92829
51.164845901758845 7.911980000000001
51.18972406304274 7.917739999999999
51.21441192780656 7.836360000000001
51.23910234200271 7.8270800000000005
51.2637953075678 7.831160000000001
51.288683770237945 7.8005
51.31338186432707 7.80064
51.33808251561888 7.81274
51.362978729967345 7.8088
51.387684521509755 7.76083
51.41239287610203 7.708589999999999
51.437103795691165 7.729189999999999
51.46201036644977 7.71178
51.486726441956634 7.693739999999999
51.51144508832545 7.67992
51.536166307509156 7.6982800000000005
51.56108326624387 7.64518
51.58580965706056 7.62103
51.61053862657523 7.64343
51.635270176746864 7.57884
51.66019755512065 7.5464199999999995
51.68493429268881 7.5483199999999995
51.70967361681515 7.573869999999999
51.73441552946465 7.51777
51.759353359237934 7.5216899999999995
51.7841004750961 7.5221800000000005
51.80885018539685 7.48394
51.833602492111254 7.46758
51.8585508051424 7.4970300000000005
51.883308330926425 7.4522
51.90806845906181 7.42916
51.932831191525715 7.387810000000001
51.95779001977161 7.362369999999999
51.98255798721516 7.38028
52.00732856494335 7.377560000000001
52.03229530577543 7.36192
52.057071130455945 7.308260000000001
52.081849571391054 7.29062
52.106630630568695 7.301639999999999
52.13160794279417 7.2602199999999995
52.15639426492067 7.27606
52.18118321127822 7.270010000000001
52.205974783860896 7.2186
52.23096269971011 7.22462
52.255759551287994 7.19428
52.280559035098186 7.18323
52.30536115314103 7.186039999999999
52.33035970494467 7.14658
52.35516711807904 7.1436399999999995
52.37997717147198 7.15198
52.40478986713005 7.12666
52.42979908731974 7.09715
52.454617094216 7.05593
52.47943774942214 7.05434
52.50426105495102 7.091130000000001
52.529280976059844 7.05262
52.554109609024096 7.03332
52.57894089837482 7.0195300000000005
52.60377484613117 6.995260000000001
52.62880550079408 6.96427
52.65364479223379 6.978610000000001
52.67848674816189 6.9432100000000005
52.70352547971946 6.92064
52.72837279155837 6.948189999999999
52.753222773982785 6.905819999999999
52.778075429022984 6.90683
52.80312495150885 6.880560000000001
52.827982978797436 6.88852
52.85284368481815 6.8753899999999994
52.87770707160767 6.831
52.90276741793998 6.792039999999999
52.92763619336701 6.80036
52.952507655698504 6.830080000000001
52.977381806977576 6.82044
53.00245301017842 6.802860000000001
53.02733256653592 6.755489999999999
53.052214817996074 6.72633
53.077099766608484 6.7127300000000005
53.102181859804446 6.697589999999999
53.127072229988265 6.7397100000000005
53.15196530349892 6.694260000000001
53.17686108239249 6.6692
53.20195409881522 6.6654
53.22685531582556 6.6445
53.25175924441303 6.625539999999999
53.27666588664027 6.625889999999999
53.30176985962693 6.58564
53.3266819565689 6.60047
53.35159677336455 6.60756
53.376514312083096 6.56843
53.40162927507703 6.5846800000000005
53.42655228516116 6.586589999999999
53.45147802340193 6.5035300000000005
53.47660125628886 6.49886
53.50153247842639 6.4948
53.52646643496923 6.43725
53.55140312799818 6.4800699999999996
53.576537409691696 6.4665300000000006
53.60147960336152 6.43774
53.626424539786164 6.37954
53.65137222105307 6.43175
53.67651758529126 6.43344
53.70147078399681 6.35429
53.72642673383343 6.352519999999999
53.75138543689533 6.35041
53.776541917524526 6.34585
53.801506154876755 6.33885
53.826473151763246 6.30585
53.851442910284916 6.30077
53.87661054126026 6.259580000000001
53.9015858509782 6.2611
53.92656392866066 6.222119999999999
53.95154477641532 6.22682
53.976723591801296 6.19718
54.00171000771266 6.2417
54.02669920004598 6.21685
54.051691170915745 6.18118
54.076881204886796 6.18834
54.101878760928514 6.16826
54.12687910187696 6.150530000000001
54.152077577768296 6.10501
54.1770835166946 6.10424
54.20209224691339 6.05345
54.22710377055121 6.02728
54.25231352511594 6.04293
54.27733066384342 6.04781
54.30235060239643 6.04014
54.32737334290836 6.0668
54.35259441062629 5.948169999999999
54.377622783395324 5.92936
54.40265396455061 5.955369999999999
54.42768795623251 5.9131599999999995
54.45292037169559 5.867380000000001
54.477960012857906 5.907019999999999
54.50300247099511 5.87929
54.52804774825457 5.840319999999999
54.55329154616743 5.79033
54.57834249018678 5.815259999999999
54.6033962597977 5.73315
54.6284528571545 5.72154
54.653708072335164 5.71786
54.67877035378786 5.70303
54.70383546947698 5.7108099999999995
54.72890342156389 5.63778
54.7541700889442 5.63069
54.77924374251975 5.660880000000001
54.8043202390049 5.60045
54.82959552413022 5.58378
54.8546777351945 5.51706
54.87976279569621 5.49215
54.90485070780914 5.56175
54.930137506558005 5.48706
54.95523115074295 5.493180000000001
54.98032765308844 5.46718
55.005427015775496 5.44549
55.03072536339621 5.4520599999999995
55.05583047570572 5.41309
55.080938454927676 5.38473
55.10604930325027 5.31876
55.131359235107396 5.319369999999999
55.15647585066083 5.32606
55.181595341907496 5.23602
55.20671771104285 5.19393
55.232039262617704 5.23851
55.25716741665048 5.2183
55.28229845518636 5.133369999999999
55.30743238042802 5.15532
55.33276558731939 5.10669
55.357905315183636 5.13505
55.383047936390035 5.13185
55.40819345314859 5.02374
55.433538351073295 5.0759099999999995
55.458689688238415 4.985530000000001
55.483843927614096 4.912
55.509197623043605 4.94977
55.53435769621134 4.92455
55.55952067826466 4.9374400000000005
55.5846865714265 4.88874
55.61005202069737 4.84601
55.63522376553902 4.87343
55.66039842818645 4.8049800000000005
55.68557601087004 4.83809
55.7109532500271 4.8316
55.73613670233794 4.84786
