TT I
1.2716486653135266 7.507739999999999
1.2939594142134223 6.68762
1.3162702121660406 6.58833
1.3385810600174564 6.1723
1.3608919586137629 6.87333
1.383202908801069 6.27224
1.405513911425503 5.76551
1.4278249673332093 6.0609
1.4501343378461518 5.83071
1.4724455028545926 5.85275
1.4947567236847858 6.11302
1.517068001182951 6.22424
1.5393793361953272 6.10255
1.5616907295681737 5.77781
1.5840021821477681 5.4063
1.60631369478041 5.43634
1.6286252683124185 5.04477
1.6509369035901333 4.89963
1.6732468618895553 5.3338
1.695558623192809 5.16648
1.7178704487808514 5.16014
1.7401823395001077 4.97244
1.7625012545597203 4.639390000000001
1.7848028405262486 5.08781
1.8071218901122095 4.73939
1.8294236121921872 4.60853
1.8517427996910911 4.4305900000000005
1.8740620574440425 4.37622
1.8963639900671978 4.55331
1.9186833908139995 4.6466400000000005
1.9409854680117449 4.25154
1.9633050151394713 4.735609999999999
1.9856246367570705 4.50407
2.0079269371922672 4.371519999999999
2.03024671027244 4.35355
2.0525491637446027 5.0089999999999995
2.074869091674931 4.6819999999999995
2.097171701569106 4.4328199999999995
2.1194917877373847 4.76359
2.141811954326636 4.7984800000000005
2.164114805233074 4.67924
2.186435135143035 6.435630000000001
2.208738150935709 12.0104
2.231058647554722 24.342
2.2533792288321184 18.6859
2.275682498336085 8.685410000000001
2.298003251406138 5.67658
2.3203066942619714 5.2751
2.3426276225136022 5.22239
2.3649486396617507 5.97693
2.387252348930071 5.682259999999999
2.4095735463442893 5.86886
2.4318774374315884 6.1858900000000006
2.4541988185014043 6.83558
2.476502894794693 7.1612800000000005
2.498824462909887 6.47348
2.521146125856138 6.86815
2.5434504863470337 7.49742
2.5657723414244717 7.14991
2.588076895590662 7.45195
2.610398946189713 7.98228
2.6327210958598384 7.90875
2.6550259469304716 7.366439999999999
2.6773482972090137 7.1901399999999995
2.6996533504259 7.653389999999999
2.7219759047039602 8.15878
2.744298562293959 7.9349
2.7666039251246595 8.42596
2.7889267918020164 8.7577
2.8112323652516555 8.59328
2.833555444408179 8.480080000000001
2.8558786311183852 8.243260000000001
2.8781845268938557 8.58283
2.9005079311721484 9.01309
2.9228140460410397 8.89734
2.9451376712799635 9.950510000000001
2.967444008632326 9.99137
2.9897678582247247 9.95632
3.0120918213106695 10.274000000000001
3.0343984987899373 10.9998
3.0567226913198637 11.224
3.079029599759726 11.440999999999999
3.101354025127254 12.0123
3.123678568232338 12.4258
3.145985829517914 12.6107
3.16831061055229 13.3765
3.1906181112775593 14.3547
3.212943133635653 14.4796
3.2352682779763207 15.169
3.2575761442691227 15.0483
3.2799015350264273 15.7415
3.302209649240067 16.3175
3.3245352898092655 16.5954
3.3468436553365257 17.6432
3.369169549113219 17.8897
3.3914955708171384 18.4229
3.413804319727358 18.727999999999998
3.4361305997334863 18.9284
3.4584396084414553 19.7117
3.4807661501462652 20.1398
3.503092824025881 20.3824
3.5254022288463154 21.1065
3.5477291695206588 21.9787
3.5700388426251948 22.0505
3.5923660534916446 23.4208
3.6146934007816114 35.8201
3.637003482731501 77.0111
3.6593311053109985 84.9973
3.681641464033634 50.4383
3.7039693653009733 29.3289
3.726297407241705 25.7819
3.7486081875460804 25.3285
3.7709365132734978 25.8203
3.793247578841633 26.1145
3.8155761917550093 26.581
3.8378875459837216 26.8086
3.8602164494827234 27.0501
3.882545499606844 28.276
3.9048572932539183 28.7329
3.9271866390645718 28.8038
3.9494987298666713 29.6914
3.971828374764527 30.1256
3.9941581705403255 30.5485
4.016470713506008 31.2187
4.038800813471445 32.0894
4.061113662089144 33.0307
4.0834440696459176 33.7232
4.105774632334751 33.649
4.128087945865126 34.2782
4.150418821249301 35.4406
4.172732448931298 36.4239
4.195063640413578 37.9682
4.2173775856475215 41.3654
4.239709096631102 67.7646
4.262040768704612 201.583
4.284355196706267 264.378
4.306687193387355 171.424
4.329001947444346 72.8106
4.35133427213731 46.4598
4.373666762177566 44.0071
4.395982011761091 43.7391
4.418314834921175 44.9389
4.44063041906622 51.7356
4.4629635787515625 60.7758
4.4852969080429785 60.5392
4.5076130004776225 52.8462
4.529946671403969 50.2815
4.552263106909177 49.9575
4.574597122877047 51.5193
4.596931312711224 52.7091
4.619248269273446 53.3673
4.6415828092605835 54.5233
4.663900117405352 55.6549
4.686235010953232 56.8375
4.708552674085913 58.1308
4.730887924602802 59.4866
4.753223354952695 61.0237
4.775541557023902 62.3905
4.797877349456786 63.6079
4.820195915032126 65.6654
4.842532072957498 67.5283
4.864868414979744 69.658
4.88718753227192 71.5201
4.909524244902505 73.3338
4.931843734218147 75.2534
4.954180820867835 78.1281
4.976518095879839 81.054
4.998838149695359 83.5572
5.021175803844231 87.53299999999999
5.043496238205739 91.0619
5.065834274903528 94.6988
5.088172504230693 99.4881
5.1104935158799565 106.21700000000001
5.132832132875765 126.515
5.155153533596801 165.51
5.1774925416746225 200.6
5.199814334878411 371.535
5.2221537374521505 1050.83
5.244493338631803 2941.69
5.266815727034316 7761.41
5.289155727832427 12564.8
5.311478517248165 8719.82
5.333818921080011 2774.65
5.356159527788849 529.656
5.3784829252032536 181.49099999999999
5.400823940070432 142.85399999999998
5.423147747031976 127.319
5.445489173474152 118.02600000000001
5.467830807066149 112.51799999999999
5.490155234831516 109.13600000000001
5.512497285125229 105.787
5.534822130975162 104.23700000000001
5.557164601388673 101.719
5.579489868738879 98.9302
5.601832762690846 97.68799999999999
5.6241758697774475 96.9648
5.646501775867269 96.1567
5.668845311622074 95.0485
5.691171647754637 93.4619
5.713515615597765 92.8047
5.735859800852677 92.3084
5.758186788542988 91.5814
5.780531411018185 91.8768
5.802858837297399 91.2601
5.825203900414495 91.3152
5.8475491852224 91.5614
5.869877275883075 92.3626
5.892223006467101 93.0011
5.914551544266608 94.5812
5.936897724049891 97.3164
5.959244129804903 104.215
5.981573344815301 125.21700000000001
6.0039202049061 218.91299999999998
6.026249875609095 477.426
6.04859719346037 989.745
6.070927323278297 2233.57
6.093275102315365 4476.39
6.115623113320588 5264.62
6.137953938319995 3264.12
6.160302415650845 946.808
6.182633708324452 220.27700000000002
6.2049826554078376 111.167
6.227331838745022 91.9473
6.249663839443684 84.5405
6.27201349767565 81.6054
6.294345974611799 86.7729
6.316696111167083 95.3021
6.339046488263839 90.7544
6.361379686074702 78.0049
6.383730546639482 71.46
6.406064229255215 68.3946
6.428415576718203 68.0801
6.450749747566656 66.9788
6.47310158535871 65.6131
6.495453669698332 65.0866
6.517788579421056 64.4799
6.540141159237969 63.3054
6.562476565766648 62.724
6.5848296444934045 62.1609
6.607182974060425 62.065
6.6295191323281015 62.4665
6.651872965955752 64.7074
6.6742096296068985 85.6956
6.6965639707294615 122.602
6.71891856698715 122.95299999999999
6.741255995248479 88.0479
6.763611104154477 66.2324
6.785949046381137 59.8717
6.808304671371482 58.2408
6.8306605557940046 57.8785
6.852999275508618 57.2153
6.875355681171544 56.786
6.897694923437771 56.9187
6.92005185377892 56.5257
6.9423916220322655 56.2589
6.964749080490181 55.6548
6.987106804399774 55.6431
7.009447368180821 55.7023
7.031805625367033 55.2684
7.054146723727803 55.5999
7.076505517631004 54.9801
7.098864581288365 55.1567
7.121206488070854 54.9091
7.143566093607822 54.7631
7.165908543567245 54.9949
7.188268694426048 54.9852
7.2106291193438095 55.2026
7.232972390625943 56.2705
7.255333366030969 67.5318
7.277677189091925 110.44
7.300038718428332 147.403
7.322400526130865 126.14200000000001
7.344745183422596 81.986
7.367107550224791 59.8713
7.389452767901992 55.6075
7.411815697249891 55.2885
7.434161478756298 54.4226
7.456524974096713 54.3847
7.478888753837185 54.0562
7.501235387657368 54.3832
7.523599738562711 54.5834
7.545946944825532 55.0873
7.568311870344528 55.07
7.5906770845765665 55.2229
7.613025156078678 56.7045
7.635390950099687 57.6515
7.657739602662809 56.6587
7.680105979923558 55.8715
7.702472650212829 55.8747
7.724822180948224 55.6065
7.747189439655568 56.2162
7.769539560075357 56.1498
7.791907410653562 56.4796
7.81425812420825 56.4371
7.836626570110925 56.6533
7.858995315087906 57.6091
7.881346924933401 57.7143
7.903716270417482 58.6218
7.926068482028405 58.905
7.948438431475253 59.2187
7.9708086843180235 59.8631
7.993161805171116 60.3171
8.015532667162402 60.763999999999996
8.037886398416653 61.5357
8.060257873014221 62.1539
8.082629655331942 62.9428
8.104984308787587 63.5741
8.127356708900503 66.8105
8.149711981398308 71.3969
8.172085002766314 72.9155
8.194458336181368 70.8148
8.216814543847752 68.99
8.23918850371002 69.3821
8.26154533906492 70.27
8.283919928836452 71.78699999999999
8.306277395339652 72.5344
8.328652618483376 73.7206
8.351028159736202 76.0476
8.373386579575245 78.2512
8.395762759396959 80.0071
8.418121819038275 84.9074
8.440498640894003 96.7893
8.462875785192262 109.704
8.485235811156207 125.354
8.507613602688501 172.148
8.529974277114228 264.863
8.552352719347912 402.44199999999995
8.574731488360351 666.8539999999999
8.59709314210385 1215.94
8.619472567021075 1914.34
8.64183487789147 2190.99
8.664214962183097 1780.08
8.686577933647762 933.497
8.708958680784317 365.23900000000003
8.731339760774953 158.529
8.753703729764451 109.206
8.77608547780821 98.6173
8.798450116065078 94.4891
8.820832535634787 91.9616
8.843215292401656 90.3979
8.865580941199045 89.2609
8.887964374703538 88.2615
8.910330701447199 89.0598
8.932714815164482 90.68
8.955099270424924 89.6418
8.977466620733543 87.1206
8.999851761421976 84.7456
9.022219798361645 83.3648
9.04460562795561 83.4593
9.066991803441677 82.7782
9.089360876979615 82.4199
9.111747746589993 82.2357
9.13411751544971 81.6557
9.156505082664324 81.5545
9.178875550323522 81.7378
9.20126381862328 81.9225
9.223652438908596 82.3832
9.246023961427412 82.4775
9.26841328802173 81.5043
9.290785518039224 81.7024
9.313175554425882 82.7259
9.335565947154315 82.58
9.357939245086508 82.8805
9.380330352834827 82.8871
9.40270436697103 83.09899999999999
9.425096193225055 83.3038
9.447488380180165 84.0535
9.469863475295412 84.1622
9.492256385987508 84.3618
9.514632206018318 84.8693
9.537025843935714 85.5055
9.559402392368193 86.2836
9.581796761000229 87.0757
9.604191496441521 88.0031
9.626569144158516 90.8507
9.648964615551032 94.8155
9.671343000390081 96.4856
9.693739211225699 94.9961
9.716135793237463 93.2588
9.738515290448102 93.0759
9.760912617143402 93.91799999999999
9.783292860202891 95.228
9.805690935076182 96.2766
9.828089385495742 97.3139
9.850470754023561 99.9299
9.872869957865444 106.681
9.89525208097539 119.516
9.917652041736662 130.17700000000002
9.940052382417589 132.446
9.962435644102392 144.142
9.984836746950979 184.34099999999998
10.007220771957746 251.41400000000002
10.029622640473708 357.222
10.052007432299963 535.485
10.074410069984072 832.7230000000001
10.096813093716005 1287.29
10.119199042482517 1788.28
10.141602840636468 2020.66
10.163989564971628 1572.27
10.186394141051062 863.127
10.208799107559706 373.236
10.231187001965623 179.425
10.253592751657669 123.493
10.275981430388155 112.306
10.298387966769793 111.12299999999999
10.320794897965431 112.54899999999999
10.343184759907361 111.876
10.36559248305461 107.209
10.387983138083852 104.56200000000001
10.410391656691655 108.185
10.432800574501677 119.75200000000001
10.455192425893369 137.865
10.47760214443012 163.221
10.499994797678786 208.222
10.522405320453982 286.137
10.54479877906917 405.333
10.567210109595656 512.648
10.5896218454736 569.185
10.612016518879773 498.526
10.634429067781074 344.945
10.656824555333241 190.125
10.679237920773568 118.556
10.701651695961992 94.6939
10.724048411481384 88.4489
10.746463008485165 86.2184
10.768860546937125 84.2443
10.791275969274796 82.6031
10.81369180576079 81.6358
10.836090585366925 80.7623
10.858507252467449 79.3757
10.88090686379991 78.6506
10.903324365036394 77.9717
10.925724811614439 77.9163
10.948143150509463 78.6028
10.970561909719066 77.8137
10.992963615930844 76.4229
11.015383218085756 74.2898
11.037785768347074 73.1489
11.06020621697282 72.4181
11.082627090322113 72.0492
11.105030913430326 71.4345
11.12745263854165 71.8726
11.149857314510728 74.5188
11.172279894912576 79.1806
11.194702904450653 79.8304
11.217108866490921 76.4634
11.239532736615194 72.8293
11.26193956033512 70.9612
11.284364294577085 69.4326
11.306789462371718 67.9863
11.329197585398376 67.039
11.351623622610898 66.4356
11.37403261614354 65.7649
11.396459526308487 65.6681
11.418869393879497 65.2577
11.441297180532617 65.0989
11.463725406927658 64.5231
11.486136592353875 64.3864
11.508565700543707 64.8453
11.530977768845315 66.2395
11.553407762368774 67.0041
11.575838200059769 66.6713
11.598251599479612 64.7944
11.620682927815501 63.8166
11.64309721895548 63.275
11.665529441478206 63.1696
11.687962112597958 62.641000000000005
11.710377748130886 62.4469
11.732811318753434 62.5488
11.755227854859067 62.4618
11.777662328529495 62.674
11.800079768750786 62.4376
11.822515149015453 62.3077
11.844950984084935 62.4244
11.867369787303163 62.2753
11.889806534289491 62.2826
11.912226250487029 62.7019
11.934663912939751 62.7305
11.9571020346363 62.6201
11.979523127133968 62.7368
12.001962169624331 63.5996
12.024384183972964 64.5559
12.046824150809913 68.0855
12.069264581333726 73.53699999999999
12.091687985297767 79.29899999999999
12.11412934550045 88.4691
12.136553680195208 103.635
12.158995973632788 125.387
12.181438735204349 152.939
12.20386447284199 183.21
12.226308172985636 204.722
12.24873485024193 198.044
12.271179492516982 159.282
12.293607112949127 120.936
12.316052700916226 89.9845
12.338498763250042 75.9985
12.360927805303868 68.9008
12.383374818673879 65.7291
12.405804812803074 64.3226
12.428252780773262 63.9003
12.45070122756722 63.7323
12.473132656675375 63.628
12.49558206341869 63.9906
12.518014453510101 64.1502
12.540464823770117 63.9881
12.562915677315177 64.3952
12.58534951575545 65.4101
12.607801338171472 66.9614
12.630236146511358 71.0517
12.652688941369085 74.9028
12.675124723177234 75.1211
12.697578494048786 72.4633
12.720032754458185 68.9878
12.742470003354093 67.6219
12.764925245138771 67.7539
12.787363476431278 67.7518
12.809819703166806 68.1968
12.83227642391173 68.9072
12.854716135692716 69.6787
12.877173846755147 70.609
12.899614549869717 71.0309
12.9220732548287 71.7394
12.94453245827299 71.9588
12.966974655289818 72.8813
12.989434858002571 73.8613
13.011878055298721 74.891
13.034339260862497 75.8142
13.056800969391883 77.1001
13.079245674017244 79.3984
13.101708390774869 81.9926
13.12415410463411 89.3154
13.146617833206086 101.553
13.169064559883248 113.63
13.191529303857127 127.87
13.213994557076367 150.957
13.236442809902437 188.373
13.258909083908291 245.125
13.28135835851934 313.775
13.30382565690295 379.22
13.326293469022952 433.85
13.348744283242008 424.347
13.371213125129904 353.13
13.39366497011003 252.345
13.416134845360597 167.36900000000003
13.438605238843131 120.68
13.46105863690397 104.986
13.483530069144786 106.492
13.505984506951902 112.309
13.528456981549432 122.00399999999999
13.550929978879088 136.941
13.573385983253365 160.931
13.595860028340867 200.31599999999997
13.618317081455832 252.955
13.64079217790333 310.022
13.663250283359057 358.55199999999996
13.685726434770173 374.408
13.708203115221277 331.61300000000006
13.730662806148091 252.69799999999998
13.75314054697177 173.359
13.775601299246777 121.522
13.798080104050406 94.4513
13.820559442405358 84.3549
13.843021793671388 81.3381
13.865502201420897 79.8827
13.887965623051947 79.3095
13.910447103807167 78.157
13.932929122629764 76.536
13.955394156785959 76.3979
13.977877254034569 75.7365
14.000343367582113 74.9965
14.022827546871707 74.3736
14.045294743423524 73.5521
14.06778000837062 72.592
14.090265817715476 72.3852
14.112734645763819 72.2185
14.13522154619454 72.0527
14.157691466286913 72.1854
14.180179461423874 71.7826
14.202668005486178 71.2159
14.22513957064374 70.6777
14.247629214846473 70.0162
14.270101881097517 69.8709
14.29259262906496 70.1407
14.315083930490205 70.8407
14.337558255389705 70.9759
14.360050666019726 70.57
14.382526101071944 69.9269
14.405019624534942 69.1562
14.427513705993134 68.7253
14.449990813291825 68.648
14.47248601302899 68.5673
14.49496423954951 68.7058
14.517460561197822 68.5778
14.539939910570322 68.4261
14.562437357763558 68.8885
14.58493536931253 69.5565
14.607416409993311 70.202
14.62991555254159 70.9864
14.652397725157423 70.9006
14.674898002342799 70.8889
14.697398848433282 70.4335
14.719882725991326 71.17
14.74238471217934 72.2447
14.764869730765593 75.611
14.787372860692983 79.4768
14.809876564079925 84.036
14.83236330125751 89.6883
14.854868153850365 98.315
14.877356041159485 111.735
14.899862046604186 130.997
14.922351087688757 156.86700000000002
14.944858249632887 186.872
14.967365991421232 211.919
14.989856770231246 227.145
15.012365673994204 217.34400000000002
15.03485761569738 184.44799999999998
15.05736768508665 142.444
15.07987833888692 109.03299999999999
15.102372032001655 87.1813
15.124883856909658 75.3129
15.14737872204565 71.6605
15.169891721717274 70.2769
15.192405310371893 70.1225
15.214901940621196 70.4331
15.237416709527137 70.2312
15.259914520936249 70.5265
15.282430473753607 69.6788
15.304947020131227 68.485
15.327446610371178 67.6774
15.349964346154254 66.958
15.372465126703139 66.5138
15.394984055556009 66.3311
15.417486030076159 66.1763
15.44000615566487 65.7909
15.462526881230803 65.789
15.485030653812652 66.0758
15.507552581617434 65.89699999999999
15.530057557334603 66.0396
15.55258069104857 65.9486
15.575104429329837 65.9
15.597611216864632 65.8303
15.620136166564563 65.9179
15.6426441664095 67.2081
15.665170331202765 69.4473
15.687697105158826 72.763
15.710206930593545 76.418
15.732734925158933 80.345
15.755245972089478 86.35600000000001
15.77777519094324 95.75299999999999
15.800287463046663 108.929
15.822817909869592 128.566
15.84534897229804 149.843
15.867863089299354 175.076
15.890395385222186 191.49900000000002
15.912910736597423 196.174
15.935444269699861 180.59
15.957978423016485 153.321
15.980495633101265 118.654
16.003031029129367 93.5624
16.02554948280019 74.911
16.048086125229432 66.9466
16.070623392487107 64.5533
16.09314371869582 63.6353
16.11568223789321 62.8339
16.13820381691126 62.0082
16.160743591742527 60.9549
16.183283996022084 60.0858
16.205807461423195 59.478
16.228349126881973 58.797
16.25087385432698 58.6814
16.27341678466365 58.1363
16.29594277784926 58.0688
16.31848697676433 58.32
16.341031811604868 58.3946
16.36355971058487 58.7518
16.3861058195587 58.2435
16.40863499352978 57.2502
16.431182380342005 56.5032
16.453730407713202 55.9137
16.476261501364792 55.6289
16.498810812136167 55.4395
16.52134319004079 55.2335
16.54389378792203 55.3443
16.566445031001553 55.1835
16.588979342490088 54.9373
16.61153187824822 54.9177
16.634067483263312 54.8154
16.656621315414416 54.5811
16.679175797408888 54.2462
16.701713349928728 54.2884
16.72426913389191 54.7058
16.74680798922351 54.9537
16.76936507887444 54.9251
16.791905240734874 54.9935
16.814463639794468 54.6551
16.837022695210294 54.6001
16.859564824093756 55.1294
16.882125194503903 55.532
16.904668639217885 56.2543
16.927230328348003 56.3216
16.949792678493612 56.6725
16.972338104193863 56.0112
16.994901778652235 55.5065
17.017448529496576 55.4922
17.040013531998152 55.4663
17.06257920018044 56.0704
17.0851279459922 57.0463
17.107694947817667 57.8396
17.130245028099072 58.5572
17.15281336730298 59.8581
17.17536478578733 61.6487
17.19793446610687 63.8004
17.220504818648422 66.8863
17.243058251703697 70.3325
17.265629950971032 74.8906
17.288184731571736 79.454
17.310757781306908 83.4632
17.33333150794385 84.0544
17.355888317140174 81.8829
17.37846339986244 75.9048
17.401021565958885 69.9609
17.42359800851343 64.9633
17.44617513265564 61.5007
17.468735341390783 59.6605
17.491261035594565 58.8742
17.51396340099364 58.7872
17.536490463869136 58.7722
17.559018209820174 58.8179
17.58154663977963 58.9804
17.604251766089718 59.1772
17.626781572227713 59.2929
17.64931206518155 59.5737
17.671843245885103 60.146
17.69455114821572 60.2407
17.717083712612634 60.751999999999995
17.739616967569667 60.9857
17.762150914021706 61.318999999999996
17.78486160749854 61.4014
17.807396945166804 61.8797
17.829932977143503 62.9042
17.85246970436452 64.4746
17.875183204129467 66.3382
17.897721330097664 68.6503
17.920260154126645 70.9309
17.942799677153296 74.0733
17.9655159983646 77.8463
17.988056927677544 83.3467
18.010598558807683 90.9776
18.033140892692916 101.271
18.05586005052525 112.221
18.07840379824407 124.016
18.10094825154059 134.935
18.12366954819864 142.743
18.146215420998306 140.881
18.16876200220057 130.33
18.191309292745153 115.712
18.214033452627167 101.001
18.236582170236648 90.5923
18.259131600016456 85.9154
18.281681742907335 86.5936
18.304408781233683 90.9326
18.32696035875955 96.5554
18.349512652227624 101.005
18.372065662579683 105.069
18.394795594587553 105.959
18.41735004715306 102.065
18.43990521943684 94.8229
18.46246111238171 85.3446
18.485193953325208 75.6022
18.507751296070428 68.8364
18.530309362314178 65.1238
18.552868153000343 63.0946
18.57560391815056 61.9581
18.59816416623245 61.585
18.620725141597372 60.9634
18.643286845190268 60.756
18.666025549835414 60.1882
18.688588718427933 59.5471
18.711152618092243 59.4953
18.73389353884365 59.2389
18.75645890921984 58.8998
18.77902501351406 58.4506
18.801591852673102 58.3664
18.824335739722738 57.8995
18.846904057212626 57.8771
18.8694731124168 57.5834
18.89204290628315 57.3026
18.914789774966803 57.4594
18.937361054791623 57.2507
18.959933076131318 56.8817
18.982505839934877 56.8748
19.00525570560582 56.9022
19.027829963004184 56.6056
19.05040496572238 56.7841
19.072980714710468 56.7658
19.095733592739563 56.7783
19.11831084296757 57.1428
19.140888842324735 57.8671
19.16346759176222 58.1149
19.18622349753803 58.5131
19.208803755869358 59.2921
19.231384767143577 60.6329
19.253966532312948 62.2801
19.276725481241822 64.2749
19.29930876296784 67.2227
19.3218928014549 70.2112
19.34465404436217 73.3772
19.36723960516257 75.8356
19.389825925592426 76.5817
19.412413006605938 75.404
19.43517731967805 71.8167
19.457765930683355 67.0685
19.48035530514408 62.3644
19.50294544401556 59.008
19.525712842708348 56.2697
19.54830451925909 54.8775
19.570896963095727 54.0697
19.593490175174704 53.8218
19.616260674962184 53.9218
19.638855432416964 53.599
19.661450960992624 53.2749
19.68404726164677 53.2432
19.706820878021247 53.2684
19.729418731756834 53.4539
19.752017360452857 53.1106
19.77461676506804 53.4074
19.797393513540218 53.6329
19.819994478951667 53.8411
19.84259622316767 54.607
19.8651987471481 54.8786
19.887978643247177 54.9621
19.91058273574792 55.458
19.933187610901943 56.1407
19.955969879466828 57.3859
19.97857632894404 58.9044
20.00118356396599 60.5713
20.023791585494575 62.7586
20.046577028914875 65.6019
20.069186632506966 67.7968
20.091797025500632 69.2754
20.114408208858933 69.7416
20.137196842715273 69.1581
20.159809615886765 67.6951
20.18242318232135 65.0837
20.20503754298326 63.0676
20.227829382875154 61.9451
20.250445341109344 61.9405
20.27306209647285 62.7737
20.29567964993108 63.9848
20.31847471147704 64.9785
20.34109387027612 65.4753
20.363713830075454 64.9265
20.386334591841646 63.2807
20.409132890679302 60.7331
20.431755265564437 57.5199
20.454378445325528 54.8936
20.477002430930366 52.9801
20.499803982716553 51.9365
20.522429589228004 51.103
20.54505600449589 50.7824
20.567683229489194 50.7261
20.590488049900088 50.3883
20.61311690359731 50.0325
20.63574656993626 49.8336
20.658553853717297 49.4886
20.681185154618298 49.4536
20.703817271080066 49.391999999999996
20.72645020407368 48.978
20.749260783967177 48.8823
20.771895359337133 49.032
20.794530754161617 48.9144
20.817166969412938 48.717
20.83998086114876 48.6928
20.86261872660049 48.551
20.885257415405402 48.5681
20.90789692853701 48.4606
20.930714147864748 48.5319
20.953355319030678 48.5334
20.97599731745334 48.6011
20.99864014410749 48.4241
21.021460706796564 48.435
21.044105199328826 48.7666
21.06675052302631 48.8567
21.089396678865015 48.9767
21.112220600704806 49.231
21.134868430275347 49.8205
21.15751709492456 49.9928
21.180166595629693 50.3079
21.202993892429635 50.831
21.22564507473034 51.2744
21.24829709602816 51.4075
21.27112693608965 51.2721
21.293780644891275 51.2184
21.316435195634053 50.431999999999995
21.339090589297417 49.9246
21.361923832041875 49.3158
21.384580921090404 48.5996
21.407238856007325 48.1865
21.429897637773326 48.0747
21.45273429906592 48.3673
21.475394784108598 48.2885
21.498056118951983 48.1204
21.520718304578022 48.4434
21.543558400304388 48.4699
21.566222297108816 48.6854
21.58888704765135 48.9455
21.61155265291521 49.3255
21.63439619898156 49.5377
21.657063523335786 49.8196
21.67973170537063 50.2805
21.7024007460706 50.8591
21.72524775840385 51.7483
21.747918526116475 52.7405
21.770590155457388 53.8259
21.79326264741238 55.4401
21.816113141960237 57.4365
21.838787368860547 59.4245
21.861462461341976 61.2737
21.884315579735777 63.1841
21.90699241312273 64.2863
21.92967011506078 64.7396
21.95234868653799 64.3519
21.9752053151131 63.0396
21.997885635446785 60.8868
22.020566828293532 59.0849
22.04324889464272 57.483000000000004
22.066109049404666 56.3274
22.088792872571794 55.7119
22.111477572219204 56.1738
22.1341631493376 56.2553
22.157026846313123 55.8128
22.179714188221507 55.0199
22.202402410582668 54.1139
22.22509151438863 52.4307
22.24795876962584 51.1905
22.270649646204486 50.3427
22.293341407213727 49.6436
22.316034053646906 49.2156
22.338904883215342 48.8289
22.36159931041458 48.8937
22.38429462602756 48.8049
22.40699083104897 48.6132
22.429865251039757 48.6569
22.452563244831367 48.8681
22.47526213102522 48.7757
22.49813925616515 48.586000000000006
22.520839937143307 48.523999999999994
22.543541513520587 48.4774
22.56624398629403 48.3193
22.589124730075895 48.3321
22.611829005656723 48.5138
22.63453418063466 48.5054
22.657240256008077 48.6455
22.680124634582935 48.9641
22.70283252079775 49.2425
22.725541310413075 49.5914
22.74825100442868 49.5968
22.771139033969575 50.1433
22.79385054687155 50.4629
22.81656296718292 51.0539
22.83927629590484 52.1181
22.862167992606945 53.0664
22.88488314827121 54.2679
22.907599215359284 55.2671
22.93031619487366 56.2853
22.953211574954405 57.367
22.975930389478226 57.9368
22.998650119445763 58.1742
23.02137076586092 57.1459
23.044269845560063 55.8055
23.06699233506288 54.1336
23.089715744034912 52.3302
23.112617610931565 50.6769
23.135342869061212 49.5575
23.158069049684816 49.1006
23.1807961538087 48.7144
23.20370174880544 48.5702
23.226430710184808 48.6521
23.249160598093425 48.6008
23.271891413539002 48.6538
23.294800752937697 48.6999
23.31753343374794 48.9559
23.340267045128353 49.0137
23.36300158808808 49.4449
23.38591468821339 49.7282
23.408651104658304 50.097
23.431388455719986 50.7834
23.454126742409 51.5951
23.4770436196085 52.5892
23.499783787914662 53.9451
23.522524894889884 54.9507
23.54526694154616 56.0069
23.56818761219047 57.2516
23.59093154860734 57.7432
23.613676427751283 57.9249
23.636422250635754 56.6713
23.659346731118656 55.001999999999995
23.68209445191868 53.2391
23.704843119509587 51.0366
23.72759273490623 49.2997
23.750521041644767 47.8973
23.77327256312355 46.8744
23.796025035462787 46.4102
23.818956224555475 45.7768
23.841710609113413 45.7643
23.86446594758979 45.5854
23.887222241002014 45.3807
23.910157285144578 45.0215
23.932915498962537 44.982
23.955674670778713 45.0024
23.978434801611975 44.7814
24.001373717286125 44.56
24.024135776723917 44.4743
24.046898798245582 44.4866
24.06966278287146 44.4371
24.092605586582614 44.169
24.115371508023642 44.0184
24.1381383956401 44.1402
24.16090625045381 43.9015
24.183852958731244 43.8384
24.206622758582608 43.6695
24.229393528706886 43.4661
24.252165270127392 43.5424
24.27511589952438 43.549
24.297889594216997 43.4201
24.32066426328598 43.2088
24.34343990775613 43.2152
24.36639447485003 43.0664
24.38917208083877 42.9183
24.41195066531332 42.9709
24.43490819850244 43.0756
24.457688750692377 42.9117
24.48047028445616 42.8495
24.503252800821233 42.9973
24.526214300784112 43.0179
24.548998793132213 43.0419
24.57178427117417 42.8078
24.59457073593893 42.8664
24.617536219319863 42.8322
24.64032466834748 42.7627
24.663114107195035 42.6578
24.685904536893013 42.4581
24.708874020360852 42.358000000000004
24.731666442613744 42.3129
24.754459858818787 42.2898
24.777254270007962 42.2355
24.80022777025625 42.1747
24.82302418230472 42.0974
24.845821592443674 42.2369
24.86862000170663 42.1044
24.891597535453727 42.0741
24.914397953892728 42.2545
24.93719937456671 42.0943
24.96000179851076 42.2399
24.98298338249997 42.3576
25.00578782394922 42.5346
25.028593271784167 42.8863
25.05157790644186 43.2375
25.07438537804115 43.4157
25.097193859145293 43.6136
25.120003350792075 43.7809
25.142992065061257 44.2038
25.165803588823465 44.3236
25.18861612625217 44.5476
25.211429678386736 44.6956
25.234422489079968 44.7337
25.257238081693636 44.6395
25.280054692141732 44.9345
25.3028723214652 44.8005
25.325869245420463 44.8945
25.348688923599397 44.9485
25.371509623787006 44.8621
25.394331347025812 44.5183
25.41733240110666 43.8174
25.440156181590016 43.2062
25.46298098826268 42.7162
25.48580682216873 42.2137
25.50881202326435 41.6458
25.53163992281684 41.3756
25.55446885274561 41.0209
25.577298814096377 40.8318
25.600308179121807 40.7453
25.623140214533745 40.8179
25.64597328451537 40.7358
25.66898578564376 40.421
25.691820936010206 40.5064
25.714657124097695 40.3537
25.737494350954734 40.4788
25.760511045684957 40.3422
25.783350361364224 40.3261
25.806190718969255 40.3484
25.82903211955018 40.6474
25.852053024868923 40.6074
25.874896522722523 40.5941
25.897741066713106 40.5845
25.920586657892454 40.7719
25.943611790812668 40.8014
25.966459487728237 40.9064
25.989308234998564 40.896
26.01215803367705 41.2889
26.03518741123814 41.4554
26.05803932412957 41.5643
26.080892291600094 41.4991
26.10374631470478 41.6534
26.12677995397268 41.6793
26.14963609978026 41.5527
26.172493304397875 41.1952
26.19535156888223 41.1651
26.218389486949604 40.7277
26.241249882640123 40.4734
26.26411134137826 40.1452
26.28715248187403 40.1735
26.31001607820869 40.0873
26.3328807407756 39.8866
26.35574647063438 39.9915
26.37879191991473 40.0487
26.401659795896734 40.0597
26.424528742360263 40.1511
26.447398760366614 40.3548
26.470448535598294 40.4898
26.49332070826805 40.7883
26.516193955675355 41.0075
26.53906827888316 41.0995
26.562122397260108 41.3801
26.584998883685063 41.7324
26.607876449110325 42.0322
26.63075509460056 42.0176
26.65381357334404 42.1924
26.67669439061878 42.0794
26.699576291163382 42.0286
26.722459276044212 41.9167
26.745522132402975 41.7201
26.768407297649354 41.3309
26.791293550442003 40.8937
26.814180891848974 40.7693
26.837248143099337 40.3763
26.860137673466657 40.2979
26.88302829566349 40.0153
26.90592001075963 39.859
26.92899167420566 39.7324
26.951885586870763 39.3718
26.974780595655517 39.1907
26.99785558178161 39.1597
27.020752794605112 38.9172
27.043651106772522 38.6921
27.06655051935668 38.7845
27.089629948036183 38.6379
27.112531573292053 38.5667
27.135434302194138 38.638000000000005
27.158338135817015 38.5064
27.181422024430987 38.6333
27.204328079372566 38.4626
27.22723524226965 38.412
27.250143514198573 38.5772
27.273231880156334 38.4794
27.296142382065014 38.2761
27.319053996245536 38.3492
27.341966723775965 38.3725
27.365059584515222 38.3133
27.38797455070062 38.4435
27.410890633481237 38.3858
27.433807833936918 38.4298
27.456905206923906 38.5309
27.47982465472398 38.397
27.502745223449743 38.5602
27.525666914182825 38.57
27.548768816912457 38.5583
27.571692763693633 38.3968
27.59461783573812 38.2328
27.617723149491244 38.046
27.640650484125285 38.114000000000004
27.66357894728264 38.096
27.686508540048052 38.1513
27.709618414237887 38.0229
27.732550278321757 37.794000000000004
27.755483275279115 37.8182
27.778417406196485 37.7365
27.801531858397514 37.7668
27.824468269376716 37.6539
27.847405817586786 37.6384
27.870344504116094 37.9131
27.893463551932008 38.2016
27.916404527281053 38.3207
27.93934664422563 38.2767
27.962289903855886 38.3724
27.98541356491974 38.6428
28.00835912214229 38.7562
28.03130582533231 38.9689
28.054253675581805 39.0572
28.077381967556104 39.0481
28.100332124185126 38.9948
28.123283431160893 38.8552
28.146235889577238 38.7294
28.169368830154156 38.6546
28.192323603752033 38.3367
28.215279532083304 38.0332
28.238415973016764 37.8738
28.261374223145094 37.7306
28.284333631303806 37.6024
28.307294198589954 37.3499
28.330435319167677 36.9957
28.353398217078915 36.8402
28.376362277420153 36.6208
28.39932750129032 36.458
28.422473319286713 36.3098
28.44544088262495 36.2747
28.468409612800283 36.1153
28.491379510913497 35.8841
28.51453004413313 35.912
28.53750229057244 35.8986
28.56047570826344 35.9055
28.583450298308804 35.8776
28.606605564586562 35.5845
28.629582511831156 35.6725
28.65256063474956 35.6808
28.675539934446338 35.6108
28.698699951647605 35.5649
28.72168161743193 35.3094
28.74466446331978 35.3529
28.767648490417624 35.3875
28.790813276438353 35.349000000000004
28.813799678527303 35.4263
28.836787265157085 35.4485
28.859955641890075 35.4349
28.882945610203045 35.4521
28.905936766392035 35.2149
28.928929111566863 35.1395
28.952102288520145 35.2441
28.975097024308607 35.1068
28.998092952423807 34.8243
29.021090073977508 34.7714
29.04426806913204 34.6728
29.067267590245258 34.6346
29.090268308143695 34.5637
29.11327022394099 34.519
29.13645305530891 34.3421
29.159457379627167 34.3752
29.18246290519685 34.2481
29.20546963313352 34.2486
29.22865731875826 34.1707
29.25166646419296 34.209
29.27467681535305 34.1402
29.29768837335608 34.2062
29.320880931312562 34.2291
29.34389491580634 34.246
29.366910110507334 34.1933
29.38992651653503 34.31
29.41312396492981 34.1338
29.436142806456754 34.095
29.45916286268059 34.029
29.48236399319994 33.9729
29.50538649169417 33.8052
29.528410208259935 33.6666
29.55143514402014 33.4692
29.574641196749695 33.3348
29.597668583816574 33.2287
29.6206971934585 33.1814
29.64372702680042 33.029
29.666938019934474 32.9993
29.689970313635285 33.0246
29.713003834422636 32.9363
29.73603858342347 32.808
29.759254535188578 32.7802
29.78229175361658 32.7392
29.80533020365064 32.733000000000004
29.82836988641968 32.8315
29.85159081507472 32.6997
29.874632976355343 32.6409
29.89767637376955 32.6664
29.920721008448314 32.5555
29.9439469322847 32.5497
29.96699405457564 32.5323
29.9900424175358 32.5544
30.013092022298157 32.4528
30.03632295963995 32.4106
30.059375061131373 32.5073
30.08242840783577 32.4048
30.105483000888153 32.444
30.128718970092244 32.3246
30.151776069006917 32.3389
30.17483441768648 32.3876
30.198074175317235 32.3654
30.221135036724256 32.272
30.24419715131772 32.3341
30.267260520236203 32.2242
30.290505341942243 32.1936
30.313571232750228 32.2222
30.336638381310948 32.2394
30.35970678876503 32.169000000000004
30.38295669299435 32.2086
30.40602763151657 32.1826
30.429099832366074 32.0075
30.452173296685572 31.9438
30.47542830191959 32.0627
30.498504306502497 31.8736
30.521581577995562 32.0796
30.544660117543582 32.0954
30.56792024229725 32.1618
30.59100133132069 32.1474
30.614083691845494 32.0852
30.637167325018545 32.1502
30.660432587840603 32.2417
30.683518779717886 32.2278
30.70660624769615 32.2698
30.729694992924372 32.1082
30.75296541239743 32.0868
30.77605672557558 32.0159
30.799149319462742 32.029
30.8224236211637 31.8175
30.845518789950724 31.8158
30.868615242910597 31.8107
30.891712981195973 31.6551
30.91499247215866 31.4445
30.938092794619365 31.445999999999998
30.96119440587579 31.3454
30.984297307082752 31.2617
31.00758200598383 31.1602
31.030687500658694 31.1594
31.053794288760695 31.1867
31.076902371446767 30.9893
31.100192296997445 31.0395
31.12330298246119 31.0103
31.14641496599209 31.0394
31.169528248749216 30.9619
31.19282341969534 30.8798
31.215939314557186 30.9277
31.239056512134788 31.0104
31.262175013589378 30.8351
31.28547544871168 30.8398
31.30859657161541 30.7602
31.331719001892175 30.7901
31.35484274070538 30.8966
31.378148458819545 30.9205
31.401274828443725 30.8431
31.424402510106933 30.9477
31.447712205419993 30.898000000000003
31.470842524931633 30.7412
31.493974159989783 30.7594
31.51710711176168 30.7856
31.54042212308802 30.7791
31.563557722100917 30.6706
31.586694641341655 30.4938
31.609832881979628 30.517
31.63315322823208 30.3836
31.656294125521327 30.2706
31.679436347728515 30.225
31.70257989602529 30.1948
31.725905596152327 30.0891
31.74905181052835 30.061
31.772199354521323 30.1213
31.79534822930507 30.0918
31.818679302290967 30.1552
31.84183085259981 30.0824
31.864983737233473 30.051
31.88813795736804 30.1102
31.911474422233013 30.1007
31.934631327356435 30.0109
31.9577895715215 30.0246
31.980949155906522 30.0236
32.004291031706956 29.9091
32.027453310562606 29.8089
32.05061693318573 29.8165
32.07396288236386 29.8153
32.09712920658542 29.7289
32.12029687812702 29.4891
32.14346589817093 29.486
32.166817291729984 29.4974
32.18998902288583 29.3041
32.21316210610336 29.2832
32.23633654256711 29.1992
32.259693399663725 29.2409
32.282870556771144 29.1345
32.30604907069099 29.0891
32.329228942610065 28.9853
32.35259128243769 28.8995
32.375773884550505 28.9582
32.398957848235646 28.9329
32.422143174682176 28.8301
32.445511016471215 28.7602
32.468699082679954 28.6992
32.49188851523011 28.6358
32.51507931531304 28.5784
32.538452678331 28.5937
32.56164622776311 28.592
32.58484114831493 28.4373
32.60803744118015 28.4596
32.631416344731896 28.5099
32.654615396551876 28.4971
32.67781582427913 28.3618
32.701198898634416 28.3268
32.72440209253756 28.1294
32.747606665947124 28.1945
32.77081262006088 27.9909
32.79420126883317 28.1301
32.81740999876112 28.0651
32.840620112999424 27.9495
32.86383161274818 27.9479
32.88722585534586 27.9466
32.91044014056596 28.0135
32.933655814909734 27.9517
32.95687287957963 27.9209
32.98027273544904 27.9288
33.00349259526636 27.7945
33.026713849030116 27.8528
33.04993649794511 27.8074
33.073341986570746 27.8217
33.09656744032826 27.8602
33.11979429286444 27.8146
33.14302254538647 27.7397
33.166433686291185 27.6285
33.18966475336992 27.6122
33.212897224069096 27.5543
33.23613109959831 27.6373
33.259547912343415 27.5979
33.2827846121627 27.5911
33.306022720453775 27.4546
33.32926223842861 27.3961
33.352684742614166 27.3334
33.37592709463173 27.273000000000003
33.399170859982064 27.2501
33.422597648419426 27.1842
33.44584425514446 27.0595
33.46909227885668 27.0978
33.4923417207723 26.9556
33.51577423505344 26.9746
33.539026528130385 26.8868
33.56228024307245 26.891
33.585535381098246 26.7495
33.60897364093058 26.7233
33.63223163992385 26.7545
33.6554910656699 26.6004
33.678751919389796 26.6227
33.702195944520106 26.5285
33.72545966903325 26.5724
33.74872482519663 26.418000000000003
33.771991414233746 26.4714
33.79544122444841 26.4495
33.81871069412428 26.3184
33.84198160035767 26.2786
33.86525394437455 26.3196
33.88870955949969 26.2961
33.911984794020626 26.2946
33.93526147001624 26.1452
33.958539588715006 26.2181
33.98200102861669 26.1292
34.0052820477047 25.993000000000002
34.02856451319451 25.8963
34.05203033759056 25.8579
34.07531571090147 25.9441
34.09860253431845 25.9463
34.121890809074316 25.8736
34.145362493118924 25.8226
34.16865368561615 25.7621
34.191946333164054 25.7115
34.21524043699793 25.7647
34.23871800066799 25.755
34.26201503218366 25.6491
34.28531352370466 25.6406
34.30861347646881 25.5441
34.33209693978188 25.4844
34.3553998301885 25.4879
34.378704185565205 25.4423
34.402010007152356 25.3531
34.42549939016683 25.3141
34.44880815937748 25.2674
34.472118398533134 25.1912
34.49543010887669 25.151999999999997
34.51892543169198 25.068
34.54224009966052 25.1009
34.56555624255917 25.1346
34.58887386163339 25.0285
34.61237514439016 24.9806
34.6356957311114 24.8968
34.65901779775809 24.9409
34.68252356662995 24.8918
34.705848608458616 24.9361
34.72917513396849 24.8654
34.75250314440949 24.7108
34.77601490857862 24.6791
34.799345904259795 24.621
34.82267838863559 24.6806
34.846012362958525 24.713
34.869530142679984 24.5814
34.89286711232212 24.5614
34.91620557568269 24.5188
34.93954553401677 24.5497
34.9630693495876 24.4405
34.986412313340814 24.5838
35.00975677584668 24.5116
35.033102738362956 24.3844
35.05663261012228 24.3645
35.0799815881786 24.3508
35.10333207003229 24.206
35.12668405694369 24.2136
35.150220005273056 24.2131
35.17357501786656 24.1952
35.19693153931268 24.1578
35.220289570874385 24.1306
35.24383161619786 24.0128
35.267192683604904 24.1488
35.290555264930376 24.133000000000003
35.314101899412165 23.9993
35.33746752422433 24.0136
35.36083466676374 23.9704
35.38420332829803 23.9652
35.407756095629054 24.0066
35.43112781085063 23.9458
35.45450104888391 23.9487
35.477875810999194 23.9274
35.50143473172161 23.733
35.52481255774625 23.8464
35.54819191167777 23.7686
35.57157279478914 23.6972
35.595137889488406 23.6812
35.61852184675279 23.665
35.641907337029984 23.641
35.665294361595684 23.5765
35.68886565090076 23.5356
35.7122557598848 23.5312
35.73564740699838 23.4154
35.759040593519934 23.3874
35.78261809810353 23.34
35.80601437933051 23.3288
35.829412203814705 23.2633
35.85281157283719 23.2061
35.876395313415884 23.2262
35.8997977874528 23.1664
35.92320180988546 23.1224
35.946790244133936 23.0645
35.97019737933222 23.1276
35.993606066789866 23.0979
36.01701630779276 23.0734
36.04061101440684 22.9506
36.06402437852291 22.9379
36.08743930005611 22.9683
36.1108557802951 22.809
36.13445678011326 22.8513
36.15787639383515 22.8681
36.18129757014299 22.7107
36.20472031032821 22.6742
36.22832762423364 22.6444
36.25175350829375 22.6626
36.275180960119776 22.5871
36.298609981005924 22.5924
36.32222362992669 22.6534
36.34565580510207 22.5436
36.36908955323448 22.5777
36.39252487562093 22.4082
36.416144880530226 22.4391
36.43958336764275 22.4099
36.463023432914625 22.4697
36.486465077645676 22.3233
36.51009145956204 22.3441
36.53353627947859 22.3217
36.55698268276811 22.3271
36.58043067073321 22.2804
36.60406345072071 22.0998
36.62751462435344 22.2491
36.65096738658405 22.1923
36.67460498210655 22.1804
36.69806093788647 22.0243
36.72151848619297 21.9179
36.744977628333636 22.0545
36.76862165890998 21.9571
36.79208400512205 21.9398
36.81554794910557 21.9648
36.83901349217101 21.7936
36.862663978991606 21.8034
36.88613273667352 21.7938
36.90960309738324 21.7767
36.933075062434064 21.6684
36.95673202673572 21.6751
36.98020721697122 21.665
37.003684015502365 21.6704
37.027162423645365 21.588
37.050825886711465 21.6114
37.07430753063053 21.4531
37.09779078812467 21.4425
37.121275660513014 21.4617
37.144945643673694 21.3831
37.16843376245278 21.3937
37.19192350009803 21.4063
37.215414857931435 21.2314
37.239091382563885 21.2933
37.262585997426164 21.2393
37.28608223645736 21.261999999999997
37.309763684451696 21.2196
37.33326318851098 21.1897
37.356764320726555 21.1316
37.380267082425526 21.0902
37.40395510942588 21.0716
37.42746114683234 20.9998
37.45096881771841 20.9509
37.474478123414166 20.948
37.49817275092816 20.941999999999997
37.52168534303452 20.8642
37.54519957395567 20.7583
37.568715445024665 20.784000000000002
37.592416694607714 20.6864
37.61593586281424 20.8193
37.63945667518264 20.8106
37.66297913304891 20.7077
37.68668702630454 20.7255
37.710212792059274 20.5906
37.733740207334854 20.5374
37.757269273470364 20.4768
37.780983832050374 20.4956
37.80451621684926 20.4962
37.82805025654007 20.4161
37.851585952464795 20.3984
37.8753071980695 20.3643
37.89884622345676 20.3292
37.92238690911902 20.2997
37.94611318753442 20.2397
37.969657210779765 20.184
37.99320289834801 20.2075
38.016750251586465 20.1503
38.04048325513017 20.1499
38.06403395679343 20.1433
38.087586328183946 20.0554
38.11114037065203 20.0247
38.13488012115898 20.0793
38.1584375229181 19.9684
38.181996599821 19.9609
38.205557353221124 19.967
38.229303872575656 19.9255
38.2528679961576 19.8982
38.27643380031219 19.9299
38.30000128639589 19.7994
38.32375459653193 19.8197
38.34732546371299 19.7532
38.37089801690786 19.6874
38.39447225747609 19.6406
38.418232380377425 19.6093
38.441810012983396 19.655
38.46538933705673 19.5731
38.488970353960084 19.548
38.51273731166058 19.516
38.536321731567014 19.5099
38.55990784840681 19.5536
38.58367995004091 19.4064
38.60726947812959 19.3419
38.63086070726198 19.3741
38.654453638806274 19.3907
38.678232613930824 19.3528
38.70182896773327 19.2095
38.72542702806741 19.2621
38.7490267963045 19.2496
38.77281266709232 19.2183
38.79641586862214 19.1596
38.8200207821842 19.1776
38.843627409152944 19.0844
38.86742019782782 19.0602
38.891030269149255 19.0515
38.914642058016156 18.9847
38.938255565806124 18.922
38.96205529464307 18.9496
38.98567225787121 18.8977
39.00929094417078 18.9526
39.03291135492255 18.9154
39.05671804624804 18.8314
39.080341923549106 18.8034
39.103967529460334 18.738
39.127594865365744 18.7351
39.15140854155791 18.67
39.17503935514948 18.7031
39.19867190290282 18.651
39.22249083587951 18.5836
39.24612686969409 18.5944
39.269764641845306 18.6271
39.293404153722804 18.5499
39.317230110864074 18.4262
39.34087311998506 18.4629
39.36451787301696 18.4506
39.388164371352595 18.3847
39.41199737518003 18.4192
39.43564738196752 18.3964
39.45929913825317 18.3168
39.48295264543308 18.302
39.506792718520884 18.2448
39.530449745387216 18.2185
39.55410852735203 18.2027
39.57776906581474 18.2509
39.60161623079 18.2079
39.625280300200025 18.13
39.64894613032202 18.1216
39.67261372255866 18.0574
39.6964680021016 18.0562
39.72013913657293 18.0154
39.74381203738292 17.9863
39.76748670593756 17.9766
39.79134812278169 17.8908
39.81502634488497 17.8913
39.83870633896685 17.8875
39.862388106436654 17.813
39.88625668336918 17.8008
39.90994201572829 17.804000000000002
39.933629125719285 17.805999999999997
39.957503091207826 17.771
39.9811937746168 17.7055
40.00488623990914 17.6697
40.02858048850006 17.5663
40.05246165409549 17.5614
40.076159487492085 17.5291
40.099859108448875 17.5594
40.123560518384345 17.5714
40.1474489070226 17.4835
40.171153913178564 17.4308
40.194860712584955 17.4329
40.2185693066637 17.3636
40.242464941335314 17.3265
40.26617714307655 17.331
40.289891143772046 17.3286
40.3136069448471 17.2781
40.33750984859743 17.2558
40.3612292688043 17.2429
40.3849504936829 17.2333
40.40867352466194 17.2136
40.43258372059144 17.1546
40.45631038219906 17.1727
40.48003885420956 17.0877
40.503769138055105 17.0676
40.52768664931955 17.1034
40.55142057531802 17.0476
40.57515631746428 17.053
40.599079334038514 17.0235
40.62281872700477 16.942999999999998
40.64655994043941 16.9201
40.67030297578061 16.8994
40.69423334835778 16.8782
40.71798004609188 16.8085
40.74172857006355 16.756
40.76547892171441 16.7886
40.7894166736039 16.766
40.813170699248566 16.6795
40.83692655691388 16.6347
40.86068424804498 16.7005
40.884629402612525 16.7028
40.908390779366385 16.6367
40.932153993938 16.5911
40.95591904777605 16.575
40.979871628443995 16.5919
41.003640379561936 16.5694
41.02741097430883 16.5051
41.05118341413683 16.4984
41.075143444384416 16.4676
41.098919593177826 16.4589
41.1226975914255 16.3984
41.14647744058318 16.3101
41.170444943946755 16.2953
41.19422851378379 16.3165
41.218013938914645 16.2595
41.24198706625173 16.2925
41.26577622087193 16.2222
41.289567235177785 16.1943
41.31336011063129 16.1012
41.337340752422875 16.1153
41.361137369129835 16.1075
41.38493585138705 16.1183
41.40873620066004 16.0598
41.43272438060107 16.0377
41.45652848292052 15.9969
41.48033445666918 15.9298
41.50414230331616 15.9044
41.528138045159764 15.917
41.551949656675205 15.8846
41.575763145513235 15.8641
41.59957851314666 15.8588
41.62358184070442 15.7848
41.64740098505737 15.8165
41.6712220126409 15.8396
41.69504492493139 15.7859
41.71905586207357 15.7095
41.74288256296395 15.7126
41.766711153007456 15.6955
41.79054163368412 15.6107
41.814560204340054 15.6493
41.838394485526365 15.59
41.86223066180303 15.5354
41.88625497706819 15.5779
41.910094962812 15.5097
41.93393684811168 15.4506
41.95778063445365 15.383
41.981812625263366 15.3969
42.00566023303407 15.3932
42.029509746323676 15.3438
42.05336116662236 15.365
42.077400857069705 15.3204
42.10125611078846 15.2938
42.12511327600405 15.3232
42.14897235421036 15.2506
42.173019768448455 15.2538
42.19688269209613 15.1913
42.22074753323349 15.163
42.24461429335818 15.1879
42.268669455600495 15.1334
42.292540073217886 15.0825
42.31641261433284 15.0251
42.34028708044675 15.0254
42.36435001496739 14.9868
42.38822835065557 15.0409
42.41210861586426 14.977
42.4359908120986 14.981
42.46006154323262 14.9051
42.48394762115317 14.9048
42.507835634632315 14.8633
42.531912233047436 14.8377
42.55580413732265 14.8189
42.579697981698 14.815
42.60359376768525 14.7476
42.62767820545945 14.7301
42.65157789440821 14.6968
42.67547952952185 14.7215
42.699383112316 14.68
42.72347541395347 14.6323
42.74738291190531 14.6069
42.771292362102166 14.5993
42.795203766063516 14.5294
42.819303956130405 14.5326
42.843219287476536 14.4816
42.86713657716324 14.5047
42.89105582671383 14.4887
42.91516392983864 14.4834
42.939087119032166 14.4156
42.963012272677304 14.3862
42.98693939230129 14.3876
43.01105543317513 14.3373
43.034986504731386 14.3461
43.05891954686589 14.2895
43.08285456110972 14.2763
43.10697856448665 14.2347
43.130917542983475 14.2015
43.15485849820081 14.2148
43.17880143167367 14.2036
43.20293342237094 14.1533
43.226880332449 14.1097
43.25082922540554 14.109000000000002
43.27496722682525 14.0965
43.29892010567796 14.0409
43.32287497204102 14.0227
43.34683182745632 13.9961
43.370977859791836 13.9168
43.39493871351105 13.9414
43.41890156092628 13.9426
43.44286640358341 13.93
43.46702049182749 13.9244
43.49098934522816 13.8455
43.51496019852649 13.8662
43.5389330532723 13.827
43.56309522248204 13.7843
43.58707210044314 13.765999999999998
43.61105098451946 13.7135
43.63503187626491 13.7189
43.659202151562134 13.717
43.68318707902681 13.7034
43.70717401884041 13.6587
43.731162972560874 13.6304
43.75534137913236 13.550999999999998
43.779334381108384 13.5468
43.803329401683186 13.5994
43.82732644241872 13.5309
43.8515130055166 13.5196
43.87551410707659 13.4764
43.89951723350145 13.4714
43.923709934595614 13.444
43.94771713129917 13.4097
43.97172635758096 13.3828
43.99573761501002 13.3627
44.0199385169922 13.3505
44.04395385732619 13.2816
44.067971233533086 13.3142
44.09199064718605 13.2849
44.11619977548961 13.2564
44.14022328470671 13.2272
44.16424883610785 13.2122
44.18827643127035 13.182
44.21249381139513 13.1808
44.236525514814076 13.1175
44.26055926674478 13.1181
44.28459506876863 13.1012
44.3088207262813 13.0567
44.33286064928722 13.0711
44.35690262714919 13.0599
44.38094666145278 12.9889
44.4051806219871 12.9933
44.42922879003185 12.9718
44.45327901929361 12.9254
44.477331311362136 12.887
44.501573600619416 12.886
44.525630039221795 12.8184
44.54968854541895 12.7999
44.573937102200176 12.7676
44.5979997645541 12.7917
44.622064499300315 12.7827
44.64613130803592 12.7945
44.67038823869318 12.7312
44.69445921643748 12.6622
44.718532272981385 12.703
44.742607409926194 12.6573
44.76687274034801 12.6384
44.79095205918753 12.6238
44.81503346325094 12.5712
44.839116954143876 12.6083
44.86339071028742 12.5499
44.88747839599524 12.5669
44.91156817336837 12.4854
44.93566004401666 12.4934
44.959942251908146 12.4692
44.984038330325966 12.41
45.00813650686762 12.4204
45.03223678314731 12.3651
45.05652746888232 12.4043
45.08063196592069 12.363
45.104738567558705 12.3664
45.128847275414856 12.3424
45.15314646515866 12.2682
45.17725940679741 12.2793
45.20137445952892 12.2451
45.22568004865265 12.2355
45.24979934496396 12.1869
45.27392075725247 12.1606
45.29804428714431 12.1983
45.322358426247604 12.0879
45.346486212804315 12.1512
45.370616121861914 12.1167
45.39474815505086 12.069
45.41907087049246 12.0412
45.4432071734666 12.0193
45.46734560548283 12.0191
45.49148616817604 12.04
45.51581748638564 11.9785
45.5399623320197 11.9474
45.56410931325473 11.909
45.58825843173002 11.8972
45.61259837920865 11.849
45.636751793816 11.8887
45.66090735060093 11.8291
45.68506505120716 11.8291
45.7094136545275 11.811
45.73357566449271 11.7299
45.75773982322992 11.7749
45.78190613238733 11.7604
45.806263418194064 11.6873
45.83043404997326 11.6889
45.85460683713677 11.7044
45.87897065658495 11.6795
45.90314777634752 11.6372
45.92732705646868 11.5766
45.9515084986045 11.5865
45.97588104735473 11.5779
46.00006683541565 11.536
46.02425479047904 11.5297
46.04844491420549 11.5245
46.0728262191024 11.5113
46.09702070211635 11.5245
46.12121735879483 11.4851
46.14541619080294 11.4763
46.169806278764455 11.4398
46.194009483459034 11.3798
46.21821486849841 11.3585
46.24242243555223 11.3433
46.266821333570014 11.3152
46.29103328674601 11.2998
46.31524742696538 11.2806
46.33946375590237 11.2279
46.36387149104216 11.1838
46.38809221957392 11.2075
46.41231514186606 11.217
46.436540259597464 11.1924
46.460956858999374 11.1283
46.48518638983522 11.1223
46.509418121166966 11.1257
46.533652054678114 11.122
46.55807754555709 11.1102
46.58231590571962 11.0678
46.60655647313217 11.036
46.630988654873654 11.0148
46.655233659129024 10.956
46.67948087571551 10.9792
46.70373030632484 10.9367
46.72817142736393 10.9343
46.752425308428684 10.9122
46.77668140861147 10.8917
46.80093972960865 10.8741
46.82538981736788 10.8431
46.849652602470904 10.8444
46.87391761349769 10.8038
46.8981848521493 10.7822
46.9226439341274 10.7517
46.946915650573224 10.7575
46.97118959976749 10.6778
46.99546578341598 10.6775
47.019933887188216 10.7085
47.04421456235744 10.6801
47.06849747711879 10.6424
47.09278263318286 10.6066
47.11725978640143 10.5917
47.14154944775105 10.5942
47.165841355555656 10.56
47.1901355115306 10.5622
47.214621741924994 10.5247
47.23892041698887 10.4811
47.26322134538975 10.4471
47.28771440635075 10.4663
47.31201986422527 10.4723
47.33632758061436 10.4538
47.360637557241866 10.4095
47.38513974410611 10.3954
47.40945426407847 10.3497
47.43377104948137 10.3516
47.45809010204344 10.3248
47.48260144275502 10.3021
47.506925052572285 10.2508
47.53125093475548 10.2764
47.55557909103813 10.2231
47.58009961361992 10.198
47.60443234110732 10.2144
47.62876734791564 10.1806
47.65310463578333 10.2036
47.6776343683373 10.16
47.7019762413987 10.1243
47.72632040075572 10.1127
47.75066684815169 10.1047
47.77520581885936 10.1137
47.799556865477655 10.0841
47.823910205386 10.0816
47.84826584033272 10.0516
47.87281407745551 10.0294
47.89717432569297 10.033999999999999
47.92153687423484 9.95197
47.94609208429692 9.95429
47.97045925671401 9.9711
47.99482873471275 9.909189999999999
48.01920052005013 9.91555
48.04376504619224 9.9009
48.068141469543484 9.91605
48.09252020552573 9.862739999999999
48.11690125590099 9.86192
48.1414751266064 9.86422
48.16586082917454 9.86094
48.19024885144316 9.80449
48.2146391951793 9.801860000000001
48.239222439012764 9.75951
48.26361744916137 9.745569999999999
48.28801478610016 9.76158
48.31241445160131 9.73005
48.337007097209366 9.67838
48.36141144338331 9.65685
48.38581812345755 9.63855
48.41022713920929 9.63958
48.434829215320704 9.63376
48.45924292604658 9.58837
48.48365897780325 9.586739999999999
48.50807737237308 9.5468
48.532688907799276 9.52727
48.55711201168574 9.55344
48.581537463754074 9.51405
48.60615611725119 9.499460000000001
48.63058628942721 9.50977
48.65501881516546 9.46926
48.6794536962573 9.44231
48.70408185970339 9.4343
48.72852147531801 9.415939999999999
48.75296345168211 9.37275
48.77740779059232 9.360610000000001
48.80204549302823 9.40418
48.82649458091802 9.3566
48.85094603676547 9.31962
48.87539986237231 9.31608
48.90004713292306 9.28041
48.92450572200832 9.30995
48.94896668628025 9.22529
48.97343002754588 9.28458
48.99808689542115 9.23045
49.02255501470614 9.20931
49.04702551642794 9.19016
49.0714984023988 9.17975
49.096164896893235 9.1576
49.120642575466796 9.135639999999999
49.145122643748394 9.09453
49.16960510355558 9.10985
49.19428125404938 9.092210000000001
49.2187685210852 9.08962
49.243258185121555 9.04543
49.26794160167084 9.00881
49.2924360839405 8.96102
49.31693296869764 8.96204
49.34143225776915 9.00981
49.36612538195438 8.96476
49.39062950396021 8.92601
49.41513603578346 8.9144
49.4396449792564 8.87453
49.46434784069503 8.91869
49.488861631846454 8.86046
49.513377840166804 8.85573
49.537896467493745 8.82811
49.56260909589029 8.78507
49.587132585683285 8.80738
49.611658500018365 8.7404
49.636186840738596 8.75112
49.66090926588511 8.75451
49.685442483902584 8.72447
49.70997813385706 8.69184
49.734516217597076 8.65649
49.75924846937352 8.64407
49.7837914452858 8.643880000000001
49.80833686055187 8.60391
49.83288471702571 8.61706
49.85762682540054 8.63395
49.882179588965734 8.599169999999999
49.9067347993235 8.56162
49.93129245833333 8.575389999999999
49.95604445336378 8.58049
49.98060703442832 8.532969999999999
50.005172069746266 8.51222
50.02993150438364 8.502419999999999
50.05450147301533 8.4766
50.07907390151433 8.45721
50.10364879174981 8.46885
50.12841816587289 8.438089999999999
50.1529980044635 8.43244
50.17758031042124 8.392380000000001
50.20216508562089 8.38664
50.22694442953363 8.36621
50.25153416817468 8.34953
50.27612638170508 8.35829
50.300721072005196 8.30682
50.325510416102105 8.292710000000001
50.350110084975064 8.27522
50.37471223628208 8.300289999999999
50.39931687190919 8.28475
50.424116246675766 8.23466
50.44872587605249 8.217839999999999
50.47333799543065 8.20548
50.49795260670191 8.19449
50.52276204271512 8.193769999999999
50.54738166295838 8.16584
50.57200378079314 8.15434
50.596628398116835 8.0988
50.62144792604559 8.133230000000001
50.646077567609396 8.09867
50.670709714377715 8.089139999999999
50.69553683636198 8.108360000000001
50.72017401885922 8.07963
50.7448137122895 8.0995
50.76945591856022 8.0407
50.79429318636823 8.027989999999999
50.818940443716784 8.005239999999999
50.84359021965163 7.9623800000000005
50.868242516085964 7.92824
50.893089960641895 7.949319999999999
50.917747323549435 7.9263
50.94240721271973 7.94203
50.96706963007175 7.923710000000001
50.99192728239342 7.909619999999999
51.01659478166073 7.885680000000001
51.04126481489051 7.8293
51.06593738400761 7.83184
51.090805275207074 7.8124199999999995
51.11548294172845 7.79553
51.14016314993547 7.7714
51.164845901758845 7.78747
51.18972406304274 7.78021
51.21441192780656 7.737360000000001
51.23910234200271 7.72685
51.2637953075678 7.707439999999999
51.288683770237945 7.68348
51.31338186432707 7.68497
51.33808251561888 7.693639999999999
51.362978729967345 7.6627600000000005
51.387684521509755 7.65088
51.41239287610203 7.61068
51.437103795691165 7.55547
51.46201036644977 7.583310000000001
51.486726441956634 7.574319999999999
51.51144508832545 7.603510000000001
51.536166307509156 7.56698
51.56108326624387 7.52365
51.58580965706056 7.49483
51.61053862657523 7.500710000000001
51.635270176746864 7.454960000000001
51.66019755512065 7.448180000000001
51.68493429268881 7.4444
51.70967361681515 7.42092
51.73441552946465 7.404
51.759353359237934 7.37925
51.7841004750961 7.412389999999999
51.80885018539685 7.37435
51.833602492111254 7.369910000000001
51.8585508051424 7.29294
51.883308330926425 7.3368
51.90806845906181 7.321289999999999
51.932831191525715 7.30721
51.95779001977161 7.2773699999999995
51.98255798721516 7.214110000000001
52.00732856494335 7.2296
52.03229530577543 7.214739999999999
52.057071130455945 7.18095
52.081849571391054 7.18377
52.106630630568695 7.17306
52.13160794279417 7.1218699999999995
52.15639426492067 7.15188
52.18118321127822 7.13818
52.205974783860896 7.11494
52.23096269971011 7.0899399999999995
52.255759551287994 7.13413
52.280559035098186 7.102189999999999
52.30536115314103 7.07521
52.33035970494467 7.08595
52.35516711807904 7.037380000000001
52.37997717147198 7.024380000000001
52.40478986713005 7.017589999999999
52.42979908731974 6.9923399999999996
52.454617094216 6.974469999999999
52.47943774942214 6.938739999999999
52.50426105495102 6.974139999999999
52.529280976059844 6.96488
52.554109609024096 6.921360000000001
52.57894089837482 6.922630000000001
52.60377484613117 6.874969999999999
52.62880550079408 6.86798
52.65364479223379 6.86848
52.67848674816189 6.849
52.70352547971946 6.8482
52.72837279155837 6.849019999999999
52.753222773982785 6.789969999999999
52.778075429022984 6.769660000000001
52.80312495150885 6.809
52.827982978797436 6.77677
52.85284368481815 6.7537199999999995
52.87770707160767 6.736669999999999
52.90276741793998 6.74953
52.92763619336701 6.68566
52.952507655698504 6.68871
52.977381806977576 6.6985399999999995
53.00245301017842 6.681089999999999
53.02733256653592 6.6486
53.052214817996074 6.656510000000001
53.077099766608484 6.65468
53.102181859804446 6.58915
53.127072229988265 6.61373
53.15196530349892 6.6073
53.17686108239249 6.570860000000001
53.20195409881522 6.54432
53.22685531582556 6.55061
53.25175924441303 6.55713
53.27666588664027 6.55675
53.30176985962693 6.49186
53.3266819565689 6.48484
53.35159677336455 6.5124
53.376514312083096 6.4713
53.40162927507703 6.46025
53.42655228516116 6.45424
53.45147802340193 6.4057900000000005
53.47660125628886 6.4250300000000005
53.50153247842639 6.3821900000000005
53.52646643496923 6.38174
53.55140312799818 6.41814
53.576537409691696 6.31947
53.60147960336152 6.31139
53.626424539786164 6.3183300000000004
53.65137222105307 6.3293099999999995
53.67651758529126 6.31536
53.70147078399681 6.32229
53.72642673383343 6.27074
53.75138543689533 6.27273
53.776541917524526 6.22511
53.801506154876755 6.24604
53.826473151763246 6.22277
53.851442910284916 6.23006
53.87661054126026 6.21288
53.9015858509782 6.14438
53.92656392866066 6.17467
53.95154477641532 6.16892
53.976723591801296 6.12901
54.00171000771266 6.099530000000001
54.02669920004598 6.0905
54.051691170915745 6.05641
54.076881204886796 6.0471900000000005
54.101878760928514 6.05469
54.12687910187696 6.05069
54.152077577768296 6.0326
54.1770835166946 5.996919999999999
54.20209224691339 5.97586
54.22710377055121 6.02037
54.25231352511594 5.98998
54.27733066384342 5.94546
54.30235060239643 5.98185
54.32737334290836 5.91598
54.35259441062629 5.91606
54.377622783395324 5.90624
54.40265396455061 5.86285
54.42768795623251 5.87427
54.45292037169559 5.8256
54.477960012857906 5.85329
54.50300247099511 5.84659
54.52804774825457 5.82348
54.55329154616743 5.78584
54.57834249018678 5.72122
54.6033962597977 5.6990099999999995
54.6284528571545 5.73449
54.653708072335164 5.67124
54.67877035378786 5.7083900000000005
54.70383546947698 5.65094
54.72890342156389 5.61506
54.7541700889442 5.61683
54.77924374251975 5.62056
54.8043202390049 5.58659
54.82959552413022 5.55701
54.8546777351945 5.541
54.87976279569621 5.52647
54.90485070780914 5.52801
54.930137506558005 5.48338
54.95523115074295 5.513240000000001
54.98032765308844 5.43246
55.005427015775496 5.3798900000000005
55.03072536339621 5.4236699999999995
55.05583047570572 5.37439
55.080938454927676 5.3691
55.10604930325027 5.39652
55.131359235107396 5.362369999999999
55.15647585066083 5.30883
55.181595341907496 5.2523
55.20671771104285 5.232559999999999
55.232039262617704 5.2253300000000005
55.25716741665048 5.20611
55.28229845518636 5.1861
55.30743238042802 5.13998
55.33276558731939 5.1319300000000005
55.357905315183636 5.18189
55.383047936390035 5.07982
55.40819345314859 5.0644599999999995
55.433538351073295 5.09358
55.458689688238415 5.05966
55.483843927614096 5.01379
55.509197623043605 4.99159
55.53435769621134 4.91838
55.55952067826466 4.92154
55.5846865714265 4.93321
55.61005202069737 4.87856
55.63522376553902 4.9654
55.66039842818645 4.868119999999999
55.68557601087004 4.83972
55.7109532500271 4.77236
55.73613670233794 4.8119
