TT I
1.2716486653135266 7.58588
1.2939594142134223 6.7073
1.3162702121660406 7.04927
1.3385810600174564 7.067760000000001
1.3608919586137629 6.8243100000000005
1.383202908801069 6.64779
1.405513911425503 6.2138800000000005
1.4278249673332093 6.67011
1.4501343378461518 5.9884900000000005
1.4724455028545926 6.2076199999999995
1.4947567236847858 6.673760000000001
1.517068001182951 6.7247
1.5393793361953272 5.99902
1.5616907295681737 5.5093
1.5840021821477681 5.7653099999999995
1.60631369478041 5.60834
1.6286252683124185 5.88352
1.6509369035901333 5.8573699999999995
1.6732468618895553 5.9983699999999995
1.695558623192809 5.0898
1.7178704487808514 5.05463
1.7401823395001077 4.90434
1.7625012545597203 5.36089
1.7848028405262486 4.68601
1.8071218901122095 4.61627
1.8294236121921872 4.668159999999999
1.8517427996910911 4.74996
1.8740620574440425 4.91726
1.8963639900671978 4.7394099999999995
1.9186833908139995 4.41845
1.9409854680117449 4.91019
1.9633050151394713 5.0261
1.9856246367570705 4.86423
2.0079269371922672 5.26299
2.03024671027244 4.71705
2.0525491637446027 5.15228
2.074869091674931 4.22352
2.097171701569106 4.75477
2.1194917877373847 4.53106
2.141811954326636 4.47194
2.164114805233074 4.4653599999999996
2.186435135143035 5.14849
2.208738150935709 4.74739
2.231058647554722 4.19261
2.2533792288321184 3.92544
2.275682498336085 3.8887099999999997
2.298003251406138 4.3877
2.3203066942619714 5.25223
2.3426276225136022 5.28357
2.3649486396617507 4.88555
2.387252348930071 4.77559
2.4095735463442893 4.24265
2.4318774374315884 4.791919999999999
2.4541988185014043 4.78368
2.476502894794693 4.79415
2.498824462909887 5.69656
2.521146125856138 5.53693
2.5434504863470337 5.5419
2.5657723414244717 5.8863199999999996
2.588076895590662 6.35105
2.610398946189713 6.0115
2.6327210958598384 5.9943
2.6550259469304716 6.87034
2.6773482972090137 5.90744
2.6996533504259 6.39722
2.7219759047039602 6.04641
2.744298562293959 6.39843
2.7666039251246595 6.81918
2.7889267918020164 7.098380000000001
2.8112323652516555 6.7664
2.833555444408179 7.44843
2.8558786311183852 7.017460000000001
2.8781845268938557 7.14387
2.9005079311721484 7.7706
2.9228140460410397 8.81485
2.9451376712799635 9.41554
2.967444008632326 9.42132
2.9897678582247247 10.2329
3.0120918213106695 10.7806
3.0343984987899373 10.5766
3.0567226913198637 11.0917
3.079029599759726 11.6797
3.101354025127254 12.1205
3.123678568232338 12.33
3.145985829517914 12.8737
3.16831061055229 13.6767
3.1906181112775593 14.3157
3.212943133635653 14.2637
3.2352682779763207 14.4516
3.2575761442691227 15.0692
3.2799015350264273 15.5893
3.302209649240067 15.9495
3.3245352898092655 16.7819
3.3468436553365257 17.6192
3.369169549113219 17.8301
3.3914955708171384 18.5522
3.413804319727358 18.6813
3.4361305997334863 19.1298
3.4584396084414553 19.8146
3.4807661501462652 20.0588
3.503092824025881 20.4794
3.5254022288463154 20.8741
3.5477291695206588 21.4208
3.5700388426251948 22.2043
3.5923660534916446 22.2136
3.6146934007816114 22.8499
3.637003482731501 23.1995
3.6593311053109985 23.6675
3.681641464033634 24.2326
3.7039693653009733 24.6729
3.726297407241705 25.229
3.7486081875460804 25.4173
3.7709365132734978 26.0324
3.793247578841633 26.7169
3.8155761917550093 26.366
3.8378875459837216 26.7349
3.8602164494827234 27.4293
3.882545499606844 28.3116
3.9048572932539183 29.2931
3.9271866390645718 29.3612
3.9494987298666713 30.1218
3.971828374764527 30.1101
3.9941581705403255 31.0684
4.016470713506008 31.7025
4.038800813471445 32.3648
4.061113662089144 33.1394
4.0834440696459176 33.9536
4.105774632334751 34.1624
4.128087945865126 34.5287
4.150418821249301 35.8653
4.172732448931298 36.4591
4.195063640413578 36.9152
4.2173775856475215 37.5999
4.239709096631102 38.0935
4.262040768704612 39.0487
4.284355196706267 39.8416
4.306687193387355 40.6007
4.329001947444346 41.8312
4.35133427213731 42.9231
4.373666762177566 44.1482
4.395982011761091 44.4228
4.418314834921175 45.6876
4.44063041906622 46.3808
4.4629635787515625 47.181000000000004
4.4852969080429785 48.4737
4.5076130004776225 50.4623
4.529946671403969 53.0879
4.552263106909177 54.0876
4.574597122877047 54.3293
4.596931312711224 55.1872
4.619248269273446 55.8033
4.6415828092605835 57.0884
4.663900117405352 58.2141
4.686235010953232 59.9481
4.708552674085913 60.7052
4.730887924602802 62.786
4.753223354952695 64.4976
4.775541557023902 66.1735
4.797877349456786 68.4924
4.820195915032126 70.1006
4.842532072957498 71.7185
4.864868414979744 74.2128
4.88718753227192 76.9219
4.909524244902505 79.1409
4.931843734218147 81.4399
4.954180820867835 84.2362
4.976518095879839 87.7288
4.998838149695359 91.4526
5.021175803844231 96.1465
5.043496238205739 100.494
5.065834274903528 106.626
5.088172504230693 113.65299999999999
5.1104935158799565 123.111
5.132832132875765 140.317
5.155153533596801 168.39
5.1774925416746225 286.485
5.199814334878411 892.3939999999999
5.2221537374521505 2188.68
5.244493338631803 3955.36
5.266815727034316 6952.93
5.289155727832427 10604.0
5.311478517248165 9268.01
5.333818921080011 3985.38
5.356159527788849 910.048
5.3784829252032536 264.20799999999997
5.400823940070432 180.854
5.423147747031976 151.637
5.445489173474152 136.174
5.467830807066149 129.053
5.490155234831516 123.47
5.512497285125229 117.52
5.534822130975162 115.04899999999999
5.557164601388673 111.719
5.579489868738879 108.007
5.601832762690846 105.646
5.6241758697774475 104.566
5.646501775867269 103.83
5.668845311622074 103.33
5.691171647754637 102.65700000000001
5.713515615597765 101.37100000000001
5.735859800852677 100.26700000000001
5.758186788542988 100.861
5.780531411018185 101.932
5.802858837297399 101.666
5.825203900414495 102.492
5.8475491852224 103.75399999999999
5.869877275883075 104.654
5.892223006467101 106.564
5.914551544266608 109.279
5.936897724049891 116.37200000000001
5.959244129804903 132.217
5.981573344815301 199.06900000000002
6.0039202049061 444.958
6.026249875609095 882.34
6.04859719346037 1423.96
6.070927323278297 2258.28
6.093275102315365 3723.67
6.115623113320588 4622.55
6.137953938319995 3664.98
6.160302415650845 1357.93
6.182633708324452 345.218
6.2049826554078376 144.27100000000002
6.227331838745022 107.446
6.249663839443684 95.2786
6.27201349767565 88.4921
6.294345974611799 84.0409
6.316696111167083 80.6924
6.339046488263839 78.51100000000001
6.361379686074702 75.7098
6.383730546639482 74.2136
6.406064229255215 73.3372
6.428415576718203 73.0011
6.450749747566656 71.1971
6.47310158535871 69.3469
6.495453669698332 67.9412
6.517788579421056 67.625
6.540141159237969 66.4297
6.562476565766648 65.9535
6.5848296444934045 65.0065
6.607182974060425 64.7742
6.6295191323281015 64.0973
6.651872965955752 62.7844
6.6742096296068985 62.3683
6.6965639707294615 62.0147
6.71891856698715 61.0455
6.741255995248479 60.8779
6.763611104154477 60.3476
6.785949046381137 60.1838
6.808304671371482 60.1178
6.8306605557940046 60.1238
6.852999275508618 59.1342
6.875355681171544 58.7323
6.897694923437771 58.3097
6.92005185377892 58.1677
6.9423916220322655 57.8897
6.964749080490181 57.2046
6.987106804399774 57.2952
7.009447368180821 57.1835
7.031805625367033 57.1493
7.054146723727803 56.8218
7.076505517631004 55.9968
7.098864581288365 56.3359
7.121206488070854 55.9218
7.143566093607822 56.059
7.165908543567245 56.8857
7.188268694426048 56.3218
7.2106291193438095 55.6083
7.232972390625943 55.3724
7.255333366030969 55.56
7.277677189091925 55.3557
7.300038718428332 55.7034
7.322400526130865 55.5625
7.344745183422596 55.8094
7.367107550224791 55.9867
7.389452767901992 55.7791
7.411815697249891 55.6853
7.434161478756298 55.7469
7.456524974096713 55.4107
7.478888753837185 55.6322
7.501235387657368 55.9736
7.523599738562711 56.0139
7.545946944825532 56.5134
7.568311870344528 57.2063
7.5906770845765665 56.7751
7.613025156078678 56.7126
7.635390950099687 57.3463
7.657739602662809 57.2271
7.680105979923558 57.4642
7.702472650212829 57.9966
7.724822180948224 57.9304
7.747189439655568 57.9057
7.769539560075357 58.3393
7.791907410653562 58.736999999999995
7.81425812420825 58.8059
7.836626570110925 59.4009
7.858995315087906 60.2423
7.881346924933401 60.047
7.903716270417482 60.7829
7.926068482028405 61.111000000000004
7.948438431475253 61.6834
7.9708086843180235 62.2855
7.993161805171116 62.4878
8.015532667162402 63.2523
8.037886398416653 64.5264
8.060257873014221 65.3144
8.082629655331942 65.9699
8.104984308787587 66.7111
8.127356708900503 67.8311
8.149711981398308 69.2233
8.172085002766314 70.1602
8.194458336181368 70.9462
8.216814543847752 71.5429
8.23918850371002 73.1281
8.26154533906492 74.1712
8.283919928836452 76.2054
8.306277395339652 77.173
8.328652618483376 78.7797
8.351028159736202 81.2625
8.373386579575245 83.9945
8.395762759396959 86.0942
8.418121819038275 89.9368
8.440498640894003 96.1692
8.462875785192262 111.61200000000001
8.485235811156207 166.593
8.507613602688501 291.302
8.529974277114228 445.20599999999996
8.552352719347912 577.688
8.574731488360351 761.336
8.59709314210385 1086.65
8.619472567021075 1540.26
8.64183487789147 2012.17
8.664214962183097 1896.91
8.686577933647762 1171.99
8.708958680784317 512.5930000000001
8.731339760774953 211.15599999999998
8.753703729764451 128.197
8.77608547780821 109.426
8.798450116065078 103.67
8.820832535634787 99.9757
8.843215292401656 97.8025
8.865580941199045 95.6523
8.887964374703538 94.2384
8.910330701447199 93.3797
8.932714815164482 91.976
8.955099270424924 90.4056
8.977466620733543 89.5937
8.999851761421976 89.2555
9.022219798361645 88.2668
9.04460562795561 88.5003
9.066991803441677 87.9466
9.089360876979615 87.939
9.111747746589993 87.698
9.13411751544971 86.64299999999999
9.156505082664324 86.2326
9.178875550323522 86.4449
9.20126381862328 85.8772
9.223652438908596 86.3687
9.246023961427412 86.3623
9.26841328802173 86.3384
9.290785518039224 86.887
9.313175554425882 88.225
9.335565947154315 88.2018
9.357939245086508 88.2045
9.380330352834827 88.0905
9.40270436697103 88.0715
9.425096193225055 88.0134
9.447488380180165 89.1941
9.469863475295412 88.9353
9.492256385987508 89.4717
9.514632206018318 90.1712
9.537025843935714 90.6056
9.559402392368193 91.3524
9.581796761000229 92.9136
9.604191496441521 93.501
9.626569144158516 94.5462
9.648964615551032 94.7803
9.671343000390081 95.1912
9.693739211225699 96.1981
9.716135793237463 97.5727
9.738515290448102 98.32
9.760912617143402 99.8252
9.783292860202891 101.875
9.805690935076182 103.29299999999999
9.828089385495742 104.587
9.850470754023561 106.654
9.872869957865444 109.266
9.89525208097539 112.26
9.917652041736662 117.84700000000001
9.940052382417589 137.856
9.962435644102392 202.929
9.984836746950979 302.999
10.007220771957746 411.26800000000003
10.029622640473708 510.686
10.052007432299963 638.317
10.074410069984072 812.6089999999999
10.096813093716005 1086.81
10.119199042482517 1478.58
10.141602840636468 1789.69
10.163989564971628 1692.42
10.186394141051062 1123.58
10.208799107559706 526.1669999999999
10.231187001965623 244.83599999999998
10.253592751657669 146.373
10.275981430388155 122.97399999999999
10.298387966769793 117.161
10.320794897965431 114.535
10.343184759907361 111.96
10.36559248305461 110.917
10.387983138083852 115.365
10.410391656691655 131.689
10.432800574501677 158.632
10.455192425893369 185.44799999999998
10.47760214443012 209.933
10.499994797678786 238.545
10.522405320453982 284.262
10.54479877906917 358.284
10.567210109595656 451.63800000000003
10.5896218454736 528.8290000000001
10.612016518879773 526.419
10.634429067781074 411.439
10.656824555333241 247.112
10.679237920773568 147.865
10.701651695961992 106.508
10.724048411481384 95.4428
10.746463008485165 91.9484
10.768860546937125 89.7829
10.791275969274796 87.7349
10.81369180576079 86.46
10.836090585366925 84.9425
10.858507252467449 83.7051
10.88090686379991 82.88600000000001
10.903324365036394 82.1466
10.925724811614439 80.7203
10.948143150509463 80.5439
10.970561909719066 79.5527
10.992963615930844 78.4238
11.015383218085756 77.494
11.037785768347074 76.5987
11.06020621697282 75.922
11.082627090322113 75.2968
11.105030913430326 74.6724
11.12745263854165 74.0816
11.149857314510728 73.0633
11.172279894912576 73.1457
11.194702904450653 71.6672
11.217108866490921 71.1774
11.239532736615194 70.9742
11.26193956033512 70.4955
11.284364294577085 70.5807
11.306789462371718 69.8897
11.329197585398376 69.608
11.351623622610898 69.8766
11.37403261614354 69.0667
11.396459526308487 68.9413
11.418869393879497 68.5039
11.441297180532617 68.0106
11.463725406927658 67.4267
11.486136592353875 67.1614
11.508565700543707 66.9281
11.530977768845315 66.8514
11.553407762368774 66.7123
11.575838200059769 66.7288
11.598251599479612 66.1219
11.620682927815501 66.176
11.64309721895548 66.2247
11.665529441478206 65.6578
11.687962112597958 65.5564
11.710377748130886 65.8023
11.732811318753434 65.4738
11.755227854859067 65.4857
11.777662328529495 65.3771
11.800079768750786 65.1671
11.822515149015453 65.0173
11.844950984084935 65.5196
11.867369787303163 65.189
11.889806534289491 65.4167
11.912226250487029 65.9174
11.934663912939751 65.8503
11.9571020346363 65.9995
11.979523127133968 66.7588
12.001962169624331 68.9039
12.024384183972964 72.8642
12.046824150809913 79.7744
12.069264581333726 87.7787
12.091687985297767 93.6562
12.11412934550045 99.8622
12.136553680195208 109.292
12.158995973632788 123.448
12.181438735204349 141.24
12.20386447284199 166.19299999999998
12.226308172985636 196.438
12.24873485024193 206.622
12.271179492516982 184.929
12.293607112949127 145.82299999999998
12.316052700916226 102.719
12.338498763250042 77.9235
12.360927805303868 69.8026
12.383374818673879 67.6969
12.405804812803074 66.9891
12.428252780773262 67.1936
12.45070122756722 66.8824
12.473132656675375 67.0298
12.49558206341869 67.2756
12.518014453510101 67.1843
12.540464823770117 67.0129
12.562915677315177 67.2379
12.58534951575545 67.563
12.607801338171472 67.5233
12.630236146511358 67.8931
12.652688941369085 68.5594
12.675124723177234 68.7749
12.697578494048786 69.0587
12.720032754458185 69.4182
12.742470003354093 70.0697
12.764925245138771 70.7225
12.787363476431278 71.1564
12.809819703166806 71.4601
12.83227642391173 72.3703
12.854716135692716 72.98899999999999
12.877173846755147 74.3132
12.899614549869717 74.4608
12.9220732548287 75.7138
12.94453245827299 76.2322
12.966974655289818 77.4168
12.989434858002571 78.1842
13.011878055298721 79.1561
13.034339260862497 80.6498
13.056800969391883 82.4468
13.079245674017244 86.4636
13.101708390774869 94.6069
13.12415410463411 111.425
13.146617833206086 130.232
13.169064559883248 145.483
13.191529303857127 159.136
13.213994557076367 174.65599999999998
13.236442809902437 198.03099999999998
13.258909083908291 231.93099999999998
13.28135835851934 273.059
13.30382565690295 328.39099999999996
13.326293469022952 390.325
13.348744283242008 422.06199999999995
13.371213125129904 390.0
13.39366497011003 305.448
13.416134845360597 207.06
13.438605238843131 147.52700000000002
13.46105863690397 129.089
13.483530069144786 132.822
13.505984506951902 141.998
13.528456981549432 151.80200000000002
13.550929978879088 161.434
13.573385983253365 175.516
13.595860028340867 197.918
13.618317081455832 228.71
13.64079217790333 271.095
13.663250283359057 316.013
13.685726434770173 357.811
13.708203115221277 361.717
13.730662806148091 302.493
13.75314054697177 223.09799999999998
13.775601299246777 151.917
13.798080104050406 109.485
13.820559442405358 91.9808
13.843021793671388 86.4694
13.865502201420897 84.5279
13.887965623051947 83.8416
13.910447103807167 82.4553
13.932929122629764 81.227
13.955394156785959 80.7179
13.977877254034569 79.7632
14.000343367582113 78.6088
14.022827546871707 78.1511
14.045294743423524 77.3969
14.06778000837062 76.5149
14.090265817715476 76.5759
14.112734645763819 76.2589
14.13522154619454 75.5419
14.157691466286913 74.9282
14.180179461423874 74.7104
14.202668005486178 74.5059
14.22513957064374 73.992
14.247629214846473 73.7042
14.270101881097517 73.5561
14.29259262906496 73.1971
14.315083930490205 72.8334
14.337558255389705 72.8422
14.360050666019726 72.9196
14.382526101071944 72.5606
14.405019624534942 72.5151
14.427513705993134 72.2614
14.449990813291825 72.1603
14.47248601302899 72.2016
14.49496423954951 72.165
14.517460561197822 72.4751
14.539939910570322 72.1825
14.562437357763558 72.3907
14.58493536931253 72.6797
14.607416409993311 72.5301
14.62991555254159 73.1176
14.652397725157423 73.4382
14.674898002342799 73.8062
14.697398848433282 74.4649
14.719882725991326 77.0709
14.74238471217934 81.4777
14.764869730765593 88.7145
14.787372860692983 94.87700000000001
14.809876564079925 100.822
14.83236330125751 105.91799999999999
14.854868153850365 111.646
14.877356041159485 119.95
14.899862046604186 131.564
14.922351087688757 146.719
14.944858249632887 166.328
14.967365991421232 189.707
14.989856770231246 211.187
15.012365673994204 221.523
15.03485761569738 203.757
15.05736768508665 167.18900000000002
15.07987833888692 128.687
15.102372032001655 99.7314
15.124883856909658 82.5408
15.14737872204565 76.4842
15.169891721717274 74.4555
15.192405310371893 73.4365
15.214901940621196 72.9574
15.237416709527137 72.183
15.259914520936249 72.0871
15.282430473753607 71.3755
15.304947020131227 70.9165
15.327446610371178 70.1399
15.349964346154254 69.7869
15.372465126703139 69.7651
15.394984055556009 69.485
15.417486030076159 69.3122
15.44000615566487 68.9118
15.462526881230803 69.1693
15.485030653812652 69.1405
15.507552581617434 68.9844
15.530057557334603 69.0314
15.55258069104857 68.9958
15.575104429329837 69.5543
15.597611216864632 69.7054
15.620136166564563 71.1602
15.6426441664095 74.9181
15.665170331202765 80.5771
15.687697105158826 85.7645
15.710206930593545 90.3221
15.732734925158933 94.016
15.755245972089478 97.8098
15.77777519094324 103.71600000000001
15.800287463046663 112.00299999999999
15.822817909869592 123.325
15.84534897229804 136.38299999999998
15.867863089299354 154.039
15.890395385222186 173.31099999999998
15.912910736597423 189.88400000000001
15.935444269699861 190.953
15.957978423016485 170.12599999999998
15.980495633101265 139.43
16.003031029129367 108.76100000000001
16.02554948280019 84.2032
16.048086125229432 71.9454
16.070623392487107 67.1125
16.09314371869582 65.7183
16.11568223789321 64.2948
16.13820381691126 63.6329
16.160743591742527 63.3339
16.183283996022084 62.8666
16.205807461423195 62.1507
16.228349126881973 61.4863
16.25087385432698 61.4896
16.27341678466365 60.7235
16.29594277784926 60.5256
16.31848697676433 59.928999999999995
16.341031811604868 59.5265
16.36355971058487 59.4469
16.3861058195587 59.318000000000005
16.40863499352978 58.8505
16.431182380342005 58.4429
16.453730407713202 58.1999
16.476261501364792 58.0011
16.498810812136167 57.8306
16.52134319004079 57.8407
16.54389378792203 57.6284
16.566445031001553 57.467
16.588979342490088 57.5386
16.61153187824822 57.4486
16.634067483263312 57.4164
16.656621315414416 57.1036
16.679175797408888 56.7219
16.701713349928728 56.8882
16.72426913389191 57.0997
16.74680798922351 57.0988
16.76936507887444 57.0944
16.791905240734874 57.0879
16.814463639794468 56.8587
16.837022695210294 57.0024
16.859564824093756 57.2974
16.882125194503903 57.123000000000005
16.904668639217885 57.4158
16.927230328348003 57.2906
16.949792678493612 57.6347
16.972338104193863 57.6868
16.994901778652235 57.7086
17.017448529496576 58.3363
17.040013531998152 59.1716
17.06257920018044 60.2392
17.0851279459922 61.5667
17.107694947817667 62.6244
17.130245028099072 63.5235
17.15281336730298 64.4504
17.17536478578733 65.5603
17.19793446610687 67.1007
17.220504818648422 68.9556
17.243058251703697 70.9187
17.265629950971032 74.2166
17.288184731571736 78.1487
17.310757781306908 82.2508
17.33333150794385 85.3425
17.355888317140174 85.6088
17.37846339986244 82.3422
17.401021565958885 76.9311
17.42359800851343 70.9872
17.44617513265564 66.4504
17.468735341390783 63.8535
17.491261035594565 62.3671
17.51396340099364 61.9803
17.536490463869136 62.0975
17.559018209820174 61.9486
17.58154663977963 62.1248
17.604251766089718 62.1737
17.626781572227713 62.4826
17.64931206518155 62.5405
17.671843245885103 62.797
17.69455114821572 63.0389
17.717083712612634 63.4507
17.739616967569667 63.6002
17.762150914021706 64.5748
17.78486160749854 64.9008
17.807396945166804 66.5702
17.829932977143503 68.9982
17.85246970436452 72.1521
17.875183204129467 74.9199
17.897721330097664 77.8026
17.920260154126645 80.2264
17.942799677153296 82.4943
17.9655159983646 84.932
17.988056927677544 88.4075
18.010598558807683 93.4678
18.033140892692916 99.9862
18.05586005052525 107.00299999999999
18.07840379824407 116.39399999999999
18.10094825154059 127.93799999999999
18.12366954819864 139.09799999999998
18.146215420998306 145.583
18.16876200220057 142.452
18.191309292745153 131.656
18.214033452627167 116.463
18.236582170236648 102.20200000000001
18.259131600016456 93.2706
18.281681742907335 89.3271
18.304408781233683 90.4799
18.32696035875955 93.2979
18.349512652227624 97.5413
18.372065662579683 103.383
18.394795594587553 107.016
18.41735004715306 107.126
18.43990521943684 101.523
18.46246111238171 92.7803
18.485193953325208 82.9299
18.507751296070428 74.6411
18.530309362314178 69.3815
18.552868153000343 67.0511
18.57560391815056 65.3628
18.59816416623245 64.8479
18.620725141597372 64.3246
18.643286845190268 63.5734
18.666025549835414 63.2619
18.688588718427933 62.5263
18.711152618092243 62.4336
18.73389353884365 62.2766
18.75645890921984 61.7392
18.77902501351406 61.2572
18.801591852673102 61.4355
18.824335739722738 60.9293
18.846904057212626 61.0502
18.8694731124168 60.6162
18.89204290628315 60.4229
18.914789774966803 60.5003
18.937361054791623 59.857
18.959933076131318 59.7474
18.982505839934877 59.581
19.00525570560582 59.4606
19.027829963004184 59.2285
19.05040496572238 59.7288
19.072980714710468 60.2683
19.095733592739563 60.9724
19.11831084296757 61.0014
19.140888842324735 61.5352
19.16346759176222 61.7876
19.18622349753803 62.2298
19.208803755869358 62.8496
19.231384767143577 63.7397
19.253966532312948 64.6795
19.276725481241822 66.0207
19.29930876296784 67.4718
19.3218928014549 69.236
19.34465404436217 71.5122
19.36723960516257 74.2769
19.389825925592426 76.5278
19.412413006605938 77.655
19.43517731967805 76.1688
19.457765930683355 72.4702
19.48035530514408 68.0213
19.50294544401556 63.5062
19.525712842708348 59.9984
19.54830451925909 58.0602
19.570896963095727 56.8529
19.593490175174704 56.5546
19.616260674962184 56.2671
19.638855432416964 56.0565
19.661450960992624 56.32899999999999
19.68404726164677 55.99100000000001
19.706820878021247 55.8288
19.729418731756834 56.3949
19.752017360452857 56.0761
19.77461676506804 56.43
19.797393513540218 56.9167
19.819994478951667 57.2548
19.84259622316767 58.1845
19.8651987471481 58.5563
19.887978643247177 58.5765
19.91058273574792 58.7733
19.933187610901943 59.4524
19.955969879466828 60.4603
19.97857632894404 61.5151
20.00118356396599 62.5456
20.023791585494575 64.0945
20.046577028914875 66.4308
20.069186632506966 68.6265
20.091797025500632 70.7598
20.114408208858933 72.45100000000001
20.137196842715273 73.3149
20.159809615886765 72.7328
20.18242318232135 70.2578
20.20503754298326 67.6875
20.227829382875154 65.4658
20.250445341109344 64.0797
20.27306209647285 63.9041
20.29567964993108 64.4873
20.31847471147704 65.6371
20.34109387027612 66.9475
20.363713830075454 67.6668
20.386334591841646 67.3836
20.409132890679302 65.0122
20.431755265564437 62.1052
20.454378445325528 58.9813
20.477002430930366 56.3504
20.499803982716553 54.5913
20.522429589228004 53.3677
20.54505600449589 52.888000000000005
20.567683229489194 52.8507
20.590488049900088 52.4612
20.61311690359731 52.4104
20.63574656993626 52.2899
20.658553853717297 51.8028
20.681185154618298 51.8106
20.703817271080066 51.7699
20.72645020407368 51.3617
20.749260783967177 51.2625
20.771895359337133 51.2589
20.794530754161617 51.2552
20.817166969412938 51.147
20.83998086114876 51.0558
20.86261872660049 50.9587
20.885257415405402 51.0531
20.90789692853701 50.8718
20.930714147864748 51.0237
20.953355319030678 51.2007
20.97599731745334 51.3089
20.99864014410749 51.1849
21.021460706796564 51.108999999999995
21.044105199328826 51.3137
21.06675052302631 51.2804
21.089396678865015 51.4208
21.112220600704806 51.7234
21.134868430275347 51.7755
21.15751709492456 52.089
21.180166595629693 52.0768
21.202993892429635 52.4903
21.22564507473034 52.9568
21.24829709602816 53.1432
21.27112693608965 53.5103
21.293780644891275 53.7548
21.316435195634053 53.5254
21.339090589297417 52.6856
21.361923832041875 52.2141
21.384580921090404 51.4875
21.407238856007325 50.9561
21.429897637773326 50.7384
21.45273429906592 50.724
21.475394784108598 50.8229
21.498056118951983 50.7589
21.520718304578022 51.0323
21.543558400304388 50.9806
21.566222297108816 51.6403
21.58888704765135 52.0692
21.61155265291521 52.5501
21.63439619898156 53.1703
21.657063523335786 53.3947
21.67973170537063 53.8281
21.7024007460706 54.3181
21.72524775840385 54.7451
21.747918526116475 55.5453
21.770590155457388 56.5455
21.79326264741238 57.6445
21.816113141960237 58.9343
21.838787368860547 60.1209
21.861462461341976 61.7194
21.884315579735777 63.6388
21.90699241312273 65.2866
21.92967011506078 66.7345
21.95234868653799 67.3428
21.9752053151131 66.7566
21.997885635446785 65.2181
22.020566828293532 62.9748
22.04324889464272 60.4104
22.066109049404666 58.3789
22.088792872571794 57.6254
22.111477572219204 57.6049
22.1341631493376 57.9898
22.157026846313123 58.2514
22.179714188221507 58.06
22.202402410582668 57.2872
22.22509151438863 55.8365
22.24795876962584 54.3997
22.270649646204486 53.2155
22.293341407213727 52.223
22.316034053646906 51.826
22.338904883215342 51.3101
22.36159931041458 51.2213
22.38429462602756 50.9308
22.40699083104897 50.8086
22.429865251039757 50.842
22.452563244831367 50.7842
22.47526213102522 50.8383
22.49813925616515 50.8472
22.520839937143307 50.8749
22.543541513520587 50.9656
22.56624398629403 50.9344
22.589124730075895 50.7633
22.611829005656723 51.3371
22.63453418063466 51.5515
22.657240256008077 51.8019
22.680124634582935 51.9591
22.70283252079775 52.2931
22.725541310413075 52.5171
22.74825100442868 52.6909
22.771139033969575 52.8681
22.79385054687155 53.1635
22.81656296718292 53.5863
22.83927629590484 54.0444
22.862167992606945 54.7008
22.88488314827121 55.6367
22.907599215359284 56.2602
22.93031619487366 57.1652
22.953211574954405 58.2683
22.975930389478226 59.3642
22.998650119445763 59.9215
23.02137076586092 59.8069
23.044269845560063 59.1096
23.06699233506288 57.568000000000005
23.089715744034912 56.0293
23.112617610931565 54.1868
23.135342869061212 52.6946
23.158069049684816 51.6613
23.1807961538087 51.3671
23.20370174880544 51.3186
23.226430710184808 51.6229
23.249160598093425 51.8843
23.271891413539002 51.9149
23.294800752937697 51.8215
23.31753343374794 52.1675
23.340267045128353 52.0769
23.36300158808808 52.3912
23.38591468821339 52.562
23.408651104658304 52.8707
23.431388455719986 53.2107
23.454126742409 53.7061
23.4770436196085 54.2178
23.499783787914662 55.012
23.522524894889884 55.6159
23.54526694154616 56.5038
23.56818761219047 57.721000000000004
23.59093154860734 58.585
23.613676427751283 59.5759
23.636422250635754 59.6008
23.659346731118656 58.5212
23.68209445191868 56.9746
23.704843119509587 54.8787
23.72759273490623 52.7234
23.750521041644767 51.0653
23.77327256312355 49.7365
23.796025035462787 48.9728
23.818956224555475 48.3663
23.841710609113413 48.2218
23.86446594758979 48.0344
23.887222241002014 47.7046
23.910157285144578 47.3487
23.932915498962537 47.2822
23.955674670778713 47.2213
23.978434801611975 47.0844
24.001373717286125 46.7587
24.024135776723917 46.5988
24.046898798245582 46.5134
24.06966278287146 46.3427
24.092605586582614 46.2473
24.115371508023642 46.2331
24.1381383956401 45.8888
24.16090625045381 45.8407
24.183852958731244 45.9713
24.206622758582608 45.7344
24.229393528706886 45.411
24.252165270127392 45.5904
24.27511589952438 45.5691
24.297889594216997 45.4834
24.32066426328598 45.2182
24.34343990775613 45.148999999999994
24.36639447485003 45.0217
24.38917208083877 45.0973
24.41195066531332 44.9346
24.43490819850244 44.8873
24.457688750692377 44.8328
24.48047028445616 44.795
24.503252800821233 44.8635
24.526214300784112 44.9775
24.548998793132213 44.8096
24.57178427117417 44.83
24.59457073593893 44.8962
24.617536219319863 44.8581
24.64032466834748 44.824
24.663114107195035 44.7939
24.685904536893013 44.4499
24.708874020360852 44.3648
24.731666442613744 44.3535
24.754459858818787 44.3161
24.777254270007962 44.2571
24.80022777025625 44.1181
24.82302418230472 44.1432
24.845821592443674 44.328
24.86862000170663 44.3585
24.891597535453727 44.1673
24.914397953892728 44.3831
24.93719937456671 44.2947
24.96000179851076 44.6321
24.98298338249997 44.8039
25.00578782394922 44.9763
25.028593271784167 44.9612
25.05157790644186 45.263999999999996
25.07438537804115 45.3513
25.097193859145293 45.4405
25.120003350792075 45.4611
25.142992065061257 45.8274
25.165803588823465 46.2843
25.18861612625217 46.4852
25.211429678386736 46.3366
25.234422489079968 46.5396
25.257238081693636 46.4457
25.280054692141732 46.3601
25.3028723214652 46.2996
25.325869245420463 46.4041
25.348688923599397 46.4962
25.371509623787006 46.6425
25.394331347025812 46.3897
25.41733240110666 46.3286
25.440156181590016 45.6837
25.46298098826268 45.1565
25.48580682216873 44.5621
25.50881202326435 43.9756
25.53163992281684 43.4984
25.55446885274561 43.2181
25.577298814096377 42.7205
25.600308179121807 42.7461
25.623140214533745 42.9136
25.64597328451537 42.6161
25.66898578564376 42.4174
25.691820936010206 42.4836
25.714657124097695 42.4718
25.737494350954734 42.494
25.760511045684957 42.3271
25.783350361364224 42.5008
25.806190718969255 42.4159
25.82903211955018 42.3864
25.852053024868923 42.3673
25.874896522722523 42.4481
25.897741066713106 42.2338
25.920586657892454 42.5064
25.943611790812668 42.4682
25.966459487728237 42.59
25.989308234998564 42.6394
26.01215803367705 43.005
26.03518741123814 43.1675
26.05803932412957 43.19
26.080892291600094 43.0404
26.10374631470478 43.2032
26.12677995397268 43.5169
26.14963609978026 43.6625
26.172493304397875 43.3078
26.19535156888223 43.1007
26.218389486949604 42.8117
26.241249882640123 42.5643
26.26411134137826 42.33
26.28715248187403 42.2781
26.31001607820869 42.0716
26.3328807407756 41.9076
26.35574647063438 42.1614
26.37879191991473 41.9861
26.401659795896734 42.0586
26.424528742360263 42.1789
26.447398760366614 42.3961
26.470448535598294 42.4746
26.49332070826805 42.4265
26.516193955675355 42.7246
26.53906827888316 42.8194
26.562122397260108 42.9394
26.584998883685063 43.2394
26.607876449110325 43.4928
26.63075509460056 43.6065
26.65381357334404 43.7513
26.67669439061878 43.9401
26.699576291163382 43.9765
26.722459276044212 43.928999999999995
26.745522132402975 43.5154
26.768407297649354 43.24
26.791293550442003 42.9609
26.814180891848974 42.6897
26.837248143099337 42.4635
26.860137673466657 42.2885
26.88302829566349 41.9021
26.90592001075963 41.8133
26.92899167420566 41.6313
26.951885586870763 41.2942
26.974780595655517 41.1738
26.99785558178161 41.0051
27.020752794605112 40.839
27.043651106772522 40.6701
27.06655051935668 40.6868
27.089629948036183 40.5981
27.112531573292053 40.466
27.135434302194138 40.551
27.158338135817015 40.3867
27.181422024430987 40.4962
27.204328079372566 40.2547
27.22723524226965 40.278
27.250143514198573 40.3079
27.273231880156334 40.444
27.296142382065014 40.1982
27.319053996245536 39.9956
27.341966723775965 40.2104
27.365059584515222 40.2575
27.38797455070062 40.1302
27.410890633481237 40.0736
27.433807833936918 39.9856
27.456905206923906 40.1233
27.47982465472398 40.0974
27.502745223449743 40.1983
27.525666914182825 40.3167
27.548768816912457 40.4234
27.571692763693633 40.1419
27.59461783573812 40.0266
27.617723149491244 39.9862
27.640650484125285 40.0737
27.66357894728264 40.0143
27.686508540048052 39.9992
27.709618414237887 39.7974
27.732550278321757 39.5995
27.755483275279115 39.7374
27.778417406196485 39.5289
27.801531858397514 39.562
27.824468269376716 39.6556
27.847405817586786 39.5941
27.870344504116094 39.694
27.893463551932008 39.731
27.916404527281053 39.8788
27.93934664422563 40.0052
27.962289903855886 39.959
27.98541356491974 40.1245
28.00835912214229 40.3311
28.03130582533231 40.3854
28.054253675581805 40.5403
28.077381967556104 40.6579
28.100332124185126 40.6649
28.123283431160893 40.6659
28.146235889577238 40.466
28.169368830154156 40.3718
28.192323603752033 40.1144
28.215279532083304 39.7857
28.238415973016764 39.7074
28.261374223145094 39.5005
28.284333631303806 39.3345
28.307294198589954 39.103
28.330435319167677 38.8304
28.353398217078915 38.624
28.376362277420153 38.5048
28.39932750129032 38.2563
28.422473319286713 37.9562
28.44544088262495 37.9937
28.468409612800283 37.982
28.491379510913497 37.6497
28.51453004413313 37.5125
28.53750229057244 37.5026
28.56047570826344 37.3853
28.583450298308804 37.3984
28.606605564586562 37.2628
28.629582511831156 37.3948
28.65256063474956 37.2302
28.675539934446338 37.2133
28.698699951647605 37.1206
28.72168161743193 37.0832
28.74466446331978 37.0481
28.767648490417624 37.037
28.790813276438353 36.8308
28.813799678527303 36.8545
28.836787265157085 36.8607
28.859955641890075 36.9876
28.882945610203045 36.8701
28.905936766392035 36.8182
28.928929111566863 36.7731
28.952102288520145 36.7875
28.975097024308607 36.7174
28.998092952423807 36.6004
29.021090073977508 36.5859
29.04426806913204 36.4316
29.067267590245258 36.1717
29.090268308143695 36.1423
29.11327022394099 36.1371
29.13645305530891 35.9471
29.159457379627167 35.8437
29.18246290519685 35.7862
29.20546963313352 35.8091
29.22865731875826 35.795
29.25166646419296 35.7383
29.27467681535305 35.6058
29.29768837335608 35.6893
29.320880931312562 35.579
29.34389491580634 35.7156
29.366910110507334 35.6664
29.38992651653503 35.6907
29.41312396492981 35.7017
29.436142806456754 35.6285
29.45916286268059 35.5265
29.48236399319994 35.3758
29.50538649169417 35.2875
29.528410208259935 35.3099
29.55143514402014 35.086999999999996
29.574641196749695 34.922
29.597668583816574 34.8101
29.6206971934585 34.6303
29.64372702680042 34.6238
29.666938019934474 34.5876
29.689970313635285 34.5811
29.713003834422636 34.4959
29.73603858342347 34.336
29.759254535188578 34.3464
29.78229175361658 34.2749
29.80533020365064 34.3532
29.82836988641968 34.3913
29.85159081507472 34.2876
29.874632976355343 34.2453
29.89767637376955 34.1675
29.920721008448314 34.0525
29.9439469322847 34.0413
29.96699405457564 34.0207
29.9900424175358 33.9574
30.013092022298157 34.0062
30.03632295963995 33.7974
30.059375061131373 33.8819
30.08242840783577 33.9126
30.105483000888153 33.9661
30.128718970092244 33.7853
30.151776069006917 33.7494
30.17483441768648 33.7814
30.198074175317235 33.732
30.221135036724256 33.779
30.24419715131772 33.7128
30.267260520236203 33.6484
30.290505341942243 33.7893
30.313571232750228 33.8077
30.336638381310948 33.7735
30.35970678876503 33.7756
30.38295669299435 33.6891
30.40602763151657 33.6699
30.429099832366074 33.6767
30.452173296685572 33.5415
30.47542830191959 33.5298
30.498504306502497 33.4588
30.521581577995562 33.551
30.544660117543582 33.5419
30.56792024229725 33.4952
30.59100133132069 33.4837
30.614083691845494 33.5795
30.637167325018545 33.5551
30.660432587840603 33.6151
30.683518779717886 33.6195
30.70660624769615 33.6286
30.729694992924372 33.5844
30.75296541239743 33.52
30.77605672557558 33.5363
30.799149319462742 33.5559
30.8224236211637 33.4111
30.845518789950724 33.2947
30.868615242910597 33.2333
30.891712981195973 33.2211
30.91499247215866 32.9654
30.938092794619365 32.9714
30.96119440587579 32.9626
30.984297307082752 32.8095
31.00758200598383 32.6621
31.030687500658694 32.6173
31.053794288760695 32.5587
31.076902371446767 32.4659
31.100192296997445 32.5708
31.12330298246119 32.444
31.14641496599209 32.3388
31.169528248749216 32.3966
31.19282341969534 32.2943
31.215939314557186 32.2952
31.239056512134788 32.3115
31.262175013589378 32.1726
31.28547544871168 32.1938
31.30859657161541 32.2215
31.331719001892175 32.171
31.35484274070538 32.2489
31.378148458819545 32.3266
31.401274828443725 32.2144
31.424402510106933 32.2291
31.447712205419993 32.279
31.470842524931633 32.1066
31.493974159989783 32.1539
31.51710711176168 32.1255
31.54042212308802 32.2389
31.563557722100917 32.1278
31.586694641341655 31.8831
31.609832881979628 31.9174
31.63315322823208 31.8308
31.656294125521327 31.6855
31.679436347728515 31.7235
31.70257989602529 31.5904
31.725905596152327 31.6041
31.74905181052835 31.5139
31.772199354521323 31.4947
31.79534822930507 31.4645
31.818679302290967 31.3799
31.84183085259981 31.304000000000002
31.864983737233473 31.4012
31.88813795736804 31.4803
31.911474422233013 31.3032
31.934631327356435 31.3676
31.9577895715215 31.3088
31.980949155906522 31.3617
32.004291031706956 31.3388
32.027453310562606 31.2244
32.05061693318573 31.0814
32.07396288236386 31.0579
32.09712920658542 31.1026
32.12029687812702 30.9579
32.14346589817093 30.9218
32.166817291729984 30.8538
32.18998902288583 30.7761
32.21316210610336 30.6784
32.23633654256711 30.5166
32.259693399663725 30.5519
32.282870556771144 30.511
32.30604907069099 30.4468
32.329228942610065 30.3769
32.35259128243769 30.2277
32.375773884550505 30.1949
32.398957848235646 30.2304
32.422143174682176 30.1274
32.445511016471215 30.0214
32.468699082679954 29.9349
32.49188851523011 29.9218
32.51507931531304 29.9188
32.538452678331 29.9033
32.56164622776311 29.8117
32.58484114831493 29.6935
32.60803744118015 29.7661
32.631416344731896 29.7864
32.654615396551876 29.6963
32.67781582427913 29.5868
32.701198898634416 29.5631
32.72440209253756 29.5113
32.747606665947124 29.5236
32.77081262006088 29.4355
32.79420126883317 29.4211
32.81740999876112 29.4837
32.840620112999424 29.3128
32.86383161274818 29.1908
32.88722585534586 29.3508
32.91044014056596 29.2218
32.933655814909734 29.2297
32.95687287957963 29.2899
32.98027273544904 29.0874
33.00349259526636 29.1035
33.026713849030116 29.122
33.04993649794511 29.0101
33.073341986570746 29.0143
33.09656744032826 28.9697
33.11979429286444 29.0191
33.14302254538647 28.9995
33.166433686291185 28.9447
33.18966475336992 28.8631
33.212897224069096 28.7832
33.23613109959831 28.8555
33.259547912343415 28.8329
33.2827846121627 28.7224
33.306022720453775 28.6345
33.32926223842861 28.5579
33.352684742614166 28.5613
33.37592709463173 28.634
33.399170859982064 28.5634
33.422597648419426 28.4276
33.44584425514446 28.3719
33.46909227885668 28.2857
33.4923417207723 28.1242
33.51577423505344 28.1873
33.539026528130385 28.1353
33.56228024307245 28.0437
33.585535381098246 28.0072
33.60897364093058 27.8631
33.63223163992385 27.8426
33.6554910656699 27.8558
33.678751919389796 27.8439
33.702195944520106 27.7609
33.72545966903325 27.7468
33.74872482519663 27.6363
33.771991414233746 27.6471
33.79544122444841 27.5878
33.81871069412428 27.4749
33.84198160035767 27.5146
33.86525394437455 27.5556
33.88870955949969 27.5067
33.911984794020626 27.4966
33.93526147001624 27.369
33.958539588715006 27.4342
33.98200102861669 27.3105
34.0052820477047 27.2379
34.02856451319451 27.236
34.05203033759056 27.1332
34.07531571090147 27.0554
34.09860253431845 27.1031
34.121890809074316 27.0771
34.145362493118924 27.0522
34.16865368561615 27.0371
34.191946333164054 26.9784
34.21524043699793 26.9245
34.23871800066799 26.8476
34.26201503218366 26.7601
34.28531352370466 26.7655
34.30861347646881 26.6307
34.33209693978188 26.622
34.3553998301885 26.6689
34.378704185565205 26.6166
34.402010007152356 26.4919
34.42549939016683 26.4791
34.44880815937748 26.3779
34.472118398533134 26.4451
34.49543010887669 26.4096
34.51892543169198 26.1976
34.54224009966052 26.21
34.56555624255917 26.2726
34.58887386163339 26.1005
34.61237514439016 25.9773
34.6356957311114 26.0655
34.65901779775809 26.0019
34.68252356662995 26.0111
34.705848608458616 25.9739
34.72917513396849 25.8534
34.75250314440949 25.8705
34.77601490857862 25.7937
34.799345904259795 25.6665
34.82267838863559 25.7526
34.846012362958525 25.820999999999998
34.869530142679984 25.7596
34.89286711232212 25.7163
34.91620557568269 25.6363
34.93954553401677 25.5619
34.9630693495876 25.4477
34.986412313340814 25.5402
35.00975677584668 25.5592
35.033102738362956 25.4604
35.05663261012228 25.4048
35.0799815881786 25.4707
35.10333207003229 25.4125
35.12668405694369 25.3065
35.150220005273056 25.2955
35.17357501786656 25.1988
35.19693153931268 25.2071
35.220289570874385 25.2149
35.24383161619786 25.1869
35.267192683604904 25.2082
35.290555264930376 25.055
35.314101899412165 25.1049
35.33746752422433 25.0349
35.36083466676374 25.0533
35.38420332829803 25.021
35.407756095629054 25.0006
35.43112781085063 25.0253
35.45450104888391 24.9574
35.477875810999194 24.8914
35.50143473172161 24.8605
35.52481255774625 24.9125
35.54819191167777 24.8518
35.57157279478914 24.8324
35.595137889488406 24.7669
35.61852184675279 24.699
35.641907337029984 24.6391
35.665294361595684 24.6548
35.68886565090076 24.4925
35.7122557598848 24.511999999999997
35.73564740699838 24.5426
35.759040593519934 24.5237
35.78261809810353 24.4936
35.80601437933051 24.4372
35.829412203814705 24.3477
35.85281157283719 24.208000000000002
35.876395313415884 24.2928
35.8997977874528 24.1902
35.92320180988546 24.1423
35.946790244133936 24.1164
35.97019737933222 24.0953
35.993606066789866 24.1027
36.01701630779276 24.0242
36.04061101440684 24.0295
36.06402437852291 24.0573
36.08743930005611 23.9815
36.1108557802951 23.8846
36.13445678011326 23.814
36.15787639383515 23.8105
36.18129757014299 23.7231
36.20472031032821 23.7556
36.22832762423364 23.7574
36.25175350829375 23.7039
36.275180960119776 23.5988
36.298609981005924 23.6033
36.32222362992669 23.6306
36.34565580510207 23.526999999999997
36.36908955323448 23.5759
36.39252487562093 23.4264
36.416144880530226 23.436999999999998
36.43958336764275 23.4068
36.463023432914625 23.3726
36.486465077645676 23.2977
36.51009145956204 23.2752
36.53353627947859 23.3458
36.55698268276811 23.3348
36.58043067073321 23.2073
36.60406345072071 23.1259
36.62751462435344 23.1547
36.65096738658405 23.1776
36.67460498210655 23.1245
36.69806093788647 23.0699
36.72151848619297 22.9876
36.744977628333636 23.0337
36.76862165890998 22.9587
36.79208400512205 22.9319
36.81554794910557 22.8843
36.83901349217101 22.8099
36.862663978991606 22.7619
36.88613273667352 22.7375
36.90960309738324 22.7565
36.933075062434064 22.6682
36.95673202673572 22.6619
36.98020721697122 22.6121
37.003684015502365 22.4638
37.027162423645365 22.4862
37.050825886711465 22.4995
37.07430753063053 22.4476
37.09779078812467 22.4591
37.121275660513014 22.4297
37.144945643673694 22.3446
37.16843376245278 22.3137
37.19192350009803 22.3619
37.215414857931435 22.1928
37.239091382563885 22.1485
37.262585997426164 22.1652
37.28608223645736 22.1586
37.309763684451696 22.0975
37.33326318851098 22.0725
37.356764320726555 22.1093
37.380267082425526 22.0784
37.40395510942588 22.0384
37.42746114683234 21.965
37.45096881771841 21.848000000000003
37.474478123414166 21.8881
37.49817275092816 21.8186
37.52168534303452 21.8764
37.54519957395567 21.6942
37.568715445024665 21.7888
37.592416694607714 21.7444
37.61593586281424 21.7123
37.63945667518264 21.7322
37.66297913304891 21.5653
37.68668702630454 21.5676
37.710212792059274 21.5251
37.733740207334854 21.4655
37.757269273470364 21.5197
37.780983832050374 21.4291
37.80451621684926 21.4258
37.82805025654007 21.3199
37.851585952464795 21.3162
37.8753071980695 21.2273
37.89884622345676 21.2121
37.92238690911902 21.1361
37.94611318753442 21.1542
37.969657210779765 21.1706
37.99320289834801 21.1776
38.016750251586465 21.0805
38.04048325513017 21.0199
38.06403395679343 20.975
38.087586328183946 20.9299
38.11114037065203 21.0313
38.13488012115898 20.9722
38.1584375229181 20.9198
38.181996599821 20.8396
38.205557353221124 20.8149
38.229303872575656 20.8206
38.2528679961576 20.7606
38.27643380031219 20.7233
38.30000128639589 20.6588
38.32375459653193 20.7004
38.34732546371299 20.6978
38.37089801690786 20.6072
38.39447225747609 20.5251
38.418232380377425 20.5675
38.441810012983396 20.5631
38.46538933705673 20.517
38.488970353960084 20.5232
38.51273731166058 20.4084
38.536321731567014 20.3146
38.55990784840681 20.3078
38.58367995004091 20.2447
38.60726947812959 20.191
38.63086070726198 20.2498
38.654453638806274 20.2619
38.678232613930824 20.205
38.70182896773327 20.1522
38.72542702806741 20.1303
38.7490267963045 20.0542
38.77281266709232 20.0596
38.79641586862214 20.0888
38.8200207821842 20.0088
38.843627409152944 19.9393
38.86742019782782 19.9206
38.891030269149255 19.8537
38.914642058016156 19.844
38.938255565806124 19.8589
38.96205529464307 19.8037
38.98567225787121 19.7502
39.00929094417078 19.7241
39.03291135492255 19.7494
39.05671804624804 19.7334
39.080341923549106 19.6182
39.103967529460334 19.5094
39.127594865365744 19.4518
39.15140854155791 19.4893
39.17503935514948 19.5123
39.19867190290282 19.4591
39.22249083587951 19.4351
39.24612686969409 19.4224
39.269764641845306 19.3971
39.293404153722804 19.3627
39.317230110864074 19.2674
39.34087311998506 19.3047
39.36451787301696 19.2778
39.388164371352595 19.1317
39.41199737518003 19.0908
39.43564738196752 19.1197
39.45929913825317 19.0953
39.48295264543308 19.0997
39.506792718520884 19.0514
39.530449745387216 19.0401
39.55410852735203 19.0468
39.57776906581474 19.0087
39.60161623079 18.9549
39.625280300200025 18.9706
39.64894613032202 18.8273
39.67261372255866 18.8557
39.6964680021016 18.7999
39.72013913657293 18.8261
39.74381203738292 18.8148
39.76748670593756 18.7822
39.79134812278169 18.7272
39.81502634488497 18.6793
39.83870633896685 18.6332
39.862388106436654 18.6373
39.88625668336918 18.6046
39.90994201572829 18.6048
39.933629125719285 18.5372
39.957503091207826 18.5297
39.9811937746168 18.5534
40.00488623990914 18.418
40.02858048850006 18.4721
40.05246165409549 18.3686
40.076159487492085 18.3374
40.099859108448875 18.3291
40.123560518384345 18.3102
40.1474489070226 18.2783
40.171153913178564 18.23
40.194860712584955 18.192999999999998
40.2185693066637 18.1743
40.242464941335314 18.1376
40.26617714307655 18.1267
40.289891143772046 18.0703
40.3136069448471 18.0582
40.33750984859743 18.0502
40.3612292688043 18.0436
40.3849504936829 18.0419
40.40867352466194 18.0111
40.43258372059144 18.0224
40.45631038219906 17.9442
40.48003885420956 17.8572
40.503769138055105 17.8835
40.52768664931955 17.8538
40.55142057531802 17.811
40.57515631746428 17.7626
40.599079334038514 17.6958
40.62281872700477 17.6726
40.64655994043941 17.6327
40.67030297578061 17.5718
40.69423334835778 17.5951
40.71798004609188 17.5492
40.74172857006355 17.5687
40.76547892171441 17.5741
40.7894166736039 17.4915
40.813170699248566 17.4868
40.83692655691388 17.4401
40.86068424804498 17.45
40.884629402612525 17.3814
40.908390779366385 17.3101
40.932153993938 17.2731
40.95591904777605 17.3052
40.979871628443995 17.2572
41.003640379561936 17.2916
41.02741097430883 17.26
41.05118341413683 17.2296
41.075143444384416 17.1711
41.098919593177826 17.1597
41.1226975914255 17.1054
41.14647744058318 17.1554
41.170444943946755 17.1252
41.19422851378379 17.0233
41.218013938914645 16.9566
41.24198706625173 16.9901
41.26577622087193 16.8864
41.289567235177785 16.8916
41.31336011063129 16.8724
41.337340752422875 16.8068
41.361137369129835 16.8093
41.38493585138705 16.7452
41.40873620066004 16.7679
41.43272438060107 16.7405
41.45652848292052 16.6793
41.48033445666918 16.642
41.50414230331616 16.6373
41.528138045159764 16.6627
41.551949656675205 16.5644
41.575763145513235 16.5685
41.59957851314666 16.5446
41.62358184070442 16.4347
41.64740098505737 16.4659
41.6712220126409 16.4299
41.69504492493139 16.4669
41.71905586207357 16.3843
41.74288256296395 16.333
41.766711153007456 16.3199
41.79054163368412 16.2841
41.814560204340054 16.347
41.838394485526365 16.3074
41.86223066180303 16.192
41.88625497706819 16.2321
41.910094962812 16.2205
41.93393684811168 16.1956
41.95778063445365 16.1234
41.981812625263366 16.1012
42.00566023303407 16.0476
42.029509746323676 16.0284
42.05336116662236 16.0675
42.077400857069705 16.0041
42.10125611078846 15.9925
42.12511327600405 15.9817
42.14897235421036 15.9145
42.173019768448455 15.8724
42.19688269209613 15.8887
42.22074753323349 15.7733
42.24461429335818 15.7964
42.268669455600495 15.7841
42.292540073217886 15.7419
42.31641261433284 15.7303
42.34028708044675 15.7098
42.36435001496739 15.6628
42.38822835065557 15.6696
42.41210861586426 15.658
42.4359908120986 15.5931
42.46006154323262 15.5638
42.48394762115317 15.5273
42.507835634632315 15.5626
42.531912233047436 15.5149
42.55580413732265 15.4792
42.579697981698 15.4601
42.60359376768525 15.4568
42.62767820545945 15.4087
42.65157789440821 15.3825
42.67547952952185 15.3212
42.699383112316 15.3245
42.72347541395347 15.2562
42.74738291190531 15.2328
42.771292362102166 15.274000000000001
42.795203766063516 15.1773
42.819303956130405 15.1886
42.843219287476536 15.1783
42.86713657716324 15.1075
42.89105582671383 15.1203
42.91516392983864 15.106
42.939087119032166 15.0282
42.963012272677304 15.0156
42.98693939230129 14.9759
43.01105543317513 14.9444
43.034986504731386 14.9127
43.05891954686589 14.9427
43.08285456110972 14.874
43.10697856448665 14.8472
43.130917542983475 14.7537
43.15485849820081 14.8141
43.17880143167367 14.8037
43.20293342237094 14.7669
43.226880332449 14.7066
43.25082922540554 14.6889
43.27496722682525 14.6794
43.29892010567796 14.6147
43.32287497204102 14.649000000000001
43.34683182745632 14.6567
43.370977859791836 14.5801
43.39493871351105 14.5818
43.41890156092628 14.5728
43.44286640358341 14.4642
43.46702049182749 14.4762
43.49098934522816 14.4778
43.51496019852649 14.4254
43.5389330532723 14.3824
43.56309522248204 14.3659
43.58707210044314 14.3556
43.61105098451946 14.3003
43.63503187626491 14.3316
43.659202151562134 14.2722
43.68318707902681 14.3257
43.70717401884041 14.2436
43.731162972560874 14.1963
43.75534137913236 14.1768
43.779334381108384 14.1485
43.803329401683186 14.1173
43.82732644241872 14.1258
43.8515130055166 14.0881
43.87551410707659 14.0418
43.89951723350145 14.0353
43.923709934595614 14.0468
43.94771713129917 14.0324
43.97172635758096 13.9895
43.99573761501002 13.9254
44.0199385169922 13.8589
44.04395385732619 13.8817
44.067971233533086 13.9194
44.09199064718605 13.8645
44.11619977548961 13.8247
44.14022328470671 13.7859
44.16424883610785 13.7959
44.18827643127035 13.7685
44.21249381139513 13.7949
44.236525514814076 13.7192
44.26055926674478 13.7137
44.28459506876863 13.7056
44.3088207262813 13.652000000000001
44.33286064928722 13.605
44.35690262714919 13.5472
44.38094666145278 13.5157
44.4051806219871 13.5635
44.42922879003185 13.5297
44.45327901929361 13.4743
44.477331311362136 13.4555
44.501573600619416 13.4113
44.525630039221795 13.4455
44.54968854541895 13.4419
44.573937102200176 13.3435
44.5979997645541 13.4012
44.622064499300315 13.3627
44.64613130803592 13.312000000000001
44.67038823869318 13.3246
44.69445921643748 13.251
44.718532272981385 13.2489
44.742607409926194 13.2086
44.76687274034801 13.1933
44.79095205918753 13.1356
44.81503346325094 13.1344
44.839116954143876 13.1407
44.86339071028742 13.1
44.88747839599524 13.087
44.91156817336837 13.040999999999999
44.93566004401666 13.0328
44.959942251908146 12.9826
44.984038330325966 12.964
45.00813650686762 12.879000000000001
45.03223678314731 12.8939
45.05652746888232 12.9418
45.08063196592069 12.8791
45.104738567558705 12.8991
45.128847275414856 12.850999999999999
45.15314646515866 12.7825
45.17725940679741 12.795
45.20137445952892 12.7763
45.22568004865265 12.7647
45.24979934496396 12.7514
45.27392075725247 12.7018
45.29804428714431 12.6795
45.322358426247604 12.6621
45.346486212804315 12.6787
45.370616121861914 12.6408
45.39474815505086 12.628
45.41907087049246 12.5468
45.4432071734666 12.5297
45.46734560548283 12.5519
45.49148616817604 12.4772
45.51581748638564 12.4682
45.5399623320197 12.4721
45.56410931325473 12.4086
45.58825843173002 12.4333
45.61259837920865 12.387
45.636751793816 12.3565
45.66090735060093 12.3361
45.68506505120716 12.3105
45.7094136545275 12.2922
45.73357566449271 12.2402
45.75773982322992 12.2692
45.78190613238733 12.2784
45.806263418194064 12.1984
45.83043404997326 12.2051
45.85460683713677 12.1461
45.87897065658495 12.1387
45.90314777634752 12.1228
45.92732705646868 12.0786
45.9515084986045 12.0774
45.97588104735473 12.0399
46.00006683541565 12.0615
46.02425479047904 11.9666
46.04844491420549 11.9429
46.0728262191024 11.9431
46.09702070211635 11.9715
46.12121735879483 11.9335
46.14541619080294 11.9297
46.169806278764455 11.876
46.194009483459034 11.8746
46.21821486849841 11.8448
46.24242243555223 11.7874
46.266821333570014 11.7431
46.29103328674601 11.7788
46.31524742696538 11.773
46.33946375590237 11.74
46.36387149104216 11.7284
46.38809221957392 11.7061
46.41231514186606 11.6441
46.436540259597464 11.6553
46.460956858999374 11.6453
46.48518638983522 11.6073
46.509418121166966 11.5812
46.533652054678114 11.5595
46.55807754555709 11.5473
46.58231590571962 11.5353
46.60655647313217 11.4902
46.630988654873654 11.4623
46.655233659129024 11.4506
46.67948087571551 11.4411
46.70373030632484 11.4266
46.72817142736393 11.4139
46.752425308428684 11.3461
46.77668140861147 11.4225
46.80093972960865 11.3451
46.82538981736788 11.2995
46.849652602470904 11.3078
46.87391761349769 11.3065
46.8981848521493 11.2564
46.9226439341274 11.2573
46.946915650573224 11.2147
46.97118959976749 11.2159
46.99546578341598 11.1293
47.019933887188216 11.1444
47.04421456235744 11.1535
47.06849747711879 11.1119
47.09278263318286 11.0917
47.11725978640143 11.065999999999999
47.14154944775105 11.0456
47.165841355555656 11.0142
47.1901355115306 10.9798
47.214621741924994 10.9942
47.23892041698887 10.9574
47.26322134538975 10.9182
47.28771440635075 10.8989
47.31201986422527 10.8949
47.33632758061436 10.8939
47.360637557241866 10.8964
47.38513974410611 10.8968
47.40945426407847 10.7843
47.43377104948137 10.7608
47.45809010204344 10.789000000000001
47.48260144275502 10.7449
47.506925052572285 10.7092
47.53125093475548 10.693
47.55557909103813 10.6508
47.58009961361992 10.6627
47.60443234110732 10.6309
47.62876734791564 10.6276
47.65310463578333 10.5925
47.6776343683373 10.5753
47.7019762413987 10.517999999999999
47.72632040075572 10.5424
47.75066684815169 10.561
47.77520581885936 10.5323
47.799556865477655 10.4959
47.823910205386 10.4933
47.84826584033272 10.4165
47.87281407745551 10.4321
47.89717432569297 10.4179
47.92153687423484 10.4103
47.94609208429692 10.3648
47.97045925671401 10.3444
47.99482873471275 10.3177
48.01920052005013 10.3392
48.04376504619224 10.3047
48.068141469543484 10.3065
48.09252020552573 10.3021
48.11690125590099 10.2871
48.1414751266064 10.2599
48.16586082917454 10.2536
48.19024885144316 10.183
48.2146391951793 10.1557
48.239222439012764 10.1718
48.26361744916137 10.1862
48.28801478610016 10.171
48.31241445160131 10.1156
48.337007097209366 10.0904
48.36141144338331 10.0411
48.38581812345755 10.0708
48.41022713920929 10.026
48.434829215320704 10.0113
48.45924292604658 10.0049
48.48365897780325 9.987739999999999
48.50807737237308 9.95255
48.532688907799276 9.980839999999999
48.55711201168574 9.92638
48.581537463754074 9.92811
48.60615611725119 9.90822
48.63058628942721 9.88497
48.65501881516546 9.89878
48.6794536962573 9.85772
48.70408185970339 9.83589
48.72852147531801 9.78919
48.75296345168211 9.78412
48.77740779059232 9.77113
48.80204549302823 9.77367
48.82649458091802 9.69957
48.85094603676547 9.70699
48.87539986237231 9.68908
48.90004713292306 9.67332
48.92450572200832 9.65216
48.94896668628025 9.631639999999999
48.97343002754588 9.618160000000001
48.99808689542115 9.62855
49.02255501470614 9.623330000000001
49.04702551642794 9.56986
49.0714984023988 9.540980000000001
49.096164896893235 9.54963
49.120642575466796 9.52334
49.145122643748394 9.51714
49.16960510355558 9.47758
49.19428125404938 9.3913
49.2187685210852 9.40382
49.243258185121555 9.42234
49.26794160167084 9.40739
49.2924360839405 9.39514
49.31693296869764 9.36273
49.34143225776915 9.3535
49.36612538195438 9.32502
49.39062950396021 9.32213
49.41513603578346 9.28246
49.4396449792564 9.274939999999999
49.46434784069503 9.2658
49.488861631846454 9.26853
49.513377840166804 9.24245
49.537896467493745 9.18464
49.56260909589029 9.14156
49.587132585683285 9.167069999999999
49.611658500018365 9.15045
49.636186840738596 9.14235
49.66090926588511 9.11501
49.685442483902584 9.07577
49.70997813385706 9.0248
49.734516217597076 9.04612
49.75924846937352 9.04449
49.7837914452858 9.02305
49.80833686055187 8.97852
49.83288471702571 8.97674
49.85762682540054 8.95777
49.882179588965734 8.9829
49.9067347993235 8.93517
49.93129245833333 8.9262
49.95604445336378 8.90673
49.98060703442832 8.904819999999999
50.005172069746266 8.86638
50.02993150438364 8.843689999999999
50.05450147301533 8.85109
50.07907390151433 8.82665
50.10364879174981 8.7879
50.12841816587289 8.76111
50.1529980044635 8.80607
50.17758031042124 8.76003
50.20216508562089 8.7571
50.22694442953363 8.70562
50.25153416817468 8.68362
50.27612638170508 8.701410000000001
50.300721072005196 8.66302
50.325510416102105 8.64054
50.350110084975064 8.62379
50.37471223628208 8.60479
50.39931687190919 8.602210000000001
50.424116246675766 8.56489
50.44872587605249 8.53529
50.47333799543065 8.56582
50.49795260670191 8.54073
50.52276204271512 8.475060000000001
50.54738166295838 8.528739999999999
50.57200378079314 8.49795
50.596628398116835 8.458919999999999
50.62144792604559 8.42113
50.646077567609396 8.44705
50.670709714377715 8.442919999999999
50.69553683636198 8.40545
50.72017401885922 8.37373
50.7448137122895 8.4001
50.76945591856022 8.3965
50.79429318636823 8.36407
50.818940443716784 8.337480000000001
50.84359021965163 8.28554
50.868242516085964 8.28173
50.893089960641895 8.25544
50.917747323549435 8.27732
50.94240721271973 8.24513
50.96706963007175 8.21942
50.99192728239342 8.20111
51.01659478166073 8.208860000000001
51.04126481489051 8.19164
51.06593738400761 8.16007
51.090805275207074 8.137260000000001
51.11548294172845 8.118
51.14016314993547 8.115689999999999
51.164845901758845 8.11257
51.18972406304274 8.09504
51.21441192780656 8.069180000000001
51.23910234200271 8.070969999999999
51.2637953075678 8.072000000000001
51.288683770237945 8.04702
51.31338186432707 8.01528
51.33808251561888 7.99835
51.362978729967345 7.9878800000000005
51.387684521509755 7.96357
51.41239287610203 7.902830000000001
51.437103795691165 7.909110000000001
51.46201036644977 7.867360000000001
51.486726441956634 7.87522
51.51144508832545 7.8619699999999995
51.536166307509156 7.869910000000001
51.56108326624387 7.8455699999999995
51.58580965706056 7.81915
51.61053862657523 7.793010000000001
51.635270176746864 7.8163800000000005
51.66019755512065 7.7531
51.68493429268881 7.7441699999999996
51.70967361681515 7.746339999999999
51.73441552946465 7.688110000000001
51.759353359237934 7.727860000000001
51.7841004750961 7.694260000000001
51.80885018539685 7.676760000000001
51.833602492111254 7.647589999999999
51.8585508051424 7.6823
51.883308330926425 7.64151
51.90806845906181 7.60795
51.932831191525715 7.56538
51.95779001977161 7.59565
51.98255798721516 7.5765199999999995
52.00732856494335 7.5517199999999995
52.03229530577543 7.5125399999999996
52.057071130455945 7.52037
52.081849571391054 7.480360000000001
52.106630630568695 7.51311
52.13160794279417 7.46322
52.15639426492067 7.45895
52.18118321127822 7.42214
52.205974783860896 7.416980000000001
52.23096269971011 7.43065
52.255759551287994 7.431019999999999
52.280559035098186 7.37475
52.30536115314103 7.37082
52.33035970494467 7.370360000000001
52.35516711807904 7.35965
52.37997717147198 7.309080000000001
52.40478986713005 7.34819
52.42979908731974 7.2944
52.454617094216 7.2546800000000005
52.47943774942214 7.271210000000001
52.50426105495102 7.258960000000001
52.529280976059844 7.1955100000000005
52.554109609024096 7.196219999999999
52.57894089837482 7.17457
52.60377484613117 7.1952300000000005
52.62880550079408 7.1645
52.65364479223379 7.12723
52.67848674816189 7.095160000000001
52.70352547971946 7.094930000000001
52.72837279155837 7.09172
52.753222773982785 7.1024899999999995
52.778075429022984 7.0674600000000005
52.80312495150885 7.05686
52.827982978797436 7.060560000000001
52.85284368481815 6.99452
52.87770707160767 6.9839899999999995
52.90276741793998 6.993530000000001
52.92763619336701 6.95887
52.952507655698504 6.95029
52.977381806977576 6.9821
53.00245301017842 6.957339999999999
53.02733256653592 6.9301
53.052214817996074 6.91362
53.077099766608484 6.92776
53.102181859804446 6.900939999999999
53.127072229988265 6.85795
53.15196530349892 6.850689999999999
53.17686108239249 6.813739999999999
53.20195409881522 6.814
53.22685531582556 6.782360000000001
53.25175924441303 6.783289999999999
53.27666588664027 6.788469999999999
53.30176985962693 6.77825
53.3266819565689 6.77637
53.35159677336455 6.75065
53.376514312083096 6.68916
53.40162927507703 6.738160000000001
53.42655228516116 6.715660000000001
53.45147802340193 6.65753
53.47660125628886 6.6496
53.50153247842639 6.61106
53.52646643496923 6.613180000000001
53.55140312799818 6.6399300000000006
53.576537409691696 6.6264
53.60147960336152 6.58487
53.626424539786164 6.56686
53.65137222105307 6.5789
53.67651758529126 6.52714
53.70147078399681 6.5446599999999995
53.72642673383343 6.526269999999999
53.75138543689533 6.52309
53.776541917524526 6.5115300000000005
53.801506154876755 6.50888
53.826473151763246 6.4643
53.851442910284916 6.44295
53.87661054126026 6.42267
53.9015858509782 6.42846
53.92656392866066 6.3958900000000005
53.95154477641532 6.39364
53.976723591801296 6.35804
54.00171000771266 6.35562
54.02669920004598 6.3497900000000005
54.051691170915745 6.35538
54.076881204886796 6.29605
54.101878760928514 6.29095
54.12687910187696 6.29355
54.152077577768296 6.28147
54.1770835166946 6.27225
54.20209224691339 6.25747
54.22710377055121 6.2565599999999995
54.25231352511594 6.2759
54.27733066384342 6.16961
54.30235060239643 6.14539
54.32737334290836 6.1542
54.35259441062629 6.11301
54.377622783395324 6.13163
54.40265396455061 6.13225
54.42768795623251 6.07672
54.45292037169559 6.05401
54.477960012857906 6.05779
54.50300247099511 6.0243400000000005
54.52804774825457 6.01045
54.55329154616743 5.97476
54.57834249018678 5.96223
54.6033962597977 5.94625
54.6284528571545 5.88057
54.653708072335164 5.8922099999999995
54.67877035378786 5.87054
54.70383546947698 5.8363
54.72890342156389 5.86217
54.7541700889442 5.83827
54.77924374251975 5.80668
54.8043202390049 5.79369
54.82959552413022 5.78386
54.8546777351945 5.74746
54.87976279569621 5.76476
54.90485070780914 5.7251900000000004
54.930137506558005 5.70655
54.95523115074295 5.70109
54.98032765308844 5.65055
55.005427015775496 5.6174
55.03072536339621 5.60772
55.05583047570572 5.57552
55.080938454927676 5.63425
55.10604930325027 5.555219999999999
55.131359235107396 5.54436
55.15647585066083 5.466819999999999
55.181595341907496 5.40977
55.20671771104285 5.42191
55.232039262617704 5.40562
55.25716741665048 5.38044
55.28229845518636 5.3752
55.30743238042802 5.34853
55.33276558731939 5.29981
55.357905315183636 5.31055
55.383047936390035 5.2256800000000005
55.40819345314859 5.17606
55.433538351073295 5.22619
55.458689688238415 5.22805
55.483843927614096 5.17734
55.509197623043605 5.17748
55.53435769621134 5.11333
55.55952067826466 5.0656300000000005
55.5846865714265 5.07449
55.61005202069737 5.04962
55.63522376553902 5.06848
55.66039842818645 5.02871
55.68557601087004 5.00784
55.7109532500271 4.95454
55.73613670233794 4.96124
