TT I
1.2716486653135266 7.022660000000001
1.2939594142134223 6.6852100000000005
1.3162702121660406 6.65453
1.3385810600174564 6.52532
1.3608919586137629 6.968430000000001
1.383202908801069 6.15974
1.405513911425503 5.76467
1.4278249673332093 6.01906
1.4501343378461518 5.59963
1.4724455028545926 5.6251
1.4947567236847858 5.43751
1.517068001182951 6.02956
1.5393793361953272 5.65683
1.5616907295681737 5.790690000000001
1.5840021821477681 5.52146
1.60631369478041 4.85853
1.6286252683124185 5.2791
1.6509369035901333 4.57869
1.6732468618895553 4.94471
1.695558623192809 4.16027
1.7178704487808514 4.72464
1.7401823395001077 5.13163
1.7625012545597203 4.91786
1.7848028405262486 5.3445800000000006
1.8071218901122095 4.60188
1.8294236121921872 4.07587
1.8517427996910911 4.17517
1.8740620574440425 4.732
1.8963639900671978 5.12905
1.9186833908139995 4.95984
1.9409854680117449 5.30429
1.9633050151394713 4.7330000000000005
1.9856246367570705 4.05152
2.0079269371922672 4.19034
2.03024671027244 4.07135
2.0525491637446027 4.3257699999999994
2.074869091674931 4.02131
2.097171701569106 4.6687
2.1194917877373847 4.98995
2.141811954326636 5.004659999999999
2.164114805233074 4.8154699999999995
2.186435135143035 4.60853
2.208738150935709 5.23791
2.231058647554722 6.36873
2.2533792288321184 5.869269999999999
2.275682498336085 5.29548
2.298003251406138 5.6077699999999995
2.3203066942619714 5.71518
2.3426276225136022 5.36006
2.3649486396617507 5.56071
2.387252348930071 6.33292
2.4095735463442893 6.04199
2.4318774374315884 6.6075800000000005
2.4541988185014043 6.5968100000000005
2.476502894794693 6.941269999999999
2.498824462909887 7.52433
2.521146125856138 6.8224100000000005
2.5434504863470337 6.86205
2.5657723414244717 7.869789999999999
2.588076895590662 8.26491
2.610398946189713 8.6657
2.6327210958598384 8.16147
2.6550259469304716 8.372580000000001
2.6773482972090137 8.83564
2.6996533504259 9.15365
2.7219759047039602 8.62899
2.744298562293959 7.97048
2.7666039251246595 7.84824
2.7889267918020164 7.92868
2.8112323652516555 8.46011
2.833555444408179 8.426919999999999
2.8558786311183852 8.70737
2.8781845268938557 9.028789999999999
2.9005079311721484 8.63013
2.9228140460410397 8.74731
2.9451376712799635 8.82358
2.967444008632326 9.53594
2.9897678582247247 9.61171
3.0120918213106695 10.3703
3.0343984987899373 10.5482
3.0567226913198637 10.88
3.079029599759726 11.4164
3.101354025127254 12.1011
3.123678568232338 12.5601
3.145985829517914 12.4642
3.16831061055229 13.3326
3.1906181112775593 14.0164
3.212943133635653 14.6017
3.2352682779763207 14.9975
3.2575761442691227 14.5206
3.2799015350264273 15.2553
3.302209649240067 15.9517
3.3245352898092655 16.2036
3.3468436553365257 16.6759
3.369169549113219 17.1374
3.3914955708171384 18.105
3.413804319727358 18.3466
3.4361305997334863 18.6424
3.4584396084414553 18.9686
3.4807661501462652 19.5359
3.503092824025881 19.9477
3.5254022288463154 20.0849
3.5477291695206588 20.889
3.5700388426251948 21.1858
3.5923660534916446 22.1335
3.6146934007816114 23.5451
3.637003482731501 28.447
3.6593311053109985 29.9489
3.681641464033634 26.5648
3.7039693653009733 24.2844
3.726297407241705 24.1594
3.7486081875460804 24.6777
3.7709365132734978 24.9657
3.793247578841633 25.8098
3.8155761917550093 26.0358
3.8378875459837216 26.4048
3.8602164494827234 26.5843
3.882545499606844 27.515
3.9048572932539183 27.766
3.9271866390645718 28.1545
3.9494987298666713 28.804000000000002
3.971828374764527 29.4543
3.9941581705403255 29.7178
4.016470713506008 30.0805
4.038800813471445 30.7947
4.061113662089144 31.5562
4.0834440696459176 32.4103
4.105774632334751 32.9408
4.128087945865126 33.4784
4.150418821249301 33.8624
4.172732448931298 34.7915
4.195063640413578 35.2044
4.2173775856475215 36.3656
4.239709096631102 39.6162
4.262040768704612 53.9311
4.284355196706267 63.7274
4.306687193387355 55.0457
4.329001947444346 44.0997
4.35133427213731 41.4335
4.373666762177566 41.6848
4.395982011761091 42.5897
4.418314834921175 43.0134
4.44063041906622 44.4398
4.4629635787515625 46.326
4.4852969080429785 47.7444
4.5076130004776225 49.6558
4.529946671403969 54.2468
4.552263106909177 57.7186
4.574597122877047 55.6681
4.596931312711224 53.001999999999995
4.619248269273446 53.1004
4.6415828092605835 53.6556
4.663900117405352 54.6397
4.686235010953232 56.1472
4.708552674085913 58.028
4.730887924602802 59.0983
4.753223354952695 60.9966
4.775541557023902 64.0862
4.797877349456786 66.5662
4.820195915032126 67.5549
4.842532072957498 67.4519
4.864868414979744 70.493
4.88718753227192 74.5995
4.909524244902505 76.1749
4.931843734218147 75.7597
4.954180820867835 77.0243
4.976518095879839 80.0588
4.998838149695359 82.9721
5.021175803844231 86.1449
5.043496238205739 88.6309
5.065834274903528 93.1094
5.088172504230693 97.7193
5.1104935158799565 103.604
5.132832132875765 116.374
5.155153533596801 134.74200000000002
5.1774925416746225 175.418
5.199814334878411 370.42199999999997
5.2221537374521505 986.216
5.244493338631803 2815.72
5.266815727034316 8124.44
5.289155727832427 13793.6
5.311478517248165 8474.42
5.333818921080011 2233.38
5.356159527788849 410.68300000000005
5.3784829252032536 177.023
5.400823940070432 143.378
5.423147747031976 124.86399999999999
5.445489173474152 116.899
5.467830807066149 117.339
5.490155234831516 116.443
5.512497285125229 110.209
5.534822130975162 104.34200000000001
5.557164601388673 100.65100000000001
5.579489868738879 97.6932
5.601832762690846 96.4631
5.6241758697774475 95.4305
5.646501775867269 95.027
5.668845311622074 93.8625
5.691171647754637 93.238
5.713515615597765 92.41
5.735859800852677 91.5099
5.758186788542988 93.3705
5.780531411018185 96.8789
5.802858837297399 96.2782
5.825203900414495 96.3628
5.8475491852224 98.2437
5.869877275883075 97.2403
5.892223006467101 94.7352
5.914551544266608 93.6733
5.936897724049891 96.3293
5.959244129804903 103.11
5.981573344815301 131.27100000000002
6.0039202049061 237.416
6.026249875609095 466.45599999999996
6.04859719346037 954.128
6.070927323278297 2228.32
6.093275102315365 4818.13
6.115623113320588 5677.35
6.137953938319995 3044.4
6.160302415650845 835.72
6.182633708324452 194.38
6.2049826554078376 101.85
6.227331838745022 86.5037
6.249663839443684 80.8217
6.27201349767565 77.505
6.294345974611799 76.2928
6.316696111167083 75.3299
6.339046488263839 73.6693
6.361379686074702 70.3697
6.383730546639482 69.0265
6.406064229255215 68.5073
6.428415576718203 69.5406
6.450749747566656 67.6233
6.47310158535871 65.9388
6.495453669698332 64.0572
6.517788579421056 63.6799
6.540141159237969 62.3478
6.562476565766648 61.6434
6.5848296444934045 61.575
6.607182974060425 61.8607
6.6295191323281015 61.2238
6.651872965955752 60.0216
6.6742096296068985 61.1133
6.6965639707294615 65.4485
6.71891856698715 65.4231
6.741255995248479 60.8245
6.763611104154477 58.2322
6.785949046381137 57.1064
6.808304671371482 57.6612
6.8306605557940046 59.2322
6.852999275508618 58.1639
6.875355681171544 56.6224
6.897694923437771 55.6029
6.92005185377892 55.333
6.9423916220322655 55.1087
6.964749080490181 54.2222
6.987106804399774 54.5021
7.009447368180821 54.7297
7.031805625367033 54.3319
7.054146723727803 54.3505
7.076505517631004 53.6305
7.098864581288365 53.5252
7.121206488070854 53.7835
7.143566093607822 54.1424
7.165908543567245 55.1253
7.188268694426048 54.9697
7.2106291193438095 53.6031
7.232972390625943 52.9366
7.255333366030969 54.047
7.277677189091925 58.2705
7.300038718428332 63.3569
7.322400526130865 61.3184
7.344745183422596 56.3421
7.367107550224791 53.6029
7.389452767901992 53.0409
7.411815697249891 53.06100000000001
7.434161478756298 52.4478
7.456524974096713 52.4828
7.478888753837185 52.5908
7.501235387657368 53.2857
7.523599738562711 53.68
7.545946944825532 54.1019
7.568311870344528 54.786
7.5906770845765665 54.1456
7.613025156078678 53.8673
7.635390950099687 54.7036
7.657739602662809 54.3439
7.680105979923558 55.0113
7.702472650212829 55.9001
7.724822180948224 55.7834
7.747189439655568 55.3428
7.769539560075357 55.3022
7.791907410653562 55.5958
7.81425812420825 55.3301
7.836626570110925 55.8127
7.858995315087906 56.7655
7.881346924933401 56.8608
7.903716270417482 57.1931
7.926068482028405 57.5916
7.948438431475253 58.3239
7.9708086843180235 58.4981
7.993161805171116 59.25
8.015532667162402 60.1054
8.037886398416653 61.3452
8.060257873014221 61.6028
8.082629655331942 62.2585
8.104984308787587 62.7508
8.127356708900503 64.1906
8.149711981398308 67.1793
8.172085002766314 68.8558
8.194458336181368 68.1176
8.216814543847752 67.4424
8.23918850371002 67.9976
8.26154533906492 68.9797
8.283919928836452 70.8899
8.306277395339652 71.3926
8.328652618483376 72.8277
8.351028159736202 75.4834
8.373386579575245 77.3803
8.395762759396959 78.9135
8.418121819038275 81.7912
8.440498640894003 86.1536
8.462875785192262 95.815
8.485235811156207 122.522
8.507613602688501 177.085
8.529974277114228 264.101
8.552352719347912 394.204
8.574731488360351 661.188
8.59709314210385 1254.07
8.619472567021075 2034.04
8.64183487789147 2409.76
8.664214962183097 1765.54
8.686577933647762 820.169
8.708958680784317 307.159
8.731339760774953 141.00799999999998
8.753703729764451 103.555
8.77608547780821 95.4229
8.798450116065078 92.8809
8.820832535634787 90.8626
8.843215292401656 91.0425
8.865580941199045 90.7727
8.887964374703538 90.1594
8.910330701447199 89.5719
8.932714815164482 89.103
8.955099270424924 86.4582
8.977466620733543 84.5286
8.999851761421976 83.8967
9.022219798361645 83.4184
9.04460562795561 83.2519
9.066991803441677 82.9949
9.089360876979615 83.5059
9.111747746589993 83.6893
9.13411751544971 82.1854
9.156505082664324 81.1
9.178875550323522 81.2193
9.20126381862328 80.7721
9.223652438908596 81.8116
9.246023961427412 82.4881
9.26841328802173 82.4372
9.290785518039224 82.3042
9.313175554425882 83.9716
9.335565947154315 85.1846
9.357939245086508 85.5259
9.380330352834827 84.6762
9.40270436697103 84.2937
9.425096193225055 84.2292
9.447488380180165 84.2905
9.469863475295412 83.6065
9.492256385987508 83.7677
9.514632206018318 84.4969
9.537025843935714 84.8407
9.559402392368193 86.2786
9.581796761000229 88.7575
9.604191496441521 90.2838
9.626569144158516 92.2864
9.648964615551032 92.1976
9.671343000390081 91.6823
9.693739211225699 91.3932
9.716135793237463 91.4927
9.738515290448102 92.3129
9.760912617143402 93.6462
9.783292860202891 95.8366
9.805690935076182 97.4876
9.828089385495742 98.7014
9.850470754023561 99.0316
9.872869957865444 101.053
9.89525208097539 104.48899999999999
9.917652041736662 110.035
9.940052382417589 120.74600000000001
9.962435644102392 149.215
9.984836746950979 190.75900000000001
10.007220771957746 253.713
10.029622640473708 357.474
10.052007432299963 533.589
10.074410069984072 839.9830000000001
10.096813093716005 1344.34
10.119199042482517 1897.99
10.141602840636468 2093.28
10.163989564971628 1479.87
10.186394141051062 716.9760000000001
10.208799107559706 292.661
10.231187001965623 152.64600000000002
10.253592751657669 116.302
10.275981430388155 107.624
10.298387966769793 105.095
10.320794897965431 104.949
10.343184759907361 103.758
10.36559248305461 102.368
10.387983138083852 103.39200000000001
10.410391656691655 110.029
10.432800574501677 122.319
10.455192425893369 138.239
10.47760214443012 164.676
10.499994797678786 210.81900000000002
10.522405320453982 298.07
10.54479877906917 422.098
10.567210109595656 560.686
10.5896218454736 603.026
10.612016518879773 469.31800000000004
10.634429067781074 289.01099999999997
10.656824555333241 198.638
10.679237920773568 116.939
10.701651695961992 94.1853
10.724048411481384 87.7537
10.746463008485165 84.8589
10.768860546937125 83.0204
10.791275969274796 81.6705
10.81369180576079 80.4732
10.836090585366925 79.7835
10.858507252467449 78.9723
10.88090686379991 77.9153
10.903324365036394 77.2254
10.925724811614439 76.3143
10.948143150509463 76.2993
10.970561909719066 75.9815
10.992963615930844 75.2147
11.015383218085756 73.9759
11.037785768347074 72.6177
11.06020621697282 71.4478
11.082627090322113 70.8939
11.105030913430326 70.3812
11.12745263854165 69.7146
11.149857314510728 69.1803
11.172279894912576 69.7111
11.194702904450653 69.0767
11.217108866490921 68.2897
11.239532736615194 67.0432
11.26193956033512 66.6595
11.284364294577085 66.5661
11.306789462371718 65.9024
11.329197585398376 65.6537
11.351623622610898 65.7111
11.37403261614354 65.1307
11.396459526308487 64.8489
11.418869393879497 64.4345
11.441297180532617 64.1771
11.463725406927658 63.8243
11.486136592353875 63.4422
11.508565700543707 63.2676
11.530977768845315 63.343999999999994
11.553407762368774 63.187
11.575838200059769 62.9968
11.598251599479612 62.6088
11.620682927815501 62.34
11.64309721895548 62.4115
11.665529441478206 61.8426
11.687962112597958 61.4838
11.710377748130886 61.5624
11.732811318753434 61.7329
11.755227854859067 61.7302
11.777662328529495 61.5383
11.800079768750786 61.4898
11.822515149015453 61.4202
11.844950984084935 61.461000000000006
11.867369787303163 61.1381
11.889806534289491 61.2763
11.912226250487029 61.7065
11.934663912939751 61.9882
11.9571020346363 62.4214
11.979523127133968 62.4883
12.001962169624331 63.5453
12.024384183972964 65.3402
12.046824150809913 68.8165
12.069264581333726 72.9765
12.091687985297767 79.3303
12.11412934550045 88.4012
12.136553680195208 104.1
12.158995973632788 125.85
12.181438735204349 157.67600000000002
12.20386447284199 190.80599999999998
12.226308172985636 205.45
12.24873485024193 195.202
12.271179492516982 152.404
12.293607112949127 110.035
12.316052700916226 82.1849
12.338498763250042 68.5892
12.360927805303868 63.9385
12.383374818673879 63.2079
12.405804812803074 62.6259
12.428252780773262 62.8523
12.45070122756722 62.7248
12.473132656675375 62.9261
12.49558206341869 63.4256
12.518014453510101 63.6642
12.540464823770117 63.9376
12.562915677315177 63.6613
12.58534951575545 63.9578
12.607801338171472 63.6408
12.630236146511358 64.4431
12.652688941369085 65.6311
12.675124723177234 65.9172
12.697578494048786 66.1053
12.720032754458185 65.9898
12.742470003354093 66.3023
12.764925245138771 66.8602
12.787363476431278 67.0676
12.809819703166806 67.2013
12.83227642391173 68.1466
12.854716135692716 68.6774
12.877173846755147 69.8653
12.899614549869717 70.4626
12.9220732548287 71.4746
12.94453245827299 72.1761
12.966974655289818 72.8569
12.989434858002571 73.6723
13.011878055298721 74.2695
13.034339260862497 75.4576
13.056800969391883 76.6647
13.079245674017244 79.8618
13.101708390774869 84.2155
13.12415410463411 92.5804
13.146617833206086 102.132
13.169064559883248 112.48299999999999
13.191529303857127 127.48100000000001
13.213994557076367 151.207
13.236442809902437 190.012
13.258909083908291 249.62
13.28135835851934 327.11
13.30382565690295 400.284
13.326293469022952 452.796
13.348744283242008 416.76099999999997
13.371213125129904 318.553
13.39366497011003 218.088
13.416134845360597 145.751
13.438605238843131 111.88600000000001
13.46105863690397 103.441
13.483530069144786 105.906
13.505984506951902 111.708
13.528456981549432 122.03
13.550929978879088 137.984
13.573385983253365 162.541
13.595860028340867 202.93599999999998
13.618317081455832 260.649
13.64079217790333 328.129
13.663250283359057 386.75699999999995
13.685726434770173 385.28
13.708203115221277 325.796
13.730662806148091 239.06
13.75314054697177 162.108
13.775601299246777 113.939
13.798080104050406 90.9034
13.820559442405358 82.601
13.843021793671388 79.8655
13.865502201420897 78.432
13.887965623051947 78.1349
13.910447103807167 77.255
13.932929122629764 76.2526
13.955394156785959 75.5997
13.977877254034569 74.6281
14.000343367582113 73.9128
14.022827546871707 73.1109
14.045294743423524 72.384
14.06778000837062 71.8081
14.090265817715476 71.5411
14.112734645763819 71.17
14.13522154619454 70.6381
14.157691466286913 70.6275
14.180179461423874 70.6319
14.202668005486178 70.17399999999999
14.22513957064374 69.428
14.247629214846473 69.1617
14.270101881097517 68.81
14.29259262906496 68.5037
14.315083930490205 68.6757
14.337558255389705 68.7792
14.360050666019726 68.5001
14.382526101071944 68.2027
14.405019624534942 67.9864
14.427513705993134 67.6744
14.449990813291825 67.6664
14.47248601302899 67.4569
14.49496423954951 67.6925
14.517460561197822 67.8063
14.539939910570322 67.5136
14.562437357763558 67.6747
14.58493536931253 68.0549
14.607416409993311 67.9468
14.62991555254159 68.4786
14.652397725157423 68.7088
14.674898002342799 69.2896
14.697398848433282 69.7462
14.719882725991326 71.1269
14.74238471217934 73.0491
14.764869730765593 76.2931
14.787372860692983 79.2176
14.809876564079925 83.8295
14.83236330125751 89.87799999999999
14.854868153850365 98.8744
14.877356041159485 113.25
14.899862046604186 132.07399999999998
14.922351087688757 159.315
14.944858249632887 193.11900000000003
14.967365991421232 221.912
14.989856770231246 233.104
15.012365673994204 214.85299999999998
15.03485761569738 174.952
15.05736768508665 131.184
15.07987833888692 100.09899999999999
15.102372032001655 81.9574
15.124883856909658 73.0203
15.14737872204565 70.3695
15.169891721717274 69.0809
15.192405310371893 68.6045
15.214901940621196 68.6396
15.237416709527137 67.5134
15.259914520936249 67.3634
15.282430473753607 66.7461
15.304947020131227 66.2587
15.327446610371178 66.1124
15.349964346154254 65.8767
15.372465126703139 65.6152
15.394984055556009 65.5872
15.417486030076159 65.1886
15.44000615566487 64.9095
15.462526881230803 64.9307
15.485030653812652 64.7229
15.507552581617434 64.5915
15.530057557334603 64.663
15.55258069104857 64.5705
15.575104429329837 65.1624
15.597611216864632 65.1234
15.620136166564563 65.9351
15.6426441664095 67.6309
15.665170331202765 69.6435
15.687697105158826 72.2948
15.710206930593545 75.7396
15.732734925158933 80.0993
15.755245972089478 86.7377
15.77777519094324 95.889
15.800287463046663 109.31299999999999
15.822817909869592 129.722
15.84534897229804 152.44799999999998
15.867863089299354 179.898
15.890395385222186 198.21
15.912910736597423 195.822
15.935444269699861 174.81900000000002
15.957978423016485 138.82399999999998
15.980495633101265 107.421
16.003031029129367 84.46799999999999
16.02554948280019 70.6289
16.048086125229432 64.2135
16.070623392487107 62.0214
16.09314371869582 61.2318
16.11568223789321 60.452
16.13820381691126 59.795
16.160743591742527 59.3285
16.183283996022084 58.8551
16.205807461423195 57.9712
16.228349126881973 57.5177
16.25087385432698 57.6808
16.27341678466365 56.9005
16.29594277784926 56.7208
16.31848697676433 56.5898
16.341031811604868 55.8474
16.36355971058487 55.9718
16.3861058195587 56.00899999999999
16.40863499352978 55.3879
16.431182380342005 54.8133
16.453730407713202 54.7816
16.476261501364792 54.5259
16.498810812136167 54.1948
16.52134319004079 54.4514
16.54389378792203 54.3675
16.566445031001553 54.0314
16.588979342490088 54.0017
16.61153187824822 53.9964
16.634067483263312 53.7942
16.656621315414416 53.7512
16.679175797408888 53.3505
16.701713349928728 53.4845
16.72426913389191 53.4419
16.74680798922351 53.6187
16.76936507887444 53.7555
16.791905240734874 53.6934
16.814463639794468 53.6102
16.837022695210294 53.592
16.859564824093756 53.7561
16.882125194503903 53.9085
16.904668639217885 53.8393
16.927230328348003 53.9629
16.949792678493612 54.223
16.972338104193863 54.2461
16.994901778652235 54.1603
17.017448529496576 54.4632
17.040013531998152 55.2233
17.06257920018044 55.711000000000006
17.0851279459922 56.353
17.107694947817667 57.1246
17.130245028099072 57.8256
17.15281336730298 59.3485
17.17536478578733 61.0056
17.19793446610687 63.1047
17.220504818648422 66.4217
17.243058251703697 70.0695
17.265629950971032 75.2738
17.288184731571736 80.3687
17.310757781306908 84.0661
17.33333150794385 82.8299
17.355888317140174 79.3313
17.37846339986244 72.8915
17.401021565958885 66.8708
17.42359800851343 62.6845
17.44617513265564 59.8836
17.468735341390783 58.9113
17.491261035594565 58.1232
17.51396340099364 57.8792
17.536490463869136 58.2393
17.559018209820174 58.0647
17.58154663977963 58.0596
17.604251766089718 58.2919
17.626781572227713 58.6856
17.64931206518155 58.8185
17.671843245885103 59.0559
17.69455114821572 59.1297
17.717083712612634 59.5669
17.739616967569667 60.0356
17.762150914021706 60.63399999999999
17.78486160749854 60.6535
17.807396945166804 61.5961
17.829932977143503 63.0596
17.85246970436452 64.449
17.875183204129467 66.0149
17.897721330097664 67.8909
17.920260154126645 70.1812
17.942799677153296 73.7322
17.9655159983646 77.7019
17.988056927677544 83.0094
18.010598558807683 90.6845
18.033140892692916 101.725
18.05586005052525 113.94
18.07840379824407 128.085
18.10094825154059 138.215
18.12366954819864 143.148
18.146215420998306 137.247
18.16876200220057 124.32
18.191309292745153 108.476
18.214033452627167 94.7801
18.236582170236648 86.0745
18.259131600016456 83.4625
18.281681742907335 85.2102
18.304408781233683 90.3322
18.32696035875955 97.2625
18.349512652227624 102.307
18.372065662579683 106.521
18.394795594587553 104.728
18.41735004715306 98.3964
18.43990521943684 89.6609
18.46246111238171 80.26899999999999
18.485193953325208 71.7005
18.507751296070428 66.1942
18.530309362314178 63.0732
18.552868153000343 61.7127
18.57560391815056 60.7537
18.59816416623245 60.4169
18.620725141597372 60.0733
18.643286845190268 59.5932
18.666025549835414 59.178000000000004
18.688588718427933 58.7796
18.711152618092243 58.2624
18.73389353884365 58.1214
18.75645890921984 57.8254
18.77902501351406 57.6554
18.801591852673102 57.5642
18.824335739722738 56.8961
18.846904057212626 57.0156
18.8694731124168 56.7962
18.89204290628315 56.7918
18.914789774966803 56.7241
18.937361054791623 56.343999999999994
18.959933076131318 56.075
18.982505839934877 55.8638
19.00525570560582 55.7587
19.027829963004184 55.8193
19.05040496572238 55.7906
19.072980714710468 55.8402
19.095733592739563 56.2754
19.11831084296757 56.2162
19.140888842324735 56.4909
19.16346759176222 56.7188
19.18622349753803 57.4303
19.208803755869358 58.2546
19.231384767143577 59.6889
19.253966532312948 61.3245
19.276725481241822 63.5597
19.29930876296784 66.2191
19.3218928014549 69.5021
19.34465404436217 72.1767
19.36723960516257 74.6349
19.389825925592426 75.46300000000001
19.412413006605938 72.8182
19.43517731967805 68.749
19.457765930683355 63.9003
19.48035530514408 59.8492
19.50294544401556 56.6247
19.525712842708348 54.7993
19.54830451925909 53.6855
19.570896963095727 53.1056
19.593490175174704 52.8478
19.616260674962184 52.9001
19.638855432416964 52.5589
19.661450960992624 52.7844
19.68404726164677 52.5699
19.706820878021247 52.4068
19.729418731756834 52.6287
19.752017360452857 52.2169
19.77461676506804 52.6193
19.797393513540218 52.6742
19.819994478951667 53.1399
19.84259622316767 53.6917
19.8651987471481 53.9092
19.887978643247177 53.8973
19.91058273574792 54.5571
19.933187610901943 55.3975
19.955969879466828 56.8286
19.97857632894404 58.0526
20.00118356396599 60.0207
20.023791585494575 62.6293
20.046577028914875 65.7215
20.069186632506966 67.9834
20.091797025500632 69.6469
20.114408208858933 69.6254
20.137196842715273 68.388
20.159809615886765 66.3231
20.18242318232135 63.2041
20.20503754298326 61.4743
20.227829382875154 60.7249
20.250445341109344 61.144
20.27306209647285 62.4086
20.29567964993108 64.005
20.31847471147704 65.142
20.34109387027612 65.6179
20.363713830075454 64.5188
20.386334591841646 61.7633
20.409132890679302 58.619
20.431755265564437 55.5807
20.454378445325528 53.0497
20.477002430930366 51.7828
20.499803982716553 50.6463
20.522429589228004 49.9901
20.54505600449589 49.6253
20.567683229489194 49.5719
20.590488049900088 49.3992
20.61311690359731 49.1621
20.63574656993626 48.9769
20.658553853717297 48.8484
20.681185154618298 48.7696
20.703817271080066 48.5369
20.72645020407368 48.1894
20.749260783967177 48.1019
20.771895359337133 47.9924
20.794530754161617 48.0127
20.817166969412938 48.0711
20.83998086114876 47.948
20.86261872660049 47.7608
20.885257415405402 47.857
20.90789692853701 47.7011
20.930714147864748 47.7347
20.953355319030678 47.8096
20.97599731745334 47.7194
20.99864014410749 47.5829
21.021460706796564 47.7721
21.044105199328826 48.0352
21.06675052302631 48.1442
21.089396678865015 48.3668
21.112220600704806 48.7729
21.134868430275347 48.9687
21.15751709492456 49.3021
21.180166595629693 49.5636
21.202993892429635 50.0686
21.22564507473034 50.5666
21.24829709602816 50.9101
21.27112693608965 50.6366
21.293780644891275 50.4053
21.316435195634053 49.667
21.339090589297417 48.6812
21.361923832041875 48.4541
21.384580921090404 47.8924
21.407238856007325 47.5473
21.429897637773326 47.51
21.45273429906592 47.6254
21.475394784108598 47.6463
21.498056118951983 47.6792
21.520718304578022 47.8308
21.543558400304388 48.0359
21.566222297108816 48.3168
21.58888704765135 48.3642
21.61155265291521 48.5281
21.63439619898156 48.9546
21.657063523335786 49.2467
21.67973170537063 49.7613
21.7024007460706 50.3802
21.72524775840385 50.9979
21.747918526116475 52.1252
21.770590155457388 53.4526
21.79326264741238 54.9922
21.816113141960237 56.9497
21.838787368860547 59.1552
21.861462461341976 61.2837
21.884315579735777 63.4798
21.90699241312273 64.3734
21.92967011506078 64.1945
21.95234868653799 62.8373
21.9752053151131 60.8946
21.997885635446785 58.5753
22.020566828293532 56.8672
22.04324889464272 55.5381
22.066109049404666 54.9861
22.088792872571794 55.1896
22.111477572219204 55.358999999999995
22.1341631493376 55.7037
22.157026846313123 55.0136
22.179714188221507 53.8695
22.202402410582668 52.522
22.22509151438863 51.0964
22.24795876962584 49.8616
22.270649646204486 49.2011
22.293341407213727 48.5119
22.316034053646906 48.15
22.338904883215342 48.0489
22.36159931041458 48.0612
22.38429462602756 47.8327
22.40699083104897 47.5897
22.429865251039757 47.7398
22.452563244831367 47.6229
22.47526213102522 47.6876
22.49813925616515 47.754
22.520839937143307 47.7976
22.543541513520587 47.8341
22.56624398629403 47.7895
22.589124730075895 47.6116
22.611829005656723 47.9824
22.63453418063466 47.9081
22.657240256008077 48.11600000000001
22.680124634582935 48.2537
22.70283252079775 48.5476
22.725541310413075 48.9149
22.74825100442868 48.967
22.771139033969575 49.5215
22.79385054687155 49.7571
22.81656296718292 50.5121
22.83927629590484 51.4294
22.862167992606945 52.4682
22.88488314827121 53.6961
22.907599215359284 54.7531
22.93031619487366 56.068000000000005
22.953211574954405 57.0782
22.975930389478226 57.3804
22.998650119445763 57.0545
23.02137076586092 55.7831
23.044269845560063 54.1024
23.06699233506288 52.2292
23.089715744034912 50.6677
23.112617610931565 49.5032
23.135342869061212 48.5745
23.158069049684816 48.1829
23.1807961538087 47.9044
23.20370174880544 48.0086
23.226430710184808 48.0285
23.249160598093425 47.9601
23.271891413539002 47.9839
23.294800752937697 47.9902
23.31753343374794 48.3198
23.340267045128353 48.3939
23.36300158808808 48.8024
23.38591468821339 49.0728
23.408651104658304 49.5778
23.431388455719986 50.128
23.454126742409 51.1017
23.4770436196085 52.236000000000004
23.499783787914662 53.592
23.522524894889884 54.928999999999995
23.54526694154616 56.1898
23.56818761219047 57.2977
23.59093154860734 57.5034
23.613676427751283 57.3117
23.636422250635754 55.8259
23.659346731118656 53.7376
23.68209445191868 51.5965
23.704843119509587 49.4662
23.72759273490623 47.9615
23.750521041644767 46.8413
23.77327256312355 45.9236
23.796025035462787 45.548
23.818956224555475 45.276
23.841710609113413 45.1878
23.86446594758979 44.8549
23.887222241002014 44.6407
23.910157285144578 44.3566
23.932915498962537 44.3841
23.955674670778713 44.1042
23.978434801611975 43.9995
24.001373717286125 43.8962
24.024135776723917 43.7701
24.046898798245582 43.5436
24.06966278287146 43.6199
24.092605586582614 43.4662
24.115371508023642 43.2118
24.1381383956401 43.0282
24.16090625045381 43.1628
24.183852958731244 43.016999999999996
24.206622758582608 42.9919
24.229393528706886 42.7287
24.252165270127392 42.7847
24.27511589952438 42.6323
24.297889594216997 42.581
24.32066426328598 42.3316
24.34343990775613 42.5195
24.36639447485003 42.3738
24.38917208083877 42.4287
24.41195066531332 42.1969
24.43490819850244 42.3856
24.457688750692377 42.2716
24.48047028445616 42.1885
24.503252800821233 42.3027
24.526214300784112 42.3713
24.548998793132213 42.4656
24.57178427117417 42.2718
24.59457073593893 42.251999999999995
24.617536219319863 42.0358
24.64032466834748 42.0501
24.663114107195035 41.9386
24.685904536893013 41.5653
24.708874020360852 41.6113
24.731666442613744 41.5382
24.754459858818787 41.596000000000004
24.777254270007962 41.6211
24.80022777025625 41.3747
24.82302418230472 41.3643
24.845821592443674 41.493
24.86862000170663 41.3968
24.891597535453727 41.2822
24.914397953892728 41.6646
24.93719937456671 41.6517
24.96000179851076 41.7729
24.98298338249997 41.7448
25.00578782394922 42.137
25.028593271784167 42.1339
25.05157790644186 42.5987
25.07438537804115 42.7315
25.097193859145293 43.1019
25.120003350792075 43.3077
25.142992065061257 43.5126
25.165803588823465 43.7459
25.18861612625217 43.8856
25.211429678386736 43.8567
25.234422489079968 43.8572
25.257238081693636 43.9409
25.280054692141732 44.108000000000004
25.3028723214652 44.176
25.325869245420463 44.2805
25.348688923599397 44.2296
25.371509623787006 44.0607
25.394331347025812 43.7017
25.41733240110666 43.066
25.440156181590016 42.2987
25.46298098826268 41.8605
25.48580682216873 41.4034
25.50881202326435 40.7443
25.53163992281684 40.5175
25.55446885274561 40.3881
25.577298814096377 39.9519
25.600308179121807 40.0305
25.623140214533745 40.2023
25.64597328451537 39.9831
25.66898578564376 39.6951
25.691820936010206 39.8014
25.714657124097695 39.7137
25.737494350954734 39.7733
25.760511045684957 39.6059
25.783350361364224 39.6399
25.806190718969255 39.7388
25.82903211955018 39.784
25.852053024868923 39.8304
25.874896522722523 39.8117
25.897741066713106 39.8201
25.920586657892454 39.965
25.943611790812668 40.1564
25.966459487728237 40.2686
25.989308234998564 40.2324
26.01215803367705 40.6363
26.03518741123814 40.7848
26.05803932412957 41.1488
26.080892291600094 41.0689
26.10374631470478 41.1282
26.12677995397268 41.0829
26.14963609978026 40.8926
26.172493304397875 40.4412
26.19535156888223 40.2794
26.218389486949604 39.883
26.241249882640123 39.7304
26.26411134137826 39.5746
26.28715248187403 39.4766
26.31001607820869 39.2887
26.3328807407756 39.1861
26.35574647063438 39.3874
26.37879191991473 39.3756
26.401659795896734 39.4016
26.424528742360263 39.5067
26.447398760366614 39.6741
26.470448535598294 39.8471
26.49332070826805 40.027
26.516193955675355 40.4918
26.53906827888316 40.6547
26.562122397260108 40.7705
26.584998883685063 41.108000000000004
26.607876449110325 41.4677
26.63075509460056 41.6318
26.65381357334404 41.6745
26.67669439061878 41.5474
26.699576291163382 41.3855
26.722459276044212 41.0871
26.745522132402975 40.7003
26.768407297649354 40.6068
26.791293550442003 40.2676
26.814180891848974 40.0208
26.837248143099337 39.7522
26.860137673466657 39.6849
26.88302829566349 39.3389
26.90592001075963 39.2275
26.92899167420566 39.0924
26.951885586870763 38.6189
26.974780595655517 38.5876
26.99785558178161 38.4284
27.020752794605112 38.2345
27.043651106772522 38.1938
27.06655051935668 38.056999999999995
27.089629948036183 38.0603
27.112531573292053 38.0359
27.135434302194138 38.1541
27.158338135817015 37.8667
27.181422024430987 37.9992
27.204328079372566 37.9083
27.22723524226965 37.8341
27.250143514198573 37.9211
27.273231880156334 37.8224
27.296142382065014 37.6927
27.319053996245536 37.6588
27.341966723775965 37.7216
27.365059584515222 37.8216
27.38797455070062 37.9513
27.410890633481237 37.8863
27.433807833936918 37.8345
27.456905206923906 37.9426
27.47982465472398 37.8223
27.502745223449743 38.0358
27.525666914182825 38.0463
27.548768816912457 38.0317
27.571692763693633 37.8882
27.59461783573812 37.7459
27.617723149491244 37.4732
27.640650484125285 37.4431
27.66357894728264 37.395
27.686508540048052 37.4011
27.709618414237887 37.2176
27.732550278321757 37.2734
27.755483275279115 37.2364
27.778417406196485 37.3025
27.801531858397514 37.3042
27.824468269376716 37.1462
27.847405817586786 37.2218
27.870344504116094 37.3575
27.893463551932008 37.4487
27.916404527281053 37.5335
27.93934664422563 37.7105
27.962289903855886 37.8815
27.98541356491974 38.1832
28.00835912214229 38.1914
28.03130582533231 38.4701
28.054253675581805 38.6283
28.077381967556104 38.4679
28.100332124185126 38.4105
28.123283431160893 38.3181
28.146235889577238 38.0781
28.169368830154156 37.8557
28.192323603752033 37.7253
28.215279532083304 37.4989
28.238415973016764 37.1741
28.261374223145094 37.1834
28.284333631303806 36.8536
28.307294198589954 36.6712
28.330435319167677 36.2573
28.353398217078915 36.2246
28.376362277420153 35.9176
28.39932750129032 35.8146
28.422473319286713 35.6903
28.44544088262495 35.7166
28.468409612800283 35.6696
28.491379510913497 35.4107
28.51453004413313 35.2361
28.53750229057244 35.22
28.56047570826344 35.2307
28.583450298308804 35.2016
28.606605564586562 35.0382
28.629582511831156 35.1908
28.65256063474956 34.9863
28.675539934446338 35.0514
28.698699951647605 35.0475
28.72168161743193 34.8635
28.74466446331978 34.9237
28.767648490417624 34.8944
28.790813276438353 34.8742
28.813799678527303 34.835
28.836787265157085 34.8763
28.859955641890075 34.8201
28.882945610203045 34.6615
28.905936766392035 34.6109
28.928929111566863 34.7353
28.952102288520145 34.6078
28.975097024308607 34.4438
28.998092952423807 34.3355
29.021090073977508 34.2706
29.04426806913204 34.1687
29.067267590245258 34.0149
29.090268308143695 33.9602
29.11327022394099 33.971
29.13645305530891 33.7163
29.159457379627167 33.7681
29.18246290519685 33.6953
29.20546963313352 33.6459
29.22865731875826 33.6394
29.25166646419296 33.619
29.27467681535305 33.5921
29.29768837335608 33.6552
29.320880931312562 33.6748
29.34389491580634 33.5694
29.366910110507334 33.6355
29.38992651653503 33.7958
29.41312396492981 33.6058
29.436142806456754 33.5933
29.45916286268059 33.4192
29.48236399319994 33.2007
29.50538649169417 33.1319
29.528410208259935 33.0532
29.55143514402014 32.9415
29.574641196749695 32.8042
29.597668583816574 32.7109
29.6206971934585 32.4484
29.64372702680042 32.5787
29.666938019934474 32.5081
29.689970313635285 32.4132
29.713003834422636 32.3432
29.73603858342347 32.2813
29.759254535188578 32.3481
29.78229175361658 32.2225
29.80533020365064 32.2798
29.82836988641968 32.2443
29.85159081507472 32.1636
29.874632976355343 32.0698
29.89767637376955 32.0856
29.920721008448314 31.9364
29.9439469322847 32.0191
29.96699405457564 31.9425
29.9900424175358 31.9825
30.013092022298157 31.8368
30.03632295963995 31.904
30.059375061131373 31.8933
30.08242840783577 31.8573
30.105483000888153 31.9176
30.128718970092244 31.7624
30.151776069006917 31.8631
30.17483441768648 31.8298
30.198074175317235 31.7716
30.221135036724256 31.8537
30.24419715131772 31.8333
30.267260520236203 31.793000000000003
30.290505341942243 31.7444
30.313571232750228 31.6968
30.336638381310948 31.7551
30.35970678876503 31.5971
30.38295669299435 31.5731
30.40602763151657 31.6196
30.429099832366074 31.5473
30.452173296685572 31.4878
30.47542830191959 31.5242
30.498504306502497 31.362
30.521581577995562 31.5269
30.544660117543582 31.7131
30.56792024229725 31.6682
30.59100133132069 31.6468
30.614083691845494 31.6299
30.637167325018545 31.6946
30.660432587840603 31.7186
30.683518779717886 31.7196
30.70660624769615 31.7116
30.729694992924372 31.6602
30.75296541239743 31.7401
30.77605672557558 31.5721
30.799149319462742 31.4455
30.8224236211637 31.3997
30.845518789950724 31.2582
30.868615242910597 31.2066
30.891712981195973 31.066
30.91499247215866 30.9599
30.938092794619365 30.9457
30.96119440587579 30.8499
30.984297307082752 30.802
31.00758200598383 30.7515
31.030687500658694 30.7107
31.053794288760695 30.5869
31.076902371446767 30.483
31.100192296997445 30.585
31.12330298246119 30.5594
31.14641496599209 30.3568
31.169528248749216 30.3906
31.19282341969534 30.3441
31.215939314557186 30.4239
31.239056512134788 30.3977
31.262175013589378 30.3856
31.28547544871168 30.2836
31.30859657161541 30.1277
31.331719001892175 30.3123
31.35484274070538 30.4223
31.378148458819545 30.381
31.401274828443725 30.2729
31.424402510106933 30.3534
31.447712205419993 30.4084
31.470842524931633 30.264
31.493974159989783 30.3075
31.51710711176168 30.1811
31.54042212308802 30.1654
31.563557722100917 30.2671
31.586694641341655 30.0928
31.609832881979628 29.8392
31.63315322823208 29.9507
31.656294125521327 29.7746
31.679436347728515 29.7328
31.70257989602529 29.7821
31.725905596152327 29.6814
31.74905181052835 29.6325
31.772199354521323 29.6179
31.79534822930507 29.6039
31.818679302290967 29.6583
31.84183085259981 29.6314
31.864983737233473 29.5314
31.88813795736804 29.5607
31.911474422233013 29.5963
31.934631327356435 29.5722
31.9577895715215 29.518
31.980949155906522 29.5686
32.004291031706956 29.5333
32.027453310562606 29.3903
32.05061693318573 29.2269
32.07396288236386 29.3229
32.09712920658542 29.1571
32.12029687812702 29.0785
32.14346589817093 29.0085
32.166817291729984 29.0121
32.18998902288583 28.9126
32.21316210610336 28.8163
32.23633654256711 28.6616
32.259693399663725 28.6471
32.282870556771144 28.5576
32.30604907069099 28.6373
32.329228942610065 28.5424
32.35259128243769 28.4333
32.375773884550505 28.4076
32.398957848235646 28.4829
32.422143174682176 28.3708
32.445511016471215 28.2278
32.468699082679954 28.2368
32.49188851523011 28.21
32.51507931531304 28.1975
32.538452678331 28.0462
32.56164622776311 27.9886
32.58484114831493 27.9608
32.60803744118015 28.0334
32.631416344731896 28.0085
32.654615396551876 27.9465
32.67781582427913 27.9647
32.701198898634416 27.8301
32.72440209253756 27.8374
32.747606665947124 27.7656
32.77081262006088 27.6251
32.79420126883317 27.6773
32.81740999876112 27.6525
32.840620112999424 27.5944
32.86383161274818 27.467
32.88722585534586 27.5236
32.91044014056596 27.53
32.933655814909734 27.5186
32.95687287957963 27.5005
32.98027273544904 27.4522
33.00349259526636 27.4404
33.026713849030116 27.4497
33.04993649794511 27.3406
33.073341986570746 27.2628
33.09656744032826 27.2838
33.11979429286444 27.2595
33.14302254538647 27.2537
33.166433686291185 27.2488
33.18966475336992 27.2722
33.212897224069096 27.1053
33.23613109959831 27.1242
33.259547912343415 27.0877
33.2827846121627 27.0401
33.306022720453775 27.0804
33.32926223842861 26.8764
33.352684742614166 26.9245
33.37592709463173 26.8881
33.399170859982064 26.7885
33.422597648419426 26.7317
33.44584425514446 26.5923
33.46909227885668 26.624000000000002
33.4923417207723 26.5583
33.51577423505344 26.538
33.539026528130385 26.4863
33.56228024307245 26.4631
33.585535381098246 26.3236
33.60897364093058 26.3302
33.63223163992385 26.2964
33.6554910656699 26.2374
33.678751919389796 26.2209
33.702195944520106 26.1732
33.72545966903325 26.1302
33.74872482519663 26.013
33.771991414233746 26.0471
33.79544122444841 26.0024
33.81871069412428 25.9938
33.84198160035767 25.8947
33.86525394437455 25.9396
33.88870955949969 25.8901
33.911984794020626 25.8349
33.93526147001624 25.8202
33.958539588715006 25.695
33.98200102861669 25.6746
34.0052820477047 25.6031
34.02856451319451 25.5125
34.05203033759056 25.5051
34.07531571090147 25.5015
34.09860253431845 25.4512
34.121890809074316 25.4604
34.145362493118924 25.4398
34.16865368561615 25.3814
34.191946333164054 25.3193
34.21524043699793 25.3179
34.23871800066799 25.2957
34.26201503218366 25.1798
34.28531352370466 25.1874
34.30861347646881 25.1298
34.33209693978188 25.0397
34.3553998301885 25.0318
34.378704185565205 24.9455
34.402010007152356 24.9406
34.42549939016683 24.9085
34.44880815937748 24.8304
34.472118398533134 24.7969
34.49543010887669 24.7905
34.51892543169198 24.7427
34.54224009966052 24.7155
34.56555624255917 24.6394
34.58887386163339 24.5888
34.61237514439016 24.5359
34.6356957311114 24.5217
34.65901779775809 24.5273
34.68252356662995 24.5194
34.705848608458616 24.4574
34.72917513396849 24.3866
34.75250314440949 24.3186
34.77601490857862 24.2976
34.799345904259795 24.2294
34.82267838863559 24.2603
34.846012362958525 24.2876
34.869530142679984 24.2343
34.89286711232212 24.1975
34.91620557568269 24.168000000000003
34.93954553401677 24.0442
34.9630693495876 23.9829
34.986412313340814 24.0526
35.00975677584668 24.0046
35.033102738362956 23.936
35.05663261012228 23.97
35.0799815881786 23.9655
35.10333207003229 23.8383
35.12668405694369 23.8409
35.150220005273056 23.8436
35.17357501786656 23.7939
35.19693153931268 23.7465
35.220289570874385 23.715
35.24383161619786 23.745
35.267192683604904 23.6714
35.290555264930376 23.6278
35.314101899412165 23.7017
35.33746752422433 23.6552
35.36083466676374 23.6738
35.38420332829803 23.5994
35.407756095629054 23.56
35.43112781085063 23.5652
35.45450104888391 23.5005
35.477875810999194 23.5336
35.50143473172161 23.4148
35.52481255774625 23.3741
35.54819191167777 23.3163
35.57157279478914 23.2931
35.595137889488406 23.2094
35.61852184675279 23.209
35.641907337029984 23.2278
35.665294361595684 23.142
35.68886565090076 23.1082
35.7122557598848 23.1125
35.73564740699838 23.0594
35.759040593519934 23.029
35.78261809810353 22.9669
35.80601437933051 22.9312
35.829412203814705 22.9223
35.85281157283719 22.8214
35.876395313415884 22.9036
35.8997977874528 22.7638
35.92320180988546 22.8061
35.946790244133936 22.7064
35.97019737933222 22.689
35.993606066789866 22.6463
36.01701630779276 22.6483
36.04061101440684 22.6102
36.06402437852291 22.6321
36.08743930005611 22.6435
36.1108557802951 22.5255
36.13445678011326 22.4186
36.15787639383515 22.394000000000002
36.18129757014299 22.42
36.20472031032821 22.3395
36.22832762423364 22.2894
36.25175350829375 22.3065
36.275180960119776 22.1688
36.298609981005924 22.215999999999998
36.32222362992669 22.1818
36.34565580510207 22.1788
36.36908955323448 22.1283
36.39252487562093 22.0046
36.416144880530226 21.9812
36.43958336764275 22.0261
36.463023432914625 22.0585
36.486465077645676 22.026999999999997
36.51009145956204 22.0208
36.53353627947859 22.0202
36.55698268276811 21.9682
36.58043067073321 21.8091
36.60406345072071 21.7544
36.62751462435344 21.7395
36.65096738658405 21.7706
36.67460498210655 21.7547
36.69806093788647 21.7347
36.72151848619297 21.666999999999998
36.744977628333636 21.6937
36.76862165890998 21.5365
36.79208400512205 21.6224
36.81554794910557 21.5427
36.83901349217101 21.4537
36.862663978991606 21.4314
36.88613273667352 21.365
36.90960309738324 21.3688
36.933075062434064 21.3332
36.95673202673572 21.3065
36.98020721697122 21.3046
37.003684015502365 21.1562
37.027162423645365 21.1157
37.050825886711465 21.1036
37.07430753063053 21.0499
37.09779078812467 21.1141
37.121275660513014 21.1313
37.144945643673694 21.0305
37.16843376245278 21.044
37.19192350009803 20.9984
37.215414857931435 20.9642
37.239091382563885 20.9057
37.262585997426164 20.9211
37.28608223645736 20.8286
37.309763684451696 20.8073
37.33326318851098 20.8563
37.356764320726555 20.8028
37.380267082425526 20.7504
37.40395510942588 20.6504
37.42746114683234 20.5971
37.45096881771841 20.6455
37.474478123414166 20.6245
37.49817275092816 20.5552
37.52168534303452 20.5318
37.54519957395567 20.4492
37.568715445024665 20.4605
37.592416694607714 20.3978
37.61593586281424 20.436
37.63945667518264 20.4591
37.66297913304891 20.3482
37.68668702630454 20.4153
37.710212792059274 20.3257
37.733740207334854 20.3155
37.757269273470364 20.1677
37.780983832050374 20.1529
37.80451621684926 20.143
37.82805025654007 20.0663
37.851585952464795 20.028
37.8753071980695 20.0261
37.89884622345676 19.9573
37.92238690911902 19.9337
37.94611318753442 19.9216
37.969657210779765 19.868
37.99320289834801 19.9051
38.016750251586465 19.789
38.04048325513017 19.7617
38.06403395679343 19.7287
38.087586328183946 19.7467
38.11114037065203 19.7914
38.13488012115898 19.776
38.1584375229181 19.6962
38.181996599821 19.5972
38.205557353221124 19.5269
38.229303872575656 19.5625
38.2528679961576 19.5366
38.27643380031219 19.5021
38.30000128639589 19.4014
38.32375459653193 19.4703
38.34732546371299 19.4977
38.37089801690786 19.4211
38.39447225747609 19.3568
38.418232380377425 19.3384
38.441810012983396 19.2679
38.46538933705673 19.2824
38.488970353960084 19.2491
38.51273731166058 19.1869
38.536321731567014 19.1507
38.55990784840681 19.089000000000002
38.58367995004091 19.0126
38.60726947812959 18.9831
38.63086070726198 19.02
38.654453638806274 19.1002
38.678232613930824 19.0191
38.70182896773327 18.9054
38.72542702806741 18.9334
38.7490267963045 18.8785
38.77281266709232 18.8755
38.79641586862214 18.8778
38.8200207821842 18.7606
38.843627409152944 18.789
38.86742019782782 18.7487
38.891030269149255 18.6564
38.914642058016156 18.702
38.938255565806124 18.6723
38.96205529464307 18.5776
38.98567225787121 18.5694
39.00929094417078 18.5563
39.03291135492255 18.5786
39.05671804624804 18.5437
39.080341923549106 18.4597
39.103967529460334 18.4384
39.127594865365744 18.3914
39.15140854155791 18.3461
39.17503935514948 18.3516
39.19867190290282 18.3108
39.22249083587951 18.3243
39.24612686969409 18.3663
39.269764641845306 18.2208
39.293404153722804 18.2368
39.317230110864074 18.1209
39.34087311998506 18.1571
39.36451787301696 18.1589
39.388164371352595 18.0286
39.41199737518003 18.0091
39.43564738196752 18.0423
39.45929913825317 18.0077
39.48295264543308 18.0439
39.506792718520884 17.9661
39.530449745387216 17.9326
39.55410852735203 17.8992
39.57776906581474 17.9063
39.60161623079 17.8821
39.625280300200025 17.7925
39.64894613032202 17.7512
39.67261372255866 17.7152
39.6964680021016 17.723
39.72013913657293 17.7089
39.74381203738292 17.6866
39.76748670593756 17.6077
39.79134812278169 17.6102
39.81502634488497 17.6048
39.83870633896685 17.6248
39.862388106436654 17.527
39.88625668336918 17.5108
39.90994201572829 17.5062
39.933629125719285 17.4239
39.957503091207826 17.3465
39.9811937746168 17.4098
40.00488623990914 17.3488
40.02858048850006 17.3252
40.05246165409549 17.307000000000002
40.076159487492085 17.2903
40.099859108448875 17.2681
40.123560518384345 17.2296
40.1474489070226 17.1851
40.171153913178564 17.1395
40.194860712584955 17.0986
40.2185693066637 17.1427
40.242464941335314 17.102999999999998
40.26617714307655 17.0617
40.289891143772046 17.0109
40.3136069448471 17.0065
40.33750984859743 16.9969
40.3612292688043 16.9661
40.3849504936829 16.8862
40.40867352466194 16.9071
40.43258372059144 16.820999999999998
40.45631038219906 16.8775
40.48003885420956 16.8102
40.503769138055105 16.7647
40.52768664931955 16.779
40.55142057531802 16.7577
40.57515631746428 16.7408
40.599079334038514 16.7359
40.62281872700477 16.6182
40.64655994043941 16.6052
40.67030297578061 16.6139
40.69423334835778 16.5582
40.71798004609188 16.5552
40.74172857006355 16.5251
40.76547892171441 16.5002
40.7894166736039 16.4564
40.813170699248566 16.4083
40.83692655691388 16.397000000000002
40.86068424804498 16.4684
40.884629402612525 16.387
40.908390779366385 16.3771
40.932153993938 16.2965
40.95591904777605 16.3263
40.979871628443995 16.3043
41.003640379561936 16.261
41.02741097430883 16.202
41.05118341413683 16.1464
41.075143444384416 16.1243
41.098919593177826 16.1216
41.1226975914255 16.031
41.14647744058318 16.0681
41.170444943946755 15.9789
41.19422851378379 15.9865
41.218013938914645 15.9669
41.24198706625173 15.9668
41.26577622087193 15.9225
41.289567235177785 15.9181
41.31336011063129 15.8935
41.337340752422875 15.8994
41.361137369129835 15.8949
41.38493585138705 15.7976
41.40873620066004 15.7925
41.43272438060107 15.7899
41.45652848292052 15.7659
41.48033445666918 15.6732
41.50414230331616 15.6861
41.528138045159764 15.6776
41.551949656675205 15.6725
41.575763145513235 15.6632
41.59957851314666 15.6015
41.62358184070442 15.637
41.64740098505737 15.5707
41.6712220126409 15.5676
41.69504492493139 15.5231
41.71905586207357 15.4366
41.74288256296395 15.4296
41.766711153007456 15.4321
41.79054163368412 15.3391
41.814560204340054 15.3327
41.838394485526365 15.3218
41.86223066180303 15.2878
41.88625497706819 15.2769
41.910094962812 15.2657
41.93393684811168 15.1556
41.95778063445365 15.1664
41.981812625263366 15.2021
42.00566023303407 15.1625
42.029509746323676 15.117
42.05336116662236 15.0842
42.077400857069705 15.1263
42.10125611078846 15.0324
42.12511327600405 14.982000000000001
42.14897235421036 14.9697
42.173019768448455 14.9738
42.19688269209613 14.932
42.22074753323349 14.8786
42.24461429335818 14.9022
42.268669455600495 14.8673
42.292540073217886 14.8687
42.31641261433284 14.8465
42.34028708044675 14.786
42.36435001496739 14.6955
42.38822835065557 14.784
42.41210861586426 14.6907
42.4359908120986 14.7059
42.46006154323262 14.6452
42.48394762115317 14.6212
42.507835634632315 14.6478
42.531912233047436 14.6151
42.55580413732265 14.5392
42.579697981698 14.5409
42.60359376768525 14.5431
42.62767820545945 14.5416
42.65157789440821 14.466
42.67547952952185 14.4066
42.699383112316 14.3756
42.72347541395347 14.3777
42.74738291190531 14.353
42.771292362102166 14.3804
42.795203766063516 14.2817
42.819303956130405 14.2678
42.843219287476536 14.2445
42.86713657716324 14.276
42.89105582671383 14.222999999999999
42.91516392983864 14.2141
42.939087119032166 14.2325
42.963012272677304 14.1968
42.98693939230129 14.1414
43.01105543317513 14.1504
43.034986504731386 14.0656
43.05891954686589 14.0455
43.08285456110972 14.0208
43.10697856448665 13.9641
43.130917542983475 13.9645
43.15485849820081 14.0368
43.17880143167367 13.9386
43.20293342237094 13.9016
43.226880332449 13.8678
43.25082922540554 13.8617
43.27496722682525 13.8541
43.29892010567796 13.8163
43.32287497204102 13.8514
43.34683182745632 13.7619
43.370977859791836 13.732999999999999
43.39493871351105 13.7382
43.41890156092628 13.7694
43.44286640358341 13.6777
43.46702049182749 13.636
43.49098934522816 13.6509
43.51496019852649 13.589
43.5389330532723 13.557
43.56309522248204 13.5141
43.58707210044314 13.5543
43.61105098451946 13.4622
43.63503187626491 13.4948
43.659202151562134 13.4737
43.68318707902681 13.4352
43.70717401884041 13.3801
43.731162972560874 13.3297
43.75534137913236 13.3625
43.779334381108384 13.3804
43.803329401683186 13.3047
43.82732644241872 13.2481
43.8515130055166 13.2337
43.87551410707659 13.2415
43.89951723350145 13.2456
43.923709934595614 13.2039
43.94771713129917 13.2215
43.97172635758096 13.1294
43.99573761501002 13.1096
44.0199385169922 13.1082
44.04395385732619 13.0725
44.067971233533086 13.1058
44.09199064718605 13.0557
44.11619977548961 13.0098
44.14022328470671 12.9549
44.16424883610785 13.02
44.18827643127035 13.0031
44.21249381139513 12.9379
44.236525514814076 12.9052
44.26055926674478 12.8857
44.28459506876863 12.9044
44.3088207262813 12.8546
44.33286064928722 12.8152
44.35690262714919 12.8002
44.38094666145278 12.8024
44.4051806219871 12.7908
44.42922879003185 12.7535
44.45327901929361 12.7168
44.477331311362136 12.7191
44.501573600619416 12.6887
44.525630039221795 12.609000000000002
44.54968854541895 12.6266
44.573937102200176 12.6006
44.5979997645541 12.640999999999998
44.622064499300315 12.5919
44.64613130803592 12.5003
44.67038823869318 12.5315
44.69445921643748 12.4857
44.718532272981385 12.4531
44.742607409926194 12.4586
44.76687274034801 12.3863
44.79095205918753 12.3664
44.81503346325094 12.3643
44.839116954143876 12.366
44.86339071028742 12.3555
44.88747839599524 12.3511
44.91156817336837 12.3112
44.93566004401666 12.2842
44.959942251908146 12.2606
44.984038330325966 12.2198
45.00813650686762 12.1432
45.03223678314731 12.149000000000001
45.05652746888232 12.1926
45.08063196592069 12.1717
45.104738567558705 12.1198
45.128847275414856 12.1023
45.15314646515866 12.0658
45.17725940679741 12.0481
45.20137445952892 12.0622
45.22568004865265 12.0548
45.24979934496396 12.0052
45.27392075725247 11.9755
45.29804428714431 11.9683
45.322358426247604 11.9297
45.346486212804315 11.8997
45.370616121861914 11.8491
45.39474815505086 11.8909
45.41907087049246 11.8498
45.4432071734666 11.8184
45.46734560548283 11.8438
45.49148616817604 11.8328
45.51581748638564 11.7519
45.5399623320197 11.7708
45.56410931325473 11.697000000000001
45.58825843173002 11.7686
45.61259837920865 11.6831
45.636751793816 11.6602
45.66090735060093 11.664000000000001
45.68506505120716 11.6298
45.7094136545275 11.5875
45.73357566449271 11.4953
45.75773982322992 11.5274
45.78190613238733 11.5314
45.806263418194064 11.49
45.83043404997326 11.4903
45.85460683713677 11.494000000000002
45.87897065658495 11.4803
45.90314777634752 11.4793
45.92732705646868 11.4188
45.9515084986045 11.411
45.97588104735473 11.3583
46.00006683541565 11.3452
46.02425479047904 11.3035
46.04844491420549 11.3369
46.0728262191024 11.2973
46.09702070211635 11.3011
46.12121735879483 11.2602
46.14541619080294 11.2335
46.169806278764455 11.2357
46.194009483459034 11.2178
46.21821486849841 11.1828
46.24242243555223 11.1657
46.266821333570014 11.1191
46.29103328674601 11.0799
46.31524742696538 11.0936
46.33946375590237 11.0735
46.36387149104216 11.0657
46.38809221957392 11.0101
46.41231514186606 11.0032
46.436540259597464 11.023
46.460956858999374 10.9659
46.48518638983522 10.9552
46.509418121166966 10.9895
46.533652054678114 10.9042
46.55807754555709 10.8291
46.58231590571962 10.8832
46.60655647313217 10.8843
46.630988654873654 10.8516
46.655233659129024 10.7995
46.67948087571551 10.7842
46.70373030632484 10.7606
46.72817142736393 10.7333
46.752425308428684 10.7078
46.77668140861147 10.7445
46.80093972960865 10.6613
46.82538981736788 10.6713
46.849652602470904 10.6479
46.87391761349769 10.6682
46.8981848521493 10.6315
46.9226439341274 10.6218
46.946915650573224 10.5951
46.97118959976749 10.565999999999999
46.99546578341598 10.4791
47.019933887188216 10.4686
47.04421456235744 10.493
47.06849747711879 10.4579
47.09278263318286 10.4356
47.11725978640143 10.4341
47.14154944775105 10.4243
47.165841355555656 10.3614
47.1901355115306 10.3883
47.214621741924994 10.3735
47.23892041698887 10.38
47.26322134538975 10.3122
47.28771440635075 10.302999999999999
47.31201986422527 10.3171
47.33632758061436 10.2695
47.360637557241866 10.2142
47.38513974410611 10.2327
47.40945426407847 10.1989
47.43377104948137 10.1632
47.45809010204344 10.1566
47.48260144275502 10.1646
47.506925052572285 10.118
47.53125093475548 10.1228
47.55557909103813 10.0817
47.58009961361992 10.0573
47.60443234110732 10.0074
47.62876734791564 9.9925
47.65310463578333 9.9927
47.6776343683373 9.990260000000001
47.7019762413987 9.92901
47.72632040075572 9.92326
47.75066684815169 9.90584
47.77520581885936 9.90279
47.799556865477655 9.88454
47.823910205386 9.86993
47.84826584033272 9.86622
47.87281407745551 9.84045
47.89717432569297 9.84061
47.92153687423484 9.787560000000001
47.94609208429692 9.7579
47.97045925671401 9.80614
47.99482873471275 9.72005
48.01920052005013 9.73098
48.04376504619224 9.74888
48.068141469543484 9.73043
48.09252020552573 9.70391
48.11690125590099 9.69402
48.1414751266064 9.63593
48.16586082917454 9.6513
48.19024885144316 9.639560000000001
48.2146391951793 9.60088
48.239222439012764 9.588239999999999
48.26361744916137 9.55325
48.28801478610016 9.61252
48.31241445160131 9.54646
48.337007097209366 9.52507
48.36141144338331 9.514710000000001
48.38581812345755 9.5064
48.41022713920929 9.49657
48.434829215320704 9.43483
48.45924292604658 9.433110000000001
48.48365897780325 9.4444
48.50807737237308 9.41873
48.532688907799276 9.3793
48.55711201168574 9.40921
48.581537463754074 9.35316
48.60615611725119 9.31502
48.63058628942721 9.315
48.65501881516546 9.277439999999999
48.6794536962573 9.273010000000001
48.70408185970339 9.25217
48.72852147531801 9.24115
48.75296345168211 9.203439999999999
48.77740779059232 9.18442
48.80204549302823 9.19305
48.82649458091802 9.18865
48.85094603676547 9.16334
48.87539986237231 9.13613
48.90004713292306 9.1115
48.92450572200832 9.10807
48.94896668628025 9.09501
48.97343002754588 9.07415
48.99808689542115 9.07085
49.02255501470614 9.08516
49.04702551642794 9.03098
49.0714984023988 9.01025
49.096164896893235 8.97231
49.120642575466796 8.977319999999999
49.145122643748394 8.95919
49.16960510355558 8.96006
49.19428125404938 8.91012
49.2187685210852 8.92625
49.243258185121555 8.88642
49.26794160167084 8.86801
49.2924360839405 8.82715
49.31693296869764 8.8277
49.34143225776915 8.8018
49.36612538195438 8.8037
49.39062950396021 8.76978
49.41513603578346 8.72666
49.4396449792564 8.75177
49.46434784069503 8.75346
49.488861631846454 8.71689
49.513377840166804 8.69849
49.537896467493745 8.64817
49.56260909589029 8.61518
49.587132585683285 8.6212
49.611658500018365 8.622110000000001
49.636186840738596 8.58712
49.66090926588511 8.57237
49.685442483902584 8.55771
49.70997813385706 8.54625
49.734516217597076 8.53078
49.75924846937352 8.52603
49.7837914452858 8.51261
49.80833686055187 8.4738
49.83288471702571 8.459710000000001
49.85762682540054 8.47824
49.882179588965734 8.47079
49.9067347993235 8.45345
49.93129245833333 8.43685
49.95604445336378 8.4088
49.98060703442832 8.34473
50.005172069746266 8.366430000000001
50.02993150438364 8.34981
50.05450147301533 8.34225
50.07907390151433 8.30446
50.10364879174981 8.31268
50.12841816587289 8.29068
50.1529980044635 8.318
50.17758031042124 8.26042
50.20216508562089 8.260489999999999
50.22694442953363 8.22402
50.25153416817468 8.20245
50.27612638170508 8.199110000000001
50.300721072005196 8.17713
50.325510416102105 8.15587
50.350110084975064 8.17042
50.37471223628208 8.15366
50.39931687190919 8.1086
50.424116246675766 8.08357
50.44872587605249 8.07048
50.47333799543065 8.08778
50.49795260670191 8.04531
50.52276204271512 8.04528
50.54738166295838 8.008
50.57200378079314 8.03985
50.596628398116835 8.00295
50.62144792604559 7.9474100000000005
50.646077567609396 7.96577
50.670709714377715 7.951789999999999
50.69553683636198 7.93934
50.72017401885922 7.91547
50.7448137122895 7.87978
50.76945591856022 7.88779
50.79429318636823 7.849810000000001
50.818940443716784 7.886819999999999
50.84359021965163 7.8579300000000005
50.868242516085964 7.82798
50.893089960641895 7.78912
50.917747323549435 7.78119
50.94240721271973 7.77383
50.96706963007175 7.7436300000000005
50.99192728239342 7.741569999999999
51.01659478166073 7.71943
51.04126481489051 7.7069399999999995
51.06593738400761 7.69815
51.090805275207074 7.6738100000000005
51.11548294172845 7.6742
51.14016314993547 7.68111
51.164845901758845 7.650580000000001
51.18972406304274 7.624510000000001
51.21441192780656 7.62275
51.23910234200271 7.572080000000001
51.2637953075678 7.55438
51.288683770237945 7.554989999999999
51.31338186432707 7.544169999999999
51.33808251561888 7.5357199999999995
51.362978729967345 7.53187
51.387684521509755 7.517869999999999
51.41239287610203 7.49096
51.437103795691165 7.44384
51.46201036644977 7.43202
51.486726441956634 7.4333800000000005
51.51144508832545 7.44292
51.536166307509156 7.4165399999999995
51.56108326624387 7.397469999999999
51.58580965706056 7.3681399999999995
51.61053862657523 7.366510000000001
51.635270176746864 7.33562
51.66019755512065 7.33484
51.68493429268881 7.30863
51.70967361681515 7.291869999999999
51.73441552946465 7.255780000000001
51.759353359237934 7.316039999999999
51.7841004750961 7.285710000000001
51.80885018539685 7.247389999999999
51.833602492111254 7.23912
51.8585508051424 7.209569999999999
51.883308330926425 7.19566
51.90806845906181 7.169560000000001
51.932831191525715 7.20299
51.95779001977161 7.151089999999999
51.98255798721516 7.14015
52.00732856494335 7.11728
52.03229530577543 7.11298
52.057071130455945 7.06968
52.081849571391054 7.08868
52.106630630568695 7.08011
52.13160794279417 7.027360000000001
52.15639426492067 7.0181
52.18118321127822 7.025180000000001
52.205974783860896 7.00568
52.23096269971011 6.94735
52.255759551287994 6.9821100000000005
52.280559035098186 6.94493
52.30536115314103 6.92439
52.33035970494467 6.9356
52.35516711807904 6.91402
52.37997717147198 6.8957
52.40478986713005 6.90296
52.42979908731974 6.84318
52.454617094216 6.87534
52.47943774942214 6.84514
52.50426105495102 6.863810000000001
52.529280976059844 6.7941199999999995
52.554109609024096 6.77434
52.57894089837482 6.7594899999999996
52.60377484613117 6.756710000000001
52.62880550079408 6.75435
52.65364479223379 6.70695
52.67848674816189 6.709789999999999
52.70352547971946 6.6980699999999995
52.72837279155837 6.70775
52.753222773982785 6.6770000000000005
52.778075429022984 6.659839999999999
52.80312495150885 6.66597
52.827982978797436 6.65177
52.85284368481815 6.601710000000001
52.87770707160767 6.612760000000001
52.90276741793998 6.59673
52.92763619336701 6.6012
52.952507655698504 6.5485
52.977381806977576 6.58012
53.00245301017842 6.57395
53.02733256653592 6.51403
53.052214817996074 6.51239
53.077099766608484 6.52942
53.102181859804446 6.496090000000001
53.127072229988265 6.52961
53.15196530349892 6.49408
53.17686108239249 6.449409999999999
53.20195409881522 6.47788
53.22685531582556 6.4013
53.25175924441303 6.4141699999999995
53.27666588664027 6.42422
53.30176985962693 6.38623
53.3266819565689 6.33869
53.35159677336455 6.33235
53.376514312083096 6.33933
53.40162927507703 6.34847
53.42655228516116 6.32102
53.45147802340193 6.32355
53.47660125628886 6.30525
53.50153247842639 6.26319
53.52646643496923 6.28885
53.55140312799818 6.23768
53.576537409691696 6.22671
53.60147960336152 6.21379
53.626424539786164 6.21335
53.65137222105307 6.18956
53.67651758529126 6.18365
53.70147078399681 6.14621
53.72642673383343 6.12095
53.75138543689533 6.12184
53.776541917524526 6.12847
53.801506154876755 6.09932
53.826473151763246 6.09205
53.851442910284916 6.07806
53.87661054126026 6.072430000000001
53.9015858509782 6.07632
53.92656392866066 6.05007
53.95154477641532 6.03345
53.976723591801296 6.043069999999999
54.00171000771266 6.01299
54.02669920004598 6.0022400000000005
54.051691170915745 6.01457
54.076881204886796 5.97082
54.101878760928514 5.9576199999999995
54.12687910187696 5.9428
54.152077577768296 5.953180000000001
54.1770835166946 5.92638
54.20209224691339 5.90121
54.22710377055121 5.8781
54.25231352511594 5.86644
54.27733066384342 5.824990000000001
54.30235060239643 5.83176
54.32737334290836 5.84881
54.35259441062629 5.804869999999999
54.377622783395324 5.75623
54.40265396455061 5.8093
54.42768795623251 5.76508
54.45292037169559 5.75651
54.477960012857906 5.73635
54.50300247099511 5.76999
54.52804774825457 5.69796
54.55329154616743 5.65294
54.57834249018678 5.65073
54.6033962597977 5.6102300000000005
54.6284528571545 5.64712
54.653708072335164 5.5657
54.67877035378786 5.55682
54.70383546947698 5.5330900000000005
54.72890342156389 5.51874
54.7541700889442 5.48267
54.77924374251975 5.48149
54.8043202390049 5.46408
54.82959552413022 5.42362
54.8546777351945 5.416119999999999
54.87976279569621 5.42897
54.90485070780914 5.44977
54.930137506558005 5.37155
54.95523115074295 5.38047
54.98032765308844 5.35626
55.005427015775496 5.32572
55.03072536339621 5.30819
55.05583047570572 5.29624
55.080938454927676 5.2744
55.10604930325027 5.247269999999999
55.131359235107396 5.2556199999999995
55.15647585066083 5.18335
55.181595341907496 5.165109999999999
55.20671771104285 5.16875
55.232039262617704 5.17175
55.25716741665048 5.07457
55.28229845518636 5.12805
55.30743238042802 5.03921
55.33276558731939 5.03224
55.357905315183636 5.03775
55.383047936390035 4.97917
55.40819345314859 5.01347
55.433538351073295 5.01971
55.458689688238415 4.9716
55.483843927614096 4.89661
55.509197623043605 4.89542
55.53435769621134 4.80641
55.55952067826466 4.83784
55.5846865714265 4.857069999999999
55.61005202069737 4.827030000000001
55.63522376553902 4.80096
55.66039842818645 4.78569
55.68557601087004 4.72999
55.7109532500271 4.67924
55.73613670233794 4.72499
