TT I
1.2716486653135266 7.10548
1.2939594142134223 6.8975100000000005
1.3162702121660406 6.69755
1.3385810600174564 6.8696600000000005
1.3608919586137629 7.028980000000001
1.383202908801069 6.28431
1.405513911425503 6.30506
1.4278249673332093 6.17708
1.4501343378461518 5.966080000000001
1.4724455028545926 6.15225
1.4947567236847858 6.03782
1.517068001182951 5.96551
1.5393793361953272 6.22696
1.5616907295681737 6.34929
1.5840021821477681 5.61452
1.60631369478041 5.3605599999999995
1.6286252683124185 5.45657
1.6509369035901333 5.657430000000001
1.6732468618895553 5.27536
1.695558623192809 5.24415
1.7178704487808514 4.9191
1.7401823395001077 5.16336
1.7625012545597203 4.91512
1.7848028405262486 4.46893
1.8071218901122095 4.97546
1.8294236121921872 4.71338
1.8517427996910911 5.34371
1.8740620574440425 4.92475
1.8963639900671978 4.49676
1.9186833908139995 4.27115
1.9409854680117449 4.56182
1.9633050151394713 4.3301
1.9856246367570705 4.53489
2.0079269371922672 4.31236
2.03024671027244 4.88507
2.0525491637446027 4.3943
2.074869091674931 4.25584
2.097171701569106 4.52321
2.1194917877373847 4.96929
2.141811954326636 4.49801
2.164114805233074 4.75971
2.186435135143035 5.772480000000001
2.208738150935709 12.5462
2.231058647554722 23.8402
2.2533792288321184 17.907
2.275682498336085 8.920919999999999
2.298003251406138 5.5985
2.3203066942619714 5.1443
2.3426276225136022 5.24765
2.3649486396617507 5.16075
2.387252348930071 5.5041
2.4095735463442893 5.64182
2.4318774374315884 5.89009
2.4541988185014043 6.05063
2.476502894794693 6.82763
2.498824462909887 6.60393
2.521146125856138 6.86218
2.5434504863470337 7.24136
2.5657723414244717 7.30381
2.588076895590662 7.87825
2.610398946189713 8.19098
2.6327210958598384 7.73765
2.6550259469304716 7.564439999999999
2.6773482972090137 7.929139999999999
2.6996533504259 8.329189999999999
2.7219759047039602 8.25596
2.744298562293959 8.2806
2.7666039251246595 8.903880000000001
2.7889267918020164 8.11711
2.8112323652516555 7.552630000000001
2.833555444408179 8.36373
2.8558786311183852 8.43477
2.8781845268938557 8.426860000000001
2.9005079311721484 9.05321
2.9228140460410397 9.01712
2.9451376712799635 9.44629
2.967444008632326 9.50859
2.9897678582247247 10.1532
3.0120918213106695 10.4218
3.0343984987899373 11.1893
3.0567226913198637 11.3489
3.079029599759726 11.2733
3.101354025127254 11.9006
3.123678568232338 12.7053
3.145985829517914 12.9216
3.16831061055229 13.6888
3.1906181112775593 13.7254
3.212943133635653 14.9369
3.2352682779763207 15.4059
3.2575761442691227 15.2787
3.2799015350264273 15.8963
3.302209649240067 16.2199
3.3245352898092655 16.4967
3.3468436553365257 17.3113
3.369169549113219 17.7263
3.3914955708171384 19.0691
3.413804319727358 19.6348
3.4361305997334863 19.4487
3.4584396084414553 19.7164
3.4807661501462652 20.3929
3.503092824025881 20.8224
3.5254022288463154 21.1205
3.5477291695206588 21.7258
3.5700388426251948 22.2373
3.5923660534916446 23.485
3.6146934007816114 36.5647
3.637003482731501 78.7675
3.6593311053109985 85.2707
3.681641464033634 51.0607
3.7039693653009733 30.0917
3.726297407241705 26.3214
3.7486081875460804 25.415
3.7709365132734978 25.9238
3.793247578841633 26.5288
3.8155761917550093 26.4951
3.8378875459837216 27.1312
3.8602164494827234 27.6097
3.882545499606844 28.3522
3.9048572932539183 28.9697
3.9271866390645718 29.2985
3.9494987298666713 29.6637
3.971828374764527 30.4369
3.9941581705403255 30.7472
4.016470713506008 31.5402
4.038800813471445 32.4547
4.061113662089144 32.7888
4.0834440696459176 33.3708
4.105774632334751 34.2242
4.128087945865126 34.7364
4.150418821249301 35.894
4.172732448931298 37.2885
4.195063640413578 38.7909
4.2173775856475215 42.0516
4.239709096631102 69.9229
4.262040768704612 204.012
4.284355196706267 267.98400000000004
4.306687193387355 174.46
4.329001947444346 73.6262
4.35133427213731 47.3542
4.373666762177566 44.2179
4.395982011761091 44.6755
4.418314834921175 45.8976
4.44063041906622 52.6653
4.4629635787515625 62.0623
4.4852969080429785 61.4038
4.5076130004776225 53.494
4.529946671403969 50.1068
4.552263106909177 50.4927
4.574597122877047 51.4784
4.596931312711224 52.4152
4.619248269273446 53.6159
4.6415828092605835 54.5715
4.663900117405352 55.6646
4.686235010953232 57.0784
4.708552674085913 58.8006
4.730887924602802 60.0544
4.753223354952695 61.0289
4.775541557023902 63.0705
4.797877349456786 64.6629
4.820195915032126 66.6725
4.842532072957498 68.1589
4.864868414979744 69.8887
4.88718753227192 72.2878
4.909524244902505 74.2511
4.931843734218147 75.8499
4.954180820867835 78.4699
4.976518095879839 82.01
4.998838149695359 84.9821
5.021175803844231 88.6247
5.043496238205739 92.2825
5.065834274903528 96.645
5.088172504230693 101.96799999999999
5.1104935158799565 108.536
5.132832132875765 129.89700000000002
5.155153533596801 171.362
5.1774925416746225 210.537
5.199814334878411 405.532
5.2221537374521505 1173.62
5.244493338631803 3110.85
5.266815727034316 7868.85
5.289155727832427 12278.8
5.311478517248165 8752.03
5.333818921080011 3034.14
5.356159527788849 625.9780000000001
5.3784829252032536 196.72099999999998
5.400823940070432 147.248
5.423147747031976 130.623
5.445489173474152 120.259
5.467830807066149 114.39299999999999
5.490155234831516 110.135
5.512497285125229 106.684
5.534822130975162 105.41799999999999
5.557164601388673 103.194
5.579489868738879 100.47200000000001
5.601832762690846 99.9158
5.6241758697774475 98.3575
5.646501775867269 97.7495
5.668845311622074 96.3713
5.691171647754637 95.3855
5.713515615597765 94.4335
5.735859800852677 93.2528
5.758186788542988 92.4916
5.780531411018185 92.7832
5.802858837297399 92.1037
5.825203900414495 92.3967
5.8475491852224 92.4975
5.869877275883075 93.7192
5.892223006467101 94.9942
5.914551544266608 96.7405
5.936897724049891 99.9338
5.959244129804903 106.63
5.981573344815301 129.357
6.0039202049061 238.282
6.026249875609095 516.396
6.04859719346037 1074.8
6.070927323278297 2305.61
6.093275102315365 4365.05
6.115623113320588 5481.48
6.137953938319995 3418.56
6.160302415650845 1088.91
6.182633708324452 258.348
6.2049826554078376 117.81700000000001
6.227331838745022 94.3535
6.249663839443684 86.5528
6.27201349767565 83.2217
6.294345974611799 87.9462
6.316696111167083 96.8521
6.339046488263839 91.4205
6.361379686074702 78.7617
6.383730546639482 72.1543
6.406064229255215 69.4003
6.428415576718203 68.7587
6.450749747566656 67.9669
6.47310158535871 66.2054
6.495453669698332 65.7572
6.517788579421056 64.9766
6.540141159237969 64.0441
6.562476565766648 63.2013
6.5848296444934045 63.177
6.607182974060425 62.7094
6.6295191323281015 62.8676
6.651872965955752 65.8184
6.6742096296068985 88.3198
6.6965639707294615 126.501
6.71891856698715 125.426
6.741255995248479 88.4376
6.763611104154477 66.4955
6.785949046381137 60.3909
6.808304671371482 58.9952
6.8306605557940046 58.4384
6.852999275508618 57.7194
6.875355681171544 57.5047
6.897694923437771 57.3755
6.92005185377892 57.3008
6.9423916220322655 56.955
6.964749080490181 56.2347
6.987106804399774 56.0428
7.009447368180821 56.3794
7.031805625367033 55.8916
7.054146723727803 56.0986
7.076505517631004 55.4868
7.098864581288365 55.6412
7.121206488070854 55.5168
7.143566093607822 55.1379
7.165908543567245 55.2829
7.188268694426048 55.5602
7.2106291193438095 55.5082
7.232972390625943 57.0199
7.255333366030969 67.771
7.277677189091925 112.255
7.300038718428332 151.844
7.322400526130865 130.399
7.344745183422596 83.5545
7.367107550224791 60.5932
7.389452767901992 56.254
7.411815697249891 55.5381
7.434161478756298 55.0119
7.456524974096713 54.549
7.478888753837185 54.6275
7.501235387657368 55.213
7.523599738562711 55.0092
7.545946944825532 55.4601
7.568311870344528 55.2548
7.5906770845765665 55.5654
7.613025156078678 56.9276
7.635390950099687 58.0101
7.657739602662809 57.4339
7.680105979923558 56.1334
7.702472650212829 56.5728
7.724822180948224 56.4177
7.747189439655568 56.2729
7.769539560075357 56.5861
7.791907410653562 57.2628
7.81425812420825 57.073
7.836626570110925 57.1225
7.858995315087906 58.0718
7.881346924933401 58.3544
7.903716270417482 58.7249
7.926068482028405 58.934
7.948438431475253 59.5067
7.9708086843180235 60.1564
7.993161805171116 61.0727
8.015532667162402 61.0261
8.037886398416653 62.3203
8.060257873014221 63.3005
8.082629655331942 63.2816
8.104984308787587 64.2663
8.127356708900503 67.3476
8.149711981398308 72.1105
8.172085002766314 74.4309
8.194458336181368 71.5224
8.216814543847752 69.6968
8.23918850371002 70.2089
8.26154533906492 71.2056
8.283919928836452 72.6463
8.306277395339652 73.8184
8.328652618483376 75.1881
8.351028159736202 76.9566
8.373386579575245 79.4133
8.395762759396959 81.3808
8.418121819038275 86.0939
8.440498640894003 98.0781
8.462875785192262 111.37200000000001
8.485235811156207 128.136
8.507613602688501 179.268
8.529974277114228 279.57099999999997
8.552352719347912 425.68699999999995
8.574731488360351 701.308
8.59709314210385 1221.37
8.619472567021075 1868.95
8.64183487789147 2218.13
8.664214962183097 1772.41
8.686577933647762 934.132
8.708958680784317 369.097
8.731339760774953 168.90900000000002
8.753703729764451 113.155
8.77608547780821 100.335
8.798450116065078 96.2969
8.820832535634787 93.102
8.843215292401656 91.5432
8.865580941199045 89.9885
8.887964374703538 89.3667
8.910330701447199 89.8816
8.932714815164482 91.4472
8.955099270424924 91.0727
8.977466620733543 88.2272
8.999851761421976 86.2354
9.022219798361645 84.2341
9.04460562795561 83.5971
9.066991803441677 83.64200000000001
9.089360876979615 83.5475
9.111747746589993 83.1684
9.13411751544971 82.6082
9.156505082664324 82.1326
9.178875550323522 82.7321
9.20126381862328 83.0347
9.223652438908596 83.3172
9.246023961427412 83.2496
9.26841328802173 82.4188
9.290785518039224 82.4069
9.313175554425882 82.9991
9.335565947154315 83.0879
9.357939245086508 83.4709
9.380330352834827 83.6656
9.40270436697103 83.82600000000001
9.425096193225055 83.62799999999999
9.447488380180165 84.4286
9.469863475295412 84.6368
9.492256385987508 85.4295
9.514632206018318 86.0962
9.537025843935714 86.1122
9.559402392368193 86.6041
9.581796761000229 87.8106
9.604191496441521 88.8879
9.626569144158516 92.1389
9.648964615551032 96.035
9.671343000390081 97.3153
9.693739211225699 96.01100000000001
9.716135793237463 94.1115
9.738515290448102 94.1052
9.760912617143402 94.7889
9.783292860202891 96.2225
9.805690935076182 97.2203
9.828089385495742 98.2685
9.850470754023561 100.697
9.872869957865444 108.13799999999999
9.89525208097539 121.411
9.917652041736662 132.553
9.940052382417589 134.815
9.962435644102392 147.792
9.984836746950979 191.918
10.007220771957746 263.322
10.029622640473708 369.62800000000004
10.052007432299963 552.9680000000001
10.074410069984072 845.307
10.096813093716005 1277.57
10.119199042482517 1715.32
10.141602840636468 1896.44
10.163989564971628 1559.88
10.186394141051062 880.084
10.208799107559706 382.352
10.231187001965623 182.368
10.253592751657669 125.64399999999999
10.275981430388155 114.111
10.298387966769793 113.302
10.320794897965431 114.681
10.343184759907361 113.499
10.36559248305461 108.538
10.387983138083852 105.571
10.410391656691655 109.823
10.432800574501677 123.044
10.455192425893369 141.183
10.47760214443012 168.085
10.499994797678786 212.41099999999997
10.522405320453982 292.474
10.54479877906917 408.957
10.567210109595656 516.879
10.5896218454736 562.632
10.612016518879773 499.80199999999996
10.634429067781074 339.44800000000004
10.656824555333241 190.668
10.679237920773568 119.09200000000001
10.701651695961992 95.6543
10.724048411481384 89.8883
10.746463008485165 87.0789
10.768860546937125 85.3209
10.791275969274796 83.54
10.81369180576079 82.4667
10.836090585366925 81.6639
10.858507252467449 80.1527
10.88090686379991 79.3028
10.903324365036394 78.7928
10.925724811614439 78.4694
10.948143150509463 79.4512
10.970561909719066 78.6788
10.992963615930844 76.8369
11.015383218085756 75.2776
11.037785768347074 73.6663
11.06020621697282 73.2935
11.082627090322113 72.7455
11.105030913430326 72.3601
11.12745263854165 72.9818
11.149857314510728 75.7362
11.172279894912576 80.4563
11.194702904450653 80.7337
11.217108866490921 77.1996
11.239532736615194 73.439
11.26193956033512 71.6433
11.284364294577085 70.2745
11.306789462371718 68.4516
11.329197585398376 67.3754
11.351623622610898 67.4544
11.37403261614354 66.7289
11.396459526308487 66.3869
11.418869393879497 65.8938
11.441297180532617 65.8455
11.463725406927658 65.3416
11.486136592353875 65.2972
11.508565700543707 65.627
11.530977768845315 67.2477
11.553407762368774 67.7958
11.575838200059769 67.0828
11.598251599479612 65.3627
11.620682927815501 64.4346
11.64309721895548 63.901
11.665529441478206 63.5445
11.687962112597958 63.5024
11.710377748130886 63.4962
11.732811318753434 63.3427
11.755227854859067 63.001000000000005
11.777662328529495 63.2671
11.800079768750786 63.0955
11.822515149015453 62.8495
11.844950984084935 63.1996
11.867369787303163 62.856
11.889806534289491 62.8274
11.912226250487029 63.4434
11.934663912939751 63.4626
11.9571020346363 63.2474
11.979523127133968 63.5483
12.001962169624331 64.3847
12.024384183972964 65.543
12.046824150809913 69.0666
12.069264581333726 74.6684
12.091687985297767 80.9603
12.11412934550045 90.8635
12.136553680195208 105.58200000000001
12.158995973632788 127.64
12.181438735204349 153.971
12.20386447284199 182.865
12.226308172985636 202.86900000000003
12.24873485024193 198.046
12.271179492516982 160.71200000000002
12.293607112949127 123.15799999999999
12.316052700916226 92.6494
12.338498763250042 77.0799
12.360927805303868 69.4599
12.383374818673879 66.1664
12.405804812803074 64.7267
12.428252780773262 64.8276
12.45070122756722 64.6614
12.473132656675375 64.5198
12.49558206341869 64.8126
12.518014453510101 64.9922
12.540464823770117 64.898
12.562915677315177 65.1986
12.58534951575545 65.9628
12.607801338171472 67.6243
12.630236146511358 72.3119
12.652688941369085 76.2049
12.675124723177234 76.3516
12.697578494048786 73.6556
12.720032754458185 69.6866
12.742470003354093 68.4577
12.764925245138771 68.5385
12.787363476431278 68.4316
12.809819703166806 68.6314
12.83227642391173 69.4435
12.854716135692716 70.0947
12.877173846755147 71.4006
12.899614549869717 71.6176
12.9220732548287 72.4713
12.94453245827299 73.0292
12.966974655289818 73.9587
12.989434858002571 74.6997
13.011878055298721 75.4814
13.034339260862497 76.5538
13.056800969391883 77.9118
13.079245674017244 79.9532
13.101708390774869 82.6133
13.12415410463411 91.1921
13.146617833206086 103.845
13.169064559883248 116.266
13.191529303857127 131.655
13.213994557076367 155.559
13.236442809902437 193.053
13.258909083908291 246.24099999999999
13.28135835851934 305.722
13.30382565690295 372.62
13.326293469022952 422.79900000000004
13.348744283242008 426.156
13.371213125129904 354.32099999999997
13.39366497011003 257.467
13.416134845360597 170.896
13.438605238843131 121.90299999999999
13.46105863690397 106.73
13.483530069144786 108.652
13.505984506951902 114.259
13.528456981549432 124.839
13.550929978879088 140.96200000000002
13.573385983253365 165.516
13.595860028340867 204.59599999999998
13.618317081455832 254.99900000000002
13.64079217790333 309.961
13.663250283359057 352.709
13.685726434770173 370.55199999999996
13.708203115221277 339.411
13.730662806148091 254.873
13.75314054697177 181.139
13.775601299246777 126.62799999999999
13.798080104050406 96.8585
13.820559442405358 85.4858
13.843021793671388 82.3998
13.865502201420897 80.6936
13.887965623051947 80.0296
13.910447103807167 79.0427
13.932929122629764 77.3378
13.955394156785959 76.88600000000001
13.977877254034569 76.2004
14.000343367582113 75.3245
14.022827546871707 74.9164
14.045294743423524 74.2191
14.06778000837062 73.442
14.090265817715476 73.3912
14.112734645763819 73.1504
14.13522154619454 72.6044
14.157691466286913 72.6511
14.180179461423874 72.5099
14.202668005486178 71.968
14.22513957064374 71.3365
14.247629214846473 71.0659
14.270101881097517 70.6395
14.29259262906496 71.012
14.315083930490205 71.8502
14.337558255389705 71.6912
14.360050666019726 71.5364
14.382526101071944 70.5903
14.405019624534942 69.6472
14.427513705993134 69.3479
14.449990813291825 69.2285
14.47248601302899 69.0818
14.49496423954951 69.1955
14.517460561197822 69.594
14.539939910570322 69.1378
14.562437357763558 69.6039
14.58493536931253 70.4803
14.607416409993311 71.1939
14.62991555254159 71.9762
14.652397725157423 71.805
14.674898002342799 71.1497
14.697398848433282 70.9771
14.719882725991326 71.7801
14.74238471217934 72.9647
14.764869730765593 76.6029
14.787372860692983 80.7491
14.809876564079925 85.3686
14.83236330125751 91.6636
14.854868153850365 100.78299999999999
14.877356041159485 114.32799999999999
14.899862046604186 132.967
14.922351087688757 156.887
14.944858249632887 184.05599999999998
14.967365991421232 208.856
14.989856770231246 222.79
15.012365673994204 217.947
15.03485761569738 185.604
15.05736768508665 145.488
15.07987833888692 111.52600000000001
15.102372032001655 88.6047
15.124883856909658 76.73899999999999
15.14737872204565 72.3562
15.169891721717274 70.8782
15.192405310371893 70.9004
15.214901940621196 70.9745
15.237416709527137 71.0088
15.259914520936249 71.2264
15.282430473753607 70.3711
15.304947020131227 69.164
15.327446610371178 68.2803
15.349964346154254 67.6083
15.372465126703139 67.4337
15.394984055556009 67.188
15.417486030076159 66.6249
15.44000615566487 66.3755
15.462526881230803 66.3422
15.485030653812652 66.6158
15.507552581617434 66.8026
15.530057557334603 66.789
15.55258069104857 66.852
15.575104429329837 66.7687
15.597611216864632 66.3673
15.620136166564563 66.7528
15.6426441664095 67.8435
15.665170331202765 70.5493
15.687697105158826 74.0784
15.710206930593545 77.5712
15.732734925158933 81.7879
15.755245972089478 88.6026
15.77777519094324 97.8776
15.800287463046663 110.916
15.822817909869592 129.588
15.84534897229804 149.999
15.867863089299354 171.55200000000002
15.890395385222186 188.278
15.912910736597423 194.15
15.935444269699861 180.513
15.957978423016485 154.088
15.980495633101265 120.82700000000001
16.003031029129367 94.6395
16.02554948280019 75.8919
16.048086125229432 67.5625
16.070623392487107 65.3019
16.09314371869582 64.2745
16.11568223789321 63.6118
16.13820381691126 62.8602
16.160743591742527 61.8658
16.183283996022084 61.0767
16.205807461423195 59.9537
16.228349126881973 59.1322
16.25087385432698 59.176
16.27341678466365 58.7147
16.29594277784926 58.861999999999995
16.31848697676433 58.8893
16.341031811604868 59.0717
16.36355971058487 59.3707
16.3861058195587 59.0736
16.40863499352978 57.8972
16.431182380342005 57.0983
16.453730407713202 56.591
16.476261501364792 56.4387
16.498810812136167 55.9644
16.52134319004079 55.9719
16.54389378792203 55.8852
16.566445031001553 55.9214
16.588979342490088 55.6234
16.61153187824822 55.4205
16.634067483263312 55.2467
16.656621315414416 55.0937
16.679175797408888 54.9624
16.701713349928728 55.0855
16.72426913389191 55.4292
16.74680798922351 55.3265
16.76936507887444 55.1488
16.791905240734874 55.2329
16.814463639794468 55.3112
16.837022695210294 55.2772
16.859564824093756 55.6218
16.882125194503903 56.2843
16.904668639217885 56.7668
16.927230328348003 56.8307
16.949792678493612 57.2104
16.972338104193863 56.4595
16.994901778652235 55.9759
17.017448529496576 56.0649
17.040013531998152 56.2095
17.06257920018044 56.9395
17.0851279459922 57.6336
17.107694947817667 58.555
17.130245028099072 59.3332
17.15281336730298 60.606
17.17536478578733 62.4082
17.19793446610687 64.8355
17.220504818648422 67.5279
17.243058251703697 70.6864
17.265629950971032 75.0605
17.288184731571736 79.1144
17.310757781306908 82.9912
17.33333150794385 84.0788
17.355888317140174 81.8841
17.37846339986244 77.7241
17.401021565958885 70.9572
17.42359800851343 66.0369
17.44617513265564 62.1659
17.468735341390783 60.2929
17.491261035594565 59.5676
17.51396340099364 59.5771
17.536490463869136 59.5435
17.559018209820174 59.5581
17.58154663977963 59.6253
17.604251766089718 59.6513
17.626781572227713 59.8809
17.64931206518155 60.2776
17.671843245885103 60.9021
17.69455114821572 61.0563
17.717083712612634 61.2598
17.739616967569667 61.4144
17.762150914021706 61.7979
17.78486160749854 61.8868
17.807396945166804 62.5781
17.829932977143503 63.6337
17.85246970436452 65.4476
17.875183204129467 67.4302
17.897721330097664 69.3257
17.920260154126645 71.8815
17.942799677153296 75.2443
17.9655159983646 78.8028
17.988056927677544 84.3042
18.010598558807683 92.3371
18.033140892692916 101.551
18.05586005052525 111.88799999999999
18.07840379824407 123.088
18.10094825154059 133.9
18.12366954819864 141.562
18.146215420998306 142.65
18.16876200220057 132.63299999999998
18.191309292745153 117.23899999999999
18.214033452627167 102.98299999999999
18.236582170236648 91.6103
18.259131600016456 86.9168
18.281681742907335 87.4347
18.304408781233683 91.6161
18.32696035875955 96.459
18.349512652227624 101.22200000000001
18.372065662579683 105.555
18.394795594587553 106.679
18.41735004715306 102.83200000000001
18.43990521943684 95.316
18.46246111238171 86.081
18.485193953325208 77.2025
18.507751296070428 69.9297
18.530309362314178 65.95100000000001
18.552868153000343 63.7026
18.57560391815056 62.4837
18.59816416623245 62.1875
18.620725141597372 61.7133
18.643286845190268 61.2285
18.666025549835414 60.9164
18.688588718427933 60.246
18.711152618092243 60.1366
18.73389353884365 59.8851
18.75645890921984 59.4201
18.77902501351406 59.0652
18.801591852673102 58.8702
18.824335739722738 58.50899999999999
18.846904057212626 58.5156
18.8694731124168 58.2765
18.89204290628315 58.006
18.914789774966803 58.036
18.937361054791623 57.7424
18.959933076131318 57.6347
18.982505839934877 57.4
19.00525570560582 57.6442
19.027829963004184 57.1001
19.05040496572238 57.2985
19.072980714710468 57.3027
19.095733592739563 57.6477
19.11831084296757 58.0067
19.140888842324735 58.3761
19.16346759176222 58.7732
19.18622349753803 59.3116
19.208803755869358 60.0219
19.231384767143577 61.4172
19.253966532312948 62.9339
19.276725481241822 64.8181
19.29930876296784 67.3514
19.3218928014549 70.3343
19.34465404436217 73.1851
19.36723960516257 75.4117
19.389825925592426 76.3984
19.412413006605938 75.3898
19.43517731967805 72.2333
19.457765930683355 67.633
19.48035530514408 63.0389
19.50294544401556 59.5252
19.525712842708348 56.898
19.54830451925909 55.4391
19.570896963095727 54.3982
19.593490175174704 54.1391
19.616260674962184 54.2977
19.638855432416964 54.0039
19.661450960992624 54.2512
19.68404726164677 53.8047
19.706820878021247 53.6917
19.729418731756834 53.9745
19.752017360452857 53.6802
19.77461676506804 53.9482
19.797393513540218 53.9551
19.819994478951667 54.2897
19.84259622316767 54.7244
19.8651987471481 55.2827
19.887978643247177 55.6435
19.91058273574792 56.062
19.933187610901943 56.9124
19.955969879466828 57.9585
19.97857632894404 59.6046
20.00118356396599 61.2363
20.023791585494575 63.1841
20.046577028914875 65.7343
20.069186632506966 67.9754
20.091797025500632 69.8072
20.114408208858933 70.5826
20.137196842715273 70.4077
20.159809615886765 68.5677
20.18242318232135 65.8346
20.20503754298326 63.8054
20.227829382875154 62.8063
20.250445341109344 62.6372
20.27306209647285 63.2571
20.29567964993108 64.3306
20.31847471147704 65.1954
20.34109387027612 65.7007
20.363713830075454 65.5901
20.386334591841646 64.2979
20.409132890679302 61.6035
20.431755265564437 58.3526
20.454378445325528 55.5475
20.477002430930366 53.6679
20.499803982716553 52.553000000000004
20.522429589228004 51.8071
20.54505600449589 51.3363
20.567683229489194 51.3028
20.590488049900088 50.9655
20.61311690359731 50.6383
20.63574656993626 50.2684
20.658553853717297 50.003
20.681185154618298 49.9243
20.703817271080066 49.9618
20.72645020407368 49.4673
20.749260783967177 49.3338
20.771895359337133 49.3272
20.794530754161617 49.3211
20.817166969412938 49.1748
20.83998086114876 49.2801
20.86261872660049 49.0611
20.885257415405402 49.1209
20.90789692853701 49.0894
20.930714147864748 48.9226
20.953355319030678 49.0963
20.97599731745334 49.1313
20.99864014410749 48.9827
21.021460706796564 49.0783
21.044105199328826 49.2951
21.06675052302631 49.4516
21.089396678865015 49.5989
21.112220600704806 49.8008
21.134868430275347 50.268
21.15751709492456 50.56399999999999
21.180166595629693 50.9473
21.202993892429635 51.1971
21.22564507473034 51.5218
21.24829709602816 51.7596
21.27112693608965 51.8627
21.293780644891275 51.7017
21.316435195634053 50.8926
21.339090589297417 50.3703
21.361923832041875 49.9942
21.384580921090404 49.2467
21.407238856007325 48.721000000000004
21.429897637773326 48.7704
21.45273429906592 48.6976
21.475394784108598 48.7339
21.498056118951983 48.5977
21.520718304578022 48.8923
21.543558400304388 48.9103
21.566222297108816 49.2002
21.58888704765135 49.2912
21.61155265291521 49.7343
21.63439619898156 50.2846
21.657063523335786 50.4542
21.67973170537063 50.8907
21.7024007460706 51.4897
21.72524775840385 52.1297
21.747918526116475 53.1889
21.770590155457388 54.6258
21.79326264741238 55.9992
21.816113141960237 57.7155
21.838787368860547 59.6583
21.861462461341976 61.4856
21.884315579735777 63.1369
21.90699241312273 64.2918
21.92967011506078 65.0771
21.95234868653799 64.7674
21.9752053151131 63.3259
21.997885635446785 61.5134
22.020566828293532 59.7239
22.04324889464272 57.9049
22.066109049404666 56.7377
22.088792872571794 56.3927
22.111477572219204 56.2961
22.1341631493376 56.4932
22.157026846313123 56.2436
22.179714188221507 55.5306
22.202402410582668 54.3922
22.22509151438863 52.782
22.24795876962584 51.6479
22.270649646204486 50.7707
22.293341407213727 50.1798
22.316034053646906 49.6085
22.338904883215342 49.3418
22.36159931041458 49.2919
22.38429462602756 49.3355
22.40699083104897 49.1375
22.429865251039757 49.0439
22.452563244831367 49.1275
22.47526213102522 49.1904
22.49813925616515 49.1727
22.520839937143307 48.9551
22.543541513520587 49.0242
22.56624398629403 48.9213
22.589124730075895 48.8147
22.611829005656723 49.0999
22.63453418063466 48.9682
22.657240256008077 49.2862
22.680124634582935 49.2757
22.70283252079775 49.7598
22.725541310413075 49.9778
22.74825100442868 50.0424
22.771139033969575 50.6943
22.79385054687155 50.9487
22.81656296718292 51.5825
22.83927629590484 52.5179
22.862167992606945 53.45399999999999
22.88488314827121 54.5967
22.907599215359284 55.5973
22.93031619487366 56.5793
22.953211574954405 57.5244
22.975930389478226 58.2242
22.998650119445763 58.4388
23.02137076586092 57.5388
23.044269845560063 56.1743
23.06699233506288 54.5021
23.089715744034912 52.7212
23.112617610931565 51.2233
23.135342869061212 50.1673
23.158069049684816 49.4901
23.1807961538087 49.223
23.20370174880544 49.1242
23.226430710184808 49.2395
23.249160598093425 49.338
23.271891413539002 49.3988
23.294800752937697 49.3576
23.31753343374794 49.4985
23.340267045128353 49.4623
23.36300158808808 49.8736
23.38591468821339 50.269
23.408651104658304 50.8309
23.431388455719986 51.3089
23.454126742409 52.1054
23.4770436196085 53.0975
23.499783787914662 54.4758
23.522524894889884 55.2567
23.54526694154616 56.1173
23.56818761219047 57.1599
23.59093154860734 57.9424
23.613676427751283 58.2812
23.636422250635754 57.5083
23.659346731118656 55.7762
23.68209445191868 53.77
23.704843119509587 51.6603
23.72759273490623 49.6497
23.750521041644767 48.3593
23.77327256312355 47.5534
23.796025035462787 46.9147
23.818956224555475 46.3845
23.841710609113413 46.3808
23.86446594758979 46.1711
23.887222241002014 45.8775
23.910157285144578 45.3466
23.932915498962537 45.4949
23.955674670778713 45.3814
23.978434801611975 45.2849
24.001373717286125 45.0539
24.024135776723917 44.9699
24.046898798245582 44.8307
24.06966278287146 44.7005
24.092605586582614 44.6386
24.115371508023642 44.4837
24.1381383956401 44.4373
24.16090625045381 44.3345
24.183852958731244 44.2937
24.206622758582608 44.2332
24.229393528706886 43.9656
24.252165270127392 43.9775
24.27511589952438 43.8457
24.297889594216997 43.8346
24.32066426328598 43.6999
24.34343990775613 43.5068
24.36639447485003 43.4361
24.38917208083877 43.4327
24.41195066531332 43.3196
24.43490819850244 43.3731
24.457688750692377 43.1657
24.48047028445616 43.2151
24.503252800821233 43.4206
24.526214300784112 43.4702
24.548998793132213 43.2995
24.57178427117417 43.1515
24.59457073593893 43.2889
24.617536219319863 43.201
24.64032466834748 43.1935
24.663114107195035 43.1368
24.685904536893013 42.8159
24.708874020360852 42.7932
24.731666442613744 42.7293
24.754459858818787 42.6162
24.777254270007962 42.6356
24.80022777025625 42.5933
24.82302418230472 42.5584
24.845821592443674 42.5543
24.86862000170663 42.5145
24.891597535453727 42.3991
24.914397953892728 42.7506
24.93719937456671 42.5553
24.96000179851076 42.7224
24.98298338249997 42.9999
25.00578782394922 43.1996
25.028593271784167 43.2294
25.05157790644186 43.5696
25.07438537804115 43.6266
25.097193859145293 43.9114
25.120003350792075 44.0116
25.142992065061257 44.4078
25.165803588823465 44.5703
25.18861612625217 45.0543
25.211429678386736 45.1066
25.234422489079968 45.1912
25.257238081693636 44.9881
25.280054692141732 44.9723
25.3028723214652 45.1041
25.325869245420463 45.1017
25.348688923599397 45.1914
25.371509623787006 45.1243
25.394331347025812 44.8689
25.41733240110666 44.4151
25.440156181590016 43.7942
25.46298098826268 43.2182
25.48580682216873 42.5544
25.50881202326435 42.0368
25.53163992281684 41.7294
25.55446885274561 41.3169
25.577298814096377 41.0173
25.600308179121807 40.9342
25.623140214533745 41.1871
25.64597328451537 41.0309
25.66898578564376 40.7637
25.691820936010206 40.8791
25.714657124097695 40.8112
25.737494350954734 40.8275
25.760511045684957 40.8172
25.783350361364224 40.7934
25.806190718969255 40.7827
25.82903211955018 40.8666
25.852053024868923 40.9322
25.874896522722523 41.0035
25.897741066713106 40.8753
25.920586657892454 40.9536
25.943611790812668 41.0935
25.966459487728237 41.2511
25.989308234998564 41.4505
26.01215803367705 41.7423
26.03518741123814 41.6897
26.05803932412957 41.7861
26.080892291600094 41.8287
26.10374631470478 41.7837
26.12677995397268 41.9001
26.14963609978026 41.9534
26.172493304397875 41.5796
26.19535156888223 41.4826
26.218389486949604 41.0857
26.241249882640123 40.6345
26.26411134137826 40.5009
26.28715248187403 40.5467
26.31001607820869 40.3406
26.3328807407756 40.2317
26.35574647063438 40.4048
26.37879191991473 40.3098
26.401659795896734 40.4819
26.424528742360263 40.6516
26.447398760366614 40.7068
26.470448535598294 40.9814
26.49332070826805 41.074
26.516193955675355 41.3385
26.53906827888316 41.5076
26.562122397260108 41.7616
26.584998883685063 41.9908
26.607876449110325 42.111000000000004
26.63075509460056 42.4956
26.65381357334404 42.4817
26.67669439061878 42.4914
26.699576291163382 42.2767
26.722459276044212 42.0578
26.745522132402975 41.9097
26.768407297649354 41.6572
26.791293550442003 41.3237
26.814180891848974 41.0902
26.837248143099337 41.0112
26.860137673466657 40.6995
26.88302829566349 40.3727
26.90592001075963 40.172
26.92899167420566 40.2238
26.951885586870763 39.7722
26.974780595655517 39.5166
26.99785558178161 39.4189
27.020752794605112 39.3766
27.043651106772522 39.181999999999995
27.06655051935668 39.0804
27.089629948036183 39.0153
27.112531573292053 38.9039
27.135434302194138 39.1926
27.158338135817015 38.8397
27.181422024430987 38.8086
27.204328079372566 38.6816
27.22723524226965 38.9036
27.250143514198573 38.9019
27.273231880156334 38.7975
27.296142382065014 38.6887
27.319053996245536 38.6083
27.341966723775965 38.6257
27.365059584515222 38.7958
27.38797455070062 38.7371
27.410890633481237 38.537
27.433807833936918 38.7013
27.456905206923906 38.8797
27.47982465472398 38.7919
27.502745223449743 38.7644
27.525666914182825 38.9369
27.548768816912457 38.8258
27.571692763693633 38.7253
27.59461783573812 38.6641
27.617723149491244 38.5608
27.640650484125285 38.5055
27.66357894728264 38.438
27.686508540048052 38.3727
27.709618414237887 38.3094
27.732550278321757 38.0584
27.755483275279115 38.1448
27.778417406196485 38.1728
27.801531858397514 38.224000000000004
27.824468269376716 38.1854
27.847405817586786 38.0952
27.870344504116094 38.2237
27.893463551932008 38.2136
27.916404527281053 38.6032
27.93934664422563 38.6362
27.962289903855886 38.8434
27.98541356491974 38.9623
28.00835912214229 39.0958
28.03130582533231 39.2347
28.054253675581805 39.2394
28.077381967556104 39.2552
28.100332124185126 39.1166
28.123283431160893 39.126
28.146235889577238 39.0113
28.169368830154156 38.9112
28.192323603752033 38.6778
28.215279532083304 38.4551
28.238415973016764 38.2058
28.261374223145094 38.0524
28.284333631303806 37.8385
28.307294198589954 37.6623
28.330435319167677 37.4521
28.353398217078915 37.0976
28.376362277420153 36.8773
28.39932750129032 36.8515
28.422473319286713 36.6387
28.44544088262495 36.6221
28.468409612800283 36.465
28.491379510913497 36.2824
28.51453004413313 36.1448
28.53750229057244 36.1216
28.56047570826344 36.1245
28.583450298308804 36.0988
28.606605564586562 35.9115
28.629582511831156 35.9968
28.65256063474956 35.8676
28.675539934446338 35.868
28.698699951647605 35.9038
28.72168161743193 35.7247
28.74466446331978 35.6455
28.767648490417624 35.6355
28.790813276438353 35.7292
28.813799678527303 35.6514
28.836787265157085 35.7797
28.859955641890075 35.6626
28.882945610203045 35.7738
28.905936766392035 35.5682
28.928929111566863 35.5297
28.952102288520145 35.4465
28.975097024308607 35.2713
28.998092952423807 35.1176
29.021090073977508 35.1105
29.04426806913204 34.9856
29.067267590245258 34.9257
29.090268308143695 34.8182
29.11327022394099 34.7371
29.13645305530891 34.6461
29.159457379627167 34.6344
29.18246290519685 34.5795
29.20546963313352 34.6152
29.22865731875826 34.5377
29.25166646419296 34.5421
29.27467681535305 34.3462
29.29768837335608 34.46
29.320880931312562 34.4301
29.34389491580634 34.499
29.366910110507334 34.5094
29.38992651653503 34.5515
29.41312396492981 34.330999999999996
29.436142806456754 34.274
29.45916286268059 34.2498
29.48236399319994 34.1394
29.50538649169417 33.9934
29.528410208259935 33.8889
29.55143514402014 33.6978
29.574641196749695 33.6848
29.597668583816574 33.6284
29.6206971934585 33.345
29.64372702680042 33.4275
29.666938019934474 33.3768
29.689970313635285 33.2429
29.713003834422636 33.1887
29.73603858342347 33.0962
29.759254535188578 32.983000000000004
29.78229175361658 32.9797
29.80533020365064 33.0814
29.82836988641968 33.0599
29.85159081507472 33.0215
29.874632976355343 32.9397
29.89767637376955 33.0226
29.920721008448314 32.8666
29.9439469322847 32.805
29.96699405457564 32.7965
29.9900424175358 32.8759
30.013092022298157 32.7314
30.03632295963995 32.6495
30.059375061131373 32.6972
30.08242840783577 32.7445
30.105483000888153 32.8094
30.128718970092244 32.7256
30.151776069006917 32.5378
30.17483441768648 32.7019
30.198074175317235 32.6817
30.221135036724256 32.634
30.24419715131772 32.567
30.267260520236203 32.5016
30.290505341942243 32.5316
30.313571232750228 32.5341
30.336638381310948 32.4614
30.35970678876503 32.4785
30.38295669299435 32.3609
30.40602763151657 32.4271
30.429099832366074 32.3682
30.452173296685572 32.3029
30.47542830191959 32.3687
30.498504306502497 32.2958
30.521581577995562 32.3751
30.544660117543582 32.4364
30.56792024229725 32.4282
30.59100133132069 32.2587
30.614083691845494 32.2971
30.637167325018545 32.295
30.660432587840603 32.4662
30.683518779717886 32.4187
30.70660624769615 32.4941
30.729694992924372 32.4392
30.75296541239743 32.4647
30.77605672557558 32.4478
30.799149319462742 32.3881
30.8224236211637 32.2107
30.845518789950724 32.0972
30.868615242910597 32.0128
30.891712981195973 31.8278
30.91499247215866 31.8219
30.938092794619365 31.7137
30.96119440587579 31.676
30.984297307082752 31.5541
31.00758200598383 31.461
31.030687500658694 31.4157
31.053794288760695 31.3025
31.076902371446767 31.259
31.100192296997445 31.3305
31.12330298246119 31.2005
31.14641496599209 31.0921
31.169528248749216 31.208000000000002
31.19282341969534 31.0675
31.215939314557186 31.163
31.239056512134788 31.1651
31.262175013589378 31.1477
31.28547544871168 31.105999999999998
31.30859657161541 31.1578
31.331719001892175 31.0987
31.35484274070538 31.1545
31.378148458819545 31.0929
31.401274828443725 31.0622
31.424402510106933 31.1052
31.447712205419993 31.1497
31.470842524931633 30.971999999999998
31.493974159989783 31.0238
31.51710711176168 30.9475
31.54042212308802 31.0235
31.563557722100917 30.9931
31.586694641341655 30.8438
31.609832881979628 30.6984
31.63315322823208 30.6609
31.656294125521327 30.5006
31.679436347728515 30.5751
31.70257989602529 30.4885
31.725905596152327 30.4238
31.74905181052835 30.3584
31.772199354521323 30.443
31.79534822930507 30.5125
31.818679302290967 30.378
31.84183085259981 30.36
31.864983737233473 30.3218
31.88813795736804 30.3774
31.911474422233013 30.1902
31.934631327356435 30.2738
31.9577895715215 30.2245
31.980949155906522 30.2684
32.004291031706956 30.2108
32.027453310562606 30.1632
32.05061693318573 29.991999999999997
32.07396288236386 29.9438
32.09712920658542 29.9362
32.12029687812702 29.8551
32.14346589817093 29.758000000000003
32.166817291729984 29.7637
32.18998902288583 29.7159
32.21316210610336 29.5253
32.23633654256711 29.4273
32.259693399663725 29.4349
32.282870556771144 29.3207
32.30604907069099 29.3895
32.329228942610065 29.32
32.35259128243769 29.1712
32.375773884550505 29.0989
32.398957848235646 29.0836
32.422143174682176 29.075
32.445511016471215 28.9515
32.468699082679954 28.9399
32.49188851523011 28.7844
32.51507931531304 28.8623
32.538452678331 28.8669
32.56164622776311 28.7303
32.58484114831493 28.7087
32.60803744118015 28.7716
32.631416344731896 28.7581
32.654615396551876 28.656
32.67781582427913 28.5752
32.701198898634416 28.5829
32.72440209253756 28.5122
32.747606665947124 28.4385
32.77081262006088 28.3384
32.79420126883317 28.3013
32.81740999876112 28.3627
32.840620112999424 28.2713
32.86383161274818 28.2527
32.88722585534586 28.2013
32.91044014056596 28.2705
32.933655814909734 28.2013
32.95687287957963 28.1347
32.98027273544904 28.164
33.00349259526636 28.0352
33.026713849030116 28.0652
33.04993649794511 28.0498
33.073341986570746 28.0368
33.09656744032826 27.9903
33.11979429286444 28.0205
33.14302254538647 27.9812
33.166433686291185 27.8401
33.18966475336992 27.7703
33.212897224069096 27.7139
33.23613109959831 27.6719
33.259547912343415 27.6252
33.2827846121627 27.7338
33.306022720453775 27.6529
33.32926223842861 27.517
33.352684742614166 27.6367
33.37592709463173 27.5479
33.399170859982064 27.5286
33.422597648419426 27.3875
33.44584425514446 27.2502
33.46909227885668 27.3499
33.4923417207723 27.096
33.51577423505344 27.1866
33.539026528130385 27.1656
33.56228024307245 27.1023
33.585535381098246 26.9244
33.60897364093058 26.9644
33.63223163992385 26.8921
33.6554910656699 26.8711
33.678751919389796 26.8894
33.702195944520106 26.8286
33.72545966903325 26.7942
33.74872482519663 26.7563
33.771991414233746 26.7218
33.79544122444841 26.6553
33.81871069412428 26.6402
33.84198160035767 26.5556
33.86525394437455 26.5936
33.88870955949969 26.4435
33.911984794020626 26.4175
33.93526147001624 26.4008
33.958539588715006 26.3577
33.98200102861669 26.3164
34.0052820477047 26.1611
34.02856451319451 26.1665
34.05203033759056 26.1968
34.07531571090147 26.1372
34.09860253431845 26.0377
34.121890809074316 26.0583
34.145362493118924 26.0449
34.16865368561615 25.9349
34.191946333164054 25.9823
34.21524043699793 25.9813
34.23871800066799 25.9381
34.26201503218366 25.8417
34.28531352370466 25.8259
34.30861347646881 25.7506
34.33209693978188 25.7503
34.3553998301885 25.7166
34.378704185565205 25.6458
34.402010007152356 25.5598
34.42549939016683 25.5627
34.44880815937748 25.4033
34.472118398533134 25.4283
34.49543010887669 25.412
34.51892543169198 25.3422
34.54224009966052 25.2552
34.56555624255917 25.3393
34.58887386163339 25.2074
34.61237514439016 25.0787
34.6356957311114 25.1129
34.65901779775809 25.1296
34.68252356662995 25.1147
34.705848608458616 25.094
34.72917513396849 25.0128
34.75250314440949 24.939
34.77601490857862 24.8129
34.799345904259795 24.7926
34.82267838863559 24.8387
34.846012362958525 24.8319
34.869530142679984 24.8408
34.89286711232212 24.7823
34.91620557568269 24.7545
34.93954553401677 24.7233
34.9630693495876 24.6691
34.986412313340814 24.6629
35.00975677584668 24.6714
35.033102738362956 24.5323
35.05663261012228 24.4894
35.0799815881786 24.4993
35.10333207003229 24.4227
35.12668405694369 24.4435
35.150220005273056 24.3493
35.17357501786656 24.3808
35.19693153931268 24.3556
35.220289570874385 24.2848
35.24383161619786 24.2733
35.267192683604904 24.333000000000002
35.290555264930376 24.2388
35.314101899412165 24.2336
35.33746752422433 24.1869
35.36083466676374 24.1789
35.38420332829803 24.1284
35.407756095629054 24.1734
35.43112781085063 24.1593
35.45450104888391 24.127
35.477875810999194 24.1106
35.50143473172161 24.037
35.52481255774625 24.0174
35.54819191167777 23.9697
35.57157279478914 23.8705
35.595137889488406 23.8333
35.61852184675279 23.8579
35.641907337029984 23.8339
35.665294361595684 23.835
35.68886565090076 23.7154
35.7122557598848 23.7266
35.73564740699838 23.6899
35.759040593519934 23.596
35.78261809810353 23.6333
35.80601437933051 23.4723
35.829412203814705 23.424
35.85281157283719 23.3982
35.876395313415884 23.3782
35.8997977874528 23.2759
35.92320180988546 23.2792
35.946790244133936 23.3089
35.97019737933222 23.2869
35.993606066789866 23.2226
36.01701630779276 23.1594
36.04061101440684 23.1091
36.06402437852291 23.1721
36.08743930005611 23.147
36.1108557802951 23.0518
36.13445678011326 23.0686
36.15787639383515 23.0656
36.18129757014299 22.9883
36.20472031032821 22.85
36.22832762423364 22.8242
36.25175350829375 22.8122
36.275180960119776 22.8134
36.298609981005924 22.8254
36.32222362992669 22.8236
36.34565580510207 22.7671
36.36908955323448 22.7128
36.39252487562093 22.6934
36.416144880530226 22.6144
36.43958336764275 22.5658
36.463023432914625 22.5606
36.486465077645676 22.4492
36.51009145956204 22.5524
36.53353627947859 22.5678
36.55698268276811 22.4945
36.58043067073321 22.3865
36.60406345072071 22.2923
36.62751462435344 22.33
36.65096738658405 22.3776
36.67460498210655 22.3009
36.69806093788647 22.266
36.72151848619297 22.2352
36.744977628333636 22.2393
36.76862165890998 22.1222
36.79208400512205 22.0857
36.81554794910557 22.0972
36.83901349217101 21.9638
36.862663978991606 21.9849
36.88613273667352 21.8886
36.90960309738324 21.9138
36.933075062434064 21.9024
36.95673202673572 21.9156
36.98020721697122 21.8543
37.003684015502365 21.7927
37.027162423645365 21.7347
37.050825886711465 21.7743
37.07430753063053 21.6897
37.09779078812467 21.5391
37.121275660513014 21.6434
37.144945643673694 21.5811
37.16843376245278 21.569000000000003
37.19192350009803 21.5516
37.215414857931435 21.5603
37.239091382563885 21.4742
37.262585997426164 21.4043
37.28608223645736 21.3742
37.309763684451696 21.3757
37.33326318851098 21.2915
37.356764320726555 21.2703
37.380267082425526 21.2643
37.40395510942588 21.2178
37.42746114683234 21.0976
37.45096881771841 21.0927
37.474478123414166 21.0561
37.49817275092816 21.0681
37.52168534303452 21.1417
37.54519957395567 20.9249
37.568715445024665 20.9362
37.592416694607714 20.9066
37.61593586281424 20.9109
37.63945667518264 20.9685
37.66297913304891 20.8716
37.68668702630454 20.8601
37.710212792059274 20.749000000000002
37.733740207334854 20.7459
37.757269273470364 20.7066
37.780983832050374 20.6334
37.80451621684926 20.6867
37.82805025654007 20.6084
37.851585952464795 20.5597
37.8753071980695 20.5306
37.89884622345676 20.4736
37.92238690911902 20.5265
37.94611318753442 20.4256
37.969657210779765 20.4112
37.99320289834801 20.3748
38.016750251586465 20.392
38.04048325513017 20.3458
38.06403395679343 20.2952
38.087586328183946 20.2158
38.11114037065203 20.2253
38.13488012115898 20.2376
38.1584375229181 20.0791
38.181996599821 20.1527
38.205557353221124 20.101
38.229303872575656 20.0362
38.2528679961576 20.0579
38.27643380031219 20.0134
38.30000128639589 19.9679
38.32375459653193 19.9215
38.34732546371299 19.9605
38.37089801690786 19.7933
38.39447225747609 19.8282
38.418232380377425 19.8176
38.441810012983396 19.7392
38.46538933705673 19.7133
38.488970353960084 19.7474
38.51273731166058 19.711
38.536321731567014 19.6697
38.55990784840681 19.6451
38.58367995004091 19.5738
38.60726947812959 19.5355
38.63086070726198 19.5348
38.654453638806274 19.4967
38.678232613930824 19.4488
38.70182896773327 19.4533
38.72542702806741 19.4303
38.7490267963045 19.4475
38.77281266709232 19.3693
38.79641586862214 19.2825
38.8200207821842 19.2685
38.843627409152944 19.2026
38.86742019782782 19.2078
38.891030269149255 19.1703
38.914642058016156 19.171
38.938255565806124 19.1423
38.96205529464307 19.0895
38.98567225787121 18.9923
39.00929094417078 19.0993
39.03291135492255 19.0757
39.05671804624804 18.9768
39.080341923549106 18.9579
39.103967529460334 18.9442
39.127594865365744 18.8988
39.15140854155791 18.8242
39.17503935514948 18.8231
39.19867190290282 18.8167
39.22249083587951 18.8365
39.24612686969409 18.7861
39.269764641845306 18.7251
39.293404153722804 18.6823
39.317230110864074 18.5704
39.34087311998506 18.5636
39.36451787301696 18.6027
39.388164371352595 18.4725
39.41199737518003 18.4966
39.43564738196752 18.4401
39.45929913825317 18.4535
39.48295264543308 18.3879
39.506792718520884 18.4132
39.530449745387216 18.3953
39.55410852735203 18.3808
39.57776906581474 18.3617
39.60161623079 18.3104
39.625280300200025 18.3017
39.64894613032202 18.258
39.67261372255866 18.2361
39.6964680021016 18.1842
39.72013913657293 18.2177
39.74381203738292 18.1443
39.76748670593756 18.0941
39.79134812278169 18.0743
39.81502634488497 18.0542
39.83870633896685 18.0323
39.862388106436654 17.9262
39.88625668336918 17.9354
39.90994201572829 17.980999999999998
39.933629125719285 17.9047
39.957503091207826 17.8858
39.9811937746168 17.8259
40.00488623990914 17.7963
40.02858048850006 17.7196
40.05246165409549 17.7583
40.076159487492085 17.7069
40.099859108448875 17.6542
40.123560518384345 17.7166
40.1474489070226 17.6627
40.171153913178564 17.6263
40.194860712584955 17.6182
40.2185693066637 17.5984
40.242464941335314 17.5294
40.26617714307655 17.5491
40.289891143772046 17.5593
40.3136069448471 17.473
40.33750984859743 17.4472
40.3612292688043 17.43
40.3849504936829 17.4247
40.40867352466194 17.3403
40.43258372059144 17.2924
40.45631038219906 17.2933
40.48003885420956 17.2888
40.503769138055105 17.2668
40.52768664931955 17.2553
40.55142057531802 17.2035
40.57515631746428 17.1547
40.599079334038514 17.1147
40.62281872700477 17.0857
40.64655994043941 17.0654
40.67030297578061 17.0216
40.69423334835778 16.9811
40.71798004609188 16.9746
40.74172857006355 16.9488
40.76547892171441 16.9591
40.7894166736039 16.9174
40.813170699248566 16.8584
40.83692655691388 16.7413
40.86068424804498 16.8548
40.884629402612525 16.777
40.908390779366385 16.7542
40.932153993938 16.7133
40.95591904777605 16.714000000000002
40.979871628443995 16.7439
41.003640379561936 16.6824
41.02741097430883 16.6527
41.05118341413683 16.6837
41.075143444384416 16.6006
41.098919593177826 16.5365
41.1226975914255 16.5318
41.14647744058318 16.4885
41.170444943946755 16.4877
41.19422851378379 16.4392
41.218013938914645 16.3855
41.24198706625173 16.3755
41.26577622087193 16.3056
41.289567235177785 16.3799
41.31336011063129 16.3548
41.337340752422875 16.2788
41.361137369129835 16.3017
41.38493585138705 16.2446
41.40873620066004 16.2062
41.43272438060107 16.1232
41.45652848292052 16.0905
41.48033445666918 16.0925
41.50414230331616 16.0568
41.528138045159764 16.0033
41.551949656675205 15.9279
41.575763145513235 15.9629
41.59957851314666 15.9784
41.62358184070442 15.9532
41.64740098505737 15.931
41.6712220126409 15.9441
41.69504492493139 15.8934
41.71905586207357 15.8014
41.74288256296395 15.8244
41.766711153007456 15.8016
41.79054163368412 15.7435
41.814560204340054 15.7674
41.838394485526365 15.7214
41.86223066180303 15.6787
41.88625497706819 15.6766
41.910094962812 15.6243
41.93393684811168 15.61
41.95778063445365 15.5174
41.981812625263366 15.5415
42.00566023303407 15.4627
42.029509746323676 15.5045
42.05336116662236 15.484000000000002
42.077400857069705 15.4883
42.10125611078846 15.4682
42.12511327600405 15.3646
42.14897235421036 15.3819
42.173019768448455 15.3382
42.19688269209613 15.3028
42.22074753323349 15.2197
42.24461429335818 15.2591
42.268669455600495 15.2446
42.292540073217886 15.2348
42.31641261433284 15.2198
42.34028708044675 15.1928
42.36435001496739 15.1492
42.38822835065557 15.1599
42.41210861586426 15.1461
42.4359908120986 15.0655
42.46006154323262 15.0792
42.48394762115317 15.0187
42.507835634632315 14.9654
42.531912233047436 15.0035
42.55580413732265 14.9446
42.579697981698 14.8521
42.60359376768525 14.862
42.62767820545945 14.9191
42.65157789440821 14.9157
42.67547952952185 14.8339
42.699383112316 14.8047
42.72347541395347 14.7383
42.74738291190531 14.7311
42.771292362102166 14.7475
42.795203766063516 14.6784
42.819303956130405 14.6666
42.843219287476536 14.6736
42.86713657716324 14.6152
42.89105582671383 14.6253
42.91516392983864 14.6172
42.939087119032166 14.557
42.963012272677304 14.4621
42.98693939230129 14.4589
43.01105543317513 14.4582
43.034986504731386 14.4313
43.05891954686589 14.415
43.08285456110972 14.4097
43.10697856448665 14.3475
43.130917542983475 14.2996
43.15485849820081 14.3381
43.17880143167367 14.2775
43.20293342237094 14.3083
43.226880332449 14.3085
43.25082922540554 14.2496
43.27496722682525 14.2073
43.29892010567796 14.1675
43.32287497204102 14.1937
43.34683182745632 14.1032
43.370977859791836 14.0832
43.39493871351105 14.0612
43.41890156092628 14.0565
43.44286640358341 14.0065
43.46702049182749 14.0001
43.49098934522816 13.9682
43.51496019852649 13.9565
43.5389330532723 13.9331
43.56309522248204 13.8859
43.58707210044314 13.8747
43.61105098451946 13.823
43.63503187626491 13.8453
43.659202151562134 13.7975
43.68318707902681 13.8171
43.70717401884041 13.7881
43.731162972560874 13.7405
43.75534137913236 13.6497
43.779334381108384 13.684000000000001
43.803329401683186 13.6852
43.82732644241872 13.6817
43.8515130055166 13.6359
43.87551410707659 13.5666
43.89951723350145 13.5761
43.923709934595614 13.5263
43.94771713129917 13.5377
43.97172635758096 13.5119
43.99573761501002 13.4534
44.0199385169922 13.4248
44.04395385732619 13.4382
44.067971233533086 13.4437
44.09199064718605 13.3918
44.11619977548961 13.3592
44.14022328470671 13.3162
44.16424883610785 13.3512
44.18827643127035 13.3347
44.21249381139513 13.2755
44.236525514814076 13.2412
44.26055926674478 13.2279
44.28459506876863 13.2211
44.3088207262813 13.1576
44.33286064928722 13.0923
44.35690262714919 13.1368
44.38094666145278 13.1135
44.4051806219871 13.095
44.42922879003185 13.085999999999999
44.45327901929361 13.0696
44.477331311362136 13.0219
44.501573600619416 12.9874
44.525630039221795 12.9462
44.54968854541895 12.9709
44.573937102200176 12.9242
44.5979997645541 12.9008
44.622064499300315 12.9008
44.64613130803592 12.8297
44.67038823869318 12.844000000000001
44.69445921643748 12.7951
44.718532272981385 12.7616
44.742607409926194 12.7494
44.76687274034801 12.7364
44.79095205918753 12.6893
44.81503346325094 12.7052
44.839116954143876 12.6982
44.86339071028742 12.6628
44.88747839599524 12.6626
44.91156817336837 12.5855
44.93566004401666 12.6084
44.959942251908146 12.5671
44.984038330325966 12.5614
45.00813650686762 12.4779
45.03223678314731 12.5024
45.05652746888232 12.469000000000001
45.08063196592069 12.455
45.104738567558705 12.4347
45.128847275414856 12.4179
45.15314646515866 12.374
45.17725940679741 12.3702
45.20137445952892 12.3153
45.22568004865265 12.3515
45.24979934496396 12.3205
45.27392075725247 12.2843
45.29804428714431 12.2675
45.322358426247604 12.2421
45.346486212804315 12.1992
45.370616121861914 12.1567
45.39474815505086 12.1822
45.41907087049246 12.1591
45.4432071734666 12.151
45.46734560548283 12.1326
45.49148616817604 12.1535
45.51581748638564 12.0682
45.5399623320197 12.017999999999999
45.56410931325473 12.0129
45.58825843173002 12.0285
45.61259837920865 11.9923
45.636751793816 11.9671
45.66090735060093 11.9487
45.68506505120716 11.9117
45.7094136545275 11.8656
45.73357566449271 11.8249
45.75773982322992 11.9082
45.78190613238733 11.8556
45.806263418194064 11.7861
45.83043404997326 11.7895
45.85460683713677 11.7678
45.87897065658495 11.7477
45.90314777634752 11.6972
45.92732705646868 11.7052
45.9515084986045 11.6933
45.97588104735473 11.6481
46.00006683541565 11.5935
46.02425479047904 11.5889
46.04844491420549 11.6103
46.0728262191024 11.5779
46.09702070211635 11.5552
46.12121735879483 11.5781
46.14541619080294 11.5378
46.169806278764455 11.4826
46.194009483459034 11.5075
46.21821486849841 11.4575
46.24242243555223 11.4244
46.266821333570014 11.4055
46.29103328674601 11.3639
46.31524742696538 11.3698
46.33946375590237 11.3421
46.36387149104216 11.3374
46.38809221957392 11.3021
46.41231514186606 11.3373
46.436540259597464 11.2875
46.460956858999374 11.2279
46.48518638983522 11.2568
46.509418121166966 11.1611
46.533652054678114 11.1841
46.55807754555709 11.1133
46.58231590571962 11.1335
46.60655647313217 11.0875
46.630988654873654 11.0883
46.655233659129024 11.0727
46.67948087571551 11.0677
46.70373030632484 11.0406
46.72817142736393 11.0544
46.752425308428684 11.0401
46.77668140861147 11.017000000000001
46.80093972960865 10.9644
46.82538981736788 10.8961
46.849652602470904 10.927999999999999
46.87391761349769 10.8724
46.8981848521493 10.8381
46.9226439341274 10.8511
46.946915650573224 10.8201
46.97118959976749 10.8535
46.99546578341598 10.8116
47.019933887188216 10.763
47.04421456235744 10.7964
47.06849747711879 10.739
47.09278263318286 10.6951
47.11725978640143 10.7069
47.14154944775105 10.6939
47.165841355555656 10.6963
47.1901355115306 10.6364
47.214621741924994 10.6448
47.23892041698887 10.6059
47.26322134538975 10.5839
47.28771440635075 10.5556
47.31201986422527 10.5635
47.33632758061436 10.505
47.360637557241866 10.4786
47.38513974410611 10.456
47.40945426407847 10.4611
47.43377104948137 10.4526
47.45809010204344 10.4363
47.48260144275502 10.4192
47.506925052572285 10.3983
47.53125093475548 10.3306
47.55557909103813 10.3371
47.58009961361992 10.3113
47.60443234110732 10.2934
47.62876734791564 10.2849
47.65310463578333 10.2776
47.6776343683373 10.2711
47.7019762413987 10.2177
47.72632040075572 10.1865
47.75066684815169 10.2109
47.77520581885936 10.1925
47.799556865477655 10.1756
47.823910205386 10.1751
47.84826584033272 10.1371
47.87281407745551 10.0716
47.89717432569297 10.0871
47.92153687423484 10.076
47.94609208429692 10.0667
47.97045925671401 10.0651
47.99482873471275 10.0154
48.01920052005013 9.97509
48.04376504619224 9.988480000000001
48.068141469543484 9.99062
48.09252020552573 9.989339999999999
48.11690125590099 9.96054
48.1414751266064 9.90254
48.16586082917454 9.87545
48.19024885144316 9.85398
48.2146391951793 9.84683
48.239222439012764 9.83779
48.26361744916137 9.78379
48.28801478610016 9.81521
48.31241445160131 9.7655
48.337007097209366 9.755930000000001
48.36141144338331 9.750580000000001
48.38581812345755 9.712710000000001
48.41022713920929 9.74436
48.434829215320704 9.713410000000001
48.45924292604658 9.69395
48.48365897780325 9.720139999999999
48.50807737237308 9.68689
48.532688907799276 9.65681
48.55711201168574 9.60055
48.581537463754074 9.54239
48.60615611725119 9.56344
48.63058628942721 9.56812
48.65501881516546 9.51464
48.6794536962573 9.54995
48.70408185970339 9.472719999999999
48.72852147531801 9.47355
48.75296345168211 9.488710000000001
48.77740779059232 9.459610000000001
48.80204549302823 9.48065
48.82649458091802 9.429730000000001
48.85094603676547 9.42041
48.87539986237231 9.357339999999999
48.90004713292306 9.342239999999999
48.92450572200832 9.339269999999999
48.94896668628025 9.32208
48.97343002754588 9.32115
48.99808689542115 9.33734
49.02255501470614 9.30405
49.04702551642794 9.260710000000001
49.0714984023988 9.22788
49.096164896893235 9.20862
49.120642575466796 9.192260000000001
49.145122643748394 9.19247
49.16960510355558 9.19077
49.19428125404938 9.15351
49.2187685210852 9.15785
49.243258185121555 9.139380000000001
49.26794160167084 9.11604
49.2924360839405 9.06462
49.31693296869764 9.04974
49.34143225776915 9.037510000000001
49.36612538195438 9.00793
49.39062950396021 9.0241
49.41513603578346 8.99434
49.4396449792564 9.010069999999999
49.46434784069503 8.9886
49.488861631846454 8.95065
49.513377840166804 8.91644
49.537896467493745 8.90425
49.56260909589029 8.88673
49.587132585683285 8.90015
49.611658500018365 8.89105
49.636186840738596 8.845080000000001
49.66090926588511 8.82648
49.685442483902584 8.80253
49.70997813385706 8.78473
49.734516217597076 8.7892
49.75924846937352 8.74179
49.7837914452858 8.74702
49.80833686055187 8.7118
49.83288471702571 8.6883
49.85762682540054 8.71592
49.882179588965734 8.65655
49.9067347993235 8.67704
49.93129245833333 8.63477
49.95604445336378 8.62619
49.98060703442832 8.60952
50.005172069746266 8.603439999999999
50.02993150438364 8.57007
50.05450147301533 8.57041
50.07907390151433 8.51828
50.10364879174981 8.51396
50.12841816587289 8.50617
50.1529980044635 8.49264
50.17758031042124 8.511389999999999
50.20216508562089 8.45316
50.22694442953363 8.4357
50.25153416817468 8.40788
50.27612638170508 8.40955
50.300721072005196 8.37556
50.325510416102105 8.371189999999999
50.350110084975064 8.360289999999999
50.37471223628208 8.34992
50.39931687190919 8.31298
50.424116246675766 8.34479
50.44872587605249 8.26623
50.47333799543065 8.25783
50.49795260670191 8.29477
50.52276204271512 8.23457
50.54738166295838 8.20229
50.57200378079314 8.2273
50.596628398116835 8.21715
50.62144792604559 8.189169999999999
50.646077567609396 8.18642
50.670709714377715 8.14147
50.69553683636198 8.12292
50.72017401885922 8.14484
50.7448137122895 8.137310000000001
50.76945591856022 8.09422
50.79429318636823 8.1117
50.818940443716784 8.05247
50.84359021965163 8.05086
50.868242516085964 7.998469999999999
50.893089960641895 8.02421
50.917747323549435 7.989960000000001
50.94240721271973 8.00437
50.96706963007175 7.97663
50.99192728239342 7.96502
51.01659478166073 7.92438
51.04126481489051 7.914739999999999
51.06593738400761 7.9306399999999995
51.090805275207074 7.875369999999999
51.11548294172845 7.86337
51.14016314993547 7.88017
51.164845901758845 7.86198
51.18972406304274 7.83418
51.21441192780656 7.790439999999999
51.23910234200271 7.77212
51.2637953075678 7.75869
51.288683770237945 7.738980000000001
51.31338186432707 7.7319
51.33808251561888 7.72807
51.362978729967345 7.73612
51.387684521509755 7.74016
51.41239287610203 7.68124
51.437103795691165 7.67846
51.46201036644977 7.63152
51.486726441956634 7.646730000000001
51.51144508832545 7.619789999999999
51.536166307509156 7.58662
51.56108326624387 7.555910000000001
51.58580965706056 7.56181
51.61053862657523 7.55753
51.635270176746864 7.51846
51.66019755512065 7.51541
51.68493429268881 7.46788
51.70967361681515 7.495660000000001
51.73441552946465 7.46628
51.759353359237934 7.471989999999999
51.7841004750961 7.47032
51.80885018539685 7.443410000000001
51.833602492111254 7.44307
51.8585508051424 7.43053
51.883308330926425 7.42162
51.90806845906181 7.36257
51.932831191525715 7.324160000000001
51.95779001977161 7.33017
51.98255798721516 7.33113
52.00732856494335 7.30255
52.03229530577543 7.305810000000001
52.057071130455945 7.241680000000001
52.081849571391054 7.29414
52.106630630568695 7.25445
52.13160794279417 7.21208
52.15639426492067 7.18469
52.18118321127822 7.230760000000001
52.205974783860896 7.169060000000001
52.23096269971011 7.17353
52.255759551287994 7.19652
52.280559035098186 7.13168
52.30536115314103 7.1342300000000005
52.33035970494467 7.153860000000001
52.35516711807904 7.086069999999999
52.37997717147198 7.079860000000001
52.40478986713005 7.096480000000001
52.42979908731974 7.052230000000001
52.454617094216 7.02125
52.47943774942214 6.99182
52.50426105495102 7.01036
52.529280976059844 6.96431
52.554109609024096 6.97881
52.57894089837482 7.01155
52.60377484613117 6.96718
52.62880550079408 6.90755
52.65364479223379 6.89813
52.67848674816189 6.899539999999999
52.70352547971946 6.92622
52.72837279155837 6.885460000000001
52.753222773982785 6.85686
52.778075429022984 6.83425
52.80312495150885 6.835939999999999
52.827982978797436 6.83149
52.85284368481815 6.8228800000000005
52.87770707160767 6.79368
52.90276741793998 6.77033
52.92763619336701 6.7577
52.952507655698504 6.73349
52.977381806977576 6.72382
53.00245301017842 6.720839999999999
53.02733256653592 6.7206600000000005
53.052214817996074 6.686539999999999
53.077099766608484 6.6902800000000004
53.102181859804446 6.67837
53.127072229988265 6.67325
53.15196530349892 6.6333899999999995
53.17686108239249 6.6623600000000005
53.20195409881522 6.593560000000001
53.22685531582556 6.617000000000001
53.25175924441303 6.587219999999999
53.27666588664027 6.5841
53.30176985962693 6.52422
53.3266819565689 6.556360000000001
53.35159677336455 6.51664
53.376514312083096 6.51424
53.40162927507703 6.478619999999999
53.42655228516116 6.5031
53.45147802340193 6.44684
53.47660125628886 6.4218
53.50153247842639 6.42165
53.52646643496923 6.41437
53.55140312799818 6.43095
53.576537409691696 6.45102
53.60147960336152 6.38018
53.626424539786164 6.38526
53.65137222105307 6.3702
53.67651758529126 6.38357
53.70147078399681 6.33145
53.72642673383343 6.31714
53.75138543689533 6.32305
53.776541917524526 6.3017900000000004
53.801506154876755 6.28873
53.826473151763246 6.26882
53.851442910284916 6.22874
53.87661054126026 6.232069999999999
53.9015858509782 6.2499
53.92656392866066 6.17971
53.95154477641532 6.16089
53.976723591801296 6.1816
54.00171000771266 6.15829
54.02669920004598 6.16211
54.051691170915745 6.14271
54.076881204886796 6.128080000000001
54.101878760928514 6.10532
54.12687910187696 6.1317900000000005
54.152077577768296 6.11304
54.1770835166946 6.0650699999999995
54.20209224691339 6.08055
54.22710377055121 6.05582
54.25231352511594 6.0298300000000005
54.27733066384342 5.97194
54.30235060239643 5.97358
54.32737334290836 5.984430000000001
54.35259441062629 5.93595
54.377622783395324 5.94759
54.40265396455061 5.96362
54.42768795623251 5.90207
54.45292037169559 5.86266
54.477960012857906 5.84622
54.50300247099511 5.84715
54.52804774825457 5.83817
54.55329154616743 5.811
54.57834249018678 5.7878099999999995
54.6033962597977 5.7710300000000005
54.6284528571545 5.74443
54.653708072335164 5.68366
54.67877035378786 5.7367
54.70383546947698 5.64651
54.72890342156389 5.63424
54.7541700889442 5.65641
54.77924374251975 5.6749
54.8043202390049 5.61555
54.82959552413022 5.62305
54.8546777351945 5.60157
54.87976279569621 5.535419999999999
54.90485070780914 5.56893
54.930137506558005 5.5214099999999995
54.95523115074295 5.52323
54.98032765308844 5.50089
55.005427015775496 5.49474
55.03072536339621 5.4457
55.05583047570572 5.358569999999999
55.080938454927676 5.37978
55.10604930325027 5.3707
55.131359235107396 5.3977
55.15647585066083 5.34209
55.181595341907496 5.30149
55.20671771104285 5.32344
55.232039262617704 5.27577
55.25716741665048 5.244190000000001
55.28229845518636 5.22398
55.30743238042802 5.1991
55.33276558731939 5.17236
55.357905315183636 5.16346
55.383047936390035 5.12035
55.40819345314859 5.08675
55.433538351073295 5.09729
55.458689688238415 5.08568
55.483843927614096 5.04045
55.509197623043605 5.095619999999999
55.53435769621134 5.02526
55.55952067826466 4.94585
55.5846865714265 4.93601
55.61005202069737 4.93708
55.63522376553902 4.96521
55.66039842818645 4.89065
55.68557601087004 4.875430000000001
55.7109532500271 4.77789
55.73613670233794 4.86566
