TT I
1.2716486653135266 7.843189999999999
1.2939594142134223 7.79935
1.3162702121660406 7.13421
1.3385810600174564 6.974360000000001
1.3608919586137629 7.3694
1.383202908801069 6.60765
1.405513911425503 6.38884
1.4278249673332093 6.37038
1.4501343378461518 6.90695
1.4724455028545926 6.92502
1.4947567236847858 6.96006
1.517068001182951 6.46497
1.5393793361953272 6.3567800000000005
1.5616907295681737 6.4534400000000005
1.5840021821477681 6.19796
1.60631369478041 6.21477
1.6286252683124185 5.74067
1.6509369035901333 5.90232
1.6732468618895553 5.56961
1.695558623192809 5.48706
1.7178704487808514 5.3871400000000005
1.7401823395001077 5.49594
1.7625012545597203 4.96741
1.7848028405262486 4.85428
1.8071218901122095 5.494269999999999
1.8294236121921872 4.9378400000000005
1.8517427996910911 5.2973300000000005
1.8740620574440425 5.31046
1.8963639900671978 5.10546
1.9186833908139995 4.7077800000000005
1.9409854680117449 5.5727
1.9633050151394713 5.74808
1.9856246367570705 5.55198
2.0079269371922672 4.71353
2.03024671027244 5.350619999999999
2.0525491637446027 4.87303
2.074869091674931 4.81191
2.097171701569106 5.393
2.1194917877373847 5.19033
2.141811954326636 5.129919999999999
2.164114805233074 4.7308699999999995
2.186435135143035 4.44532
2.208738150935709 4.80122
2.231058647554722 4.45608
2.2533792288321184 5.04219
2.275682498336085 4.601780000000001
2.298003251406138 5.16717
2.3203066942619714 3.95186
2.3426276225136022 4.02661
2.3649486396617507 3.93776
2.387252348930071 4.59319
2.4095735463442893 4.16245
2.4318774374315884 3.73599
2.4541988185014043 4.52837
2.476502894794693 4.72312
2.498824462909887 4.80551
2.521146125856138 4.31163
2.5434504863470337 4.396
2.5657723414244717 4.8017199999999995
2.588076895590662 5.49899
2.610398946189713 5.32299
2.6327210958598384 5.20291
2.6550259469304716 5.1849300000000005
2.6773482972090137 5.57362
2.6996533504259 6.00467
2.7219759047039602 6.22193
2.744298562293959 5.811780000000001
2.7666039251246595 6.31389
2.7889267918020164 6.17149
2.8112323652516555 6.9959
2.833555444408179 7.273969999999999
2.8558786311183852 7.185639999999999
2.8781845268938557 8.1374
2.9005079311721484 8.62485
2.9228140460410397 8.73754
2.9451376712799635 8.75695
2.967444008632326 8.79466
2.9897678582247247 9.93688
3.0120918213106695 10.8555
3.0343984987899373 10.4343
3.0567226913198637 10.9673
3.079029599759726 11.6997
3.101354025127254 12.3064
3.123678568232338 12.8429
3.145985829517914 13.2159
3.16831061055229 13.8271
3.1906181112775593 14.1598
3.212943133635653 14.6352
3.2352682779763207 15.1433
3.2575761442691227 15.8609
3.2799015350264273 15.6574
3.302209649240067 16.1498
3.3245352898092655 16.7163
3.3468436553365257 17.0679
3.369169549113219 17.7517
3.3914955708171384 18.3973
3.413804319727358 18.9684
3.4361305997334863 18.6909
3.4584396084414553 19.4939
3.4807661501462652 19.8163
3.503092824025881 20.4042
3.5254022288463154 20.7684
3.5477291695206588 20.9104
3.5700388426251948 20.9369
3.5923660534916446 22.0846
3.6146934007816114 22.015
3.637003482731501 22.2893
3.6593311053109985 22.5286
3.681641464033634 23.0013
3.7039693653009733 23.9096
3.726297407241705 23.7702
3.7486081875460804 24.313000000000002
3.7709365132734978 25.0684
3.793247578841633 25.5432
3.8155761917550093 25.875
3.8378875459837216 25.799
3.8602164494827234 26.1134
3.882545499606844 27.0414
3.9048572932539183 27.811
3.9271866390645718 27.7676
3.9494987298666713 28.3908
3.971828374764527 28.9707
3.9941581705403255 29.5307
4.016470713506008 29.9818
4.038800813471445 30.655
4.061113662089144 31.0676
4.0834440696459176 31.5688
4.105774632334751 32.2538
4.128087945865126 32.8059
4.150418821249301 33.1818
4.172732448931298 33.4452
4.195063640413578 34.2555
4.2173775856475215 35.0904
4.239709096631102 35.6337
4.262040768704612 36.1556
4.284355196706267 37.0036
4.306687193387355 37.2907
4.329001947444346 38.6091
4.35133427213731 39.1957
4.373666762177566 39.7661
4.395982011761091 40.8507
4.418314834921175 41.9471
4.44063041906622 42.7548
4.4629635787515625 43.3627
4.4852969080429785 44.6799
4.5076130004776225 45.7909
4.529946671403969 46.8578
4.552263106909177 47.4262
4.574597122877047 48.8625
4.596931312711224 49.9208
4.619248269273446 51.0758
4.6415828092605835 52.3403
4.663900117405352 53.2944
4.686235010953232 54.7174
4.708552674085913 56.0909
4.730887924602802 57.4902
4.753223354952695 59.6122
4.775541557023902 60.2435
4.797877349456786 62.0801
4.820195915032126 64.3641
4.842532072957498 65.7578
4.864868414979744 68.0005
4.88718753227192 69.7262
4.909524244902505 72.3164
4.931843734218147 74.9845
4.954180820867835 78.578
4.976518095879839 81.9593
4.998838149695359 85.8778
5.021175803844231 90.9587
5.043496238205739 95.19
5.065834274903528 101.195
5.088172504230693 108.929
5.1104935158799565 117.939
5.132832132875765 132.585
5.155153533596801 156.498
5.1774925416746225 213.231
5.199814334878411 566.21
5.2221537374521505 1984.53
5.244493338631803 3761.7
5.266815727034316 5201.53
5.289155727832427 7852.55
5.311478517248165 9508.12
5.333818921080011 6550.78
5.356159527788849 2083.85
5.3784829252032536 483.173
5.400823940070432 221.088
5.423147747031976 166.709
5.445489173474152 142.123
5.467830807066149 128.477
5.490155234831516 119.99700000000001
5.512497285125229 114.684
5.534822130975162 111.12899999999999
5.557164601388673 107.81
5.579489868738879 103.405
5.601832762690846 101.48700000000001
5.6241758697774475 99.6672
5.646501775867269 98.485
5.668845311622074 97.3025
5.691171647754637 97.6987
5.713515615597765 96.1814
5.735859800852677 95.3544
5.758186788542988 94.5457
5.780531411018185 95.0451
5.802858837297399 94.3722
5.825203900414495 95.3698
5.8475491852224 96.9893
5.869877275883075 98.5916
5.892223006467101 101.956
5.914551544266608 105.962
5.936897724049891 112.696
5.959244129804903 125.62200000000001
5.981573344815301 158.215
6.0039202049061 294.849
6.026249875609095 760.337
6.04859719346037 1389.23
6.070927323278297 1878.32
6.093275102315365 2590.18
6.115623113320588 3609.57
6.137953938319995 3934.35
6.160302415650845 2226.93
6.182633708324452 719.05
6.2049826554078376 227.446
6.227331838745022 125.54899999999999
6.249663839443684 100.791
6.27201349767565 89.8986
6.294345974611799 83.1893
6.316696111167083 78.2878
6.339046488263839 75.1428
6.361379686074702 72.4018
6.383730546639482 70.2614
6.406064229255215 68.2861
6.428415576718203 67.4627
6.450749747566656 66.3854
6.47310158535871 64.7779
6.495453669698332 63.9077
6.517788579421056 62.8871
6.540141159237969 61.9216
6.562476565766648 61.6149
6.5848296444934045 60.7139
6.607182974060425 60.0644
6.6295191323281015 59.2994
6.651872965955752 58.5701
6.6742096296068985 57.9337
6.6965639707294615 57.7228
6.71891856698715 56.765
6.741255995248479 56.4916
6.763611104154477 56.0731
6.785949046381137 55.9246
6.808304671371482 55.2593
6.8306605557940046 55.2389
6.852999275508618 54.5195
6.875355681171544 54.233999999999995
6.897694923437771 53.9279
6.92005185377892 53.7473
6.9423916220322655 53.7386
6.964749080490181 53.095
6.987106804399774 52.8116
7.009447368180821 53.2588
7.031805625367033 52.6813
7.054146723727803 52.5806
7.076505517631004 52.4132
7.098864581288365 52.3199
7.121206488070854 52.0745
7.143566093607822 51.5609
7.165908543567245 51.9904
7.188268694426048 52.033
7.2106291193438095 51.8107
7.232972390625943 51.6293
7.255333366030969 51.6613
7.277677189091925 51.4031
7.300038718428332 51.5829
7.322400526130865 51.4525
7.344745183422596 51.7923
7.367107550224791 51.8559
7.389452767901992 51.935
7.411815697249891 51.8318
7.434161478756298 51.3912
7.456524974096713 51.3635
7.478888753837185 51.4256
7.501235387657368 52.4592
7.523599738562711 56.1569
7.545946944825532 62.5903
7.568311870344528 64.6991
7.5906770845765665 59.9931
7.613025156078678 55.2519
7.635390950099687 53.6847
7.657739602662809 53.071000000000005
7.680105979923558 53.0619
7.702472650212829 53.3893
7.724822180948224 53.571000000000005
7.747189439655568 53.6404
7.769539560075357 53.7849
7.791907410653562 54.4893
7.81425812420825 54.5464
7.836626570110925 54.7498
7.858995315087906 55.7279
7.881346924933401 55.8029
7.903716270417482 56.2358
7.926068482028405 56.4202
7.948438431475253 57.1659
7.9708086843180235 57.6376
7.993161805171116 58.3937
8.015532667162402 58.6915
8.037886398416653 59.5336
8.060257873014221 59.9543
8.082629655331942 60.7488
8.104984308787587 61.5991
8.127356708900503 62.1584
8.149711981398308 62.9855
8.172085002766314 63.8037
8.194458336181368 64.7514
8.216814543847752 65.8321
8.23918850371002 67.2421
8.26154533906492 68.7702
8.283919928836452 70.2116
8.306277395339652 71.2314
8.328652618483376 72.7213
8.351028159736202 74.9413
8.373386579575245 77.763
8.395762759396959 79.9315
8.418121819038275 83.3686
8.440498640894003 88.12700000000001
8.462875785192262 95.3531
8.485235811156207 110.738
8.507613602688501 173.46
8.529974277114228 370.045
8.552352719347912 608.775
8.574731488360351 771.459
8.59709314210385 857.9939999999999
8.619472567021075 1046.93
8.64183487789147 1414.44
8.664214962183097 1834.7
8.686577933647762 1683.66
8.708958680784317 987.185
8.731339760774953 444.918
8.753703729764451 184.65200000000002
8.77608547780821 117.698
8.798450116065078 103.95
8.820832535634787 97.0418
8.843215292401656 93.3487
8.865580941199045 90.7208
8.887964374703538 88.5539
8.910330701447199 87.4386
8.932714815164482 86.0694
8.955099270424924 85.0198
8.977466620733543 84.2491
8.999851761421976 83.4824
9.022219798361645 82.5466
9.04460562795561 82.1989
9.066991803441677 81.7399
9.089360876979615 81.5108
9.111747746589993 81.189
9.13411751544971 80.9193
9.156505082664324 80.398
9.178875550323522 81.0245
9.20126381862328 81.7672
9.223652438908596 87.2702
9.246023961427412 97.1408
9.26841328802173 99.5438
9.290785518039224 94.0599
9.313175554425882 87.3993
9.335565947154315 83.0342
9.357939245086508 81.8249
9.380330352834827 81.4093
9.40270436697103 81.5916
9.425096193225055 81.4442
9.447488380180165 82.0391
9.469863475295412 82.59100000000001
9.492256385987508 82.7975
9.514632206018318 83.4738
9.537025843935714 83.9381
9.559402392368193 84.7157
9.581796761000229 85.7263
9.604191496441521 85.4568
9.626569144158516 86.3242
9.648964615551032 87.1686
9.671343000390081 87.9157
9.693739211225699 88.794
9.716135793237463 90.0185
9.738515290448102 91.2022
9.760912617143402 92.2953
9.783292860202891 93.368
9.805690935076182 94.4448
9.828089385495742 95.48899999999999
9.850470754023561 97.9358
9.872869957865444 100.529
9.89525208097539 103.314
9.917652041736662 107.27
9.940052382417589 113.48
9.962435644102392 130.084
9.984836746950979 185.793
10.007220771957746 344.30800000000005
10.029622640473708 552.145
10.052007432299963 680.613
10.074410069984072 722.092
10.096813093716005 792.311
10.119199042482517 977.1189999999999
10.141602840636468 1318.38
10.163989564971628 1642.89
10.186394141051062 1574.01
10.208799107559706 1024.27
10.231187001965623 515.16
10.253592751657669 225.954
10.275981430388155 136.25799999999998
10.298387966769793 116.61200000000001
10.320794897965431 111.022
10.343184759907361 107.583
10.36559248305461 104.91799999999999
10.387983138083852 104.066
10.410391656691655 105.999
10.432800574501677 120.171
10.455192425893369 163.453
10.47760214443012 215.885
10.499994797678786 248.753
10.522405320453982 256.518
10.54479877906917 271.993
10.567210109595656 315.492
10.5896218454736 389.605
10.612016518879773 474.54
10.634429067781074 492.72900000000004
10.656824555333241 389.48800000000006
10.679237920773568 239.051
10.701651695961992 140.754
10.724048411481384 102.336
10.746463008485165 90.8086
10.768860546937125 86.1726
10.791275969274796 83.3219
10.81369180576079 81.5904
10.836090585366925 80.189
10.858507252467449 78.7641
10.88090686379991 77.5185
10.903324365036394 76.7316
10.925724811614439 75.2605
10.948143150509463 74.8216
10.970561909719066 73.9317
10.992963615930844 72.8887
11.015383218085756 72.0266
11.037785768347074 71.3379
11.06020621697282 70.9323
11.082627090322113 70.5315
11.105030913430326 69.5914
11.12745263854165 68.9046
11.149857314510728 68.03699999999999
11.172279894912576 67.9568
11.194702904450653 67.2807
11.217108866490921 66.3057
11.239532736615194 66.1853
11.26193956033512 65.8459
11.284364294577085 65.3764
11.306789462371718 65.3013
11.329197585398376 65.0154
11.351623622610898 64.8577
11.37403261614354 64.0236
11.396459526308487 64.0963
11.418869393879497 63.6009
11.441297180532617 63.1912
11.463725406927658 62.5634
11.486136592353875 62.4042
11.508565700543707 62.3015
11.530977768845315 62.505
11.553407762368774 61.786
11.575838200059769 61.5897
11.598251599479612 61.6427
11.620682927815501 61.5171
11.64309721895548 61.4099
11.665529441478206 61.1446
11.687962112597958 60.9927
11.710377748130886 61.1193
11.732811318753434 61.1962
11.755227854859067 61.2063
11.777662328529495 60.724
11.800079768750786 60.6627
11.822515149015453 60.5943
11.844950984084935 60.9873
11.867369787303163 60.7218
11.889806534289491 61.0179
11.912226250487029 62.0101
11.934663912939751 64.0103
11.9571020346363 66.0514
11.979523127133968 66.0512
12.001962169624331 65.6452
12.024384183972964 64.7139
12.046824150809913 67.1694
12.069264581333726 76.8807
12.091687985297767 90.5768
12.11412934550045 101.48299999999999
12.136553680195208 107.103
12.158995973632788 109.881
12.181438735204349 114.18299999999999
12.20386447284199 124.99700000000001
12.226308172985636 144.372
12.24873485024193 171.145
12.271179492516982 188.697
12.293607112949127 179.607
12.316052700916226 143.236
12.338498763250042 102.054
12.360927805303868 76.6178
12.383374818673879 66.824
12.405804812803074 63.8517
12.428252780773262 63.1479
12.45070122756722 62.5749
12.473132656675375 62.5648
12.49558206341869 62.6042
12.518014453510101 62.5979
12.540464823770117 62.6483
12.562915677315177 62.6843
12.58534951575545 63.2195
12.607801338171472 63.1177
12.630236146511358 63.0515
12.652688941369085 63.8382
12.675124723177234 64.0841
12.697578494048786 64.3213
12.720032754458185 64.4898
12.742470003354093 65.1914
12.764925245138771 65.6486
12.787363476431278 65.9393
12.809819703166806 66.1865
12.83227642391173 67.1136
12.854716135692716 67.7816
12.877173846755147 68.8092
12.899614549869717 69.2002
12.9220732548287 69.941
12.94453245827299 70.5201
12.966974655289818 71.6289
12.989434858002571 72.4564
13.011878055298721 73.2678
13.034339260862497 74.4283
13.056800969391883 76.0604
13.079245674017244 78.6393
13.101708390774869 80.6697
13.12415410463411 86.1139
13.146617833206086 102.256
13.169064559883248 132.73
13.191529303857127 164.85299999999998
13.213994557076367 187.94799999999998
13.236442809902437 196.235
13.258909083908291 199.65400000000002
13.28135835851934 209.72799999999998
13.30382565690295 234.72099999999998
13.326293469022952 277.633
13.348744283242008 335.721
13.371213125129904 387.18300000000005
13.39366497011003 385.19599999999997
13.416134845360597 317.132
13.438605238843131 222.05900000000003
13.46105863690397 149.506
13.483530069144786 120.759
13.505984506951902 129.776
13.528456981549432 154.843
13.550929978879088 173.93
13.573385983253365 182.082
13.595860028340867 182.438
13.618317081455832 187.005
13.64079217790333 200.524
13.663250283359057 227.352
13.685726434770173 268.15
13.708203115221277 320.63599999999997
13.730662806148091 342.417
13.75314054697177 313.249
13.775601299246777 238.016
13.798080104050406 161.235
13.820559442405358 109.118
13.843021793671388 88.729
13.865502201420897 82.2445
13.887965623051947 80.4096
13.910447103807167 78.9473
13.932929122629764 77.0843
13.955394156785959 76.4368
13.977877254034569 75.4568
14.000343367582113 74.6979
14.022827546871707 73.8191
14.045294743423524 73.05
14.06778000837062 72.4322
14.090265817715476 72.337
14.112734645763819 72.2911
14.13522154619454 73.2281
14.157691466286913 74.2466
14.180179461423874 73.7902
14.202668005486178 72.9049
14.22513957064374 71.2273
14.247629214846473 70.0862
14.270101881097517 69.3623
14.29259262906496 68.9505
14.315083930490205 68.8883
14.337558255389705 68.4264
14.360050666019726 68.2473
14.382526101071944 68.241
14.405019624534942 67.8872
14.427513705993134 67.7752
14.449990813291825 67.8178
14.47248601302899 67.7544
14.49496423954951 67.8402
14.517460561197822 67.8578
14.539939910570322 67.5653
14.562437357763558 67.6137
14.58493536931253 67.9094
14.607416409993311 67.9715
14.62991555254159 68.2547
14.652397725157423 68.4975
14.674898002342799 68.8824
14.697398848433282 68.947
14.719882725991326 70.0223
14.74238471217934 71.065
14.764869730765593 73.5517
14.787372860692983 79.9484
14.809876564079925 93.1282
14.83236330125751 107.09200000000001
14.854868153850365 116.493
14.877356041159485 120.538
14.899862046604186 121.412
14.922351087688757 124.05
14.944858249632887 130.363
14.967365991421232 142.835
14.989856770231246 160.44899999999998
15.012365673994204 185.417
15.03485761569738 205.06
15.05736768508665 205.731
15.07987833888692 180.81599999999997
15.102372032001655 142.151
15.124883856909658 104.45200000000001
15.14737872204565 82.6279
15.169891721717274 73.9318
15.192405310371893 70.9551
15.214901940621196 69.7827
15.237416709527137 68.6929
15.259914520936249 68.1784
15.282430473753607 67.3813
15.304947020131227 66.4145
15.327446610371178 66.4667
15.349964346154254 65.9382
15.372465126703139 65.9066
15.394984055556009 65.7869
15.417486030076159 65.6968
15.44000615566487 65.3589
15.462526881230803 65.4419
15.485030653812652 65.3638
15.507552581617434 64.8649
15.530057557334603 64.8564
15.55258069104857 64.8163
15.575104429329837 65.3906
15.597611216864632 65.2123
15.620136166564563 65.4655
15.6426441664095 66.1091
15.665170331202765 67.7157
15.687697105158826 72.98899999999999
15.710206930593545 83.4846
15.732734925158933 94.7467
15.755245972089478 103.021
15.77777519094324 107.154
15.800287463046663 107.78299999999999
15.822817909869592 108.723
15.84534897229804 111.964
15.867863089299354 120.042
15.890395385222186 131.55100000000002
15.912910736597423 149.195
15.935444269699861 170.34400000000002
15.957978423016485 183.56599999999997
15.980495633101265 177.833
16.003031029129367 155.705
16.02554948280019 120.545
16.048086125229432 90.774
16.070623392487107 74.0439
16.09314371869582 66.4901
16.11568223789321 63.0002
16.13820381691126 61.6085
16.160743591742527 60.7755
16.183283996022084 59.8249
16.205807461423195 58.845
16.228349126881973 58.3861
16.25087385432698 58.416000000000004
16.27341678466365 57.6044
16.29594277784926 57.2883
16.31848697676433 56.7157
16.341031811604868 56.2313
16.36355971058487 56.2228
16.3861058195587 56.1426
16.40863499352978 55.4903
16.431182380342005 55.3939
16.453730407713202 55.0679
16.476261501364792 54.903999999999996
16.498810812136167 54.58
16.52134319004079 54.6208
16.54389378792203 54.623999999999995
16.566445031001553 54.4326
16.588979342490088 54.1812
16.61153187824822 54.2161
16.634067483263312 54.2058
16.656621315414416 53.8087
16.679175797408888 53.607
16.701713349928728 53.6705
16.72426913389191 54.0279
16.74680798922351 53.7653
16.76936507887444 53.729
16.791905240734874 53.7047
16.814463639794468 53.7249
16.837022695210294 53.7956
16.859564824093756 53.8712
16.882125194503903 53.9638
16.904668639217885 54.3658
16.927230328348003 54.3901
16.949792678493612 54.6597
16.972338104193863 54.6059
16.994901778652235 54.6417
17.017448529496576 54.5993
17.040013531998152 54.9362
17.06257920018044 55.1544
17.0851279459922 56.3227
17.107694947817667 58.1372
17.130245028099072 60.6357
17.15281336730298 62.4776
17.17536478578733 63.7902
17.19793446610687 64.42399999999999
17.220504818648422 64.7598
17.243058251703697 64.8561
17.265629950971032 65.7978
17.288184731571736 67.8089
17.310757781306908 71.0534
17.33333150794385 74.1651
17.355888317140174 77.9941
17.37846339986244 81.2547
17.401021565958885 81.2519
17.42359800851343 77.5866
17.44617513265564 71.9092
17.468735341390783 65.9569
17.491261035594565 61.6101
17.51396340099364 59.2866
17.536490463869136 58.8123
17.559018209820174 58.3355
17.58154663977963 58.4937
17.604251766089718 58.6264
17.626781572227713 58.8601
17.64931206518155 58.9227
17.671843245885103 59.2908
17.69455114821572 59.2866
17.717083712612634 59.9271
17.739616967569667 60.3476
17.762150914021706 60.8603
17.78486160749854 61.1764
17.807396945166804 61.7739
17.829932977143503 62.3074
17.85246970436452 63.3202
17.875183204129467 65.79899999999999
17.897721330097664 71.3467
17.920260154126645 78.0634
17.942799677153296 83.615
17.9655159983646 87.0015
17.988056927677544 88.0537
18.010598558807683 88.3414
18.033140892692916 89.0735
18.05586005052525 91.4377
18.07840379824407 95.6378
18.10094825154059 102.02
18.12366954819864 111.476
18.146215420998306 124.83
18.16876200220057 138.52700000000002
18.191309292745153 145.944
18.214033452627167 143.964
18.236582170236648 130.281
18.259131600016456 113.37100000000001
18.281681742907335 96.8489
18.304408781233683 87.7953
18.32696035875955 84.8614
18.349512652227624 85.1786
18.372065662579683 88.2827
18.394795594587553 92.9822
18.41735004715306 98.5331
18.43990521943684 102.235
18.46246111238171 101.887
18.485193953325208 95.961
18.507751296070428 86.1786
18.530309362314178 77.0127
18.552868153000343 69.6061
18.57560391815056 65.17
18.59816416623245 63.161
18.620725141597372 61.9435
18.643286845190268 61.0047
18.666025549835414 60.4032
18.688588718427933 59.9336
18.711152618092243 59.5933
18.73389353884365 59.2211
18.75645890921984 58.9118
18.77902501351406 58.4757
18.801591852673102 58.3569
18.824335739722738 57.8003
18.846904057212626 57.9234
18.8694731124168 57.5965
18.89204290628315 57.5807
18.914789774966803 57.2594
18.937361054791623 56.7365
18.959933076131318 56.7245
18.982505839934877 56.7404
19.00525570560582 56.445
19.027829963004184 56.13399999999999
19.05040496572238 56.2739
19.072980714710468 56.2869
19.095733592739563 56.2864
19.11831084296757 56.8871
19.140888842324735 58.0031
19.16346759176222 59.2557
19.18622349753803 60.4572
19.208803755869358 61.5111
19.231384767143577 61.6954
19.253966532312948 62.1987
19.276725481241822 62.0247
19.29930876296784 62.3646
19.3218928014549 63.1794
19.34465404436217 64.3354
19.36723960516257 66.0883
19.389825925592426 67.7887
19.412413006605938 70.5452
19.43517731967805 72.8347
19.457765930683355 73.9477
19.48035530514408 72.6374
19.50294544401556 69.2721
19.525712842708348 64.2261
19.54830451925909 60.0036
19.570896963095727 56.3096
19.593490175174704 54.5397
19.616260674962184 54.0118
19.638855432416964 53.3171
19.661450960992624 53.4741
19.68404726164677 53.3054
19.706820878021247 53.0849
19.729418731756834 53.4296
19.752017360452857 52.8719
19.77461676506804 52.9319
19.797393513540218 53.0483
19.819994478951667 53.2633
19.84259622316767 54.2598
19.8651987471481 55.5967
19.887978643247177 56.606
19.91058273574792 57.396
19.933187610901943 57.7639
19.955969879466828 58.0517
19.97857632894404 58.1683
20.00118356396599 58.1623
20.023791585494575 58.6229
20.046577028914875 59.5874
20.069186632506966 60.8542
20.091797025500632 63.3412
20.114408208858933 66.1338
20.137196842715273 69.1475
20.159809615886765 71.6265
20.18242318232135 72.1846
20.20503754298326 71.0521
20.227829382875154 68.3332
20.250445341109344 65.1176
20.27306209647285 62.4281
20.29567964993108 60.6872
20.31847471147704 60.0139
20.34109387027612 60.7065
20.363713830075454 62.3869
20.386334591841646 63.9938
20.409132890679302 64.9708
20.431755265564437 64.593
20.454378445325528 62.3541
20.477002430930366 59.5159
20.499803982716553 56.1895
20.522429589228004 53.2755
20.54505600449589 51.4663
20.567683229489194 50.6788
20.590488049900088 50.2842
20.61311690359731 50.0696
20.63574656993626 49.7389
20.658553853717297 49.4042
20.681185154618298 49.2736
20.703817271080066 49.2943
20.72645020407368 48.9328
20.749260783967177 48.9311
20.771895359337133 49.0486
20.794530754161617 48.853
20.817166969412938 48.7259
20.83998086114876 48.6671
20.86261872660049 48.6672
20.885257415405402 48.61600000000001
20.90789692853701 48.4717
20.930714147864748 48.2448
20.953355319030678 48.4785
20.97599731745334 48.4906
20.99864014410749 48.5025
21.021460706796564 48.7412
21.044105199328826 48.9216
21.06675052302631 49.108999999999995
21.089396678865015 49.2236
21.112220600704806 49.1674
21.134868430275347 49.3051
21.15751709492456 49.1977
21.180166595629693 49.0829
21.202993892429635 49.3578
21.22564507473034 49.4985
21.24829709602816 49.8743
21.27112693608965 50.2286
21.293780644891275 50.9472
21.316435195634053 51.1049
21.339090589297417 51.0161
21.361923832041875 50.941
21.384580921090404 50.2814
21.407238856007325 49.376000000000005
21.429897637773326 49.0262
21.45273429906592 48.7397
21.475394784108598 48.4253
21.498056118951983 48.4193
21.520718304578022 48.4945
21.543558400304388 48.4507
21.566222297108816 48.7473
21.58888704765135 48.6904
21.61155265291521 49.1342
21.63439619898156 50.0579
21.657063523335786 50.7803
21.67973170537063 51.8662
21.7024007460706 52.8353
21.72524775840385 53.3939
21.747918526116475 53.7263
21.770590155457388 53.8393
21.79326264741238 53.9366
21.816113141960237 54.3737
21.838787368860547 55.2193
21.861462461341976 56.1735
21.884315579735777 57.8862
21.90699241312273 59.2857
21.92967011506078 61.0611
21.95234868653799 63.1275
21.9752053151131 65.1295
21.997885635446785 66.0865
22.020566828293532 65.5478
22.04324889464272 63.5499
22.066109049404666 60.7267
22.088792872571794 58.065
22.111477572219204 56.028
22.1341631493376 55.0406
22.157026846313123 54.9782
22.179714188221507 55.5297
22.202402410582668 55.9971
22.22509151438863 55.7666
22.24795876962584 54.9798
22.270649646204486 53.8889
22.293341407213727 52.3075
22.316034053646906 50.9975
22.338904883215342 49.8423
22.36159931041458 49.346000000000004
22.38429462602756 49.031000000000006
22.40699083104897 48.5799
22.429865251039757 48.5321
22.452563244831367 48.5162
22.47526213102522 48.5511
22.49813925616515 48.5859
22.520839937143307 48.5151
22.543541513520587 48.5001
22.56624398629403 48.3151
22.589124730075895 48.3363
22.611829005656723 48.4613
22.63453418063466 48.4306
22.657240256008077 48.7151
22.680124634582935 49.2106
22.70283252079775 49.9105
22.725541310413075 50.6815
22.74825100442868 51.2494
22.771139033969575 51.6335
22.79385054687155 51.6278
22.81656296718292 51.5073
22.83927629590484 51.5761
22.862167992606945 51.8019
22.88488314827121 52.0242
22.907599215359284 52.3016
22.93031619487366 52.8484
22.953211574954405 53.4235
22.975930389478226 54.4176
22.998650119445763 55.6434
23.02137076586092 56.6213
23.044269845560063 57.6391
23.06699233506288 57.8866
23.089715744034912 57.3969
23.112617610931565 56.1496
23.135342869061212 54.3897
23.158069049684816 52.3475
23.1807961538087 50.5458
23.20370174880544 49.5624
23.226430710184808 49.1195
23.249160598093425 48.918
23.271891413539002 49.0137
23.294800752937697 49.3711
23.31753343374794 50.2741
23.340267045128353 50.6935
23.36300158808808 51.2426
23.38591468821339 51.5032
23.408651104658304 51.6573
23.431388455719986 51.4824
23.454126742409 51.4884
23.4770436196085 51.5224
23.499783787914662 51.7138
23.522524894889884 51.8125
23.54526694154616 52.151
23.56818761219047 53.013000000000005
23.59093154860734 53.6682
23.613676427751283 54.951
23.636422250635754 56.1599
23.659346731118656 57.3202
23.68209445191868 57.8291
23.704843119509587 57.143
23.72759273490623 55.6413
23.750521041644767 53.4592
23.77327256312355 51.0796
23.796025035462787 49.1844
23.818956224555475 47.4656
23.841710609113413 46.7468
23.86446594758979 46.1635
23.887222241002014 45.7547
23.910157285144578 45.3451
23.932915498962537 45.3704
23.955674670778713 45.2407
23.978434801611975 45.0008
24.001373717286125 44.8361
24.024135776723917 44.8538
24.046898798245582 44.5658
24.06966278287146 44.4696
24.092605586582614 44.3802
24.115371508023642 44.1908
24.1381383956401 44.0256
24.16090625045381 43.8657
24.183852958731244 43.7802
24.206622758582608 43.6478
24.229393528706886 43.4876
24.252165270127392 43.6924
24.27511589952438 43.6396
24.297889594216997 43.4303
24.32066426328598 43.2645
24.34343990775613 43.188
24.36639447485003 43.1021
24.38917208083877 43.1449
24.41195066531332 43.0556
24.43490819850244 42.972
24.457688750692377 42.878
24.48047028445616 42.8229
24.503252800821233 42.8799
24.526214300784112 42.8283
24.548998793132213 42.8751
24.57178427117417 42.672
24.59457073593893 42.6813
24.617536219319863 42.7217
24.64032466834748 43.0039
24.663114107195035 42.8099
24.685904536893013 42.6663
24.708874020360852 42.7554
24.731666442613744 42.8043
24.754459858818787 42.43899999999999
24.777254270007962 42.3002
24.80022777025625 42.0412
24.82302418230472 42.1063
24.845821592443674 42.1273
24.86862000170663 42.3652
24.891597535453727 42.1739
24.914397953892728 42.5522
24.93719937456671 42.5516
24.96000179851076 42.489
24.98298338249997 42.583999999999996
25.00578782394922 42.6762
25.028593271784167 42.7961
25.05157790644186 43.0668
25.07438537804115 43.1058
25.097193859145293 43.4553
25.120003350792075 43.6022
25.142992065061257 43.7123
25.165803588823465 43.9266
25.18861612625217 44.2209
25.211429678386736 44.2752
25.234422489079968 44.5691
25.257238081693636 44.6328
25.280054692141732 44.8011
25.3028723214652 44.6879
25.325869245420463 44.4773
25.348688923599397 44.4472
25.371509623787006 44.4112
25.394331347025812 44.5491
25.41733240110666 44.8057
25.440156181590016 44.6695
25.46298098826268 44.7775
25.48580682216873 44.339
25.50881202326435 43.7501
25.53163992281684 43.0475
25.55446885274561 42.3258
25.577298814096377 41.6398
25.600308179121807 41.2615
25.623140214533745 41.1568
25.64597328451537 40.958
25.66898578564376 40.6702
25.691820936010206 40.7699
25.714657124097695 40.6501
25.737494350954734 40.5969
25.760511045684957 40.5691
25.783350361364224 40.6063
25.806190718969255 40.6677
25.82903211955018 40.7521
25.852053024868923 40.8671
25.874896522722523 40.8834
25.897741066713106 40.8894
25.920586657892454 40.7711
25.943611790812668 40.8422
25.966459487728237 40.753
25.989308234998564 40.638000000000005
26.01215803367705 40.9287
26.03518741123814 41.0037
26.05803932412957 41.0093
26.080892291600094 40.9615
26.10374631470478 41.1423
26.12677995397268 41.4053
26.14963609978026 41.6933
26.172493304397875 41.815
26.19535156888223 41.9485
26.218389486949604 41.7265
26.241249882640123 41.653999999999996
26.26411134137826 41.227
26.28715248187403 41.0588
26.31001607820869 40.7086
26.3328807407756 40.5354
26.35574647063438 40.6419
26.37879191991473 40.5515
26.401659795896734 40.5746
26.424528742360263 40.6019
26.447398760366614 40.6207
26.470448535598294 40.6534
26.49332070826805 40.6535
26.516193955675355 40.9538
26.53906827888316 41.0465
26.562122397260108 40.9798
26.584998883685063 41.1267
26.607876449110325 41.159
26.63075509460056 41.3744
26.65381357334404 41.5311
26.67669439061878 41.7212
26.699576291163382 41.9411
26.722459276044212 42.3087
26.745522132402975 42.4926
26.768407297649354 42.5259
26.791293550442003 42.2769
26.814180891848974 41.9571
26.837248143099337 41.2284
26.860137673466657 41.1145
26.88302829566349 40.7715
26.90592001075963 40.551
26.92899167420566 40.5484
26.951885586870763 40.2842
26.974780595655517 40.0717
26.99785558178161 39.9328
27.020752794605112 39.6652
27.043651106772522 39.3511
27.06655051935668 39.1989
27.089629948036183 38.8989
27.112531573292053 38.9103
27.135434302194138 38.7586
27.158338135817015 38.6641
27.181422024430987 38.7545
27.204328079372566 38.7254
27.22723524226965 38.7725
27.250143514198573 38.7818
27.273231880156334 38.8339
27.296142382065014 38.6632
27.319053996245536 38.5189
27.341966723775965 38.4627
27.365059584515222 38.4917
27.38797455070062 38.4536
27.410890633481237 38.2407
27.433807833936918 38.2559
27.456905206923906 38.4136
27.47982465472398 38.2943
27.502745223449743 38.4154
27.525666914182825 38.5312
27.548768816912457 38.5985
27.571692763693633 38.5666
27.59461783573812 38.5046
27.617723149491244 38.4045
27.640650484125285 38.5018
27.66357894728264 38.5757
27.686508540048052 38.6515
27.709618414237887 38.5457
27.732550278321757 38.5099
27.755483275279115 38.3733
27.778417406196485 38.3548
27.801531858397514 38.2394
27.824468269376716 38.0796
27.847405817586786 38.0953
27.870344504116094 38.1085
27.893463551932008 38.2084
27.916404527281053 38.2743
27.93934664422563 38.2663
27.962289903855886 38.2032
27.98541356491974 38.4114
28.00835912214229 38.3949
28.03130582533231 38.5597
28.054253675581805 38.705999999999996
28.077381967556104 38.6381
28.100332124185126 38.8032
28.123283431160893 39.2086
28.146235889577238 39.089
28.169368830154156 39.1905
28.192323603752033 39.0916
28.215279532083304 38.8721
28.238415973016764 38.6905
28.261374223145094 38.5823
28.284333631303806 38.204
28.307294198589954 38.0668
28.330435319167677 37.853
28.353398217078915 37.5485
28.376362277420153 37.4116
28.39932750129032 37.2508
28.422473319286713 36.9935
28.44544088262495 36.955999999999996
28.468409612800283 36.7151
28.491379510913497 36.3283
28.51453004413313 36.0594
28.53750229057244 36.0547
28.56047570826344 35.9339
28.583450298308804 36.0507
28.606605564586562 35.6927
28.629582511831156 35.8893
28.65256063474956 35.9883
28.675539934446338 35.8349
28.698699951647605 35.766
28.72168161743193 35.580999999999996
28.74466446331978 35.5133
28.767648490417624 35.4832
28.790813276438353 35.3487
28.813799678527303 35.3715
28.836787265157085 35.3406
28.859955641890075 35.4764
28.882945610203045 35.2948
28.905936766392035 35.1767
28.928929111566863 35.2506
28.952102288520145 35.2831
28.975097024308607 35.243
28.998092952423807 35.1751
29.021090073977508 35.2793
29.04426806913204 35.1014
29.067267590245258 34.8941
29.090268308143695 34.9585
29.11327022394099 34.8942
29.13645305530891 34.8104
29.159457379627167 34.5005
29.18246290519685 34.4731
29.20546963313352 34.382
29.22865731875826 34.3692
29.25166646419296 34.3819
29.27467681535305 34.1428
29.29768837335608 34.2542
29.320880931312562 34.2442
29.34389491580634 34.181
29.366910110507334 34.0887
29.38992651653503 34.1001
29.41312396492981 34.0238
29.436142806456754 34.0447
29.45916286268059 34.0243
29.48236399319994 34.0345
29.50538649169417 34.1057
29.528410208259935 34.066
29.55143514402014 33.7889
29.574641196749695 33.6874
29.597668583816574 33.5811
29.6206971934585 33.4197
29.64372702680042 33.4059
29.666938019934474 33.2453
29.689970313635285 33.022
29.713003834422636 33.0401
29.73603858342347 32.9344
29.759254535188578 32.8229
29.78229175361658 32.7987
29.80533020365064 32.8927
29.82836988641968 32.8796
29.85159081507472 32.8128
29.874632976355343 32.7101
29.89767637376955 32.7337
29.920721008448314 32.5794
29.9439469322847 32.6594
29.96699405457564 32.5583
29.9900424175358 32.5465
30.013092022298157 32.4618
30.03632295963995 32.5469
30.059375061131373 32.4433
30.08242840783577 32.5947
30.105483000888153 32.6171
30.128718970092244 32.3774
30.151776069006917 32.4035
30.17483441768648 32.3739
30.198074175317235 32.3675
30.221135036724256 32.3707
30.24419715131772 32.253
30.267260520236203 32.2022
30.290505341942243 32.3577
30.313571232750228 32.3865
30.336638381310948 32.4807
30.35970678876503 32.39
30.38295669299435 32.406
30.40602763151657 32.4757
30.429099832366074 32.2651
30.452173296685572 32.2192
30.47542830191959 32.1724
30.498504306502497 32.1004
30.521581577995562 32.2174
30.544660117543582 32.1475
30.56792024229725 32.1754
30.59100133132069 32.0881
30.614083691845494 32.1222
30.637167325018545 32.0781
30.660432587840603 32.0867
30.683518779717886 32.0552
30.70660624769615 32.1248
30.729694992924372 32.0631
30.75296541239743 32.2388
30.77605672557558 32.2941
30.799149319462742 32.2796
30.8224236211637 32.2372
30.845518789950724 32.25
30.868615242910597 32.1498
30.891712981195973 32.0747
30.91499247215866 31.9905
30.938092794619365 31.8681
30.96119440587579 31.8127
30.984297307082752 31.6255
31.00758200598383 31.5354
31.030687500658694 31.4616
31.053794288760695 31.363000000000003
31.076902371446767 31.3598
31.100192296997445 31.2657
31.12330298246119 31.1614
31.14641496599209 31.1729
31.169528248749216 31.1034
31.19282341969534 31.1286
31.215939314557186 31.1961
31.239056512134788 31.1469
31.262175013589378 31.0056
31.28547544871168 30.9583
31.30859657161541 30.883000000000003
31.331719001892175 30.8808
31.35484274070538 30.9717
31.378148458819545 30.8703
31.401274828443725 30.8515
31.424402510106933 30.8229
31.447712205419993 30.9309
31.470842524931633 30.7407
31.493974159989783 30.8434
31.51710711176168 30.7942
31.54042212308802 30.7449
31.563557722100917 30.8662
31.586694641341655 30.8051
31.609832881979628 30.9032
31.63315322823208 30.8558
31.656294125521327 30.749000000000002
31.679436347728515 30.5422
31.70257989602529 30.4361
31.725905596152327 30.4217
31.74905181052835 30.3049
31.772199354521323 30.2883
31.79534822930507 30.1768
31.818679302290967 30.3485
31.84183085259981 30.2643
31.864983737233473 30.1662
31.88813795736804 30.1568
31.911474422233013 29.9532
31.934631327356435 30.0902
31.9577895715215 30.0549
31.980949155906522 29.9754
32.004291031706956 30.1061
32.027453310562606 29.986
32.05061693318573 29.9529
32.07396288236386 29.9895
32.09712920658542 29.9713
32.12029687812702 29.8991
32.14346589817093 29.8374
32.166817291729984 29.750999999999998
32.18998902288583 29.6762
32.21316210610336 29.5585
32.23633654256711 29.4382
32.259693399663725 29.4223
32.282870556771144 29.2561
32.30604907069099 29.4025
32.329228942610065 29.1705
32.35259128243769 29.0756
32.375773884550505 29.0888
32.398957848235646 28.9935
32.422143174682176 28.9271
32.445511016471215 28.809
32.468699082679954 28.7781
32.49188851523011 28.7409
32.51507931531304 28.6392
32.538452678331 28.7083
32.56164622776311 28.6322
32.58484114831493 28.4583
32.60803744118015 28.691
32.631416344731896 28.596
32.654615396551876 28.5106
32.67781582427913 28.4731
32.701198898634416 28.3952
32.72440209253756 28.3481
32.747606665947124 28.3331
32.77081262006088 28.2746
32.79420126883317 28.2087
32.81740999876112 28.2911
32.840620112999424 28.213
32.86383161274818 28.1152
32.88722585534586 28.1359
32.91044014056596 28.0629
32.933655814909734 28.11
32.95687287957963 28.1036
32.98027273544904 27.9242
33.00349259526636 27.8956
33.026713849030116 27.9762
33.04993649794511 27.8478
33.073341986570746 27.9033
33.09656744032826 27.7747
33.11979429286444 27.8371
33.14302254538647 27.7615
33.166433686291185 27.7572
33.18966475336992 27.6699
33.212897224069096 27.6463
33.23613109959831 27.6707
33.259547912343415 27.5893
33.2827846121627 27.6642
33.306022720453775 27.5877
33.32926223842861 27.4244
33.352684742614166 27.4804
33.37592709463173 27.517
33.399170859982064 27.4641
33.422597648419426 27.3999
33.44584425514446 27.3025
33.46909227885668 27.2662
33.4923417207723 27.2014
33.51577423505344 27.1957
33.539026528130385 27.0176
33.56228024307245 27.0408
33.585535381098246 26.8635
33.60897364093058 26.7923
33.63223163992385 26.7785
33.6554910656699 26.7578
33.678751919389796 26.7308
33.702195944520106 26.6032
33.72545966903325 26.6066
33.74872482519663 26.5246
33.771991414233746 26.4519
33.79544122444841 26.5213
33.81871069412428 26.4463
33.84198160035767 26.4589
33.86525394437455 26.3867
33.88870955949969 26.3703
33.911984794020626 26.3042
33.93526147001624 26.235
33.958539588715006 26.2779
33.98200102861669 26.2324
34.0052820477047 26.2165
34.02856451319451 26.1154
34.05203033759056 26.1253
34.07531571090147 26.1151
34.09860253431845 26.098000000000003
34.121890809074316 25.9234
34.145362493118924 25.8711
34.16865368561615 25.8191
34.191946333164054 25.8003
34.21524043699793 25.8254
34.23871800066799 25.7865
34.26201503218366 25.6375
34.28531352370466 25.6221
34.30861347646881 25.5547
34.33209693978188 25.5419
34.3553998301885 25.5803
34.378704185565205 25.5062
34.402010007152356 25.4304
34.42549939016683 25.4738
34.44880815937748 25.2922
34.472118398533134 25.2714
34.49543010887669 25.3749
34.51892543169198 25.1966
34.54224009966052 25.2623
34.56555624255917 25.2173
34.58887386163339 25.074
34.61237514439016 24.9652
34.6356957311114 25.0133
34.65901779775809 24.9423
34.68252356662995 24.9221
34.705848608458616 24.9398
34.72917513396849 24.8862
34.75250314440949 24.8601
34.77601490857862 24.8075
34.799345904259795 24.6891
34.82267838863559 24.6992
34.846012362958525 24.7362
34.869530142679984 24.6728
34.89286711232212 24.5794
34.91620557568269 24.6069
34.93954553401677 24.5604
34.9630693495876 24.5543
34.986412313340814 24.633000000000003
35.00975677584668 24.5223
35.033102738362956 24.4611
35.05663261012228 24.4035
35.0799815881786 24.3989
35.10333207003229 24.269000000000002
35.12668405694369 24.3322
35.150220005273056 24.3329
35.17357501786656 24.3624
35.19693153931268 24.2153
35.220289570874385 24.1794
35.24383161619786 24.1895
35.267192683604904 24.1879
35.290555264930376 24.0913
35.314101899412165 24.1013
35.33746752422433 24.016
35.36083466676374 24.0734
35.38420332829803 23.9938
35.407756095629054 24.0085
35.43112781085063 24.0101
35.45450104888391 23.9571
35.477875810999194 23.9765
35.50143473172161 23.8898
35.52481255774625 23.8866
35.54819191167777 23.938000000000002
35.57157279478914 23.8103
35.595137889488406 23.7941
35.61852184675279 23.7476
35.641907337029984 23.7808
35.665294361595684 23.6979
35.68886565090076 23.6675
35.7122557598848 23.5627
35.73564740699838 23.5806
35.759040593519934 23.4987
35.78261809810353 23.5314
35.80601437933051 23.4519
35.829412203814705 23.3818
35.85281157283719 23.2911
35.876395313415884 23.2938
35.8997977874528 23.1779
35.92320180988546 23.1636
35.946790244133936 23.2313
35.97019737933222 23.1458
35.993606066789866 23.1374
36.01701630779276 23.0694
36.04061101440684 23.0068
36.06402437852291 22.9785
36.08743930005611 23.0577
36.1108557802951 22.9181
36.13445678011326 22.9861
36.15787639383515 22.9569
36.18129757014299 22.905
36.20472031032821 22.8676
36.22832762423364 22.7155
36.25175350829375 22.7509
36.275180960119776 22.7202
36.298609981005924 22.7168
36.32222362992669 22.686
36.34565580510207 22.7405
36.36908955323448 22.633000000000003
36.39252487562093 22.6352
36.416144880530226 22.4881
36.43958336764275 22.4339
36.463023432914625 22.436999999999998
36.486465077645676 22.3427
36.51009145956204 22.4843
36.53353627947859 22.4738
36.55698268276811 22.3754
36.58043067073321 22.3033
36.60406345072071 22.2359
36.62751462435344 22.2415
36.65096738658405 22.2
36.67460498210655 22.2732
36.69806093788647 22.2229
36.72151848619297 22.1163
36.744977628333636 22.1119
36.76862165890998 22.0274
36.79208400512205 22.0765
36.81554794910557 22.0419
36.83901349217101 21.9074
36.862663978991606 21.8455
36.88613273667352 21.8882
36.90960309738324 21.9375
36.933075062434064 21.818
36.95673202673572 21.7644
36.98020721697122 21.7369
37.003684015502365 21.6242
37.027162423645365 21.6486
37.050825886711465 21.7089
37.07430753063053 21.5951
37.09779078812467 21.5777
37.121275660513014 21.5021
37.144945643673694 21.4544
37.16843376245278 21.4393
37.19192350009803 21.5458
37.215414857931435 21.4315
37.239091382563885 21.3181
37.262585997426164 21.2429
37.28608223645736 21.33
37.309763684451696 21.2498
37.33326318851098 21.2364
37.356764320726555 21.2327
37.380267082425526 21.2168
37.40395510942588 21.1218
37.42746114683234 21.035
37.45096881771841 20.9832
37.474478123414166 21.0466
37.49817275092816 20.906999999999996
37.52168534303452 20.9403
37.54519957395567 20.9076
37.568715445024665 20.9031
37.592416694607714 20.8509
37.61593586281424 20.8496
37.63945667518264 20.878
37.66297913304891 20.7507
37.68668702630454 20.7306
37.710212792059274 20.6743
37.733740207334854 20.6374
37.757269273470364 20.6681
37.780983832050374 20.6397
37.80451621684926 20.6455
37.82805025654007 20.5828
37.851585952464795 20.5533
37.8753071980695 20.464000000000002
37.89884622345676 20.4182
37.92238690911902 20.3082
37.94611318753442 20.3271
37.969657210779765 20.2404
37.99320289834801 20.247
38.016750251586465 20.2198
38.04048325513017 20.2153
38.06403395679343 20.1446
38.087586328183946 20.1567
38.11114037065203 20.0796
38.13488012115898 20.0941
38.1584375229181 20.0093
38.181996599821 20.0048
38.205557353221124 20.0379
38.229303872575656 20.0
38.2528679961576 19.9097
38.27643380031219 19.9083
38.30000128639589 19.8161
38.32375459653193 19.8097
38.34732546371299 19.8624
38.37089801690786 19.7068
38.39447225747609 19.7136
38.418232380377425 19.6649
38.441810012983396 19.6809
38.46538933705673 19.6443
38.488970353960084 19.629
38.51273731166058 19.6124
38.536321731567014 19.5549
38.55990784840681 19.5044
38.58367995004091 19.4372
38.60726947812959 19.3988
38.63086070726198 19.4424
38.654453638806274 19.4204
38.678232613930824 19.3668
38.70182896773327 19.2625
38.72542702806741 19.2627
38.7490267963045 19.2781
38.77281266709232 19.2106
38.79641586862214 19.2202
38.8200207821842 19.1494
38.843627409152944 19.1578
38.86742019782782 19.1344
38.891030269149255 19.0518
38.914642058016156 19.0615
38.938255565806124 19.067999999999998
38.96205529464307 18.9464
38.98567225787121 18.9817
39.00929094417078 18.9394
39.03291135492255 18.8966
39.05671804624804 18.8547
39.080341923549106 18.8336
39.103967529460334 18.7949
39.127594865365744 18.6905
39.15140854155791 18.7526
39.17503935514948 18.7095
39.19867190290282 18.7037
39.22249083587951 18.6933
39.24612686969409 18.6243
39.269764641845306 18.5927
39.293404153722804 18.5707
39.317230110864074 18.581
39.34087311998506 18.5259
39.36451787301696 18.498
39.388164371352595 18.4089
39.41199737518003 18.4756
39.43564738196752 18.3798
39.45929913825317 18.3641
39.48295264543308 18.3106
39.506792718520884 18.250999999999998
39.530449745387216 18.257
39.55410852735203 18.2284
39.57776906581474 18.2345
39.60161623079 18.218
39.625280300200025 18.1548
39.64894613032202 18.1027
39.67261372255866 18.0645
39.6964680021016 18.0189
39.72013913657293 18.0099
39.74381203738292 17.9933
39.76748670593756 18.0021
39.79134812278169 17.9962
39.81502634488497 17.9872
39.83870633896685 17.8902
39.862388106436654 17.8406
39.88625668336918 17.8522
39.90994201572829 17.8483
39.933629125719285 17.812
39.957503091207826 17.7528
39.9811937746168 17.8415
40.00488623990914 17.7476
40.02858048850006 17.7012
40.05246165409549 17.6841
40.076159487492085 17.6248
40.099859108448875 17.6467
40.123560518384345 17.6166
40.1474489070226 17.6046
40.171153913178564 17.4747
40.194860712584955 17.4719
40.2185693066637 17.4527
40.242464941335314 17.3823
40.26617714307655 17.3816
40.289891143772046 17.387
40.3136069448471 17.4155
40.33750984859743 17.3261
40.3612292688043 17.3353
40.3849504936829 17.2898
40.40867352466194 17.3041
40.43258372059144 17.2354
40.45631038219906 17.2643
40.48003885420956 17.1341
40.503769138055105 17.1479
40.52768664931955 17.1347
40.55142057531802 17.0776
40.57515631746428 17.0703
40.599079334038514 16.9995
40.62281872700477 16.9085
40.64655994043941 16.9788
40.67030297578061 16.9169
40.69423334835778 16.9136
40.71798004609188 16.9041
40.74172857006355 16.8739
40.76547892171441 16.8054
40.7894166736039 16.7735
40.813170699248566 16.7808
40.83692655691388 16.7654
40.86068424804498 16.7547
40.884629402612525 16.732
40.908390779366385 16.7217
40.932153993938 16.7094
40.95591904777605 16.6215
40.979871628443995 16.6496
41.003640379561936 16.6125
41.02741097430883 16.5371
41.05118341413683 16.5613
41.075143444384416 16.4913
41.098919593177826 16.5357
41.1226975914255 16.4942
41.14647744058318 16.4479
41.170444943946755 16.3711
41.19422851378379 16.4086
41.218013938914645 16.3823
41.24198706625173 16.336
41.26577622087193 16.3095
41.289567235177785 16.2688
41.31336011063129 16.232
41.337340752422875 16.1378
41.361137369129835 16.1356
41.38493585138705 16.1751
41.40873620066004 16.1365
41.43272438060107 16.1142
41.45652848292052 16.0528
41.48033445666918 15.9624
41.50414230331616 15.9883
41.528138045159764 15.9934
41.551949656675205 15.9194
41.575763145513235 15.9504
41.59957851314666 15.884
41.62358184070442 15.7936
41.64740098505737 15.7842
41.6712220126409 15.8195
41.69504492493139 15.8012
41.71905586207357 15.7211
41.74288256296395 15.7351
41.766711153007456 15.7599
41.79054163368412 15.6191
41.814560204340054 15.6798
41.838394485526365 15.690999999999999
41.86223066180303 15.6038
41.88625497706819 15.6127
41.910094962812 15.5966
41.93393684811168 15.5591
41.95778063445365 15.5171
41.981812625263366 15.4499
42.00566023303407 15.4801
42.029509746323676 15.4532
42.05336116662236 15.4125
42.077400857069705 15.3719
42.10125611078846 15.3094
42.12511327600405 15.2943
42.14897235421036 15.2631
42.173019768448455 15.3038
42.19688269209613 15.2151
42.22074753323349 15.1592
42.24461429335818 15.1455
42.268669455600495 15.1562
42.292540073217886 15.1364
42.31641261433284 15.1473
42.34028708044675 15.1238
42.36435001496739 15.0672
42.38822835065557 15.0556
42.41210861586426 15.0623
42.4359908120986 15.0485
42.46006154323262 14.994000000000002
42.48394762115317 14.9537
42.507835634632315 14.9469
42.531912233047436 14.9322
42.55580413732265 14.8587
42.579697981698 14.8509
42.60359376768525 14.833
42.62767820545945 14.7537
42.65157789440821 14.7279
42.67547952952185 14.7193
42.699383112316 14.6997
42.72347541395347 14.705
42.74738291190531 14.6816
42.771292362102166 14.6555
42.795203766063516 14.5786
42.819303956130405 14.5977
42.843219287476536 14.5442
42.86713657716324 14.5672
42.89105582671383 14.5609
42.91516392983864 14.4859
42.939087119032166 14.4921
42.963012272677304 14.418
42.98693939230129 14.383
43.01105543317513 14.3659
43.034986504731386 14.3438
43.05891954686589 14.3189
43.08285456110972 14.3164
43.10697856448665 14.2632
43.130917542983475 14.2451
43.15485849820081 14.2267
43.17880143167367 14.2445
43.20293342237094 14.2004
43.226880332449 14.1793
43.25082922540554 14.1507
43.27496722682525 14.1286
43.29892010567796 14.0673
43.32287497204102 14.0616
43.34683182745632 14.0494
43.370977859791836 14.0302
43.39493871351105 13.9835
43.41890156092628 13.9768
43.44286640358341 13.9832
43.46702049182749 13.9536
43.49098934522816 13.8879
43.51496019852649 13.9009
43.5389330532723 13.8531
43.56309522248204 13.8065
43.58707210044314 13.8034
43.61105098451946 13.7586
43.63503187626491 13.747
43.659202151562134 13.7263
43.68318707902681 13.7338
43.70717401884041 13.6948
43.731162972560874 13.6493
43.75534137913236 13.6466
43.779334381108384 13.5689
43.803329401683186 13.6025
43.82732644241872 13.6077
43.8515130055166 13.5775
43.87551410707659 13.5436
43.89951723350145 13.5368
43.923709934595614 13.485
43.94771713129917 13.4419
43.97172635758096 13.4205
43.99573761501002 13.4222
44.0199385169922 13.3943
44.04395385732619 13.3285
44.067971233533086 13.3449
44.09199064718605 13.3099
44.11619977548961 13.2969
44.14022328470671 13.2407
44.16424883610785 13.2964
44.18827643127035 13.306
44.21249381139513 13.235999999999999
44.236525514814076 13.1964
44.26055926674478 13.145999999999999
44.28459506876863 13.1673
44.3088207262813 13.0552
44.33286064928722 13.0595
44.35690262714919 13.0417
44.38094666145278 13.022
44.4051806219871 13.0589
44.42922879003185 12.9751
44.45327901929361 12.9214
44.477331311362136 12.954
44.501573600619416 12.9172
44.525630039221795 12.8344
44.54968854541895 12.8659
44.573937102200176 12.8739
44.5979997645541 12.8662
44.622064499300315 12.8181
44.64613130803592 12.800999999999998
44.67038823869318 12.7786
44.69445921643748 12.7449
44.718532272981385 12.6756
44.742607409926194 12.6644
44.76687274034801 12.68
44.79095205918753 12.5992
44.81503346325094 12.6366
44.839116954143876 12.5981
44.86339071028742 12.5898
44.88747839599524 12.5661
44.91156817336837 12.5692
44.93566004401666 12.5547
44.959942251908146 12.5191
44.984038330325966 12.472000000000001
45.00813650686762 12.4045
45.03223678314731 12.4235
45.05652746888232 12.3807
45.08063196592069 12.3698
45.104738567558705 12.338
45.128847275414856 12.3228
45.15314646515866 12.2674
45.17725940679741 12.2831
45.20137445952892 12.2904
45.22568004865265 12.2705
45.24979934496396 12.2487
45.27392075725247 12.2139
45.29804428714431 12.2055
45.322358426247604 12.1725
45.346486212804315 12.1376
45.370616121861914 12.1453
45.39474815505086 12.0663
45.41907087049246 12.0604
45.4432071734666 12.0071
45.46734560548283 12.0005
45.49148616817604 12.0081
45.51581748638564 12.06
45.5399623320197 12.0274
45.56410931325473 11.9181
45.58825843173002 11.9984
45.61259837920865 11.9276
45.636751793816 11.9193
45.66090735060093 11.8988
45.68506505120716 11.8501
45.7094136545275 11.788
45.73357566449271 11.777999999999999
45.75773982322992 11.7727
45.78190613238733 11.7659
45.806263418194064 11.697000000000001
45.83043404997326 11.7481
45.85460683713677 11.6859
45.87897065658495 11.6728
45.90314777634752 11.6845
45.92732705646868 11.6566
45.9515084986045 11.6497
45.97588104735473 11.5942
46.00006683541565 11.5322
46.02425479047904 11.5335
46.04844491420549 11.5133
46.0728262191024 11.4934
46.09702070211635 11.4901
46.12121735879483 11.4692
46.14541619080294 11.4528
46.169806278764455 11.4301
46.194009483459034 11.4305
46.21821486849841 11.4153
46.24242243555223 11.4011
46.266821333570014 11.364
46.29103328674601 11.3354
46.31524742696538 11.3408
46.33946375590237 11.2447
46.36387149104216 11.2848
46.38809221957392 11.2533
46.41231514186606 11.2575
46.436540259597464 11.2017
46.460956858999374 11.2029
46.48518638983522 11.1804
46.509418121166966 11.1316
46.533652054678114 11.1494
46.55807754555709 11.1039
46.58231590571962 11.0918
46.60655647313217 11.067
46.630988654873654 10.9935
46.655233659129024 10.9798
46.67948087571551 10.9877
46.70373030632484 10.9912
46.72817142736393 10.9652
46.752425308428684 10.9461
46.77668140861147 10.854000000000001
46.80093972960865 10.8455
46.82538981736788 10.8565
46.849652602470904 10.8444
46.87391761349769 10.8104
46.8981848521493 10.802
46.9226439341274 10.7663
46.946915650573224 10.739
46.97118959976749 10.7414
46.99546578341598 10.7053
47.019933887188216 10.7005
47.04421456235744 10.7078
47.06849747711879 10.6654
47.09278263318286 10.6654
47.11725978640143 10.6159
47.14154944775105 10.5865
47.165841355555656 10.61
47.1901355115306 10.5685
47.214621741924994 10.5753
47.23892041698887 10.5824
47.26322134538975 10.4836
47.28771440635075 10.4881
47.31201986422527 10.4937
47.33632758061436 10.4884
47.360637557241866 10.4226
47.38513974410611 10.4177
47.40945426407847 10.4001
47.43377104948137 10.3779
47.45809010204344 10.3733
47.48260144275502 10.3339
47.506925052572285 10.328
47.53125093475548 10.2901
47.55557909103813 10.3055
47.58009961361992 10.2666
47.60443234110732 10.2444
47.62876734791564 10.2289
47.65310463578333 10.1958
47.6776343683373 10.177999999999999
47.7019762413987 10.1465
47.72632040075572 10.1449
47.75066684815169 10.1367
47.77520581885936 10.1043
47.799556865477655 10.1039
47.823910205386 10.0807
47.84826584033272 10.0569
47.87281407745551 10.0291
47.89717432569297 10.077
47.92153687423484 9.97312
47.94609208429692 9.99014
47.97045925671401 9.99034
47.99482873471275 9.96267
48.01920052005013 9.89016
48.04376504619224 9.91555
48.068141469543484 9.94554
48.09252020552573 9.89902
48.11690125590099 9.885860000000001
48.1414751266064 9.84101
48.16586082917454 9.8447
48.19024885144316 9.81581
48.2146391951793 9.792
48.239222439012764 9.7803
48.26361744916137 9.77644
48.28801478610016 9.75446
48.31241445160131 9.70352
48.337007097209366 9.71078
48.36141144338331 9.72655
48.38581812345755 9.66408
48.41022713920929 9.69905
48.434829215320704 9.61657
48.45924292604658 9.61872
48.48365897780325 9.60085
48.50807737237308 9.60685
48.532688907799276 9.59902
48.55711201168574 9.5594
48.581537463754074 9.51803
48.60615611725119 9.57112
48.63058628942721 9.51523
48.65501881516546 9.51666
48.6794536962573 9.48862
48.70408185970339 9.40703
48.72852147531801 9.452589999999999
48.75296345168211 9.415410000000001
48.77740779059232 9.40317
48.80204549302823 9.435319999999999
48.82649458091802 9.359589999999999
48.85094603676547 9.32456
48.87539986237231 9.327689999999999
48.90004713292306 9.32532
48.92450572200832 9.304110000000001
48.94896668628025 9.27899
48.97343002754588 9.28527
48.99808689542115 9.256039999999999
49.02255501470614 9.20935
49.04702551642794 9.22441
49.0714984023988 9.18228
49.096164896893235 9.18957
49.120642575466796 9.16403
49.145122643748394 9.13265
49.16960510355558 9.13086
49.19428125404938 9.10405
49.2187685210852 9.045169999999999
49.243258185121555 9.0502
49.26794160167084 9.04718
49.2924360839405 9.001539999999999
49.31693296869764 8.99912
49.34143225776915 9.00424
49.36612538195438 8.97412
49.39062950396021 8.97087
49.41513603578346 8.942839999999999
49.4396449792564 8.92035
49.46434784069503 8.876719999999999
49.488861631846454 8.89846
49.513377840166804 8.90298
49.537896467493745 8.83475
49.56260909589029 8.80987
49.587132585683285 8.832510000000001
49.611658500018365 8.83
49.636186840738596 8.82162
49.66090926588511 8.7831
49.685442483902584 8.77568
49.70997813385706 8.7487
49.734516217597076 8.717210000000001
49.75924846937352 8.67268
49.7837914452858 8.66788
49.80833686055187 8.683580000000001
49.83288471702571 8.63925
49.85762682540054 8.66032
49.882179588965734 8.58703
49.9067347993235 8.585239999999999
49.93129245833333 8.592939999999999
49.95604445336378 8.60339
49.98060703442832 8.56156
50.005172069746266 8.54694
50.02993150438364 8.56113
50.05450147301533 8.53234
50.07907390151433 8.49526
50.10364879174981 8.48605
50.12841816587289 8.47327
50.1529980044635 8.42791
50.17758031042124 8.437560000000001
50.20216508562089 8.421560000000001
50.22694442953363 8.39133
50.25153416817468 8.3813
50.27612638170508 8.36846
50.300721072005196 8.32967
50.325510416102105 8.33991
50.350110084975064 8.2912
50.37471223628208 8.2984
50.39931687190919 8.2706
50.424116246675766 8.2662
50.44872587605249 8.26395
50.47333799543065 8.24616
50.49795260670191 8.22812
50.52276204271512 8.20716
50.54738166295838 8.17592
50.57200378079314 8.174439999999999
50.596628398116835 8.13965
50.62144792604559 8.14666
50.646077567609396 8.151
50.670709714377715 8.09158
50.69553683636198 8.121030000000001
50.72017401885922 8.08042
50.7448137122895 8.0682
50.76945591856022 8.05138
50.79429318636823 8.04209
50.818940443716784 8.03002
50.84359021965163 8.01565
50.868242516085964 8.016
50.893089960641895 7.972160000000001
50.917747323549435 7.96742
50.94240721271973 7.95407
50.96706963007175 7.92001
50.99192728239342 7.897760000000001
51.01659478166073 7.9283
51.04126481489051 7.907660000000001
51.06593738400761 7.868130000000001
51.090805275207074 7.82636
51.11548294172845 7.8122300000000005
51.14016314993547 7.800560000000001
51.164845901758845 7.81676
51.18972406304274 7.768110000000001
51.21441192780656 7.75798
51.23910234200271 7.790960000000001
51.2637953075678 7.72427
51.288683770237945 7.71195
51.31338186432707 7.69575
51.33808251561888 7.66242
51.362978729967345 7.688160000000001
51.387684521509755 7.696089999999999
51.41239287610203 7.65521
51.437103795691165 7.581189999999999
51.46201036644977 7.599010000000001
51.486726441956634 7.5627699999999995
51.51144508832545 7.57428
51.536166307509156 7.6012699999999995
51.56108326624387 7.563339999999999
51.58580965706056 7.54005
51.61053862657523 7.500360000000001
51.635270176746864 7.466239999999999
51.66019755512065 7.46467
51.68493429268881 7.46077
51.70967361681515 7.46696
51.73441552946465 7.4562100000000004
51.759353359237934 7.406680000000001
51.7841004750961 7.39991
51.80885018539685 7.39808
51.833602492111254 7.39605
51.8585508051424 7.37534
51.883308330926425 7.358160000000001
51.90806845906181 7.3669899999999995
51.932831191525715 7.28545
51.95779001977161 7.29206
51.98255798721516 7.27843
52.00732856494335 7.26139
52.03229530577543 7.272
52.057071130455945 7.23675
52.081849571391054 7.2239
52.106630630568695 7.2230300000000005
52.13160794279417 7.1592899999999995
52.15639426492067 7.169860000000001
52.18118321127822 7.18929
52.205974783860896 7.1406
52.23096269971011 7.11795
52.255759551287994 7.12747
52.280559035098186 7.1118
52.30536115314103 7.0800399999999994
52.33035970494467 7.07626
52.35516711807904 7.05957
52.37997717147198 7.046069999999999
52.40478986713005 7.0511
52.42979908731974 6.99025
52.454617094216 7.001639999999999
52.47943774942214 6.975510000000001
52.50426105495102 6.968319999999999
52.529280976059844 6.962060000000001
52.554109609024096 6.9466
52.57894089837482 6.9167
52.60377484613117 6.891039999999999
52.62880550079408 6.92916
52.65364479223379 6.866280000000001
52.67848674816189 6.85151
52.70352547971946 6.883369999999999
52.72837279155837 6.83133
52.753222773982785 6.87633
52.778075429022984 6.79972
52.80312495150885 6.792510000000001
52.827982978797436 6.80749
52.85284368481815 6.76779
52.87770707160767 6.75937
52.90276741793998 6.76242
52.92763619336701 6.74235
52.952507655698504 6.77645
52.977381806977576 6.71588
53.00245301017842 6.71087
53.02733256653592 6.68115
53.052214817996074 6.663119999999999
53.077099766608484 6.631469999999999
53.102181859804446 6.62179
53.127072229988265 6.63123
53.15196530349892 6.61992
53.17686108239249 6.60807
53.20195409881522 6.57182
53.22685531582556 6.60555
53.25175924441303 6.56088
53.27666588664027 6.55291
53.30176985962693 6.52804
53.3266819565689 6.570110000000001
53.35159677336455 6.50179
53.376514312083096 6.49404
53.40162927507703 6.50539
53.42655228516116 6.50056
53.45147802340193 6.4413
53.47660125628886 6.40802
53.50153247842639 6.40669
53.52646643496923 6.36484
53.55140312799818 6.41728
53.576537409691696 6.39273
53.60147960336152 6.3743300000000005
53.626424539786164 6.34117
53.65137222105307 6.3387
53.67651758529126 6.32152
53.70147078399681 6.3015300000000005
53.72642673383343 6.300009999999999
53.75138543689533 6.27503
53.776541917524526 6.26964
53.801506154876755 6.23388
53.826473151763246 6.19024
53.851442910284916 6.20286
53.87661054126026 6.203930000000001
53.9015858509782 6.1620099999999995
53.92656392866066 6.19179
53.95154477641532 6.17703
53.976723591801296 6.1695
54.00171000771266 6.14383
54.02669920004598 6.10316
54.051691170915745 6.09091
54.076881204886796 6.07801
54.101878760928514 6.09163
54.12687910187696 6.0785800000000005
54.152077577768296 6.063359999999999
54.1770835166946 6.0301599999999995
54.20209224691339 5.99426
54.22710377055121 5.95934
54.25231352511594 5.99808
54.27733066384342 5.95983
54.30235060239643 5.95569
54.32737334290836 5.90909
54.35259441062629 5.87154
54.377622783395324 5.87029
54.40265396455061 5.9042
54.42768795623251 5.8359
54.45292037169559 5.83325
54.477960012857906 5.803999999999999
54.50300247099511 5.77608
54.52804774825457 5.72905
54.55329154616743 5.73121
54.57834249018678 5.7098
54.6033962597977 5.62616
54.6284528571545 5.66339
54.653708072335164 5.66222
54.67877035378786 5.65789
54.70383546947698 5.58249
54.72890342156389 5.59342
54.7541700889442 5.58594
54.77924374251975 5.50028
54.8043202390049 5.53137
54.82959552413022 5.4553400000000005
54.8546777351945 5.44814
54.87976279569621 5.434159999999999
54.90485070780914 5.43671
54.930137506558005 5.4138
54.95523115074295 5.46431
54.98032765308844 5.38419
55.005427015775496 5.35021
55.03072536339621 5.3436
55.05583047570572 5.26095
55.080938454927676 5.30361
55.10604930325027 5.23999
55.131359235107396 5.24405
55.15647585066083 5.171069999999999
55.181595341907496 5.18755
55.20671771104285 5.17896
55.232039262617704 5.1419
55.25716741665048 5.12456
55.28229845518636 5.10222
55.30743238042802 5.02088
55.33276558731939 5.04965
55.357905315183636 5.09711
55.383047936390035 4.99397
55.40819345314859 4.96244
55.433538351073295 4.93724
55.458689688238415 4.9552
55.483843927614096 4.89381
55.509197623043605 4.88405
55.53435769621134 4.84117
55.55952067826466 4.84232
55.5846865714265 4.8072
55.61005202069737 4.8027
55.63522376553902 4.785819999999999
55.66039842818645 4.78805
55.68557601087004 4.81658
55.7109532500271 4.67649
55.73613670233794 4.67242
