TT I
1.2716486653135266 7.13093
1.2939594142134223 6.6889199999999995
1.3162702121660406 7.1236
1.3385810600174564 6.43114
1.3608919586137629 6.15219
1.383202908801069 6.2889800000000005
1.405513911425503 5.98913
1.4278249673332093 5.80933
1.4501343378461518 6.36702
1.4724455028545926 5.73457
1.4947567236847858 5.793819999999999
1.517068001182951 6.44059
1.5393793361953272 5.8981699999999995
1.5616907295681737 5.55774
1.5840021821477681 5.2621199999999995
1.60631369478041 5.108569999999999
1.6286252683124185 5.65014
1.6509369035901333 5.68688
1.6732468618895553 5.34318
1.695558623192809 4.61195
1.7178704487808514 4.59719
1.7401823395001077 4.4461900000000005
1.7625012545597203 4.68955
1.7848028405262486 4.7820599999999995
1.8071218901122095 4.9823
1.8294236121921872 4.63506
1.8517427996910911 4.96305
1.8740620574440425 4.6472
1.8963639900671978 4.73221
1.9186833908139995 4.44548
1.9409854680117449 4.62991
1.9633050151394713 5.01797
1.9856246367570705 4.93886
2.0079269371922672 4.969930000000001
2.03024671027244 4.33442
2.0525491637446027 4.173
2.074869091674931 4.65321
2.097171701569106 4.762630000000001
2.1194917877373847 5.08223
2.141811954326636 4.5835300000000005
2.164114805233074 4.48069
2.186435135143035 5.371980000000001
2.208738150935709 8.76145
2.231058647554722 14.2318
2.2533792288321184 10.5581
2.275682498336085 6.8138
2.298003251406138 5.4168199999999995
2.3203066942619714 5.442480000000001
2.3426276225136022 5.415030000000001
2.3649486396617507 5.506819999999999
2.387252348930071 5.86402
2.4095735463442893 5.5476
2.4318774374315884 6.4638800000000005
2.4541988185014043 6.248069999999999
2.476502894794693 6.9756
2.498824462909887 7.15855
2.521146125856138 6.955439999999999
2.5434504863470337 6.83375
2.5657723414244717 7.6550199999999995
2.588076895590662 8.43121
2.610398946189713 7.95195
2.6327210958598384 8.1034
2.6550259469304716 8.28946
2.6773482972090137 8.74225
2.6996533504259 8.44843
2.7219759047039602 8.63724
2.744298562293959 8.59197
2.7666039251246595 7.53455
2.7889267918020164 7.8269
2.8112323652516555 8.74549
2.833555444408179 8.62288
2.8558786311183852 8.70841
2.8781845268938557 8.72108
2.9005079311721484 9.41116
2.9228140460410397 9.09822
2.9451376712799635 9.18859
2.967444008632326 8.90618
2.9897678582247247 9.497110000000001
3.0120918213106695 10.1384
3.0343984987899373 10.3781
3.0567226913198637 11.0185
3.079029599759726 11.5439
3.101354025127254 12.1159
3.123678568232338 13.0927
3.145985829517914 12.31
3.16831061055229 13.0533
3.1906181112775593 14.0623
3.212943133635653 14.8039
3.2352682779763207 15.6079
3.2575761442691227 15.0944
3.2799015350264273 15.54
3.302209649240067 16.2563
3.3245352898092655 16.8203
3.3468436553365257 17.09
3.369169549113219 17.4363
3.3914955708171384 18.2257
3.413804319727358 18.517
3.4361305997334863 18.6327
3.4584396084414553 19.0532
3.4807661501462652 20.0815
3.503092824025881 20.2865
3.5254022288463154 20.668000000000003
3.5477291695206588 21.7795
3.5700388426251948 21.8286
3.5923660534916446 22.6597
3.6146934007816114 29.3923
3.637003482731501 48.9288
3.6593311053109985 52.6807
3.681641464033634 36.1752
3.7039693653009733 26.3645
3.726297407241705 25.4327
3.7486081875460804 24.7762
3.7709365132734978 25.7347
3.793247578841633 26.3107
3.8155761917550093 26.2337
3.8378875459837216 26.5761
3.8602164494827234 27.2361
3.882545499606844 28.2386
3.9048572932539183 28.5021
3.9271866390645718 28.8123
3.9494987298666713 29.4516
3.971828374764527 29.6728
3.9941581705403255 30.5992
4.016470713506008 30.9248
4.038800813471445 31.6901
4.061113662089144 32.8369
4.0834440696459176 33.2379
4.105774632334751 33.4654
4.128087945865126 33.8369
4.150418821249301 34.6289
4.172732448931298 35.614000000000004
4.195063640413578 36.7727
4.2173775856475215 39.1959
4.239709096631102 52.4114
4.262040768704612 117.101
4.284355196706267 142.347
4.306687193387355 101.73299999999999
4.329001947444346 56.1474
4.35133427213731 44.2724
4.373666762177566 43.4769
4.395982011761091 43.5712
4.418314834921175 44.629
4.44063041906622 48.39
4.4629635787515625 52.8939
4.4852969080429785 53.5665
4.5076130004776225 52.7423
4.529946671403969 56.6624
4.552263106909177 60.6802
4.574597122877047 57.1344
4.596931312711224 54.0648
4.619248269273446 53.3033
4.6415828092605835 54.3904
4.663900117405352 55.5478
4.686235010953232 56.7855
4.708552674085913 57.8729
4.730887924602802 59.7696
4.753223354952695 61.9389
4.775541557023902 65.1594
4.797877349456786 68.2084
4.820195915032126 68.7421
4.842532072957498 68.6389
4.864868414979744 71.0163
4.88718753227192 75.5231
4.909524244902505 77.0824
4.931843734218147 76.8775
4.954180820867835 78.513
4.976518095879839 81.4331
4.998838149695359 84.4726
5.021175803844231 87.9606
5.043496238205739 90.5553
5.065834274903528 94.9717
5.088172504230693 100.542
5.1104935158799565 107.43299999999999
5.132832132875765 127.12700000000001
5.155153533596801 156.864
5.1774925416746225 204.783
5.199814334878411 431.725
5.2221537374521505 1125.11
5.244493338631803 3056.01
5.266815727034316 7908.64
5.289155727832427 12617.4
5.311478517248165 8529.42
5.333818921080011 2643.22
5.356159527788849 521.1669999999999
5.3784829252032536 198.357
5.400823940070432 154.265
5.423147747031976 131.528
5.445489173474152 120.695
5.467830807066149 119.93299999999999
5.490155234831516 119.508
5.512497285125229 112.334
5.534822130975162 106.46
5.557164601388673 101.96
5.579489868738879 99.5701
5.601832762690846 98.2036
5.6241758697774475 97.4127
5.646501775867269 96.8589
5.668845311622074 95.0938
5.691171647754637 94.4136
5.713515615597765 93.3308
5.735859800852677 93.0871
5.758186788542988 94.5554
5.780531411018185 98.421
5.802858837297399 98.2381
5.825203900414495 98.25299999999999
5.8475491852224 101.775
5.869877275883075 101.197
5.892223006467101 97.2823
5.914551544266608 96.0284
5.936897724049891 98.4407
5.959244129804903 106.181
5.981573344815301 138.259
6.0039202049061 256.954
6.026249875609095 510.68
6.04859719346037 1038.59
6.070927323278297 2266.66
6.093275102315365 4612.76
6.115623113320588 5129.98
6.137953938319995 3094.37
6.160302415650845 941.138
6.182633708324452 220.954
6.2049826554078376 109.771
6.227331838745022 90.8295
6.249663839443684 83.7463
6.27201349767565 80.6951
6.294345974611799 81.2542
6.316696111167083 83.9036
6.339046488263839 81.0174
6.361379686074702 74.1375
6.383730546639482 70.9444
6.406064229255215 69.8535
6.428415576718203 70.9405
6.450749747566656 69.551
6.47310158535871 66.7217
6.495453669698332 65.2517
6.517788579421056 64.4527
6.540141159237969 63.3569
6.562476565766648 62.9018
6.5848296444934045 62.7033
6.607182974060425 63.0865
6.6295191323281015 62.9642
6.651872965955752 63.2522
6.6742096296068985 72.6553
6.6965639707294615 89.8807
6.71891856698715 89.0915
6.741255995248479 72.0926
6.763611104154477 61.8086
6.785949046381137 58.9308
6.808304671371482 59.2379
6.8306605557940046 60.5321
6.852999275508618 59.7294
6.875355681171544 57.9024
6.897694923437771 56.2577
6.92005185377892 56.1556
6.9423916220322655 56.1134
6.964749080490181 55.3136
6.987106804399774 55.2205
7.009447368180821 55.6612
7.031805625367033 55.7089
7.054146723727803 55.3136
7.076505517631004 54.659
7.098864581288365 54.6465
7.121206488070854 54.3646
7.143566093607822 54.7949
7.165908543567245 56.0642
7.188268694426048 56.2082
7.2106291193438095 55.1636
7.232972390625943 55.2613
7.255333366030969 60.0573
7.277677189091925 80.5983
7.300038718428332 97.4319
7.322400526130865 88.1498
7.344745183422596 67.3981
7.367107550224791 57.0274
7.389452767901992 54.5951
7.411815697249891 54.2394
7.434161478756298 53.5066
7.456524974096713 53.4934
7.478888753837185 53.4156
7.501235387657368 53.8386
7.523599738562711 53.9875
7.545946944825532 54.3215
7.568311870344528 55.0073
7.5906770845765665 54.7611
7.613025156078678 55.5073
7.635390950099687 56.2358
7.657739602662809 56.005
7.680105979923558 55.7349
7.702472650212829 56.5958
7.724822180948224 56.7056
7.747189439655568 56.2223
7.769539560075357 56.1773
7.791907410653562 56.6801
7.81425812420825 56.2084
7.836626570110925 57.0235
7.858995315087906 57.4595
7.881346924933401 57.4669
7.903716270417482 58.1252
7.926068482028405 58.3368
7.948438431475253 59.1655
7.9708086843180235 59.7584
7.993161805171116 60.4398
8.015532667162402 60.9241
8.037886398416653 62.0827
8.060257873014221 62.3979
8.082629655331942 63.2973
8.104984308787587 64.1021
8.127356708900503 66.4198
8.149711981398308 70.7128
8.172085002766314 72.6817
8.194458336181368 70.8585
8.216814543847752 68.92
8.23918850371002 69.2776
8.26154533906492 70.0206
8.283919928836452 72.0745
8.306277395339652 72.5515
8.328652618483376 74.3205
8.351028159736202 76.3106
8.373386579575245 78.795
8.395762759396959 80.3763
8.418121819038275 84.1551
8.440498640894003 91.5397
8.462875785192262 103.884
8.485235811156207 131.773
8.507613602688501 188.903
8.529974277114228 272.54
8.552352719347912 410.83099999999996
8.574731488360351 695.2180000000001
8.59709314210385 1250.25
8.619472567021075 1898.69
8.64183487789147 2164.89
8.664214962183097 1711.02
8.686577933647762 850.054
8.708958680784317 325.858
8.731339760774953 148.509
8.753703729764451 107.632
8.77608547780821 98.1014
8.798450116065078 94.7566
8.820832535634787 92.2503
8.843215292401656 92.2184
8.865580941199045 92.2484
8.887964374703538 91.6914
8.910330701447199 92.1206
8.932714815164482 91.98
8.955099270424924 89.6231
8.977466620733543 86.8896
8.999851761421976 85.0877
9.022219798361645 83.853
9.04460562795561 84.1279
9.066991803441677 83.7949
9.089360876979615 83.8679
9.111747746589993 84.0177
9.13411751544971 83.2138
9.156505082664324 82.2184
9.178875550323522 82.1764
9.20126381862328 82.0142
9.223652438908596 82.2524
9.246023961427412 82.5194
9.26841328802173 81.9768
9.290785518039224 82.587
9.313175554425882 84.5972
9.335565947154315 85.9159
9.357939245086508 86.7005
9.380330352834827 85.5455
9.40270436697103 85.8247
9.425096193225055 85.2635
9.447488380180165 85.1896
9.469863475295412 84.4562
9.492256385987508 84.6404
9.514632206018318 85.4178
9.537025843935714 86.0984
9.559402392368193 86.9639
9.581796761000229 89.2354
9.604191496441521 91.6802
9.626569144158516 94.4086
9.648964615551032 95.8388
9.671343000390081 95.1571
9.693739211225699 93.8911
9.716135793237463 92.7225
9.738515290448102 93.3066
9.760912617143402 95.0991
9.783292860202891 97.5009
9.805690935076182 99.8467
9.828089385495742 100.305
9.850470754023561 101.63799999999999
9.872869957865444 105.26700000000001
9.89525208097539 112.374
9.917652041736662 119.715
9.940052382417589 128.83100000000002
9.962435644102392 155.842
9.984836746950979 199.778
10.007220771957746 259.597
10.029622640473708 365.68800000000005
10.052007432299963 552.63
10.074410069984072 850.952
10.096813093716005 1302.94
10.119199042482517 1806.99
10.141602840636468 1973.81
10.163989564971628 1540.72
10.186394141051062 829.74
10.208799107559706 360.654
10.231187001965623 172.234
10.253592751657669 121.899
10.275981430388155 111.698
10.298387966769793 109.85600000000001
10.320794897965431 109.469
10.343184759907361 108.12100000000001
10.36559248305461 105.553
10.387983138083852 106.12
10.410391656691655 113.251
10.432800574501677 124.73200000000001
10.455192425893369 140.092
10.47760214443012 166.02900000000002
10.499994797678786 213.02200000000002
10.522405320453982 295.105
10.54479877906917 412.82800000000003
10.567210109595656 517.16
10.5896218454736 573.264
10.612016518879773 491.436
10.634429067781074 329.355
10.656824555333241 191.74599999999998
10.679237920773568 117.681
10.701651695961992 93.9161
10.724048411481384 88.8129
10.746463008485165 86.2004
10.768860546937125 84.671
10.791275969274796 82.6534
10.81369180576079 81.885
10.836090585366925 80.5821
10.858507252467449 79.7369
10.88090686379991 78.723
10.903324365036394 78.1966
10.925724811614439 77.6828
10.948143150509463 78.4678
10.970561909719066 77.7036
10.992963615930844 77.1544
11.015383218085756 75.4279
11.037785768347074 73.5477
11.06020621697282 72.502
11.082627090322113 71.8839
11.105030913430326 71.3253
11.12745263854165 71.3179
11.149857314510728 71.877
11.172279894912576 74.0229
11.194702904450653 73.4881
11.217108866490921 71.8647
11.239532736615194 70.0672
11.26193956033512 68.9587
11.284364294577085 68.1677
11.306789462371718 67.3355
11.329197585398376 66.8753
11.351623622610898 66.8078
11.37403261614354 65.7544
11.396459526308487 66.0106
11.418869393879497 65.4107
11.441297180532617 65.046
11.463725406927658 64.7327
11.486136592353875 64.2913
11.508565700543707 64.3963
11.530977768845315 65.4016
11.553407762368774 65.4198
11.575838200059769 64.9073
11.598251599479612 64.1993
11.620682927815501 63.3865
11.64309721895548 63.1692
11.665529441478206 62.9406
11.687962112597958 62.5388
11.710377748130886 62.7785
11.732811318753434 62.9396
11.755227854859067 62.5449
11.777662328529495 62.5514
11.800079768750786 62.4676
11.822515149015453 62.426
11.844950984084935 62.6201
11.867369787303163 62.1351
11.889806534289491 62.1735
11.912226250487029 62.6744
11.934663912939751 62.4793
11.9571020346363 62.9922
11.979523127133968 63.0312
12.001962169624331 64.4268
12.024384183972964 66.0752
12.046824150809913 69.4227
12.069264581333726 73.8613
12.091687985297767 79.669
12.11412934550045 89.4045
12.136553680195208 105.337
12.158995973632788 129.204
12.181438735204349 155.033
12.20386447284199 181.88099999999997
12.226308172985636 207.692
12.24873485024193 196.852
12.271179492516982 156.662
12.293607112949127 117.14
12.316052700916226 87.3642
12.338498763250042 72.2924
12.360927805303868 66.6269
12.383374818673879 64.9161
12.405804812803074 63.8175
12.428252780773262 63.9209
12.45070122756722 64.0124
12.473132656675375 64.0509
12.49558206341869 64.4741
12.518014453510101 64.5688
12.540464823770117 65.0027
12.562915677315177 64.73100000000001
12.58534951575545 65.0206
12.607801338171472 65.9108
12.630236146511358 67.8257
12.652688941369085 70.0755
12.675124723177234 70.5506
12.697578494048786 69.5936
12.720032754458185 68.2077
12.742470003354093 67.5251
12.764925245138771 67.6867
12.787363476431278 68.1089
12.809819703166806 68.1894
12.83227642391173 69.0651
12.854716135692716 69.8015
12.877173846755147 70.957
12.899614549869717 71.4709
12.9220732548287 72.4167
12.94453245827299 72.8566
12.966974655289818 73.9813
12.989434858002571 74.7048
13.011878055298721 75.2294
13.034339260862497 76.1694
13.056800969391883 77.6555
13.079245674017244 80.7206
13.101708390774869 85.4314
13.12415410463411 94.3232
13.146617833206086 104.234
13.169064559883248 114.516
13.191529303857127 129.37
13.213994557076367 153.55100000000002
13.236442809902437 193.662
13.258909083908291 250.998
13.28135835851934 314.526
13.30382565690295 380.57099999999997
13.326293469022952 424.86400000000003
13.348744283242008 414.909
13.371213125129904 337.23
13.39366497011003 246.392
13.416134845360597 163.9
13.438605238843131 120.93700000000001
13.46105863690397 107.83200000000001
13.483530069144786 108.579
13.505984506951902 113.426
13.528456981549432 123.76899999999999
13.550929978879088 139.26
13.573385983253365 165.946
13.595860028340867 205.57
13.618317081455832 260.921
13.64079217790333 315.23400000000004
13.663250283359057 360.63300000000004
13.685726434770173 372.801
13.708203115221277 328.04
13.730662806148091 250.877
13.75314054697177 173.588
13.775601299246777 120.352
13.798080104050406 94.3715
13.820559442405358 84.6936
13.843021793671388 81.4433
13.865502201420897 79.7376
13.887965623051947 79.5472
13.910447103807167 78.506
13.932929122629764 76.99
13.955394156785959 76.6202
13.977877254034569 75.7363
14.000343367582113 75.0408
14.022827546871707 74.3839
14.045294743423524 73.8357
14.06778000837062 73.008
14.090265817715476 72.8365
14.112734645763819 72.2495
14.13522154619454 71.6869
14.157691466286913 71.6698
14.180179461423874 71.6141
14.202668005486178 71.1292
14.22513957064374 70.8188
14.247629214846473 70.4044
14.270101881097517 69.9565
14.29259262906496 69.8906
14.315083930490205 70.1029
14.337558255389705 70.1112
14.360050666019726 70.222
14.382526101071944 69.6644
14.405019624534942 69.0371
14.427513705993134 68.7037
14.449990813291825 68.8707
14.47248601302899 68.8344
14.49496423954951 68.7608
14.517460561197822 68.6326
14.539939910570322 68.52
14.562437357763558 68.9407
14.58493536931253 69.5621
14.607416409993311 69.9103
14.62991555254159 70.2211
14.652397725157423 70.6286
14.674898002342799 70.5205
14.697398848433282 70.8815
14.719882725991326 72.3406
14.74238471217934 74.2597
14.764869730765593 78.0711
14.787372860692983 80.6195
14.809876564079925 84.7438
14.83236330125751 90.5393
14.854868153850365 99.8484
14.877356041159485 114.589
14.899862046604186 134.495
14.922351087688757 159.99200000000002
14.944858249632887 188.857
14.967365991421232 213.215
14.989856770231246 226.649
15.012365673994204 215.636
15.03485761569738 181.225
15.05736768508665 139.642
15.07987833888692 108.182
15.102372032001655 86.4364
15.124883856909658 75.2291
15.14737872204565 71.5619
15.169891721717274 70.3556
15.192405310371893 69.8494
15.214901940621196 69.6745
15.237416709527137 69.42699999999999
15.259914520936249 69.402
15.282430473753607 68.5729
15.304947020131227 67.8839
15.327446610371178 67.2994
15.349964346154254 66.8334
15.372465126703139 66.7324
15.394984055556009 66.6309
15.417486030076159 66.3287
15.44000615566487 65.9737
15.462526881230803 65.6034
15.485030653812652 65.4852
15.507552581617434 65.7226
15.530057557334603 65.7323
15.55258069104857 65.8392
15.575104429329837 66.0744
15.597611216864632 65.7608
15.620136166564563 66.6188
15.6426441664095 68.67399999999999
15.665170331202765 71.2216
15.687697105158826 73.9696
15.710206930593545 76.8682
15.732734925158933 81.047
15.755245972089478 87.9355
15.77777519094324 97.2268
15.800287463046663 111.012
15.822817909869592 130.512
15.84534897229804 152.161
15.867863089299354 174.648
15.890395385222186 190.233
15.912910736597423 193.31099999999998
15.935444269699861 176.525
15.957978423016485 148.346
15.980495633101265 115.79
16.003031029129367 91.3118
16.02554948280019 74.2331
16.048086125229432 66.2053
16.070623392487107 63.776
16.09314371869582 62.7542
16.11568223789321 61.8863
16.13820381691126 61.2804
16.160743591742527 60.6719
16.183283996022084 59.8909
16.205807461423195 59.2067
16.228349126881973 58.6264
16.25087385432698 58.4624
16.27341678466365 58.0038
16.29594277784926 57.8
16.31848697676433 57.6645
16.341031811604868 57.5619
16.36355971058487 57.5813
16.3861058195587 57.3959
16.40863499352978 56.3657
16.431182380342005 55.9825
16.453730407713202 55.9297
16.476261501364792 55.559
16.498810812136167 55.4078
16.52134319004079 55.3254
16.54389378792203 55.1063
16.566445031001553 55.0516
16.588979342490088 55.062
16.61153187824822 54.9422
16.634067483263312 54.7253
16.656621315414416 54.5591
16.679175797408888 54.3688
16.701713349928728 54.5563
16.72426913389191 54.6031
16.74680798922351 54.5692
16.76936507887444 54.6591
16.791905240734874 54.5339
16.814463639794468 54.4879
16.837022695210294 54.6025
16.859564824093756 54.733000000000004
16.882125194503903 55.151
16.904668639217885 55.4724
16.927230328348003 55.5721
16.949792678493612 55.7254
16.972338104193863 55.4602
16.994901778652235 55.3045
17.017448529496576 55.6363
17.040013531998152 55.8929
17.06257920018044 56.8582
17.0851279459922 57.2386
17.107694947817667 58.1423
17.130245028099072 58.7373
17.15281336730298 60.0358
17.17536478578733 61.8438
17.19793446610687 64.4834
17.220504818648422 67.4113
17.243058251703697 70.8263
17.265629950971032 75.4476
17.288184731571736 80.1011
17.310757781306908 83.6896
17.33333150794385 85.0301
17.355888317140174 81.4676
17.37846339986244 75.6132
17.401021565958885 69.5679
17.42359800851343 64.5278
17.44617513265564 61.5892
17.468735341390783 59.8375
17.491261035594565 59.1349
17.51396340099364 59.0072
17.536490463869136 59.0776
17.559018209820174 59.0903
17.58154663977963 59.1696
17.604251766089718 59.3444
17.626781572227713 59.4936
17.64931206518155 59.856
17.671843245885103 60.1578
17.69455114821572 60.2812
17.717083712612634 60.538999999999994
17.739616967569667 60.9664
17.762150914021706 61.4116
17.78486160749854 61.5956
17.807396945166804 62.6507
17.829932977143503 64.1171
17.85246970436452 65.5115
17.875183204129467 67.1273
17.897721330097664 69.0037
17.920260154126645 71.2285
17.942799677153296 74.3195
17.9655159983646 78.3879
17.988056927677544 84.0884
18.010598558807683 92.3583
18.033140892692916 102.786
18.05586005052525 113.68700000000001
18.07840379824407 125.954
18.10094825154059 136.47899999999998
18.12366954819864 142.264
18.146215420998306 139.874
18.16876200220057 130.425
18.191309292745153 114.945
18.214033452627167 101.156
18.236582170236648 89.9929
18.259131600016456 86.1651
18.281681742907335 86.958
18.304408781233683 91.6924
18.32696035875955 96.6332
18.349512652227624 100.961
18.372065662579683 105.289
18.394795594587553 105.926
18.41735004715306 101.35700000000001
18.43990521943684 93.4223
18.46246111238171 84.0025
18.485193953325208 74.8667
18.507751296070428 68.6502
18.530309362314178 64.8054
18.552868153000343 63.1686
18.57560391815056 61.9456
18.59816416623245 61.4655
18.620725141597372 61.0229
18.643286845190268 60.5286
18.666025549835414 60.2514
18.688588718427933 59.5636
18.711152618092243 59.7023
18.73389353884365 59.1563
18.75645890921984 58.9411
18.77902501351406 58.5122
18.801591852673102 58.4326
18.824335739722738 58.0976
18.846904057212626 58.1432
18.8694731124168 57.6412
18.89204290628315 57.7257
18.914789774966803 57.483999999999995
18.937361054791623 57.1414
18.959933076131318 56.8538
18.982505839934877 56.8949
19.00525570560582 56.785
19.027829963004184 56.494
19.05040496572238 56.783
19.072980714710468 57.105
19.095733592739563 57.3122
19.11831084296757 57.2834
19.140888842324735 57.4963
19.16346759176222 57.6531
19.18622349753803 58.3571
19.208803755869358 59.2209
19.231384767143577 60.8047
19.253966532312948 62.7096
19.276725481241822 64.8024
19.29930876296784 67.143
19.3218928014549 70.2352
19.34465404436217 73.241
19.36723960516257 75.5216
19.389825925592426 75.8919
19.412413006605938 74.7513
19.43517731967805 71.1062
19.457765930683355 66.4468
19.48035530514408 61.9792
19.50294544401556 58.42100000000001
19.525712842708348 56.0325
19.54830451925909 54.8428
19.570896963095727 53.8688
19.593490175174704 53.79
19.616260674962184 53.6942
19.638855432416964 53.4432
19.661450960992624 53.6279
19.68404726164677 53.4289
19.706820878021247 53.2551
19.729418731756834 53.5924
19.752017360452857 53.3333
19.77461676506804 53.6607
19.797393513540218 53.8736
19.819994478951667 53.9744
19.84259622316767 54.3863
19.8651987471481 54.732
19.887978643247177 54.9387
19.91058273574792 55.575
19.933187610901943 56.3182
19.955969879466828 57.7099
19.97857632894404 59.1531
20.00118356396599 61.1129
20.023791585494575 63.2433
20.046577028914875 65.5925
20.069186632506966 67.6647
20.091797025500632 69.232
20.114408208858933 69.6852
20.137196842715273 69.2341
20.159809615886765 67.845
20.18242318232135 65.1747
20.20503754298326 63.3006
20.227829382875154 62.1681
20.250445341109344 62.123000000000005
20.27306209647285 63.0111
20.29567964993108 64.0957
20.31847471147704 65.0804
20.34109387027612 65.7357
20.363713830075454 64.773
20.386334591841646 63.0835
20.409132890679302 60.3305
20.431755265564437 57.2292
20.454378445325528 54.6888
20.477002430930366 52.9253
20.499803982716553 51.6737
20.522429589228004 51.1011
20.54505600449589 50.8438
20.567683229489194 50.5235
20.590488049900088 50.1134
20.61311690359731 50.0902
20.63574656993626 49.6797
20.658553853717297 49.5934
20.681185154618298 49.4224
20.703817271080066 49.4448
20.72645020407368 48.9222
20.749260783967177 48.8394
20.771895359337133 48.9503
20.794530754161617 48.7537
20.817166969412938 48.7921
20.83998086114876 48.8982
20.86261872660049 48.576
20.885257415405402 48.5738
20.90789692853701 48.6432
20.930714147864748 48.4375
20.953355319030678 48.6094
20.97599731745334 48.7441
20.99864014410749 48.4719
21.021460706796564 48.4595
21.044105199328826 48.8742
21.06675052302631 48.9546
21.089396678865015 49.1484
21.112220600704806 49.4848
21.134868430275347 49.8181
21.15751709492456 50.1482
21.180166595629693 50.4276
21.202993892429635 50.7787
21.22564507473034 51.1005
21.24829709602816 51.3934
21.27112693608965 51.5505
21.293780644891275 51.3546
21.316435195634053 50.6393
21.339090589297417 49.7538
21.361923832041875 49.3039
21.384580921090404 48.7978
21.407238856007325 48.3113
21.429897637773326 48.3868
21.45273429906592 48.5107
21.475394784108598 48.4421
21.498056118951983 48.4875
21.520718304578022 48.5402
21.543558400304388 48.7239
21.566222297108816 48.9886
21.58888704765135 49.1679
21.61155265291521 49.4962
21.63439619898156 49.8136
21.657063523335786 50.0283
21.67973170537063 50.336000000000006
21.7024007460706 50.8939
21.72524775840385 51.8363
21.747918526116475 52.9285
21.770590155457388 54.3578
21.79326264741238 55.9639
21.816113141960237 57.8041
21.838787368860547 59.5518
21.861462461341976 61.4457
21.884315579735777 63.3279
21.90699241312273 64.3942
21.92967011506078 64.9287
21.95234868653799 64.2117
21.9752053151131 62.7
21.997885635446785 60.657
22.020566828293532 58.8383
22.04324889464272 57.2556
22.066109049404666 56.1501
22.088792872571794 55.9893
22.111477572219204 56.0746
22.1341631493376 56.1462
22.157026846313123 55.7487
22.179714188221507 54.8977
22.202402410582668 53.8305
22.22509151438863 52.2797
22.24795876962584 51.0092
22.270649646204486 50.2525
22.293341407213727 49.4924
22.316034053646906 49.1413
22.338904883215342 48.8386
22.36159931041458 48.8111
22.38429462602756 48.711999999999996
22.40699083104897 48.4899
22.429865251039757 48.4973
22.452563244831367 48.6534
22.47526213102522 48.5274
22.49813925616515 48.6511
22.520839937143307 48.5233
22.543541513520587 48.5869
22.56624398629403 48.422
22.589124730075895 48.4708
22.611829005656723 48.6719
22.63453418063466 48.7296
22.657240256008077 48.8567
22.680124634582935 49.1111
22.70283252079775 49.2694
22.725541310413075 49.565
22.74825100442868 49.7064
22.771139033969575 50.1052
22.79385054687155 50.4561
22.81656296718292 51.2233
22.83927629590484 52.1323
22.862167992606945 53.3674
22.88488314827121 54.5494
22.907599215359284 55.4347
22.93031619487366 56.388000000000005
22.953211574954405 57.2598
22.975930389478226 57.8546
22.998650119445763 57.8641
23.02137076586092 56.9662
23.044269845560063 55.5408
23.06699233506288 53.9061
23.089715744034912 52.1077
23.112617610931565 50.6442
23.135342869061212 49.7393
23.158069049684816 48.9902
23.1807961538087 48.7434
23.20370174880544 48.8079
23.226430710184808 48.8022
23.249160598093425 48.8664
23.271891413539002 48.8398
23.294800752937697 48.7454
23.31753343374794 48.9488
23.340267045128353 49.236000000000004
23.36300158808808 49.3754
23.38591468821339 49.7058
23.408651104658304 50.3716
23.431388455719986 51.1147
23.454126742409 51.849
23.4770436196085 53.006
23.499783787914662 54.2961
23.522524894889884 55.2219
23.54526694154616 56.2717
23.56818761219047 57.2696
23.59093154860734 57.7106
23.613676427751283 57.661
23.636422250635754 56.7289
23.659346731118656 54.9529
23.68209445191868 52.8753
23.704843119509587 50.9158
23.72759273490623 48.9012
23.750521041644767 47.6139
23.77327256312355 46.7385
23.796025035462787 46.3322
23.818956224555475 45.958999999999996
23.841710609113413 45.8324
23.86446594758979 45.6475
23.887222241002014 45.3542
23.910157285144578 45.0084
23.932915498962537 45.2557
23.955674670778713 44.9145
23.978434801611975 44.6842
24.001373717286125 44.5326
24.024135776723917 44.479
24.046898798245582 44.4613
24.06966278287146 44.3534
24.092605586582614 44.1532
24.115371508023642 43.9514
24.1381383956401 43.8834
24.16090625045381 43.9457
24.183852958731244 43.7722
24.206622758582608 43.5908
24.229393528706886 43.3779
24.252165270127392 43.5516
24.27511589952438 43.5307
24.297889594216997 43.2118
24.32066426328598 43.0648
24.34343990775613 43.1854
24.36639447485003 43.2066
24.38917208083877 43.0237
24.41195066531332 42.9184
24.43490819850244 43.0753
24.457688750692377 42.9498
24.48047028445616 42.8456
24.503252800821233 42.9857
24.526214300784112 43.1416
24.548998793132213 43.0477
24.57178427117417 42.9234
24.59457073593893 42.9107
24.617536219319863 42.7023
24.64032466834748 42.7503
24.663114107195035 42.6199
24.685904536893013 42.3781
24.708874020360852 42.2691
24.731666442613744 42.2238
24.754459858818787 42.163999999999994
24.777254270007962 42.1662
24.80022777025625 42.0604
24.82302418230472 42.0918
24.845821592443674 42.1396
24.86862000170663 42.1268
24.891597535453727 42.0884
24.914397953892728 42.20399999999999
24.93719937456671 42.1854
24.96000179851076 42.2928
24.98298338249997 42.5222
25.00578782394922 42.7104
25.028593271784167 42.916000000000004
25.05157790644186 43.32899999999999
25.07438537804115 43.3089
25.097193859145293 43.567
25.120003350792075 43.7291
25.142992065061257 44.1887
25.165803588823465 44.3788
25.18861612625217 44.5957
25.211429678386736 44.7565
25.234422489079968 44.7199
25.257238081693636 44.7817
25.280054692141732 44.769
25.3028723214652 44.7012
25.325869245420463 44.8902
25.348688923599397 44.8051
25.371509623787006 44.7042
25.394331347025812 44.3377
25.41733240110666 43.8418
25.440156181590016 43.1284
25.46298098826268 42.7709
25.48580682216873 42.2047
25.50881202326435 41.5411
25.53163992281684 41.2224
25.55446885274561 40.9819
25.577298814096377 40.606
25.600308179121807 40.5889
25.623140214533745 40.8817
25.64597328451537 40.56
25.66898578564376 40.3498
25.691820936010206 40.4555
25.714657124097695 40.4703
25.737494350954734 40.4375
25.760511045684957 40.3746
25.783350361364224 40.3895
25.806190718969255 40.3797
25.82903211955018 40.5224
25.852053024868923 40.4762
25.874896522722523 40.5514
25.897741066713106 40.5398
25.920586657892454 40.7077
25.943611790812668 40.779
25.966459487728237 40.9042
25.989308234998564 40.8839
26.01215803367705 41.2022
26.03518741123814 41.4147
26.05803932412957 41.5638
26.080892291600094 41.4945
26.10374631470478 41.5114
26.12677995397268 41.5113
26.14963609978026 41.5943
26.172493304397875 41.1995
26.19535156888223 40.9821
26.218389486949604 40.7631
26.241249882640123 40.4048
26.26411134137826 40.0442
26.28715248187403 40.0492
26.31001607820869 40.0155
26.3328807407756 39.8441
26.35574647063438 40.0451
26.37879191991473 40.083
26.401659795896734 40.009
26.424528742360263 40.2541
26.447398760366614 40.369
26.470448535598294 40.5427
26.49332070826805 40.5416
26.516193955675355 40.8722
26.53906827888316 41.2133
26.562122397260108 41.5063
26.584998883685063 41.6537
26.607876449110325 41.833999999999996
26.63075509460056 42.0944
26.65381357334404 42.2327
26.67669439061878 42.1822
26.699576291163382 41.8232
26.722459276044212 41.7649
26.745522132402975 41.51
26.768407297649354 41.2055
26.791293550442003 40.8865
26.814180891848974 40.6711
26.837248143099337 40.4443
26.860137673466657 40.3582
26.88302829566349 40.0762
26.90592001075963 39.9485
26.92899167420566 39.6714
26.951885586870763 39.3134
26.974780595655517 39.1911
26.99785558178161 39.1199
27.020752794605112 38.9668
27.043651106772522 38.8687
27.06655051935668 38.7625
27.089629948036183 38.6907
27.112531573292053 38.6962
27.135434302194138 38.7108
27.158338135817015 38.4339
27.181422024430987 38.4481
27.204328079372566 38.3464
27.22723524226965 38.3542
27.250143514198573 38.491
27.273231880156334 38.5551
27.296142382065014 38.4912
27.319053996245536 38.4208
27.341966723775965 38.4214
27.365059584515222 38.4435
27.38797455070062 38.4527
27.410890633481237 38.2213
27.433807833936918 38.2006
27.456905206923906 38.418
27.47982465472398 38.5101
27.502745223449743 38.6055
27.525666914182825 38.5311
27.548768816912457 38.4751
27.571692763693633 38.4618
27.59461783573812 38.3423
27.617723149491244 38.1083
27.640650484125285 37.9599
27.66357894728264 37.8527
27.686508540048052 38.1061
27.709618414237887 37.9898
27.732550278321757 37.756
27.755483275279115 37.8017
27.778417406196485 37.8082
27.801531858397514 37.7519
27.824468269376716 37.6534
27.847405817586786 37.7984
27.870344504116094 37.8791
27.893463551932008 37.9919
27.916404527281053 38.33
27.93934664422563 38.2482
27.962289903855886 38.3832
27.98541356491974 38.5724
28.00835912214229 38.6697
28.03130582533231 38.9496
28.054253675581805 38.9883
28.077381967556104 39.0359
28.100332124185126 38.8382
28.123283431160893 38.7731
28.146235889577238 38.7415
28.169368830154156 38.4977
28.192323603752033 38.3527
28.215279532083304 38.0918
28.238415973016764 37.7861
28.261374223145094 37.6969
28.284333631303806 37.5434
28.307294198589954 37.434
28.330435319167677 36.9317
28.353398217078915 36.6931
28.376362277420153 36.4819
28.39932750129032 36.3506
28.422473319286713 36.2271
28.44544088262495 36.3503
28.468409612800283 36.115
28.491379510913497 35.8973
28.51453004413313 35.7512
28.53750229057244 35.7663
28.56047570826344 35.8286
28.583450298308804 35.825
28.606605564586562 35.6183
28.629582511831156 35.6477
28.65256063474956 35.4888
28.675539934446338 35.6242
28.698699951647605 35.5657
28.72168161743193 35.2931
28.74466446331978 35.4801
28.767648490417624 35.3275
28.790813276438353 35.3237
28.813799678527303 35.3354
28.836787265157085 35.4148
28.859955641890075 35.364000000000004
28.882945610203045 35.3166
28.905936766392035 35.2579
28.928929111566863 35.2691
28.952102288520145 35.1975
28.975097024308607 34.9759
28.998092952423807 34.868
29.021090073977508 34.8085
29.04426806913204 34.6486
29.067267590245258 34.4447
29.090268308143695 34.5084
29.11327022394099 34.3964
29.13645305530891 34.3089
29.159457379627167 34.306999999999995
29.18246290519685 34.2468
29.20546963313352 34.2209
29.22865731875826 34.3173
29.25166646419296 34.1956
29.27467681535305 34.0605
29.29768837335608 34.1784
29.320880931312562 34.1706
29.34389491580634 34.2146
29.366910110507334 34.1381
29.38992651653503 34.2003
29.41312396492981 34.0588
29.436142806456754 34.0269
29.45916286268059 33.9739
29.48236399319994 33.8743
29.50538649169417 33.8291
29.528410208259935 33.6241
29.55143514402014 33.3656
29.574641196749695 33.3263
29.597668583816574 33.1688
29.6206971934585 33.0413
29.64372702680042 33.0072
29.666938019934474 32.9351
29.689970313635285 32.9188
29.713003834422636 32.8157
29.73603858342347 32.8767
29.759254535188578 32.8863
29.78229175361658 32.7439
29.80533020365064 32.8036
29.82836988641968 32.833
29.85159081507472 32.7419
29.874632976355343 32.6506
29.89767637376955 32.7316
29.920721008448314 32.4637
29.9439469322847 32.5742
29.96699405457564 32.5887
29.9900424175358 32.5205
30.013092022298157 32.4355
30.03632295963995 32.3698
30.059375061131373 32.3638
30.08242840783577 32.3765
30.105483000888153 32.3843
30.128718970092244 32.1727
30.151776069006917 32.2502
30.17483441768648 32.3836
30.198074175317235 32.3785
30.221135036724256 32.2734
30.24419715131772 32.1815
30.267260520236203 32.1041
30.290505341942243 32.1588
30.313571232750228 32.2979
30.336638381310948 32.2355
30.35970678876503 32.1712
30.38295669299435 32.1316
30.40602763151657 32.1373
30.429099832366074 32.0495
30.452173296685572 32.0625
30.47542830191959 32.0561
30.498504306502497 31.9661
30.521581577995562 32.1152
30.544660117543582 32.1518
30.56792024229725 32.1205
30.59100133132069 32.1831
30.614083691845494 32.0784
30.637167325018545 32.2075
30.660432587840603 32.2691
30.683518779717886 32.0871
30.70660624769615 32.169000000000004
30.729694992924372 32.2044
30.75296541239743 32.1138
30.77605672557558 31.965999999999998
30.799149319462742 31.949
30.8224236211637 31.9018
30.845518789950724 31.7917
30.868615242910597 31.7599
30.891712981195973 31.5049
30.91499247215866 31.4543
30.938092794619365 31.4098
30.96119440587579 31.2507
30.984297307082752 31.291999999999998
31.00758200598383 31.2308
31.030687500658694 31.1145
31.053794288760695 31.158
31.076902371446767 31.0186
31.100192296997445 31.0547
31.12330298246119 30.9114
31.14641496599209 30.895
31.169528248749216 30.9331
31.19282341969534 30.9102
31.215939314557186 30.9559
31.239056512134788 30.8936
31.262175013589378 30.8906
31.28547544871168 30.8208
31.30859657161541 30.7725
31.331719001892175 30.7473
31.35484274070538 30.9971
31.378148458819545 30.8945
31.401274828443725 30.8252
31.424402510106933 30.8344
31.447712205419993 30.8336
31.470842524931633 30.7587
31.493974159989783 30.7184
31.51710711176168 30.674
31.54042212308802 30.682
31.563557722100917 30.6975
31.586694641341655 30.5272
31.609832881979628 30.3471
31.63315322823208 30.3803
31.656294125521327 30.2328
31.679436347728515 30.256
31.70257989602529 30.188000000000002
31.725905596152327 30.1375
31.74905181052835 30.0978
31.772199354521323 30.2688
31.79534822930507 30.1209
31.818679302290967 30.1209
31.84183085259981 30.0209
31.864983737233473 30.1666
31.88813795736804 30.1447
31.911474422233013 29.923000000000002
31.934631327356435 30.0128
31.9577895715215 29.9534
31.980949155906522 30.0206
32.004291031706956 29.8361
32.027453310562606 29.8355
32.05061693318573 29.6741
32.07396288236386 29.7727
32.09712920658542 29.7581
32.12029687812702 29.5867
32.14346589817093 29.5187
32.166817291729984 29.46
32.18998902288583 29.3824
32.21316210610336 29.2622
32.23633654256711 29.1449
32.259693399663725 29.2027
32.282870556771144 29.0894
32.30604907069099 29.0864
32.329228942610065 28.9415
32.35259128243769 28.8168
32.375773884550505 28.8699
32.398957848235646 28.8463
32.422143174682176 28.8123
32.445511016471215 28.6687
32.468699082679954 28.6415
32.49188851523011 28.589000000000002
32.51507931531304 28.4871
32.538452678331 28.5722
32.56164622776311 28.4456
32.58484114831493 28.4053
32.60803744118015 28.4327
32.631416344731896 28.3463
32.654615396551876 28.3945
32.67781582427913 28.361
32.701198898634416 28.2317
32.72440209253756 28.2054
32.747606665947124 28.1792
32.77081262006088 28.1632
32.79420126883317 28.2235
32.81740999876112 28.093000000000004
32.840620112999424 28.0161
32.86383161274818 27.9942
32.88722585534586 27.9325
32.91044014056596 27.9368
32.933655814909734 27.9116
32.95687287957963 27.9218
32.98027273544904 27.7882
33.00349259526636 27.7204
33.026713849030116 27.8202
33.04993649794511 27.7968
33.073341986570746 27.7407
33.09656744032826 27.8358
33.11979429286444 27.6963
33.14302254538647 27.7034
33.166433686291185 27.6481
33.18966475336992 27.6247
33.212897224069096 27.5124
33.23613109959831 27.4964
33.259547912343415 27.458000000000002
33.2827846121627 27.4138
33.306022720453775 27.4021
33.32926223842861 27.3153
33.352684742614166 27.2917
33.37592709463173 27.2929
33.399170859982064 27.1864
33.422597648419426 27.1895
33.44584425514446 27.1257
33.46909227885668 26.9938
33.4923417207723 26.8256
33.51577423505344 26.9065
33.539026528130385 26.9488
33.56228024307245 26.8522
33.585535381098246 26.6682
33.60897364093058 26.627
33.63223163992385 26.6548
33.6554910656699 26.5444
33.678751919389796 26.5601
33.702195944520106 26.5095
33.72545966903325 26.5346
33.74872482519663 26.4706
33.771991414233746 26.5083
33.79544122444841 26.4088
33.81871069412428 26.2912
33.84198160035767 26.2701
33.86525394437455 26.2895
33.88870955949969 26.1877
33.911984794020626 26.2491
33.93526147001624 26.2722
33.958539588715006 26.1533
33.98200102861669 26.0563
34.0052820477047 25.9958
34.02856451319451 25.9888
34.05203033759056 25.8753
34.07531571090147 25.8793
34.09860253431845 25.8245
34.121890809074316 25.7763
34.145362493118924 25.7779
34.16865368561615 25.7754
34.191946333164054 25.7492
34.21524043699793 25.7024
34.23871800066799 25.6594
34.26201503218366 25.5629
34.28531352370466 25.5636
34.30861347646881 25.4907
34.33209693978188 25.5051
34.3553998301885 25.485
34.378704185565205 25.3508
34.402010007152356 25.2594
34.42549939016683 25.3289
34.44880815937748 25.2422
34.472118398533134 25.2804
34.49543010887669 25.1894
34.51892543169198 25.0026
34.54224009966052 25.1474
34.56555624255917 25.114
34.58887386163339 24.9501
34.61237514439016 25.0158
34.6356957311114 24.9853
34.65901779775809 25.0055
34.68252356662995 24.845
34.705848608458616 24.9387
34.72917513396849 24.7839
34.75250314440949 24.7275
34.77601490857862 24.6695
34.799345904259795 24.6376
34.82267838863559 24.6088
34.846012362958525 24.5758
34.869530142679984 24.5146
34.89286711232212 24.5419
34.91620557568269 24.59
34.93954553401677 24.5296
34.9630693495876 24.4574
34.986412313340814 24.4614
35.00975677584668 24.4632
35.033102738362956 24.3664
35.05663261012228 24.2874
35.0799815881786 24.3348
35.10333207003229 24.2155
35.12668405694369 24.241999999999997
35.150220005273056 24.1161
35.17357501786656 24.1796
35.19693153931268 24.1705
35.220289570874385 24.1113
35.24383161619786 24.043000000000003
35.267192683604904 24.0464
35.290555264930376 24.0027
35.314101899412165 24.0062
35.33746752422433 23.9748
35.36083466676374 23.9829
35.38420332829803 23.9115
35.407756095629054 23.9751
35.43112781085063 23.947
35.45450104888391 23.9209
35.477875810999194 23.8973
35.50143473172161 23.7674
35.52481255774625 23.8016
35.54819191167777 23.7456
35.57157279478914 23.7679
35.595137889488406 23.6291
35.61852184675279 23.5728
35.641907337029984 23.4868
35.665294361595684 23.5391
35.68886565090076 23.4546
35.7122557598848 23.4033
35.73564740699838 23.4294
35.759040593519934 23.3905
35.78261809810353 23.3522
35.80601437933051 23.2885
35.829412203814705 23.2493
35.85281157283719 23.1812
35.876395313415884 23.2196
35.8997977874528 23.1911
35.92320180988546 23.1393
35.946790244133936 23.0374
35.97019737933222 23.1044
35.993606066789866 23.0301
36.01701630779276 23.0391
36.04061101440684 22.8926
36.06402437852291 22.9563
36.08743930005611 22.9517
36.1108557802951 22.8061
36.13445678011326 22.7871
36.15787639383515 22.7983
36.18129757014299 22.8454
36.20472031032821 22.7584
36.22832762423364 22.7418
36.25175350829375 22.7137
36.275180960119776 22.551
36.298609981005924 22.6486
36.32222362992669 22.5321
36.34565580510207 22.5094
36.36908955323448 22.5057
36.39252487562093 22.4079
36.416144880530226 22.357
36.43958336764275 22.4085
36.463023432914625 22.3583
36.486465077645676 22.342
36.51009145956204 22.3266
36.53353627947859 22.3628
36.55698268276811 22.3168
36.58043067073321 22.2173
36.60406345072071 22.0903
36.62751462435344 22.1173
36.65096738658405 22.1078
36.67460498210655 22.1741
36.69806093788647 22.066999999999997
36.72151848619297 21.9831
36.744977628333636 21.9835
36.76862165890998 21.8591
36.79208400512205 21.9255
36.81554794910557 21.8968
36.83901349217101 21.7915
36.862663978991606 21.7167
36.88613273667352 21.7079
36.90960309738324 21.7185
36.933075062434064 21.675
36.95673202673572 21.6561
36.98020721697122 21.6338
37.003684015502365 21.54
37.027162423645365 21.5712
37.050825886711465 21.5784
37.07430753063053 21.4323
37.09779078812467 21.4359
37.121275660513014 21.46
37.144945643673694 21.3386
37.16843376245278 21.375999999999998
37.19192350009803 21.3183
37.215414857931435 21.2376
37.239091382563885 21.1696
37.262585997426164 21.1718
37.28608223645736 21.1949
37.309763684451696 21.1733
37.33326318851098 21.1547
37.356764320726555 21.0975
37.380267082425526 21.1455
37.40395510942588 21.0388
37.42746114683234 21.0293
37.45096881771841 20.9094
37.474478123414166 20.9609
37.49817275092816 20.8559
37.52168534303452 20.8667
37.54519957395567 20.7319
37.568715445024665 20.7492
37.592416694607714 20.7519
37.61593586281424 20.8175
37.63945667518264 20.7712
37.66297913304891 20.6832
37.68668702630454 20.6225
37.710212792059274 20.498
37.733740207334854 20.5758
37.757269273470364 20.5677
37.780983832050374 20.4999
37.80451621684926 20.4686
37.82805025654007 20.4368
37.851585952464795 20.3413
37.8753071980695 20.2855
37.89884622345676 20.2826
37.92238690911902 20.2417
37.94611318753442 20.2264
37.969657210779765 20.2158
37.99320289834801 20.1813
38.016750251586465 20.1733
38.04048325513017 20.1594
38.06403395679343 20.0712
38.087586328183946 20.0074
38.11114037065203 20.077
38.13488012115898 20.0127
38.1584375229181 19.9448
38.181996599821 19.9701
38.205557353221124 19.9721
38.229303872575656 19.8622
38.2528679961576 19.8684
38.27643380031219 19.8631
38.30000128639589 19.7375
38.32375459653193 19.7527
38.34732546371299 19.725
38.37089801690786 19.6414
38.39447225747609 19.6017
38.418232380377425 19.6379
38.441810012983396 19.6152
38.46538933705673 19.5231
38.488970353960084 19.4922
38.51273731166058 19.4394
38.536321731567014 19.4457
38.55990784840681 19.4051
38.58367995004091 19.3971
38.60726947812959 19.2804
38.63086070726198 19.37
38.654453638806274 19.3743
38.678232613930824 19.3134
38.70182896773327 19.1747
38.72542702806741 19.1828
38.7490267963045 19.1372
38.77281266709232 19.1064
38.79641586862214 19.1199
38.8200207821842 19.0708
38.843627409152944 19.1189
38.86742019782782 19.0168
38.891030269149255 18.994
38.914642058016156 19.0092
38.938255565806124 18.9812
38.96205529464307 18.8699
38.98567225787121 18.846
39.00929094417078 18.8992
39.03291135492255 18.8159
39.05671804624804 18.8218
39.080341923549106 18.7446
39.103967529460334 18.7436
39.127594865365744 18.6879
39.15140854155791 18.6276
39.17503935514948 18.6517
39.19867190290282 18.5861
39.22249083587951 18.5572
39.24612686969409 18.6158
39.269764641845306 18.5497
39.293404153722804 18.5474
39.317230110864074 18.4702
39.34087311998506 18.4141
39.36451787301696 18.419
39.388164371352595 18.3997
39.41199737518003 18.3773
39.43564738196752 18.3354
39.45929913825317 18.2866
39.48295264543308 18.2547
39.506792718520884 18.1579
39.530449745387216 18.2024
39.55410852735203 18.1962
39.57776906581474 18.1773
39.60161623079 18.0904
39.625280300200025 18.0916
39.64894613032202 17.9731
39.67261372255866 17.9838
39.6964680021016 17.9763
39.72013913657293 18.0413
39.74381203738292 17.9679
39.76748670593756 17.9078
39.79134812278169 17.9024
39.81502634488497 17.8742
39.83870633896685 17.8189
39.862388106436654 17.7502
39.88625668336918 17.7455
39.90994201572829 17.7717
39.933629125719285 17.7618
39.957503091207826 17.7094
39.9811937746168 17.6918
40.00488623990914 17.5913
40.02858048850006 17.5717
40.05246165409549 17.5764
40.076159487492085 17.5032
40.099859108448875 17.5203
40.123560518384345 17.497
40.1474489070226 17.524
40.171153913178564 17.409000000000002
40.194860712584955 17.436
40.2185693066637 17.3912
40.242464941335314 17.3195
40.26617714307655 17.2768
40.289891143772046 17.2811
40.3136069448471 17.2733
40.33750984859743 17.2157
40.3612292688043 17.171
40.3849504936829 17.1584
40.40867352466194 17.1395
40.43258372059144 17.116
40.45631038219906 17.1034
40.48003885420956 17.0575
40.503769138055105 17.0888
40.52768664931955 17.066
40.55142057531802 17.0134
40.57515631746428 16.9687
40.599079334038514 16.9495
40.62281872700477 16.9637
40.64655994043941 16.9417
40.67030297578061 16.8887
40.69423334835778 16.8561
40.71798004609188 16.7991
40.74172857006355 16.7738
40.76547892171441 16.7681
40.7894166736039 16.7079
40.813170699248566 16.7364
40.83692655691388 16.6831
40.86068424804498 16.6818
40.884629402612525 16.6009
40.908390779366385 16.608
40.932153993938 16.5609
40.95591904777605 16.5493
40.979871628443995 16.465999999999998
41.003640379561936 16.4742
41.02741097430883 16.4977
41.05118341413683 16.4717
41.075143444384416 16.4169
41.098919593177826 16.4161
41.1226975914255 16.407
41.14647744058318 16.3478
41.170444943946755 16.3178
41.19422851378379 16.3198
41.218013938914645 16.2497
41.24198706625173 16.2297
41.26577622087193 16.2082
41.289567235177785 16.1668
41.31336011063129 16.1432
41.337340752422875 16.0573
41.361137369129835 16.0549
41.38493585138705 16.0488
41.40873620066004 15.9832
41.43272438060107 15.9265
41.45652848292052 15.9432
41.48033445666918 15.8865
41.50414230331616 15.9155
41.528138045159764 15.8876
41.551949656675205 15.824000000000002
41.575763145513235 15.7888
41.59957851314666 15.7989
41.62358184070442 15.7054
41.64740098505737 15.7839
41.6712220126409 15.7463
41.69504492493139 15.6831
41.71905586207357 15.6351
41.74288256296395 15.7003
41.766711153007456 15.6496
41.79054163368412 15.6575
41.814560204340054 15.5707
41.838394485526365 15.5823
41.86223066180303 15.5532
41.88625497706819 15.5402
41.910094962812 15.4907
41.93393684811168 15.5049
41.95778063445365 15.4025
41.981812625263366 15.3545
42.00566023303407 15.3565
42.029509746323676 15.3215
42.05336116662236 15.2756
42.077400857069705 15.3037
42.10125611078846 15.2809
42.12511327600405 15.1964
42.14897235421036 15.2197
42.173019768448455 15.1964
42.19688269209613 15.1488
42.22074753323349 15.1582
42.24461429335818 15.1225
42.268669455600495 15.1122
42.292540073217886 15.0768
42.31641261433284 15.0287
42.34028708044675 15.0236
42.36435001496739 15.0494
42.38822835065557 14.9731
42.41210861586426 14.9204
42.4359908120986 14.9453
42.46006154323262 14.8559
42.48394762115317 14.8672
42.507835634632315 14.8901
42.531912233047436 14.868
42.55580413732265 14.8199
42.579697981698 14.7654
42.60359376768525 14.7592
42.62767820545945 14.7106
42.65157789440821 14.7199
42.67547952952185 14.6913
42.699383112316 14.665999999999999
42.72347541395347 14.6284
42.74738291190531 14.5617
42.771292362102166 14.5884
42.795203766063516 14.5577
42.819303956130405 14.498
42.843219287476536 14.4568
42.86713657716324 14.4869
42.89105582671383 14.4552
42.91516392983864 14.440999999999999
42.939087119032166 14.4354
42.963012272677304 14.354000000000001
42.98693939230129 14.3287
43.01105543317513 14.3141
43.034986504731386 14.3138
43.05891954686589 14.2777
43.08285456110972 14.2974
43.10697856448665 14.2019
43.130917542983475 14.1753
43.15485849820081 14.179
43.17880143167367 14.1036
43.20293342237094 14.100999999999999
43.226880332449 14.1081
43.25082922540554 14.1083
43.27496722682525 14.0564
43.29892010567796 13.9996
43.32287497204102 13.9994
43.34683182745632 13.9455
43.370977859791836 13.939
43.39493871351105 13.925999999999998
43.41890156092628 13.9517
43.44286640358341 13.9311
43.46702049182749 13.8979
43.49098934522816 13.8326
43.51496019852649 13.8298
43.5389330532723 13.8256
43.56309522248204 13.7551
43.58707210044314 13.763
43.61105098451946 13.686
43.63503187626491 13.712
43.659202151562134 13.6682
43.68318707902681 13.6863
43.70717401884041 13.6278
43.731162972560874 13.5785
43.75534137913236 13.5633
43.779334381108384 13.5516
43.803329401683186 13.5439
43.82732644241872 13.5238
43.8515130055166 13.5107
43.87551410707659 13.4544
43.89951723350145 13.4237
43.923709934595614 13.3872
43.94771713129917 13.3715
43.97172635758096 13.3699
43.99573761501002 13.3011
44.0199385169922 13.2933
44.04395385732619 13.2982
44.067971233533086 13.2891
44.09199064718605 13.241
44.11619977548961 13.204
44.14022328470671 13.2231
44.16424883610785 13.2099
44.18827643127035 13.1824
44.21249381139513 13.1699
44.236525514814076 13.0756
44.26055926674478 13.1593
44.28459506876863 13.0764
44.3088207262813 13.0037
44.33286064928722 13.0004
44.35690262714919 13.0127
44.38094666145278 13.0161
44.4051806219871 12.9747
44.42922879003185 12.9266
44.45327901929361 12.901
44.477331311362136 12.8638
44.501573600619416 12.8312
44.525630039221795 12.789000000000001
44.54968854541895 12.8121
44.573937102200176 12.806
44.5979997645541 12.7755
44.622064499300315 12.7645
44.64613130803592 12.6992
44.67038823869318 12.7632
44.69445921643748 12.7237
44.718532272981385 12.6497
44.742607409926194 12.6384
44.76687274034801 12.5964
44.79095205918753 12.5815
44.81503346325094 12.5466
44.839116954143876 12.5422
44.86339071028742 12.5381
44.88747839599524 12.52
44.91156817336837 12.4779
44.93566004401666 12.4619
44.959942251908146 12.436
44.984038330325966 12.4025
45.00813650686762 12.3788
45.03223678314731 12.3595
45.05652746888232 12.3199
45.08063196592069 12.3133
45.104738567558705 12.3084
45.128847275414856 12.2692
45.15314646515866 12.2641
45.17725940679741 12.235999999999999
45.20137445952892 12.1874
45.22568004865265 12.2196
45.24979934496396 12.1837
45.27392075725247 12.1262
45.29804428714431 12.1114
45.322358426247604 12.1122
45.346486212804315 12.1227
45.370616121861914 12.0762
45.39474815505086 12.0472
45.41907087049246 12.0628
45.4432071734666 12.0073
45.46734560548283 12.0038
45.49148616817604 11.9638
45.51581748638564 11.9412
45.5399623320197 11.902999999999999
45.56410931325473 11.8281
45.58825843173002 11.8973
45.61259837920865 11.8797
45.636751793816 11.8679
45.66090735060093 11.8011
45.68506505120716 11.7561
45.7094136545275 11.7415
45.73357566449271 11.7349
45.75773982322992 11.7336
45.78190613238733 11.7296
45.806263418194064 11.6543
45.83043404997326 11.6824
45.85460683713677 11.6266
45.87897065658495 11.6164
45.90314777634752 11.5951
45.92732705646868 11.5633
45.9515084986045 11.5558
45.97588104735473 11.5693
46.00006683541565 11.5265
46.02425479047904 11.5085
46.04844491420549 11.5107
46.0728262191024 11.4964
46.09702070211635 11.47
46.12121735879483 11.4314
46.14541619080294 11.432
46.169806278764455 11.4028
46.194009483459034 11.3715
46.21821486849841 11.3248
46.24242243555223 11.327
46.266821333570014 11.2832
46.29103328674601 11.2727
46.31524742696538 11.3015
46.33946375590237 11.2434
46.36387149104216 11.2269
46.38809221957392 11.1827
46.41231514186606 11.1952
46.436540259597464 11.1672
46.460956858999374 11.1266
46.48518638983522 11.1207
46.509418121166966 11.104000000000001
46.533652054678114 11.0948
46.55807754555709 11.0279
46.58231590571962 11.0405
46.60655647313217 11.0506
46.630988654873654 10.9679
46.655233659129024 10.9439
46.67948087571551 10.9337
46.70373030632484 10.9522
46.72817142736393 10.9475
46.752425308428684 10.9029
46.77668140861147 10.8916
46.80093972960865 10.7993
46.82538981736788 10.8171
46.849652602470904 10.8465
46.87391761349769 10.7994
46.8981848521493 10.7837
46.9226439341274 10.7882
46.946915650573224 10.7312
46.97118959976749 10.7379
46.99546578341598 10.6815
47.019933887188216 10.6716
47.04421456235744 10.6461
47.06849747711879 10.6594
47.09278263318286 10.6312
47.11725978640143 10.5971
47.14154944775105 10.5532
47.165841355555656 10.5457
47.1901355115306 10.515999999999998
47.214621741924994 10.4913
47.23892041698887 10.529000000000002
47.26322134538975 10.4481
47.28771440635075 10.4103
47.31201986422527 10.4322
47.33632758061436 10.4252
47.360637557241866 10.3715
47.38513974410611 10.3998
47.40945426407847 10.3465
47.43377104948137 10.3572
47.45809010204344 10.3351
47.48260144275502 10.314
47.506925052572285 10.32
47.53125093475548 10.2597
47.55557909103813 10.2379
47.58009961361992 10.195
47.60443234110732 10.198
47.62876734791564 10.182
47.65310463578333 10.175
47.6776343683373 10.1862
47.7019762413987 10.0876
47.72632040075572 10.0995
47.75066684815169 10.1022
47.77520581885936 10.0396
47.799556865477655 10.0237
47.823910205386 10.0812
47.84826584033272 10.0482
47.87281407745551 10.0294
47.89717432569297 9.988480000000001
47.92153687423484 9.99441
47.94609208429692 9.94416
47.97045925671401 9.90427
47.99482873471275 9.896139999999999
48.01920052005013 9.91973
48.04376504619224 9.893410000000001
48.068141469543484 9.8544
48.09252020552573 9.86768
48.11690125590099 9.827110000000001
48.1414751266064 9.801730000000001
48.16586082917454 9.76113
48.19024885144316 9.77699
48.2146391951793 9.78546
48.239222439012764 9.78578
48.26361744916137 9.68948
48.28801478610016 9.7017
48.31241445160131 9.71335
48.337007097209366 9.68335
48.36141144338331 9.6316
48.38581812345755 9.5885
48.41022713920929 9.63015
48.434829215320704 9.6143
48.45924292604658 9.62703
48.48365897780325 9.62467
48.50807737237308 9.59644
48.532688907799276 9.54555
48.55711201168574 9.48921
48.581537463754074 9.44181
48.60615611725119 9.493030000000001
48.63058628942721 9.491480000000001
48.65501881516546 9.47071
48.6794536962573 9.4195
48.70408185970339 9.39128
48.72852147531801 9.33437
48.75296345168211 9.34427
48.77740779059232 9.34403
48.80204549302823 9.33745
48.82649458091802 9.33613
48.85094603676547 9.29224
48.87539986237231 9.275789999999999
48.90004713292306 9.24872
48.92450572200832 9.2695
48.94896668628025 9.240680000000001
48.97343002754588 9.20379
48.99808689542115 9.17982
49.02255501470614 9.20819
49.04702551642794 9.17093
49.0714984023988 9.15736
49.096164896893235 9.12875
49.120642575466796 9.10634
49.145122643748394 9.07129
49.16960510355558 9.05589
49.19428125404938 9.04552
49.2187685210852 9.02128
49.243258185121555 9.04087
49.26794160167084 9.00159
49.2924360839405 9.02745
49.31693296869764 8.95706
49.34143225776915 8.96487
49.36612538195438 8.90824
49.39062950396021 8.91641
49.41513603578346 8.92411
49.4396449792564 8.87726
49.46434784069503 8.86886
49.488861631846454 8.86774
49.513377840166804 8.85257
49.537896467493745 8.80669
49.56260909589029 8.75981
49.587132585683285 8.75976
49.611658500018365 8.75757
49.636186840738596 8.7511
49.66090926588511 8.71021
49.685442483902584 8.69609
49.70997813385706 8.65907
49.734516217597076 8.66906
49.75924846937352 8.65286
49.7837914452858 8.64209
49.80833686055187 8.606810000000001
49.83288471702571 8.62371
49.85762682540054 8.61011
49.882179588965734 8.57547
49.9067347993235 8.5197
49.93129245833333 8.5411
49.95604445336378 8.53895
49.98060703442832 8.54841
50.005172069746266 8.50945
50.02993150438364 8.51463
50.05450147301533 8.46995
50.07907390151433 8.465530000000001
50.10364879174981 8.40908
50.12841816587289 8.40217
50.1529980044635 8.416889999999999
50.17758031042124 8.3785
50.20216508562089 8.37469
50.22694442953363 8.3291
50.25153416817468 8.31735
50.27612638170508 8.28705
50.300721072005196 8.28315
50.325510416102105 8.31007
50.350110084975064 8.28288
50.37471223628208 8.27138
50.39931687190919 8.26416
50.424116246675766 8.24066
50.44872587605249 8.22606
50.47333799543065 8.188189999999999
50.49795260670191 8.21621
50.52276204271512 8.1895
50.54738166295838 8.11893
50.57200378079314 8.11582
50.596628398116835 8.12798
50.62144792604559 8.10975
50.646077567609396 8.06075
50.670709714377715 8.06381
50.69553683636198 8.04385
50.72017401885922 8.03483
50.7448137122895 8.05363
50.76945591856022 8.03209
50.79429318636823 8.00168
50.818940443716784 7.98637
50.84359021965163 7.94083
50.868242516085964 7.96405
50.893089960641895 7.957889999999999
50.917747323549435 7.9272800000000005
50.94240721271973 7.89923
50.96706963007175 7.871389999999999
50.99192728239342 7.829330000000001
51.01659478166073 7.86429
51.04126481489051 7.88916
51.06593738400761 7.86627
51.090805275207074 7.83945
51.11548294172845 7.8223
51.14016314993547 7.762630000000001
51.164845901758845 7.76836
51.18972406304274 7.75957
51.21441192780656 7.718
51.23910234200271 7.72554
51.2637953075678 7.68023
51.288683770237945 7.641380000000001
51.31338186432707 7.63219
51.33808251561888 7.61377
51.362978729967345 7.63829
51.387684521509755 7.65305
51.41239287610203 7.629980000000001
51.437103795691165 7.5981
51.46201036644977 7.547510000000001
51.486726441956634 7.5517
51.51144508832545 7.53388
51.536166307509156 7.5036
51.56108326624387 7.54104
51.58580965706056 7.51072
51.61053862657523 7.49625
51.635270176746864 7.414210000000001
51.66019755512065 7.43295
51.68493429268881 7.41985
51.70967361681515 7.41096
51.73441552946465 7.409330000000001
51.759353359237934 7.4143300000000005
51.7841004750961 7.38822
51.80885018539685 7.3837399999999995
51.833602492111254 7.37217
51.8585508051424 7.3322
51.883308330926425 7.29905
51.90806845906181 7.28079
51.932831191525715 7.25736
51.95779001977161 7.23154
51.98255798721516 7.25834
52.00732856494335 7.23194
52.03229530577543 7.226539999999999
52.057071130455945 7.177239999999999
52.081849571391054 7.194839999999999
52.106630630568695 7.203360000000001
52.13160794279417 7.15366
52.15639426492067 7.157360000000001
52.18118321127822 7.1230199999999995
52.205974783860896 7.0903
52.23096269971011 7.12777
52.255759551287994 7.11366
52.280559035098186 7.075989999999999
52.30536115314103 7.05695
52.33035970494467 7.0663
52.35516711807904 7.044919999999999
52.37997717147198 7.02042
52.40478986713005 7.02185
52.42979908731974 6.9906
52.454617094216 6.98574
52.47943774942214 6.945860000000001
52.50426105495102 6.92467
52.529280976059844 6.90417
52.554109609024096 6.9146600000000005
52.57894089837482 6.90233
52.60377484613117 6.9008899999999995
52.62880550079408 6.87063
52.65364479223379 6.81963
52.67848674816189 6.8266
52.70352547971946 6.8106800000000005
52.72837279155837 6.837289999999999
52.753222773982785 6.77768
52.778075429022984 6.79385
52.80312495150885 6.76775
52.827982978797436 6.76001
52.85284368481815 6.72077
52.87770707160767 6.74056
52.90276741793998 6.744669999999999
52.92763619336701 6.674589999999999
52.952507655698504 6.68637
52.977381806977576 6.67691
53.00245301017842 6.64652
53.02733256653592 6.61112
53.052214817996074 6.62058
53.077099766608484 6.6200399999999995
53.102181859804446 6.60323
53.127072229988265 6.55554
53.15196530349892 6.56531
53.17686108239249 6.54663
53.20195409881522 6.568789999999999
53.22685531582556 6.5614
53.25175924441303 6.48032
53.27666588664027 6.5107800000000005
53.30176985962693 6.46854
53.3266819565689 6.45515
53.35159677336455 6.49401
53.376514312083096 6.44966
53.40162927507703 6.4389199999999995
53.42655228516116 6.4145
53.45147802340193 6.41003
53.47660125628886 6.426069999999999
53.50153247842639 6.36991
53.52646643496923 6.35565
53.55140312799818 6.3613800000000005
53.576537409691696 6.31492
53.60147960336152 6.2848
53.626424539786164 6.274859999999999
53.65137222105307 6.269430000000001
53.67651758529126 6.3038
53.70147078399681 6.29066
53.72642673383343 6.21197
53.75138543689533 6.27982
53.776541917524526 6.1889400000000006
53.801506154876755 6.16236
53.826473151763246 6.20221
53.851442910284916 6.14192
53.87661054126026 6.15641
53.9015858509782 6.1528599999999996
53.92656392866066 6.11621
53.95154477641532 6.1589599999999995
53.976723591801296 6.12602
54.00171000771266 6.10778
54.02669920004598 6.07843
54.051691170915745 6.02557
54.076881204886796 6.05748
54.101878760928514 6.08974
54.12687910187696 6.05829
54.152077577768296 6.03081
54.1770835166946 5.96307
54.20209224691339 5.99911
54.22710377055121 6.00595
54.25231352511594 5.9714
54.27733066384342 5.951230000000001
54.30235060239643 5.97912
54.32737334290836 5.94529
54.35259441062629 5.89007
54.377622783395324 5.87322
54.40265396455061 5.92225
54.42768795623251 5.91608
54.45292037169559 5.85572
54.477960012857906 5.83568
54.50300247099511 5.80516
54.52804774825457 5.7673
54.55329154616743 5.76682
54.57834249018678 5.79937
54.6033962597977 5.76167
54.6284528571545 5.73102
54.653708072335164 5.66558
54.67877035378786 5.66879
54.70383546947698 5.60585
54.72890342156389 5.62185
54.7541700889442 5.59486
54.77924374251975 5.6010800000000005
54.8043202390049 5.57834
54.82959552413022 5.53264
54.8546777351945 5.53982
54.87976279569621 5.52119
54.90485070780914 5.48599
54.930137506558005 5.47611
54.95523115074295 5.44646
54.98032765308844 5.41897
55.005427015775496 5.36014
55.03072536339621 5.39283
55.05583047570572 5.37526
55.080938454927676 5.37289
55.10604930325027 5.34844
55.131359235107396 5.34201
55.15647585066083 5.28425
55.181595341907496 5.289219999999999
55.20671771104285 5.21497
55.232039262617704 5.2480400000000005
55.25716741665048 5.23583
55.28229845518636 5.19074
55.30743238042802 5.13481
55.33276558731939 5.11714
55.357905315183636 5.13042
55.383047936390035 5.07219
55.40819345314859 5.07554
55.433538351073295 5.06309
55.458689688238415 5.08475
55.483843927614096 4.96163
55.509197623043605 4.94488
55.53435769621134 4.94261
55.55952067826466 4.94303
55.5846865714265 4.9317400000000005
55.61005202069737 4.85792
55.63522376553902 4.91063
55.66039842818645 4.84287
55.68557601087004 4.82745
55.7109532500271 4.809830000000001
55.73613670233794 4.81307
