TT I
1.2716486653135266 7.60876
1.2939594142134223 6.15567
1.3162702121660406 6.5284
1.3385810600174564 6.72435
1.3608919586137629 6.58546
1.383202908801069 5.95003
1.405513911425503 5.65171
1.4278249673332093 6.2575199999999995
1.4501343378461518 6.16789
1.4724455028545926 6.09124
1.4947567236847858 5.28028
1.517068001182951 5.64044
1.5393793361953272 6.15175
1.5616907295681737 5.40569
1.5840021821477681 4.93542
1.60631369478041 4.39151
1.6286252683124185 4.70958
1.6509369035901333 5.2538800000000005
1.6732468618895553 4.83033
1.695558623192809 4.53534
1.7178704487808514 4.8616
1.7401823395001077 4.70397
1.7625012545597203 4.7378800000000005
1.7848028405262486 4.74558
1.8071218901122095 5.08968
1.8294236121921872 4.86367
1.8517427996910911 4.74159
1.8740620574440425 5.1574599999999995
1.8963639900671978 5.286969999999999
1.9186833908139995 5.22655
1.9409854680117449 4.7119599999999995
1.9633050151394713 4.9000699999999995
1.9856246367570705 4.73799
2.0079269371922672 4.68163
2.03024671027244 5.00574
2.0525491637446027 4.61824
2.074869091674931 4.843369999999999
2.097171701569106 4.84446
2.1194917877373847 5.29138
2.141811954326636 4.56797
2.164114805233074 5.07759
2.186435135143035 5.76017
2.208738150935709 13.575
2.231058647554722 26.1546
2.2533792288321184 19.7515
2.275682498336085 9.845180000000001
2.298003251406138 5.64708
2.3203066942619714 4.92448
2.3426276225136022 5.200480000000001
2.3649486396617507 5.534
2.387252348930071 6.31548
2.4095735463442893 6.426159999999999
2.4318774374315884 6.58168
2.4541988185014043 6.30121
2.476502894794693 7.33402
2.498824462909887 7.028230000000001
2.521146125856138 7.79522
2.5434504863470337 7.580010000000001
2.5657723414244717 8.66221
2.588076895590662 8.72879
2.610398946189713 8.46753
2.6327210958598384 8.80006
2.6550259469304716 8.30861
2.6773482972090137 8.942839999999999
2.6996533504259 9.00302
2.7219759047039602 8.2832
2.744298562293959 7.91515
2.7666039251246595 8.19305
2.7889267918020164 8.60695
2.8112323652516555 8.519
2.833555444408179 8.78169
2.8558786311183852 8.60388
2.8781845268938557 8.61073
2.9005079311721484 9.1634
2.9228140460410397 9.31659
2.9451376712799635 9.45151
2.967444008632326 10.3195
2.9897678582247247 10.5797
3.0120918213106695 10.6003
3.0343984987899373 10.9253
3.0567226913198637 11.360999999999999
3.079029599759726 11.9037
3.101354025127254 12.4724
3.123678568232338 13.1693
3.145985829517914 13.5383
3.16831061055229 13.9728
3.1906181112775593 14.3
3.212943133635653 14.9938
3.2352682779763207 15.2707
3.2575761442691227 15.5063
3.2799015350264273 16.1011
3.302209649240067 16.4839
3.3245352898092655 16.5942
3.3468436553365257 17.1074
3.369169549113219 17.6697
3.3914955708171384 18.7517
3.413804319727358 18.6103
3.4361305997334863 19.1104
3.4584396084414553 19.2615
3.4807661501462652 20.1
3.503092824025881 20.5716
3.5254022288463154 21.1427
3.5477291695206588 22.0223
3.5700388426251948 22.6922
3.5923660534916446 23.9868
3.6146934007816114 37.5151
3.637003482731501 81.0378
3.6593311053109985 89.00399999999999
3.681641464033634 52.7048
3.7039693653009733 30.1285
3.726297407241705 25.8907
3.7486081875460804 25.3172
3.7709365132734978 25.8307
3.793247578841633 26.1635
3.8155761917550093 26.6183
3.8378875459837216 26.8395
3.8602164494827234 27.5285
3.882545499606844 28.3744
3.9048572932539183 28.9467
3.9271866390645718 29.1156
3.9494987298666713 29.6633
3.971828374764527 30.0502
3.9941581705403255 30.6673
4.016470713506008 31.2507
4.038800813471445 32.3421
4.061113662089144 32.4704
4.0834440696459176 33.2593
4.105774632334751 33.8548
4.128087945865126 34.6212
4.150418821249301 35.3249
4.172732448931298 36.6647
4.195063640413578 37.9351
4.2173775856475215 41.876999999999995
4.239709096631102 71.3764
4.262040768704612 217.672
4.284355196706267 286.538
4.306687193387355 187.28799999999998
4.329001947444346 76.6997
4.35133427213731 47.449
4.373666762177566 43.6487
4.395982011761091 43.8569
4.418314834921175 45.6415
4.44063041906622 52.8491
4.4629635787515625 61.9826
4.4852969080429785 62.1555
4.5076130004776225 52.9365
4.529946671403969 49.7396
4.552263106909177 50.2758
4.574597122877047 51.3969
4.596931312711224 52.1526
4.619248269273446 52.994
4.6415828092605835 54.0265
4.663900117405352 54.8523
4.686235010953232 56.4035
4.708552674085913 57.4647
4.730887924602802 58.3087
4.753223354952695 60.1228
4.775541557023902 61.56100000000001
4.797877349456786 63.2834
4.820195915032126 64.8151
4.842532072957498 66.3896
4.864868414979744 68.4938
4.88718753227192 70.4701
4.909524244902505 72.125
4.931843734218147 73.8972
4.954180820867835 76.487
4.976518095879839 78.699
4.998838149695359 81.3909
5.021175803844231 85.0053
5.043496238205739 87.9143
5.065834274903528 91.9026
5.088172504230693 96.1366
5.1104935158799565 101.52
5.132832132875765 121.835
5.155153533596801 159.69899999999998
5.1774925416746225 186.079
5.199814334878411 286.06
5.2221537374521505 777.835
5.244493338631803 2506.74
5.266815727034316 7694.15
5.289155727832427 13479.1
5.311478517248165 9021.36
5.333818921080011 2789.13
5.356159527788849 511.147
5.3784829252032536 173.03599999999997
5.400823940070432 138.315
5.423147747031976 124.26700000000001
5.445489173474152 115.49799999999999
5.467830807066149 110.40799999999999
5.490155234831516 107.44
5.512497285125229 104.272
5.534822130975162 102.34899999999999
5.557164601388673 99.9622
5.579489868738879 97.5615
5.601832762690846 96.6119
5.6241758697774475 95.5897
5.646501775867269 95.059
5.668845311622074 93.6061
5.691171647754637 92.5453
5.713515615597765 91.2726
5.735859800852677 90.7806
5.758186788542988 89.9648
5.780531411018185 90.2549
5.802858837297399 89.7222
5.825203900414495 89.5722
5.8475491852224 89.6612
5.869877275883075 90.1762
5.892223006467101 91.0274
5.914551544266608 91.2167
5.936897724049891 92.7737
5.959244129804903 96.83200000000001
5.981573344815301 110.13
6.0039202049061 177.485
6.026249875609095 374.499
6.04859719346037 836.432
6.070927323278297 2144.55
6.093275102315365 4628.51
6.115623113320588 5333.55
6.137953938319995 3133.99
6.160302415650845 892.758
6.182633708324452 209.502
6.2049826554078376 106.38600000000001
6.227331838745022 88.5503
6.249663839443684 82.4447
6.27201349767565 80.6591
6.294345974611799 86.3562
6.316696111167083 95.5538
6.339046488263839 90.6997
6.361379686074702 77.8082
6.383730546639482 70.7302
6.406064229255215 67.7701
6.428415576718203 67.7045
6.450749747566656 66.3224
6.47310158535871 65.4702
6.495453669698332 64.3772
6.517788579421056 63.9344
6.540141159237969 62.74
6.562476565766648 62.3273
6.5848296444934045 62.1357
6.607182974060425 61.7498
6.6295191323281015 61.9971
6.651872965955752 65.4962
6.6742096296068985 89.1137
6.6965639707294615 129.959
6.71891856698715 128.851
6.741255995248479 89.6633
6.763611104154477 66.5388
6.785949046381137 59.4567
6.808304671371482 57.7089
6.8306605557940046 57.4878
6.852999275508618 56.6755
6.875355681171544 56.1536
6.897694923437771 55.9732
6.92005185377892 56.028999999999996
6.9423916220322655 55.7319
6.964749080490181 54.882
6.987106804399774 54.9074
7.009447368180821 55.3184
7.031805625367033 54.9729
7.054146723727803 54.8879
7.076505517631004 54.2956
7.098864581288365 54.3855
7.121206488070854 54.4921
7.143566093607822 54.4422
7.165908543567245 54.6128
7.188268694426048 54.3471
7.2106291193438095 54.7936
7.232972390625943 56.2968
7.255333366030969 68.3645
7.277677189091925 118.57799999999999
7.300038718428332 157.47799999999998
7.322400526130865 132.634
7.344745183422596 84.3341
7.367107550224791 60.4422
7.389452767901992 55.5541
7.411815697249891 54.4583
7.434161478756298 54.0404
7.456524974096713 53.8276
7.478888753837185 53.7241
7.501235387657368 53.7689
7.523599738562711 53.7991
7.545946944825532 54.3443
7.568311870344528 54.4952
7.5906770845765665 55.0148
7.613025156078678 55.7707
7.635390950099687 57.5813
7.657739602662809 56.2965
7.680105979923558 55.5807
7.702472650212829 55.413000000000004
7.724822180948224 55.0101
7.747189439655568 55.1491
7.769539560075357 55.4067
7.791907410653562 55.4399
7.81425812420825 55.5903
7.836626570110925 56.0507
7.858995315087906 56.6887
7.881346924933401 56.7669
7.903716270417482 57.4901
7.926068482028405 57.8313
7.948438431475253 57.9184
7.9708086843180235 58.59
7.993161805171116 59.4702
8.015532667162402 60.1624
8.037886398416653 60.7329
8.060257873014221 61.1689
8.082629655331942 61.9649
8.104984308787587 63.0344
8.127356708900503 66.0665
8.149711981398308 71.6509
8.172085002766314 73.1743
8.194458336181368 70.6712
8.216814543847752 68.3308
8.23918850371002 68.3282
8.26154533906492 69.0134
8.283919928836452 70.561
8.306277395339652 71.4981
8.328652618483376 72.8937
8.351028159736202 74.5925
8.373386579575245 76.9541
8.395762759396959 78.5065
8.418121819038275 83.4267
8.440498640894003 95.0382
8.462875785192262 107.09299999999999
8.485235811156207 115.40799999999999
8.507613602688501 145.68
8.529974277114228 219.9
8.552352719347912 343.85900000000004
8.574731488360351 596.48
8.59709314210385 1166.18
8.619472567021075 1885.46
8.64183487789147 2265.57
8.664214962183097 1777.95
8.686577933647762 903.826
8.708958680784317 344.08099999999996
8.731339760774953 155.391
8.753703729764451 107.43799999999999
8.77608547780821 96.5965
8.798450116065078 93.6145
8.820832535634787 90.6655
8.843215292401656 89.2111
8.865580941199045 87.8826
8.887964374703538 87.4494
8.910330701447199 88.6661
8.932714815164482 90.1103
8.955099270424924 89.5531
8.977466620733543 86.6647
8.999851761421976 83.7551
9.022219798361645 82.428
9.04460562795561 82.4192
9.066991803441677 81.7253
9.089360876979615 81.5896
9.111747746589993 81.381
9.13411751544971 80.7731
9.156505082664324 80.577
9.178875550323522 80.8728
9.20126381862328 80.9937
9.223652438908596 81.4139
9.246023961427412 81.3951
9.26841328802173 80.4175
9.290785518039224 80.6316
9.313175554425882 81.2802
9.335565947154315 81.0248
9.357939245086508 81.722
9.380330352834827 82.303
9.40270436697103 82.2893
9.425096193225055 82.1743
9.447488380180165 82.8114
9.469863475295412 82.7245
9.492256385987508 82.5714
9.514632206018318 83.8346
9.537025843935714 84.135
9.559402392368193 84.8254
9.581796761000229 86.2863
9.604191496441521 87.0789
9.626569144158516 90.539
9.648964615551032 94.5344
9.671343000390081 96.3188
9.693739211225699 94.0089
9.716135793237463 91.6181
9.738515290448102 91.5513
9.760912617143402 92.6388
9.783292860202891 93.8636
9.805690935076182 94.8385
9.828089385495742 95.5457
9.850470754023561 97.9845
9.872869957865444 105.09100000000001
9.89525208097539 118.734
9.917652041736662 129.505
9.940052382417589 128.52100000000002
9.962435644102392 131.356
9.984836746950979 158.795
10.007220771957746 213.53799999999998
10.029622640473708 306.918
10.052007432299963 482.184
10.074410069984072 789.262
10.096813093716005 1288.56
10.119199042482517 1814.74
10.141602840636468 1979.51
10.163989564971628 1528.68
10.186394141051062 836.1410000000001
10.208799107559706 355.101
10.231187001965623 174.86
10.253592751657669 121.705
10.275981430388155 110.29700000000001
10.298387966769793 110.37299999999999
10.320794897965431 111.87299999999999
10.343184759907361 110.537
10.36559248305461 105.63
10.387983138083852 101.721
10.410391656691655 103.44
10.432800574501677 112.05
10.455192425893369 125.677
10.47760214443012 150.749
10.499994797678786 194.118
10.522405320453982 277.032
10.54479877906917 408.305
10.567210109595656 527.837
10.5896218454736 590.543
10.612016518879773 494.251
10.634429067781074 339.288
10.656824555333241 193.405
10.679237920773568 120.021
10.701651695961992 94.1171
10.724048411481384 87.5472
10.746463008485165 84.7365
10.768860546937125 83.3616
10.791275969274796 81.7606
10.81369180576079 80.6667
10.836090585366925 79.6562
10.858507252467449 78.5465
10.88090686379991 77.498
10.903324365036394 77.4023
10.925724811614439 77.1182
10.948143150509463 77.7001
10.970561909719066 77.1461
10.992963615930844 75.4398
11.015383218085756 73.6127
11.037785768347074 72.1648
11.06020621697282 71.7749
11.082627090322113 71.0339
11.105030913430326 70.6081
11.12745263854165 71.3037
11.149857314510728 74.4027
11.172279894912576 79.5435
11.194702904450653 79.6946
11.217108866490921 75.7847
11.239532736615194 72.3898
11.26193956033512 70.5883
11.284364294577085 68.9327
11.306789462371718 67.0385
11.329197585398376 66.2065
11.351623622610898 65.7905
11.37403261614354 65.0049
11.396459526308487 65.0011
11.418869393879497 64.5199
11.441297180532617 64.2916
11.463725406927658 63.8462
11.486136592353875 63.8396
11.508565700543707 64.4182
11.530977768845315 66.2273
11.553407762368774 66.5759
11.575838200059769 65.9714
11.598251599479612 64.1002
11.620682927815501 63.01
11.64309721895548 62.4741
11.665529441478206 62.1241
11.687962112597958 61.833999999999996
11.710377748130886 62.0286
11.732811318753434 61.9645
11.755227854859067 61.8895
11.777662328529495 61.7918
11.800079768750786 61.4491
11.822515149015453 61.6254
11.844950984084935 61.6296
11.867369787303163 61.2541
11.889806534289491 61.3926
11.912226250487029 61.6918
11.934663912939751 61.8204
11.9571020346363 61.8311
11.979523127133968 61.636
12.001962169624331 62.2392
12.024384183972964 62.9384
12.046824150809913 65.5472
12.069264581333726 69.8817
12.091687985297767 75.6922
12.11412934550045 84.5438
12.136553680195208 99.1949
12.158995973632788 124.40899999999999
12.181438735204349 156.56799999999998
12.20386447284199 187.834
12.226308172985636 205.39700000000002
12.24873485024193 196.30900000000003
12.271179492516982 161.982
12.293607112949127 121.965
12.316052700916226 94.1489
12.338498763250042 76.3153
12.360927805303868 68.5079
12.383374818673879 64.7995
12.405804812803074 63.2618
12.428252780773262 63.2305
12.45070122756722 63.2777
12.473132656675375 63.0721
12.49558206341869 63.3359
12.518014453510101 63.3376
12.540464823770117 63.3952
12.562915677315177 63.5364
12.58534951575545 64.3169
12.607801338171472 66.2742
12.630236146511358 71.1367
12.652688941369085 75.3748
12.675124723177234 75.2889
12.697578494048786 72.0389
12.720032754458185 68.2805
12.742470003354093 66.6195
12.764925245138771 66.4569
12.787363476431278 66.4677
12.809819703166806 67.3736
12.83227642391173 67.8278
12.854716135692716 68.3051
12.877173846755147 69.3528
12.899614549869717 69.5887
12.9220732548287 70.5337
12.94453245827299 70.8458
12.966974655289818 71.9121
12.989434858002571 72.7438
13.011878055298721 73.2832
13.034339260862497 74.3758
13.056800969391883 75.2727
13.079245674017244 77.4743
13.101708390774869 78.762
13.12415410463411 84.3901
13.146617833206086 94.4094
13.169064559883248 104.669
13.191529303857127 119.02600000000001
13.213994557076367 140.781
13.236442809902437 177.77599999999998
13.258909083908291 238.032
13.28135835851934 310.66200000000003
13.30382565690295 383.639
13.326293469022952 429.15
13.348744283242008 422.103
13.371213125129904 343.68
13.39366497011003 246.614
13.416134845360597 165.06599999999997
13.438605238843131 118.34200000000001
13.46105863690397 101.544
13.483530069144786 100.51899999999999
13.505984506951902 104.939
13.528456981549432 113.78299999999999
13.550929978879088 128.722
13.573385983253365 151.999
13.595860028340867 193.141
13.618317081455832 249.93200000000002
13.64079217790333 312.03
13.663250283359057 357.284
13.685726434770173 369.092
13.708203115221277 323.31
13.730662806148091 247.067
13.75314054697177 176.24
13.775601299246777 123.113
13.798080104050406 94.2586
13.820559442405358 83.5419
13.843021793671388 80.1093
13.865502201420897 78.6744
13.887965623051947 77.982
13.910447103807167 77.008
13.932929122629764 75.7114
13.955394156785959 75.3407
13.977877254034569 74.3984
14.000343367582113 73.4778
14.022827546871707 73.0782
14.045294743423524 72.3959
14.06778000837062 71.9102
14.090265817715476 71.7665
14.112734645763819 71.3274
14.13522154619454 71.0879
14.157691466286913 71.3137
14.180179461423874 70.8305
14.202668005486178 70.3844
14.22513957064374 69.4906
14.247629214846473 69.0388
14.270101881097517 68.7937
14.29259262906496 69.4569
14.315083930490205 70.2041
14.337558255389705 70.1669
14.360050666019726 69.6885
14.382526101071944 68.9063
14.405019624534942 67.8658
14.427513705993134 67.4648
14.449990813291825 67.6783
14.47248601302899 67.4716
14.49496423954951 67.3554
14.517460561197822 67.8076
14.539939910570322 67.3537
14.562437357763558 67.8372
14.58493536931253 69.0562
14.607416409993311 69.6594
14.62991555254159 70.267
14.652397725157423 70.0257
14.674898002342799 69.4824
14.697398848433282 68.9348
14.719882725991326 69.6754
14.74238471217934 70.1224
14.764869730765593 72.7617
14.787372860692983 75.8023
14.809876564079925 79.5415
14.83236330125751 85.0104
14.854868153850365 93.1697
14.877356041159485 106.95
14.899862046604186 126.25
14.922351087688757 154.203
14.944858249632887 186.676
14.967365991421232 214.148
14.989856770231246 227.048
15.012365673994204 216.65
15.03485761569738 182.91
15.05736768508665 144.274
15.07987833888692 109.462
15.102372032001655 86.6792
15.124883856909658 74.7906
15.14737872204565 70.5391
15.169891721717274 69.1647
15.192405310371893 69.2353
15.214901940621196 69.4843
15.237416709527137 69.1338
15.259914520936249 69.4508
15.282430473753607 68.7074
15.304947020131227 67.5769
15.327446610371178 66.8078
15.349964346154254 66.1736
15.372465126703139 65.5219
15.394984055556009 65.2063
15.417486030076159 65.1919
15.44000615566487 64.6654
15.462526881230803 64.8522
15.485030653812652 64.934
15.507552581617434 64.9395
15.530057557334603 64.9565
15.55258069104857 64.9511
15.575104429329837 64.904
15.597611216864632 64.5635
15.620136166564563 64.5753
15.6426441664095 65.1469
15.665170331202765 66.8552
15.687697105158826 69.6388
15.710206930593545 72.6268
15.732734925158933 76.4889
15.755245972089478 82.4552
15.77777519094324 91.7311
15.800287463046663 105.197
15.822817909869592 125.486
15.84534897229804 149.284
15.867863089299354 174.955
15.890395385222186 189.998
15.912910736597423 193.899
15.935444269699861 178.519
15.957978423016485 147.533
15.980495633101265 117.89200000000001
16.003031029129367 92.273
16.02554948280019 74.7291
16.048086125229432 66.3301
16.070623392487107 63.7768
16.09314371869582 63.0772
16.11568223789321 62.1012
16.13820381691126 61.2886
16.160743591742527 60.3825
16.183283996022084 59.4484
16.205807461423195 58.3578
16.228349126881973 57.7093
16.25087385432698 57.7156
16.27341678466365 57.1183
16.29594277784926 57.37
16.31848697676433 57.4134
16.341031811604868 57.6763
16.36355971058487 57.6993
16.3861058195587 57.6311
16.40863499352978 56.4562
16.431182380342005 55.6193
16.453730407713202 55.2103
16.476261501364792 54.8954
16.498810812136167 54.3948
16.52134319004079 54.5663
16.54389378792203 54.3705
16.566445031001553 54.2416
16.588979342490088 54.1817
16.61153187824822 53.9101
16.634067483263312 53.6852
16.656621315414416 53.7426
16.679175797408888 53.6022
16.701713349928728 53.5711
16.72426913389191 53.7967
16.74680798922351 53.8374
16.76936507887444 53.9165
16.791905240734874 53.8407
16.814463639794468 53.5865
16.837022695210294 53.7056
16.859564824093756 54.22
16.882125194503903 54.7139
16.904668639217885 55.3653
16.927230328348003 55.6028
16.949792678493612 55.3939
16.972338104193863 55.045
16.994901778652235 54.528999999999996
17.017448529496576 54.3376
17.040013531998152 54.5966
17.06257920018044 55.0707
17.0851279459922 55.6022
17.107694947817667 56.5971
17.130245028099072 57.1083
17.15281336730298 58.3237
17.17536478578733 60.0331
17.19793446610687 62.34
17.220504818648422 65.5287
17.243058251703697 69.1419
17.265629950971032 74.2866
17.288184731571736 78.813
17.310757781306908 82.3702
17.33333150794385 82.3347
17.355888317140174 79.8955
17.37846339986244 74.9951
17.401021565958885 69.1322
17.42359800851343 64.0575
17.44617513265564 60.5401
17.468735341390783 58.8057
17.491261035594565 57.9881
17.51396340099364 57.6293
17.536490463869136 57.8776
17.559018209820174 57.935
17.58154663977963 58.11600000000001
17.604251766089718 58.3094
17.626781572227713 58.2928
17.64931206518155 58.6971
17.671843245885103 59.2342
17.69455114821572 59.2357
17.717083712612634 59.5135
17.739616967569667 59.7762
17.762150914021706 60.065
17.78486160749854 60.1033
17.807396945166804 60.5722
17.829932977143503 61.3075
17.85246970436452 62.3663
17.875183204129467 64.1111
17.897721330097664 66.1596
17.920260154126645 68.2126
17.942799677153296 71.0687
17.9655159983646 74.7587
17.988056927677544 80.2321
18.010598558807683 88.2
18.033140892692916 98.9796
18.05586005052525 111.113
18.07840379824407 123.115
18.10094825154059 132.094
18.12366954819864 137.092
18.146215420998306 134.727
18.16876200220057 124.932
18.191309292745153 111.086
18.214033452627167 98.8704
18.236582170236648 88.5145
18.259131600016456 84.0448
18.281681742907335 84.8413
18.304408781233683 90.0036
18.32696035875955 95.9263
18.349512652227624 100.779
18.372065662579683 104.465
18.394795594587553 104.743
18.41735004715306 99.7908
18.43990521943684 93.07
18.46246111238171 83.6134
18.485193953325208 74.7428
18.507751296070428 68.3414
18.530309362314178 64.4808
18.552868153000343 62.3978
18.57560391815056 60.9875
18.59816416623245 60.4971
18.620725141597372 60.1198
18.643286845190268 59.7326
18.666025549835414 59.265
18.688588718427933 58.6295
18.711152618092243 58.6565
18.73389353884365 58.2017
18.75645890921984 57.7803
18.77902501351406 57.5007
18.801591852673102 57.5346
18.824335739722738 57.0828
18.846904057212626 57.0174
18.8694731124168 56.669
18.89204290628315 56.6856
18.914789774966803 56.3801
18.937361054791623 56.0644
18.959933076131318 55.9322
18.982505839934877 56.1538
19.00525570560582 56.1115
19.027829963004184 55.8975
19.05040496572238 55.8954
19.072980714710468 55.9698
19.095733592739563 55.7436
19.11831084296757 56.1944
19.140888842324735 56.5214
19.16346759176222 56.7833
19.18622349753803 57.2124
19.208803755869358 58.1287
19.231384767143577 59.4157
19.253966532312948 60.8896
19.276725481241822 62.9755
19.29930876296784 65.7033
19.3218928014549 68.8411
19.34465404436217 71.594
19.36723960516257 74.0811
19.389825925592426 74.593
19.412413006605938 73.5921
19.43517731967805 70.029
19.457765930683355 65.7792
19.48035530514408 61.2979
19.50294544401556 57.6114
19.525712842708348 55.4273
19.54830451925909 54.0415
19.570896963095727 53.0937
19.593490175174704 52.8721
19.616260674962184 52.9026
19.638855432416964 52.4362
19.661450960992624 52.6452
19.68404726164677 52.5505
19.706820878021247 52.4808
19.729418731756834 52.4568
19.752017360452857 52.2191
19.77461676506804 52.3977
19.797393513540218 52.5296
19.819994478951667 52.8386
19.84259622316767 53.3836
19.8651987471481 53.8283
19.887978643247177 53.7944
19.91058273574792 54.3416
19.933187610901943 55.042
19.955969879466828 56.1861
19.97857632894404 57.8886
20.00118356396599 59.6512
20.023791585494575 61.8722
20.046577028914875 64.9225
20.069186632506966 66.8825
20.091797025500632 68.3545
20.114408208858933 68.7078
20.137196842715273 67.6549
20.159809615886765 66.0483
20.18242318232135 63.5664
20.20503754298326 61.777
20.227829382875154 61.0696
20.250445341109344 61.239
20.27306209647285 62.2462
20.29567964993108 63.638999999999996
20.31847471147704 64.5077
20.34109387027612 64.8797
20.363713830075454 64.4744
20.386334591841646 62.3614
20.409132890679302 59.778
20.431755265564437 56.9528
20.454378445325528 54.2283
20.477002430930366 52.5608
20.499803982716553 51.2839
20.522429589228004 50.63399999999999
20.54505600449589 50.0059
20.567683229489194 50.0508
20.590488049900088 49.7705
20.61311690359731 49.2887
20.63574656993626 49.0231
20.658553853717297 48.8015
20.681185154618298 48.8351
20.703817271080066 48.683
20.72645020407368 48.431999999999995
20.749260783967177 48.5133
20.771895359337133 48.2437
20.794530754161617 48.041000000000004
20.817166969412938 48.0834
20.83998086114876 47.9865
20.86261872660049 47.746
20.885257415405402 47.8255
20.90789692853701 47.8707
20.930714147864748 47.7306
20.953355319030678 47.5914
20.97599731745334 47.788000000000004
20.99864014410749 47.5269
21.021460706796564 47.5297
21.044105199328826 47.8531
21.06675052302631 47.9506
21.089396678865015 48.2301
21.112220600704806 48.475
21.134868430275347 48.8
21.15751709492456 49.1867
21.180166595629693 49.6733
21.202993892429635 50.1003
21.22564507473034 50.566
21.24829709602816 50.6205
21.27112693608965 50.5929
21.293780644891275 50.3458
21.316435195634053 49.4834
21.339090589297417 49.0145
21.361923832041875 48.5609
21.384580921090404 48.181000000000004
21.407238856007325 47.7164
21.429897637773326 47.45399999999999
21.45273429906592 47.5792
21.475394784108598 47.5042
21.498056118951983 47.3715
21.520718304578022 47.6078
21.543558400304388 47.6468
21.566222297108816 47.8165
21.58888704765135 47.8329
21.61155265291521 48.0474
21.63439619898156 48.5506
21.657063523335786 48.8952
21.67973170537063 49.2858
21.7024007460706 49.6134
21.72524775840385 50.4929
21.747918526116475 51.5112
21.770590155457388 52.7008
21.79326264741238 54.4579
21.816113141960237 56.5695
21.838787368860547 58.6828
21.861462461341976 60.5193
21.884315579735777 62.2565
21.90699241312273 63.1426
21.92967011506078 63.3642
21.95234868653799 62.6528
21.9752053151131 61.3199
21.997885635446785 59.4777
22.020566828293532 57.9402
22.04324889464272 56.85
22.066109049404666 55.6966
22.088792872571794 55.4795
22.111477572219204 55.1521
22.1341631493376 55.2652
22.157026846313123 54.9749
22.179714188221507 53.9581
22.202402410582668 52.6664
22.22509151438863 51.5738
22.24795876962584 50.2729
22.270649646204486 49.5829
22.293341407213727 48.9014
22.316034053646906 48.5023
22.338904883215342 48.278999999999996
22.36159931041458 48.093
22.38429462602756 48.0838
22.40699083104897 47.8125
22.429865251039757 48.022
22.452563244831367 48.078
22.47526213102522 47.897
22.49813925616515 47.831
22.520839937143307 47.6765
22.543541513520587 47.6866
22.56624398629403 47.49
22.589124730075895 47.3887
22.611829005656723 47.6356
22.63453418063466 47.7694
22.657240256008077 47.7779
22.680124634582935 47.9873
22.70283252079775 48.1727
22.725541310413075 48.4366
22.74825100442868 48.605
22.771139033969575 49.07
22.79385054687155 49.4521
22.81656296718292 50.0834
22.83927629590484 50.9414
22.862167992606945 51.9415
22.88488314827121 53.4213
22.907599215359284 54.5236
22.93031619487366 55.5419
22.953211574954405 56.3096
22.975930389478226 56.7294
22.998650119445763 56.9694
23.02137076586092 56.1987
23.044269845560063 54.6309
23.06699233506288 53.1174
23.089715744034912 51.4449
23.112617610931565 50.0337
23.135342869061212 48.9067
23.158069049684816 48.2334
23.1807961538087 48.0897
23.20370174880544 47.8505
23.226430710184808 47.7857
23.249160598093425 47.8172
23.271891413539002 47.69
23.294800752937697 47.7121
23.31753343374794 47.9397
23.340267045128353 47.9864
23.36300158808808 48.3946
23.38591468821339 48.8461
23.408651104658304 49.2556
23.431388455719986 49.8195
23.454126742409 50.8051
23.4770436196085 51.8373
23.499783787914662 53.2747
23.522524894889884 54.4353
23.54526694154616 55.5689
23.56818761219047 56.5142
23.59093154860734 56.8237
23.613676427751283 56.8644
23.636422250635754 55.9614
23.659346731118656 54.3184
23.68209445191868 52.4307
23.704843119509587 50.2253
23.72759273490623 48.5118
23.750521041644767 47.2472
23.77327256312355 46.1598
23.796025035462787 45.7567
23.818956224555475 45.236000000000004
23.841710609113413 45.1161
23.86446594758979 44.9625
23.887222241002014 44.7346
23.910157285144578 44.5899
23.932915498962537 44.5993
23.955674670778713 44.256
23.978434801611975 44.0711
24.001373717286125 43.873000000000005
24.024135776723917 43.8515
24.046898798245582 43.8076
24.06966278287146 43.8241
24.092605586582614 43.4007
24.115371508023642 43.3499
24.1381383956401 43.2413
24.16090625045381 43.2391
24.183852958731244 43.1684
24.206622758582608 43.0146
24.229393528706886 42.7933
24.252165270127392 42.9712
24.27511589952438 42.8272
24.297889594216997 42.7522
24.32066426328598 42.4927
24.34343990775613 42.6466
24.36639447485003 42.3152
24.38917208083877 42.3499
24.41195066531332 42.2804
24.43490819850244 42.4209
24.457688750692377 42.1313
24.48047028445616 42.2639
24.503252800821233 42.3166
24.526214300784112 42.4615
24.548998793132213 42.4504
24.57178427117417 42.2177
24.59457073593893 42.2925
24.617536219319863 42.1693
24.64032466834748 42.1263
24.663114107195035 41.9728
24.685904536893013 41.8335
24.708874020360852 41.8341
24.731666442613744 41.6964
24.754459858818787 41.5436
24.777254270007962 41.6217
24.80022777025625 41.5732
24.82302418230472 41.4909
24.845821592443674 41.3994
24.86862000170663 41.4087
24.891597535453727 41.2609
24.914397953892728 41.5359
24.93719937456671 41.3462
24.96000179851076 41.5661
24.98298338249997 41.7097
25.00578782394922 41.9405
25.028593271784167 42.0465
25.05157790644186 42.4091
25.07438537804115 42.5163
25.097193859145293 42.6903
25.120003350792075 43.0003
25.142992065061257 43.3418
25.165803588823465 43.5394
25.18861612625217 43.7614
25.211429678386736 43.785
25.234422489079968 43.8556
25.257238081693636 44.0129
25.280054692141732 44.1702
25.3028723214652 44.1895
25.325869245420463 44.2206
25.348688923599397 44.2766
25.371509623787006 44.0569
25.394331347025812 43.7077
25.41733240110666 43.2742
25.440156181590016 42.6293
25.46298098826268 42.177
25.48580682216873 41.6415
25.50881202326435 40.9942
25.53163992281684 40.6552
25.55446885274561 40.5507
25.577298814096377 40.1233
25.600308179121807 40.1485
25.623140214533745 40.2544
25.64597328451537 39.9837
25.66898578564376 39.6942
25.691820936010206 39.7293
25.714657124097695 39.8022
25.737494350954734 39.7475
25.760511045684957 39.646
25.783350361364224 39.7101
25.806190718969255 39.7205
25.82903211955018 39.9105
25.852053024868923 39.9929
25.874896522722523 39.9028
25.897741066713106 39.8816
25.920586657892454 40.006
25.943611790812668 40.0836
25.966459487728237 40.2426
25.989308234998564 40.35
26.01215803367705 40.6454
26.03518741123814 40.8698
26.05803932412957 40.8105
26.080892291600094 40.8132
26.10374631470478 40.8741
26.12677995397268 41.0905
26.14963609978026 40.9044
26.172493304397875 40.4833
26.19535156888223 40.4511
26.218389486949604 39.9775
26.241249882640123 39.6484
26.26411134137826 39.6762
26.28715248187403 39.6811
26.31001607820869 39.3899
26.3328807407756 39.1083
26.35574647063438 39.2944
26.37879191991473 39.3265
26.401659795896734 39.4461
26.424528742360263 39.5998
26.447398760366614 39.7566
26.470448535598294 39.7906
26.49332070826805 40.1243
26.516193955675355 40.3701
26.53906827888316 40.7003
26.562122397260108 40.7398
26.584998883685063 41.121
26.607876449110325 41.3455
26.63075509460056 41.4381
26.65381357334404 41.498999999999995
26.67669439061878 41.4236
26.699576291163382 41.2093
26.722459276044212 41.0975
26.745522132402975 41.0079
26.768407297649354 40.6607
26.791293550442003 40.3962
26.814180891848974 40.1369
26.837248143099337 39.7497
26.860137673466657 39.7083
26.88302829566349 39.3288
26.90592001075963 39.2664
26.92899167420566 39.1583
26.951885586870763 38.763000000000005
26.974780595655517 38.5491
26.99785558178161 38.4935
27.020752794605112 38.255
27.043651106772522 38.166
27.06655051935668 38.2676
27.089629948036183 38.1123
27.112531573292053 37.9238
27.135434302194138 38.032
27.158338135817015 37.8097
27.181422024430987 37.8503
27.204328079372566 37.6197
27.22723524226965 37.9172
27.250143514198573 37.9934
27.273231880156334 37.8799
27.296142382065014 37.7793
27.319053996245536 37.7378
27.341966723775965 37.7867
27.365059584515222 37.7865
27.38797455070062 37.7763
27.410890633481237 37.6976
27.433807833936918 37.7009
27.456905206923906 37.9304
27.47982465472398 37.8495
27.502745223449743 37.8953
27.525666914182825 37.9539
27.548768816912457 37.841
27.571692763693633 37.8494
27.59461783573812 37.7352
27.617723149491244 37.4675
27.640650484125285 37.3536
27.66357894728264 37.4848
27.686508540048052 37.3567
27.709618414237887 37.3457
27.732550278321757 37.0631
27.755483275279115 37.1089
27.778417406196485 37.260999999999996
27.801531858397514 37.1579
27.824468269376716 37.0494
27.847405817586786 37.1338
27.870344504116094 37.2602
27.893463551932008 37.4526
27.916404527281053 37.6021
27.93934664422563 37.8092
27.962289903855886 37.7763
27.98541356491974 37.8152
28.00835912214229 38.0349
28.03130582533231 38.365
28.054253675581805 38.4892
28.077381967556104 38.412
28.100332124185126 38.3498
28.123283431160893 38.268
28.146235889577238 38.1804
28.169368830154156 38.0057
28.192323603752033 37.7675
28.215279532083304 37.4014
28.238415973016764 37.2254
28.261374223145094 37.2508
28.284333631303806 36.9512
28.307294198589954 36.87
28.330435319167677 36.5051
28.353398217078915 36.2643
28.376362277420153 36.0832
28.39932750129032 35.9247
28.422473319286713 35.8003
28.44544088262495 35.7415
28.468409612800283 35.6426
28.491379510913497 35.4733
28.51453004413313 35.213
28.53750229057244 35.2559
28.56047570826344 35.3192
28.583450298308804 35.2722
28.606605564586562 35.0014
28.629582511831156 35.1101
28.65256063474956 35.0361
28.675539934446338 34.7701
28.698699951647605 34.9
28.72168161743193 34.8316
28.74466446331978 34.9738
28.767648490417624 34.9505
28.790813276438353 34.8968
28.813799678527303 34.873000000000005
28.836787265157085 34.876
28.859955641890075 34.8832
28.882945610203045 34.8013
28.905936766392035 34.7889
28.928929111566863 34.7467
28.952102288520145 34.5574
28.975097024308607 34.4516
28.998092952423807 34.2889
29.021090073977508 34.288000000000004
29.04426806913204 34.2774
29.067267590245258 34.0509
29.090268308143695 34.0253
29.11327022394099 33.8321
29.13645305530891 33.861999999999995
29.159457379627167 33.7754
29.18246290519685 33.7508
29.20546963313352 33.5969
29.22865731875826 33.8153
29.25166646419296 33.732
29.27467681535305 33.6582
29.29768837335608 33.7038
29.320880931312562 33.7124
29.34389491580634 33.6882
29.366910110507334 33.569
29.38992651653503 33.6022
29.41312396492981 33.5888
29.436142806456754 33.5366
29.45916286268059 33.3833
29.48236399319994 33.3778
29.50538649169417 33.2298
29.528410208259935 33.0608
29.55143514402014 32.8534
29.574641196749695 32.746
29.597668583816574 32.6943
29.6206971934585 32.5778
29.64372702680042 32.5297
29.666938019934474 32.4274
29.689970313635285 32.503
29.713003834422636 32.411
29.73603858342347 32.3785
29.759254535188578 32.2266
29.78229175361658 32.2444
29.80533020365064 32.3644
29.82836988641968 32.3501
29.85159081507472 32.2347
29.874632976355343 32.2034
29.89767637376955 32.2035
29.920721008448314 32.0601
29.9439469322847 32.0425
29.96699405457564 31.9509
29.9900424175358 32.0177
30.013092022298157 31.9776
30.03632295963995 32.0356
30.059375061131373 31.938000000000002
30.08242840783577 31.9364
30.105483000888153 31.8643
30.128718970092244 31.8011
30.151776069006917 31.8418
30.17483441768648 31.8955
30.198074175317235 31.8961
30.221135036724256 31.7752
30.24419715131772 31.8566
30.267260520236203 31.7119
30.290505341942243 31.761
30.313571232750228 31.783
30.336638381310948 31.85
30.35970678876503 31.7145
30.38295669299435 31.5882
30.40602763151657 31.5068
30.429099832366074 31.5406
30.452173296685572 31.4719
30.47542830191959 31.5288
30.498504306502497 31.5278
30.521581577995562 31.5627
30.544660117543582 31.6376
30.56792024229725 31.6245
30.59100133132069 31.6003
30.614083691845494 31.5803
30.637167325018545 31.6145
30.660432587840603 31.6646
30.683518779717886 31.5875
30.70660624769615 31.767
30.729694992924372 31.6843
30.75296541239743 31.5433
30.77605672557558 31.5575
30.799149319462742 31.5598
30.8224236211637 31.3468
30.845518789950724 31.2345
30.868615242910597 31.2539
30.891712981195973 31.0654
30.91499247215866 31.0621
30.938092794619365 31.0484
30.96119440587579 30.935
30.984297307082752 30.9036
31.00758200598383 30.7384
31.030687500658694 30.6488
31.053794288760695 30.588
31.076902371446767 30.561
31.100192296997445 30.5221
31.12330298246119 30.5203
31.14641496599209 30.4205
31.169528248749216 30.5439
31.19282341969534 30.3006
31.215939314557186 30.4229
31.239056512134788 30.4421
31.262175013589378 30.4084
31.28547544871168 30.3698
31.30859657161541 30.3098
31.331719001892175 30.3599
31.35484274070538 30.4892
31.378148458819545 30.3727
31.401274828443725 30.2785
31.424402510106933 30.2977
31.447712205419993 30.4433
31.470842524931633 30.3184
31.493974159989783 30.295
31.51710711176168 30.1913
31.54042212308802 30.2052
31.563557722100917 30.2093
31.586694641341655 29.9324
31.609832881979628 29.9433
31.63315322823208 29.9571
31.656294125521327 29.8278
31.679436347728515 29.7797
31.70257989602529 29.7345
31.725905596152327 29.607
31.74905181052835 29.5051
31.772199354521323 29.5632
31.79534822930507 29.6097
31.818679302290967 29.5283
31.84183085259981 29.5782
31.864983737233473 29.5781
31.88813795736804 29.7299
31.911474422233013 29.4724
31.934631327356435 29.5497
31.9577895715215 29.5275
31.980949155906522 29.5275
32.004291031706956 29.5009
32.027453310562606 29.4066
32.05061693318573 29.3101
32.07396288236386 29.3715
32.09712920658542 29.1889
32.12029687812702 29.1217
32.14346589817093 29.0458
32.166817291729984 29.0152
32.18998902288583 28.9909
32.21316210610336 28.9134
32.23633654256711 28.8108
32.259693399663725 28.7841
32.282870556771144 28.6129
32.30604907069099 28.6601
32.329228942610065 28.6573
32.35259128243769 28.485
32.375773884550505 28.4273
32.398957848235646 28.5347
32.422143174682176 28.339000000000002
32.445511016471215 28.2691
32.468699082679954 28.2363
32.49188851523011 28.2778
32.51507931531304 28.18
32.538452678331 28.1377
32.56164622776311 28.0031
32.58484114831493 28.0091
32.60803744118015 27.9818
32.631416344731896 27.9719
32.654615396551876 27.9167
32.67781582427913 27.8609
32.701198898634416 27.8721
32.72440209253756 27.8571
32.747606665947124 27.8535
32.77081262006088 27.6945
32.79420126883317 27.6024
32.81740999876112 27.6656
32.840620112999424 27.4995
32.86383161274818 27.5697
32.88722585534586 27.5179
32.91044014056596 27.6127
32.933655814909734 27.5557
32.95687287957963 27.5823
32.98027273544904 27.4972
33.00349259526636 27.4218
33.026713849030116 27.386999999999997
33.04993649794511 27.2454
33.073341986570746 27.3407
33.09656744032826 27.3146
33.11979429286444 27.3302
33.14302254538647 27.3307
33.166433686291185 27.3067
33.18966475336992 27.1853
33.212897224069096 27.1449
33.23613109959831 27.1504
33.259547912343415 27.0432
33.2827846121627 27.2011
33.306022720453775 26.9878
33.32926223842861 26.9815
33.352684742614166 26.9434
33.37592709463173 26.8465
33.399170859982064 26.8355
33.422597648419426 26.7777
33.44584425514446 26.7357
33.46909227885668 26.6396
33.4923417207723 26.5292
33.51577423505344 26.5575
33.539026528130385 26.4006
33.56228024307245 26.3614
33.585535381098246 26.3315
33.60897364093058 26.3076
33.63223163992385 26.3285
33.6554910656699 26.2064
33.678751919389796 26.2327
33.702195944520106 26.1686
33.72545966903325 26.1321
33.74872482519663 26.087
33.771991414233746 26.0837
33.79544122444841 26.0293
33.81871069412428 25.936
33.84198160035767 25.889
33.86525394437455 25.9452
33.88870955949969 25.7884
33.911984794020626 25.7525
33.93526147001624 25.8156
33.958539588715006 25.7873
33.98200102861669 25.6885
34.0052820477047 25.6004
34.02856451319451 25.5253
34.05203033759056 25.5195
34.07531571090147 25.5168
34.09860253431845 25.5446
34.121890809074316 25.4304
34.145362493118924 25.4346
34.16865368561615 25.3942
34.191946333164054 25.3382
34.21524043699793 25.3382
34.23871800066799 25.2939
34.26201503218366 25.1934
34.28531352370466 25.2007
34.30861347646881 25.076
34.33209693978188 25.13
34.3553998301885 25.1685
34.378704185565205 25.0177
34.402010007152356 24.9639
34.42549939016683 24.9073
34.44880815937748 24.8086
34.472118398533134 24.7907
34.49543010887669 24.7416
34.51892543169198 24.7127
34.54224009966052 24.7069
34.56555624255917 24.7108
34.58887386163339 24.5683
34.61237514439016 24.6225
34.6356957311114 24.5375
34.65901779775809 24.5405
34.68252356662995 24.4695
34.705848608458616 24.4664
34.72917513396849 24.4652
34.75250314440949 24.3794
34.77601490857862 24.285
34.799345904259795 24.2111
34.82267838863559 24.2278
34.846012362958525 24.2285
34.869530142679984 24.2095
34.89286711232212 24.185
34.91620557568269 24.1739
34.93954553401677 24.1751
34.9630693495876 24.1653
34.986412313340814 24.1116
35.00975677584668 24.0994
35.033102738362956 24.0388
35.05663261012228 23.9509
35.0799815881786 23.9725
35.10333207003229 23.8638
35.12668405694369 23.8062
35.150220005273056 23.8115
35.17357501786656 23.8366
35.19693153931268 23.7131
35.220289570874385 23.7333
35.24383161619786 23.8138
35.267192683604904 23.7729
35.290555264930376 23.6227
35.314101899412165 23.6035
35.33746752422433 23.5913
35.36083466676374 23.6235
35.38420332829803 23.6067
35.407756095629054 23.5973
35.43112781085063 23.5843
35.45450104888391 23.5097
35.477875810999194 23.6105
35.50143473172161 23.4394
35.52481255774625 23.5857
35.54819191167777 23.4442
35.57157279478914 23.406999999999996
35.595137889488406 23.4375
35.61852184675279 23.2407
35.641907337029984 23.2362
35.665294361595684 23.2357
35.68886565090076 23.1226
35.7122557598848 23.1538
35.73564740699838 23.0949
35.759040593519934 23.049
35.78261809810353 22.9697
35.80601437933051 22.9142
35.829412203814705 22.9211
35.85281157283719 22.8402
35.876395313415884 22.9524
35.8997977874528 22.8064
35.92320180988546 22.813000000000002
35.946790244133936 22.7584
35.97019737933222 22.8097
35.993606066789866 22.7505
36.01701630779276 22.6289
36.04061101440684 22.5752
36.06402437852291 22.59
36.08743930005611 22.5861
36.1108557802951 22.4836
36.13445678011326 22.4796
36.15787639383515 22.4802
36.18129757014299 22.4947
36.20472031032821 22.444000000000003
36.22832762423364 22.3921
36.25175350829375 22.2929
36.275180960119776 22.211
36.298609981005924 22.2591
36.32222362992669 22.3346
36.34565580510207 22.2649
36.36908955323448 22.1511
36.39252487562093 22.0741
36.416144880530226 22.0258
36.43958336764275 21.9984
36.463023432914625 22.0788
36.486465077645676 22.0019
36.51009145956204 22.0092
36.53353627947859 22.0363
36.55698268276811 22.0162
36.58043067073321 21.9303
36.60406345072071 21.8431
36.62751462435344 21.8004
36.65096738658405 21.7752
36.67460498210655 21.7498
36.69806093788647 21.7109
36.72151848619297 21.6727
36.744977628333636 21.6832
36.76862165890998 21.6339
36.79208400512205 21.5627
36.81554794910557 21.4796
36.83901349217101 21.4473
36.862663978991606 21.4323
36.88613273667352 21.4285
36.90960309738324 21.4395
36.933075062434064 21.2943
36.95673202673572 21.3465
36.98020721697122 21.2935
37.003684015502365 21.2728
37.027162423645365 21.2476
37.050825886711465 21.2083
37.07430753063053 21.0535
37.09779078812467 21.1941
37.121275660513014 21.0904
37.144945643673694 21.0093
37.16843376245278 21.0297
37.19192350009803 21.0545
37.215414857931435 20.9729
37.239091382563885 20.9932
37.262585997426164 20.9128
37.28608223645736 20.7694
37.309763684451696 20.793000000000003
37.33326318851098 20.7796
37.356764320726555 20.7595
37.380267082425526 20.7348
37.40395510942588 20.6763
37.42746114683234 20.6013
37.45096881771841 20.6005
37.474478123414166 20.6428
37.49817275092816 20.5707
37.52168534303452 20.5369
37.54519957395567 20.4883
37.568715445024665 20.5197
37.592416694607714 20.4706
37.61593586281424 20.4578
37.63945667518264 20.4931
37.66297913304891 20.3711
37.68668702630454 20.4056
37.710212792059274 20.2897
37.733740207334854 20.2636
37.757269273470364 20.2374
37.780983832050374 20.1888
37.80451621684926 20.1643
37.82805025654007 20.1783
37.851585952464795 20.0974
37.8753071980695 20.0359
37.89884622345676 19.9388
37.92238690911902 20.0053
37.94611318753442 19.9558
37.969657210779765 19.9242
37.99320289834801 19.9164
38.016750251586465 19.7364
38.04048325513017 19.7841
38.06403395679343 19.7389
38.087586328183946 19.7577
38.11114037065203 19.6969
38.13488012115898 19.7581
38.1584375229181 19.7682
38.181996599821 19.6168
38.205557353221124 19.6368
38.229303872575656 19.4875
38.2528679961576 19.5538
38.27643380031219 19.4683
38.30000128639589 19.4856
38.32375459653193 19.3856
38.34732546371299 19.41
38.37089801690786 19.3715
38.39447225747609 19.2954
38.418232380377425 19.3059
38.441810012983396 19.3107
38.46538933705673 19.3324
38.488970353960084 19.2644
38.51273731166058 19.2586
38.536321731567014 19.2162
38.55990784840681 19.098
38.58367995004091 19.1312
38.60726947812959 19.1002
38.63086070726198 19.0562
38.654453638806274 19.0942
38.678232613930824 18.9438
38.70182896773327 18.9313
38.72542702806741 18.9226
38.7490267963045 18.8835
38.77281266709232 18.9087
38.79641586862214 18.8814
38.8200207821842 18.7663
38.843627409152944 18.7803
38.86742019782782 18.7839
38.891030269149255 18.7053
38.914642058016156 18.6796
38.938255565806124 18.6994
38.96205529464307 18.632
38.98567225787121 18.5941
39.00929094417078 18.6169
39.03291135492255 18.5837
39.05671804624804 18.5556
39.080341923549106 18.4587
39.103967529460334 18.3882
39.127594865365744 18.3822
39.15140854155791 18.3661
39.17503935514948 18.3855
39.19867190290282 18.2918
39.22249083587951 18.3353
39.24612686969409 18.3398
39.269764641845306 18.3217
39.293404153722804 18.2368
39.317230110864074 18.1204
39.34087311998506 18.1122
39.36451787301696 18.1756
39.388164371352595 18.0367
39.41199737518003 18.0531
39.43564738196752 18.0632
39.45929913825317 17.9705
39.48295264543308 17.9703
39.506792718520884 17.9835
39.530449745387216 17.9063
39.55410852735203 17.9438
39.57776906581474 17.9343
39.60161623079 17.8617
39.625280300200025 17.8417
39.64894613032202 17.7972
39.67261372255866 17.7293
39.6964680021016 17.7335
39.72013913657293 17.7383
39.74381203738292 17.6665
39.76748670593756 17.7016
39.79134812278169 17.642
39.81502634488497 17.6102
39.83870633896685 17.5814
39.862388106436654 17.5544
39.88625668336918 17.5142
39.90994201572829 17.5271
39.933629125719285 17.4302
39.957503091207826 17.421
39.9811937746168 17.4258
40.00488623990914 17.3817
40.02858048850006 17.302
40.05246165409549 17.3653
40.076159487492085 17.272000000000002
40.099859108448875 17.2818
40.123560518384345 17.2623
40.1474489070226 17.3351
40.171153913178564 17.164
40.194860712584955 17.1301
40.2185693066637 17.1345
40.242464941335314 17.0795
40.26617714307655 17.0713
40.289891143772046 17.0776
40.3136069448471 17.0472
40.33750984859743 17.0057
40.3612292688043 16.9831
40.3849504936829 16.9295
40.40867352466194 16.9416
40.43258372059144 16.8756
40.45631038219906 16.8605
40.48003885420956 16.8347
40.503769138055105 16.8055
40.52768664931955 16.7683
40.55142057531802 16.7961
40.57515631746428 16.7052
40.599079334038514 16.695
40.62281872700477 16.627
40.64655994043941 16.6015
40.67030297578061 16.6045
40.69423334835778 16.5925
40.71798004609188 16.6011
40.74172857006355 16.5991
40.76547892171441 16.5294
40.7894166736039 16.4591
40.813170699248566 16.4423
40.83692655691388 16.4442
40.86068424804498 16.4797
40.884629402612525 16.3885
40.908390779366385 16.3776
40.932153993938 16.3144
40.95591904777605 16.2361
40.979871628443995 16.3883
41.003640379561936 16.3257
41.02741097430883 16.2569
41.05118341413683 16.1922
41.075143444384416 16.135
41.098919593177826 16.2005
41.1226975914255 16.1502
41.14647744058318 16.124000000000002
41.170444943946755 16.0521
41.19422851378379 16.0911
41.218013938914645 16.0735
41.24198706625173 15.9236
41.26577622087193 15.9873
41.289567235177785 15.909
41.31336011063129 15.9141
41.337340752422875 15.8439
41.361137369129835 15.808
41.38493585138705 15.8241
41.40873620066004 15.7815
41.43272438060107 15.8075
41.45652848292052 15.7314
41.48033445666918 15.6496
41.50414230331616 15.6765
41.528138045159764 15.7039
41.551949656675205 15.6088
41.575763145513235 15.6327
41.59957851314666 15.5814
41.62358184070442 15.5472
41.64740098505737 15.509
41.6712220126409 15.525
41.69504492493139 15.5034
41.71905586207357 15.4459
41.74288256296395 15.464
41.766711153007456 15.383
41.79054163368412 15.3957
41.814560204340054 15.3842
41.838394485526365 15.3677
41.86223066180303 15.3171
41.88625497706819 15.2926
41.910094962812 15.2761
41.93393684811168 15.1595
41.95778063445365 15.1415
41.981812625263366 15.1874
42.00566023303407 15.2082
42.029509746323676 15.1369
42.05336116662236 15.1473
42.077400857069705 15.124
42.10125611078846 15.0661
42.12511327600405 15.0632
42.14897235421036 14.9845
42.173019768448455 15.0089
42.19688269209613 14.9806
42.22074753323349 14.9985
42.24461429335818 14.958
42.268669455600495 14.901
42.292540073217886 14.8262
42.31641261433284 14.855
42.34028708044675 14.8352
42.36435001496739 14.7859
42.38822835065557 14.749
42.41210861586426 14.7276
42.4359908120986 14.7409
42.46006154323262 14.6612
42.48394762115317 14.6515
42.507835634632315 14.6743
42.531912233047436 14.575999999999999
42.55580413732265 14.5363
42.579697981698 14.5552
42.60359376768525 14.51
42.62767820545945 14.517000000000001
42.65157789440821 14.5045
42.67547952952185 14.489
42.699383112316 14.4803
42.72347541395347 14.4112
42.74738291190531 14.3468
42.771292362102166 14.3765
42.795203766063516 14.3757
42.819303956130405 14.333
42.843219287476536 14.2635
42.86713657716324 14.2748
42.89105582671383 14.2414
42.91516392983864 14.1818
42.939087119032166 14.1659
42.963012272677304 14.140999999999998
42.98693939230129 14.1694
43.01105543317513 14.132
43.034986504731386 14.1239
43.05891954686589 14.1096
43.08285456110972 14.0765
43.10697856448665 14.0177
43.130917542983475 13.9407
43.15485849820081 14.0134
43.17880143167367 13.9367
43.20293342237094 13.9285
43.226880332449 13.895999999999999
43.25082922540554 13.8958
43.27496722682525 13.8642
43.29892010567796 13.8392
43.32287497204102 13.8011
43.34683182745632 13.7815
43.370977859791836 13.7607
43.39493871351105 13.727
43.41890156092628 13.7488
43.44286640358341 13.6793
43.46702049182749 13.6853
43.49098934522816 13.5981
43.51496019852649 13.64
43.5389330532723 13.5967
43.56309522248204 13.58
43.58707210044314 13.587
43.61105098451946 13.4697
43.63503187626491 13.4723
43.659202151562134 13.4525
43.68318707902681 13.4614
43.70717401884041 13.4313
43.731162972560874 13.4087
43.75534137913236 13.4158
43.779334381108384 13.3429
43.803329401683186 13.325999999999999
43.82732644241872 13.3148
43.8515130055166 13.3099
43.87551410707659 13.2711
43.89951723350145 13.2864
43.923709934595614 13.2381
43.94771713129917 13.2136
43.97172635758096 13.2201
43.99573761501002 13.1441
44.0199385169922 13.1062
44.04395385732619 13.1334
44.067971233533086 13.1115
44.09199064718605 13.0791
44.11619977548961 13.0329
44.14022328470671 13.0506
44.16424883610785 13.0715
44.18827643127035 12.9771
44.21249381139513 12.9304
44.236525514814076 12.9206
44.26055926674478 12.9123
44.28459506876863 12.9203
44.3088207262813 12.8527
44.33286064928722 12.8361
44.35690262714919 12.8611
44.38094666145278 12.825999999999999
44.4051806219871 12.773
44.42922879003185 12.7111
44.45327901929361 12.7355
44.477331311362136 12.7075
44.501573600619416 12.7338
44.525630039221795 12.6618
44.54968854541895 12.6525
44.573937102200176 12.6022
44.5979997645541 12.6211
44.622064499300315 12.5781
44.64613130803592 12.5548
44.67038823869318 12.515
44.69445921643748 12.5111
44.718532272981385 12.4547
44.742607409926194 12.446
44.76687274034801 12.4491
44.79095205918753 12.4162
44.81503346325094 12.3784
44.839116954143876 12.3733
44.86339071028742 12.355
44.88747839599524 12.321
44.91156817336837 12.265
44.93566004401666 12.2855
44.959942251908146 12.2589
44.984038330325966 12.2898
45.00813650686762 12.2122
45.03223678314731 12.2114
45.05652746888232 12.2127
45.08063196592069 12.1684
45.104738567558705 12.1548
45.128847275414856 12.1604
45.15314646515866 12.0479
45.17725940679741 12.0968
45.20137445952892 12.0754
45.22568004865265 12.0282
45.24979934496396 11.9792
45.27392075725247 11.9981
45.29804428714431 11.9997
45.322358426247604 11.9799
45.346486212804315 11.9872
45.370616121861914 11.970999999999998
45.39474815505086 11.8965
45.41907087049246 11.8422
45.4432071734666 11.8212
45.46734560548283 11.8416
45.49148616817604 11.7911
45.51581748638564 11.7971
45.5399623320197 11.7883
45.56410931325473 11.7234
45.58825843173002 11.7586
45.61259837920865 11.7221
45.636751793816 11.7349
45.66090735060093 11.6567
45.68506505120716 11.6217
45.7094136545275 11.594000000000001
45.73357566449271 11.5859
45.75773982322992 11.5791
45.78190613238733 11.5472
45.806263418194064 11.5285
45.83043404997326 11.4918
45.85460683713677 11.4739
45.87897065658495 11.4394
45.90314777634752 11.4056
45.92732705646868 11.4113
45.9515084986045 11.3891
45.97588104735473 11.4323
46.00006683541565 11.3722
46.02425479047904 11.3078
46.04844491420549 11.3023
46.0728262191024 11.3024
46.09702070211635 11.2658
46.12121735879483 11.2932
46.14541619080294 11.2517
46.169806278764455 11.22
46.194009483459034 11.1939
46.21821486849841 11.1949
46.24242243555223 11.1347
46.266821333570014 11.1417
46.29103328674601 11.1105
46.31524742696538 11.1149
46.33946375590237 11.0895
46.36387149104216 11.088
46.38809221957392 11.0059
46.41231514186606 11.0033
46.436540259597464 11.0168
46.460956858999374 10.9688
46.48518638983522 10.9384
46.509418121166966 10.9477
46.533652054678114 10.9457
46.55807754555709 10.8855
46.58231590571962 10.9074
46.60655647313217 10.8793
46.630988654873654 10.81
46.655233659129024 10.8243
46.67948087571551 10.8446
46.70373030632484 10.7758
46.72817142736393 10.8116
46.752425308428684 10.769
46.77668140861147 10.7622
46.80093972960865 10.694
46.82538981736788 10.674000000000001
46.849652602470904 10.6662
46.87391761349769 10.6742
46.8981848521493 10.6297
46.9226439341274 10.6269
46.946915650573224 10.5788
46.97118959976749 10.5379
46.99546578341598 10.5162
47.019933887188216 10.5547
47.04421456235744 10.5417
47.06849747711879 10.5137
47.09278263318286 10.4752
47.11725978640143 10.4371
47.14154944775105 10.417
47.165841355555656 10.4064
47.1901355115306 10.3787
47.214621741924994 10.3724
47.23892041698887 10.3534
47.26322134538975 10.3375
47.28771440635075 10.2735
47.31201986422527 10.2432
47.33632758061436 10.2786
47.360637557241866 10.284
47.38513974410611 10.2513
47.40945426407847 10.2208
47.43377104948137 10.2066
47.45809010204344 10.2263
47.48260144275502 10.164
47.506925052572285 10.1528
47.53125093475548 10.0782
47.55557909103813 10.1039
47.58009961361992 10.0603
47.60443234110732 10.0451
47.62876734791564 10.0801
47.65310463578333 10.0677
47.6776343683373 10.0064
47.7019762413987 9.9799
47.72632040075572 9.9648
47.75066684815169 9.97242
47.77520581885936 9.96095
47.799556865477655 9.923789999999999
47.823910205386 9.93493
47.84826584033272 9.896980000000001
47.87281407745551 9.858369999999999
47.89717432569297 9.8845
47.92153687423484 9.85697
47.94609208429692 9.83123
47.97045925671401 9.76628
47.99482873471275 9.788
48.01920052005013 9.75595
48.04376504619224 9.688239999999999
48.068141469543484 9.72724
48.09252020552573 9.718760000000001
48.11690125590099 9.69489
48.1414751266064 9.660810000000001
48.16586082917454 9.68062
48.19024885144316 9.6347
48.2146391951793 9.66768
48.239222439012764 9.58159
48.26361744916137 9.565389999999999
48.28801478610016 9.562380000000001
48.31241445160131 9.56293
48.337007097209366 9.52696
48.36141144338331 9.50583
48.38581812345755 9.4721
48.41022713920929 9.489230000000001
48.434829215320704 9.43491
48.45924292604658 9.42828
48.48365897780325 9.43022
48.50807737237308 9.38996
48.532688907799276 9.40346
48.55711201168574 9.4119
48.581537463754074 9.36631
48.60615611725119 9.36603
48.63058628942721 9.3362
48.65501881516546 9.32745
48.6794536962573 9.3117
48.70408185970339 9.28562
48.72852147531801 9.21705
48.75296345168211 9.23552
48.77740779059232 9.21992
48.80204549302823 9.21957
48.82649458091802 9.19909
48.85094603676547 9.187330000000001
48.87539986237231 9.14368
48.90004713292306 9.13368
48.92450572200832 9.13937
48.94896668628025 9.12449
48.97343002754588 9.093580000000001
48.99808689542115 9.08719
49.02255501470614 9.07294
49.04702551642794 9.05396
49.0714984023988 9.02556
49.096164896893235 8.99358
49.120642575466796 9.00487
49.145122643748394 9.010010000000001
49.16960510355558 8.93955
49.19428125404938 8.93623
49.2187685210852 8.92305
49.243258185121555 8.916730000000001
49.26794160167084 8.89966
49.2924360839405 8.889560000000001
49.31693296869764 8.80786
49.34143225776915 8.785960000000001
49.36612538195438 8.81743
49.39062950396021 8.8222
49.41513603578346 8.81069
49.4396449792564 8.77127
49.46434784069503 8.75934
49.488861631846454 8.73837
49.513377840166804 8.70248
49.537896467493745 8.6667
49.56260909589029 8.64821
49.587132585683285 8.67424
49.611658500018365 8.65651
49.636186840738596 8.64053
49.66090926588511 8.632819999999999
49.685442483902584 8.58494
49.70997813385706 8.554839999999999
49.734516217597076 8.541210000000001
49.75924846937352 8.54422
49.7837914452858 8.54623
49.80833686055187 8.5133
49.83288471702571 8.51093
49.85762682540054 8.48893
49.882179588965734 8.46872
49.9067347993235 8.44125
49.93129245833333 8.43555
49.95604445336378 8.40227
49.98060703442832 8.38203
50.005172069746266 8.385660000000001
50.02993150438364 8.38596
50.05450147301533 8.349689999999999
50.07907390151433 8.3452
50.10364879174981 8.31626
50.12841816587289 8.30159
50.1529980044635 8.2817
50.17758031042124 8.27206
50.20216508562089 8.25065
50.22694442953363 8.24657
50.25153416817468 8.233189999999999
50.27612638170508 8.22765
50.300721072005196 8.194180000000001
50.325510416102105 8.18262
50.350110084975064 8.181989999999999
50.37471223628208 8.171289999999999
50.39931687190919 8.13673
50.424116246675766 8.129489999999999
50.44872587605249 8.12478
50.47333799543065 8.05847
50.49795260670191 8.0766
50.52276204271512 8.04355
50.54738166295838 8.02793
50.57200378079314 8.01282
50.596628398116835 7.996289999999999
50.62144792604559 8.00031
50.646077567609396 7.98752
50.670709714377715 7.995830000000001
50.69553683636198 7.967160000000001
50.72017401885922 7.88223
50.7448137122895 7.90031
50.76945591856022 7.8594800000000005
50.79429318636823 7.89946
50.818940443716784 7.89495
50.84359021965163 7.823869999999999
50.868242516085964 7.86402
50.893089960641895 7.86203
50.917747323549435 7.80725
50.94240721271973 7.79553
50.96706963007175 7.77101
50.99192728239342 7.76123
51.01659478166073 7.75329
51.04126481489051 7.774039999999999
51.06593738400761 7.757000000000001
51.090805275207074 7.72405
51.11548294172845 7.7087699999999995
51.14016314993547 7.68938
51.164845901758845 7.663289999999999
51.18972406304274 7.675669999999999
51.21441192780656 7.64723
51.23910234200271 7.6054
51.2637953075678 7.593780000000001
51.288683770237945 7.58625
51.31338186432707 7.567130000000001
51.33808251561888 7.5556600000000005
51.362978729967345 7.56279
51.387684521509755 7.52663
51.41239287610203 7.50444
51.437103795691165 7.48112
51.46201036644977 7.4492199999999995
51.486726441956634 7.45516
51.51144508832545 7.43284
51.536166307509156 7.4122699999999995
51.56108326624387 7.41763
51.58580965706056 7.425330000000001
51.61053862657523 7.407439999999999
51.635270176746864 7.36793
51.66019755512065 7.3627199999999995
51.68493429268881 7.34749
51.70967361681515 7.3349
51.73441552946465 7.33144
51.759353359237934 7.30975
51.7841004750961 7.267239999999999
51.80885018539685 7.26202
51.833602492111254 7.2218
51.8585508051424 7.23883
51.883308330926425 7.22267
51.90806845906181 7.19498
51.932831191525715 7.187639999999999
51.95779001977161 7.152010000000001
51.98255798721516 7.15003
52.00732856494335 7.12454
52.03229530577543 7.137110000000001
52.057071130455945 7.11535
52.081849571391054 7.0953
52.106630630568695 7.0910899999999994
52.13160794279417 7.0489999999999995
52.15639426492067 7.086760000000001
52.18118321127822 7.05508
52.205974783860896 7.03538
52.23096269971011 7.021610000000001
52.255759551287994 7.0384899999999995
52.280559035098186 6.99333
52.30536115314103 6.933860000000001
52.33035970494467 6.9766
52.35516711807904 6.95118
52.37997717147198 6.91392
52.40478986713005 6.8886199999999995
52.42979908731974 6.87602
52.454617094216 6.866280000000001
52.47943774942214 6.8958
52.50426105495102 6.872489999999999
52.529280976059844 6.833489999999999
52.554109609024096 6.8292399999999995
52.57894089837482 6.8358
52.60377484613117 6.81111
52.62880550079408 6.80973
52.65364479223379 6.77908
52.67848674816189 6.734430000000001
52.70352547971946 6.723389999999999
52.72837279155837 6.7180800000000005
52.753222773982785 6.68796
52.778075429022984 6.70937
52.80312495150885 6.715210000000001
52.827982978797436 6.67594
52.85284368481815 6.63675
52.87770707160767 6.629060000000001
52.90276741793998 6.611460000000001
52.92763619336701 6.590739999999999
52.952507655698504 6.608960000000001
52.977381806977576 6.5922600000000005
53.00245301017842 6.5519300000000005
53.02733256653592 6.5452900000000005
53.052214817996074 6.54699
53.077099766608484 6.49991
53.102181859804446 6.52413
53.127072229988265 6.57436
53.15196530349892 6.50945
53.17686108239249 6.49798
53.20195409881522 6.4898
53.22685531582556 6.46927
53.25175924441303 6.42489
53.27666588664027 6.42984
53.30176985962693 6.40115
53.3266819565689 6.39466
53.35159677336455 6.36039
53.376514312083096 6.37765
53.40162927507703 6.33864
53.42655228516116 6.33413
53.45147802340193 6.31962
53.47660125628886 6.331519999999999
53.50153247842639 6.31422
53.52646643496923 6.2392199999999995
53.55140312799818 6.250290000000001
53.576537409691696 6.257219999999999
53.60147960336152 6.25446
53.626424539786164 6.23341
53.65137222105307 6.185569999999999
53.67651758529126 6.19306
53.70147078399681 6.14751
53.72642673383343 6.15449
53.75138543689533 6.18895
53.776541917524526 6.14243
53.801506154876755 6.1207
53.826473151763246 6.1387599999999996
53.851442910284916 6.14907
53.87661054126026 6.13174
53.9015858509782 6.0618
53.92656392866066 6.0548
53.95154477641532 6.06765
53.976723591801296 6.06856
54.00171000771266 6.01417
54.02669920004598 5.9765
54.051691170915745 5.9815
54.076881204886796 6.00025
54.101878760928514 5.99691
54.12687910187696 6.000430000000001
54.152077577768296 5.96882
54.1770835166946 5.896730000000001
54.20209224691339 5.94759
54.22710377055121 5.89827
54.25231352511594 5.91574
54.27733066384342 5.84675
54.30235060239643 5.87795
54.32737334290836 5.886419999999999
54.35259441062629 5.8162
54.377622783395324 5.79514
54.40265396455061 5.8227400000000005
54.42768795623251 5.76915
54.45292037169559 5.74136
54.477960012857906 5.80459
54.50300247099511 5.73191
54.52804774825457 5.72607
54.55329154616743 5.6932
54.57834249018678 5.6538
54.6033962597977 5.65203
54.6284528571545 5.6688
54.653708072335164 5.63122
54.67877035378786 5.592980000000001
54.70383546947698 5.57831
54.72890342156389 5.57155
54.7541700889442 5.51931
54.77924374251975 5.53416
54.8043202390049 5.519480000000001
54.82959552413022 5.46175
54.8546777351945 5.48566
54.87976279569621 5.4038900000000005
54.90485070780914 5.416580000000001
54.930137506558005 5.3679
54.95523115074295 5.362769999999999
54.98032765308844 5.386909999999999
55.005427015775496 5.35059
55.03072536339621 5.34715
55.05583047570572 5.35203
55.080938454927676 5.30209
55.10604930325027 5.22422
55.131359235107396 5.2615
55.15647585066083 5.24702
55.181595341907496 5.21592
55.20671771104285 5.18504
55.232039262617704 5.10065
55.25716741665048 5.10353
55.28229845518636 5.1573199999999995
55.30743238042802 5.08778
55.33276558731939 5.0588
55.357905315183636 5.04812
55.383047936390035 5.00185
55.40819345314859 4.970619999999999
55.433538351073295 5.00437
55.458689688238415 4.9804699999999995
55.483843927614096 4.97879
55.509197623043605 4.9366
55.53435769621134 4.8963
55.55952067826466 4.85838
55.5846865714265 4.914680000000001
55.61005202069737 4.81056
55.63522376553902 4.81358
55.66039842818645 4.7784699999999996
55.68557601087004 4.7473
55.7109532500271 4.68815
55.73613670233794 4.7388699999999995
