TT I
1.2716486653135266 7.29988
1.2939594142134223 7.0699
1.3162702121660406 6.69855
1.3385810600174564 6.67155
1.3608919586137629 7.2137899999999995
1.383202908801069 6.60009
1.405513911425503 6.863110000000001
1.4278249673332093 6.293069999999999
1.4501343378461518 6.4351199999999995
1.4724455028545926 5.8543199999999995
1.4947567236847858 5.98151
1.517068001182951 6.2699300000000004
1.5393793361953272 5.23361
1.5616907295681737 5.47152
1.5840021821477681 5.13326
1.60631369478041 5.40834
1.6286252683124185 4.89802
1.6509369035901333 4.91793
1.6732468618895553 4.6668199999999995
1.695558623192809 5.06347
1.7178704487808514 5.19721
1.7401823395001077 5.0065
1.7625012545597203 4.352580000000001
1.7848028405262486 4.6603900000000005
1.8071218901122095 4.573919999999999
1.8294236121921872 5.21528
1.8517427996910911 5.067130000000001
1.8740620574440425 4.85076
1.8963639900671978 4.89351
1.9186833908139995 4.54636
1.9409854680117449 4.84595
1.9633050151394713 4.45127
1.9856246367570705 5.0608699999999995
2.0079269371922672 5.20224
2.03024671027244 4.73146
2.0525491637446027 4.64039
2.074869091674931 4.43936
2.097171701569106 5.0705800000000005
2.1194917877373847 4.5745
2.141811954326636 4.93916
2.164114805233074 4.44091
2.186435135143035 4.7904800000000005
2.208738150935709 9.05719
2.231058647554722 14.9234
2.2533792288321184 12.484000000000002
2.275682498336085 7.54823
2.298003251406138 5.98805
2.3203066942619714 5.58063
2.3426276225136022 5.86148
2.3649486396617507 6.59403
2.387252348930071 6.29352
2.4095735463442893 6.43628
2.4318774374315884 5.9771
2.4541988185014043 7.064610000000001
2.476502894794693 7.754160000000001
2.498824462909887 7.05819
2.521146125856138 7.41237
2.5434504863470337 7.234210000000001
2.5657723414244717 8.029710000000001
2.588076895590662 8.84225
2.610398946189713 8.70118
2.6327210958598384 8.18792
2.6550259469304716 8.34077
2.6773482972090137 8.630230000000001
2.6996533504259 8.729280000000001
2.7219759047039602 8.75429
2.744298562293959 8.31782
2.7666039251246595 8.79575
2.7889267918020164 8.086089999999999
2.8112323652516555 8.21225
2.833555444408179 8.77064
2.8558786311183852 8.51062
2.8781845268938557 8.67499
2.9005079311721484 8.869760000000001
2.9228140460410397 9.295630000000001
2.9451376712799635 9.811760000000001
2.967444008632326 10.0852
2.9897678582247247 10.0455
3.0120918213106695 10.3809
3.0343984987899373 10.7767
3.0567226913198637 11.1535
3.079029599759726 11.7707
3.101354025127254 12.2718
3.123678568232338 13.1573
3.145985829517914 13.1988
3.16831061055229 13.8244
3.1906181112775593 14.4706
3.212943133635653 15.3191
3.2352682779763207 15.8268
3.2575761442691227 15.2002
3.2799015350264273 15.6185
3.302209649240067 15.9936
3.3245352898092655 16.8503
3.3468436553365257 16.8136
3.369169549113219 17.4844
3.3914955708171384 18.4735
3.413804319727358 18.9119
3.4361305997334863 18.9819
3.4584396084414553 19.2464
3.4807661501462652 20.0619
3.503092824025881 20.8155
3.5254022288463154 20.7945
3.5477291695206588 21.0261
3.5700388426251948 22.1894
3.5923660534916446 23.089000000000002
3.6146934007816114 30.1038
3.637003482731501 51.5645
3.6593311053109985 53.9439
3.681641464033634 37.4185
3.7039693653009733 26.8434
3.726297407241705 25.3825
3.7486081875460804 25.1897
3.7709365132734978 25.5648
3.793247578841633 25.9021
3.8155761917550093 26.4194
3.8378875459837216 27.3292
3.8602164494827234 27.3067
3.882545499606844 27.8236
3.9048572932539183 28.7482
3.9271866390645718 29.0276
3.9494987298666713 29.3755
3.971828374764527 29.7516
3.9941581705403255 30.2744
4.016470713506008 30.7766
4.038800813471445 31.8307
4.061113662089144 32.1049
4.0834440696459176 32.6984
4.105774632334751 33.0746
4.128087945865126 33.7116
4.150418821249301 34.5526
4.172732448931298 36.1216
4.195063640413578 36.8228
4.2173775856475215 39.0929
4.239709096631102 55.0459
4.262040768704612 123.331
4.284355196706267 157.58
4.306687193387355 106.76100000000001
4.329001947444346 56.498000000000005
4.35133427213731 43.7543
4.373666762177566 43.315
4.395982011761091 43.361999999999995
4.418314834921175 44.6033
4.44063041906622 48.2508
4.4629635787515625 53.2509
4.4852969080429785 53.7014
4.5076130004776225 52.3593
4.529946671403969 56.1891
4.552263106909177 60.4989
4.574597122877047 57.5737
4.596931312711224 53.8347
4.619248269273446 53.418
4.6415828092605835 54.3008
4.663900117405352 55.146
4.686235010953232 55.84
4.708552674085913 57.5007
4.730887924602802 59.6689
4.753223354952695 61.2342
4.775541557023902 64.8751
4.797877349456786 68.3172
4.820195915032126 68.2654
4.842532072957498 67.5667
4.864868414979744 70.4431
4.88718753227192 74.6862
4.909524244902505 76.4986
4.931843734218147 75.9752
4.954180820867835 77.4054
4.976518095879839 80.0449
4.998838149695359 82.8779
5.021175803844231 85.8906
5.043496238205739 89.0727
5.065834274903528 93.4883
5.088172504230693 98.0808
5.1104935158799565 104.31299999999999
5.132832132875765 123.958
5.155153533596801 154.131
5.1774925416746225 190.61599999999999
5.199814334878411 367.785
5.2221537374521505 947.3610000000001
5.244493338631803 2760.24
5.266815727034316 7976.64
5.289155727832427 13505.1
5.311478517248165 8969.82
5.333818921080011 2642.12
5.356159527788849 487.31300000000005
5.3784829252032536 190.35
5.400823940070432 151.24
5.423147747031976 128.39600000000002
5.445489173474152 118.23100000000001
5.467830807066149 117.803
5.490155234831516 117.993
5.512497285125229 111.066
5.534822130975162 104.65100000000001
5.557164601388673 101.318
5.579489868738879 97.9024
5.601832762690846 96.5381
5.6241758697774475 96.0351
5.646501775867269 95.1917
5.668845311622074 93.9388
5.691171647754637 93.4946
5.713515615597765 92.41799999999999
5.735859800852677 91.514
5.758186788542988 93.6982
5.780531411018185 97.3824
5.802858837297399 97.1135
5.825203900414495 97.0356
5.8475491852224 100.96700000000001
5.869877275883075 100.14
5.892223006467101 95.9978
5.914551544266608 93.8039
5.936897724049891 95.7553
5.959244129804903 102.15299999999999
5.981573344815301 126.889
6.0039202049061 225.11900000000003
6.026249875609095 445.506
6.04859719346037 928.697
6.070927323278297 2236.62
6.093275102315365 4664.04
6.115623113320588 5232.95
6.137953938319995 2976.85
6.160302415650845 801.852
6.182633708324452 190.727
6.2049826554078376 104.09299999999999
6.227331838745022 87.8375
6.249663839443684 82.0602
6.27201349767565 79.0783
6.294345974611799 80.2238
6.316696111167083 83.3369
6.339046488263839 80.1482
6.361379686074702 73.3931
6.383730546639482 69.6481
6.406064229255215 69.1179
6.428415576718203 70.7578
6.450749747566656 69.1444
6.47310158535871 66.2198
6.495453669698332 64.6311
6.517788579421056 63.7264
6.540141159237969 62.7169
6.562476565766648 62.0424
6.5848296444934045 61.9628
6.607182974060425 62.2483
6.6295191323281015 62.4492
6.651872965955752 63.0785
6.6742096296068985 73.3359
6.6965639707294615 92.1219
6.71891856698715 90.6069
6.741255995248479 72.4199
6.763611104154477 61.7928
6.785949046381137 58.465
6.808304671371482 58.5952
6.8306605557940046 60.3815
6.852999275508618 59.4515
6.875355681171544 57.48
6.897694923437771 56.0904
6.92005185377892 55.5516
6.9423916220322655 55.2936
6.964749080490181 54.8044
6.987106804399774 54.8191
7.009447368180821 55.5324
7.031805625367033 55.3242
7.054146723727803 54.5754
7.076505517631004 54.1841
7.098864581288365 54.0281
7.121206488070854 54.1669
7.143566093607822 53.978
7.165908543567245 55.3419
7.188268694426048 55.6596
7.2106291193438095 54.9453
7.232972390625943 54.6697
7.255333366030969 60.2582
7.277677189091925 83.2958
7.300038718428332 101.34299999999999
7.322400526130865 89.4189
7.344745183422596 67.1988
7.367107550224791 56.3645
7.389452767901992 54.3311
7.411815697249891 53.8539
7.434161478756298 52.9433
7.456524974096713 52.9227
7.478888753837185 52.8856
7.501235387657368 53.2296
7.523599738562711 53.5221
7.545946944825532 53.6526
7.568311870344528 53.6838
7.5906770845765665 54.25899999999999
7.613025156078678 54.687
7.635390950099687 55.6258
7.657739602662809 55.5738
7.680105979923558 55.2377
7.702472650212829 55.8883
7.724822180948224 55.7667
7.747189439655568 55.5585
7.769539560075357 55.1874
7.791907410653562 55.6676
7.81425812420825 55.6456
7.836626570110925 56.0743
7.858995315087906 56.6907
7.881346924933401 56.7194
7.903716270417482 57.2394
7.926068482028405 57.785
7.948438431475253 58.3269
7.9708086843180235 58.87
7.993161805171116 59.3442
8.015532667162402 59.9564
8.037886398416653 61.3585
8.060257873014221 61.7999
8.082629655331942 62.4864
8.104984308787587 63.692
8.127356708900503 65.902
8.149711981398308 70.5221
8.172085002766314 72.4275
8.194458336181368 69.9233
8.216814543847752 68.1338
8.23918850371002 68.3585
8.26154533906492 69.3928
8.283919928836452 70.8681
8.306277395339652 71.6377
8.328652618483376 73.2506
8.351028159736202 75.0717
8.373386579575245 77.2673
8.395762759396959 79.0142
8.418121819038275 82.4837
8.440498640894003 90.3333
8.462875785192262 101.491
8.485235811156207 123.742
8.507613602688501 170.12400000000002
8.529974277114228 246.15599999999998
8.552352719347912 365.82800000000003
8.574731488360351 625.615
8.59709314210385 1201.9
8.619472567021075 1979.23
8.64183487789147 2268.69
8.664214962183097 1721.5
8.686577933647762 843.919
8.708958680784317 302.88599999999997
8.731339760774953 141.34799999999998
8.753703729764451 104.65700000000001
8.77608547780821 95.8461
8.798450116065078 92.8026
8.820832535634787 91.1958
8.843215292401656 91.4481
8.865580941199045 91.3697
8.887964374703538 90.8471
8.910330701447199 91.0082
8.932714815164482 91.2025
8.955099270424924 88.9428
8.977466620733543 85.9535
8.999851761421976 84.3772
9.022219798361645 83.0658
9.04460562795561 82.5512
9.066991803441677 82.2836
9.089360876979615 83.2656
9.111747746589993 83.021
9.13411751544971 81.8496
9.156505082664324 81.1087
9.178875550323522 81.354
9.20126381862328 81.0211
9.223652438908596 81.0431
9.246023961427412 81.1619
9.26841328802173 81.0686
9.290785518039224 81.2797
9.313175554425882 83.79299999999999
9.335565947154315 85.5079
9.357939245086508 85.2345
9.380330352834827 84.7709
9.40270436697103 85.1159
9.425096193225055 84.18799999999999
9.447488380180165 84.0976
9.469863475295412 83.5254
9.492256385987508 83.9007
9.514632206018318 84.2042
9.537025843935714 84.7431
9.559402392368193 85.9759
9.581796761000229 88.5661
9.604191496441521 90.4977
9.626569144158516 93.70299999999999
9.648964615551032 95.5638
9.671343000390081 94.4444
9.693739211225699 92.5158
9.716135793237463 91.7145
9.738515290448102 92.1046
9.760912617143402 93.4365
9.783292860202891 95.9586
9.805690935076182 98.1691
9.828089385495742 99.2908
9.850470754023561 100.295
9.872869957865444 103.794
9.89525208097539 111.00299999999999
9.917652041736662 118.34200000000001
9.940052382417589 124.723
9.962435644102392 146.475
9.984836746950979 184.583
10.007220771957746 239.912
10.029622640473708 330.781
10.052007432299963 511.726
10.074410069984072 832.49
10.096813093716005 1312.66
10.119199042482517 1876.26
10.141602840636468 2003.3
10.163989564971628 1479.14
10.186394141051062 778.3380000000001
10.208799107559706 323.992
10.231187001965623 162.377
10.253592751657669 118.67
10.275981430388155 109.37100000000001
10.298387966769793 107.676
10.320794897965431 108.089
10.343184759907361 106.397
10.36559248305461 103.663
10.387983138083852 103.292
10.410391656691655 109.285
10.432800574501677 119.08200000000001
10.455192425893369 132.52700000000002
10.47760214443012 157.10299999999998
10.499994797678786 202.88
10.522405320453982 289.578
10.54479877906917 413.366
10.567210109595656 547.028
10.5896218454736 587.27
10.612016518879773 486.142
10.634429067781074 316.41700000000003
10.656824555333241 177.03599999999997
10.679237920773568 112.27600000000001
10.701651695961992 91.8976
10.724048411481384 86.8685
10.746463008485165 84.7742
10.768860546937125 83.5903
10.791275969274796 82.0088
10.81369180576079 80.7417
10.836090585366925 79.7574
10.858507252467449 78.6757
10.88090686379991 77.7148
10.903324365036394 77.2852
10.925724811614439 77.0419
10.948143150509463 77.9407
10.970561909719066 77.01
10.992963615930844 75.9599
11.015383218085756 74.4786
11.037785768347074 72.7618
11.06020621697282 71.8937
11.082627090322113 71.1966
11.105030913430326 70.1225
11.12745263854165 69.9435
11.149857314510728 71.3887
11.172279894912576 73.8165
11.194702904450653 73.425
11.217108866490921 71.3559
11.239532736615194 69.1893
11.26193956033512 68.4852
11.284364294577085 67.5031
11.306789462371718 66.5284
11.329197585398376 65.8094
11.351623622610898 65.911
11.37403261614354 65.0763
11.396459526308487 64.9403
11.418869393879497 64.663
11.441297180532617 64.3507
11.463725406927658 63.7764
11.486136592353875 63.3521
11.508565700543707 63.7564
11.530977768845315 64.5518
11.553407762368774 64.5265
11.575838200059769 64.2657
11.598251599479612 63.236000000000004
11.620682927815501 62.6601
11.64309721895548 62.4733
11.665529441478206 62.0378
11.687962112597958 62.0054
11.710377748130886 62.1743
11.732811318753434 61.8213
11.755227854859067 61.6907
11.777662328529495 61.5805
11.800079768750786 61.7559
11.822515149015453 61.7929
11.844950984084935 61.9056
11.867369787303163 61.3809
11.889806534289491 61.5933
11.912226250487029 61.8051
11.934663912939751 62.2889
11.9571020346363 62.0379
11.979523127133968 62.3741
12.001962169624331 63.4263
12.024384183972964 64.9367
12.046824150809913 67.6619
12.069264581333726 71.6243
12.091687985297767 76.8646
12.11412934550045 86.1962
12.136553680195208 101.664
12.158995973632788 127.79799999999999
12.181438735204349 158.498
12.20386447284199 188.791
12.226308172985636 212.895
12.24873485024193 199.829
12.271179492516982 153.662
12.293607112949127 113.025
12.316052700916226 85.331
12.338498763250042 71.0895
12.360927805303868 65.7837
12.383374818673879 64.0177
12.405804812803074 63.086000000000006
12.428252780773262 62.6295
12.45070122756722 62.9892
12.473132656675375 63.1828
12.49558206341869 63.7347
12.518014453510101 63.9529
12.540464823770117 63.8768
12.562915677315177 63.8844
12.58534951575545 64.3747
12.607801338171472 64.8099
12.630236146511358 67.1651
12.652688941369085 69.5213
12.675124723177234 69.8364
12.697578494048786 68.7681
12.720032754458185 67.032
12.742470003354093 66.2768
12.764925245138771 66.5653
12.787363476431278 66.9923
12.809819703166806 67.3962
12.83227642391173 68.1519
12.854716135692716 68.743
12.877173846755147 70.032
12.899614549869717 70.3209
12.9220732548287 71.3185
12.94453245827299 71.9476
12.966974655289818 72.8922
12.989434858002571 73.5701
13.011878055298721 74.1094
13.034339260862497 74.9569
13.056800969391883 76.3103
13.079245674017244 78.7758
13.101708390774869 82.5224
13.12415410463411 90.7836
13.146617833206086 100.04299999999999
13.169064559883248 109.29799999999999
13.191529303857127 122.743
13.213994557076367 145.494
13.236442809902437 184.683
13.258909083908291 246.21400000000003
13.28135835851934 316.305
13.30382565690295 391.714
13.326293469022952 441.44199999999995
13.348744283242008 421.80400000000003
13.371213125129904 331.728
13.39366497011003 229.422
13.416134845360597 152.88
13.438605238843131 114.493
13.46105863690397 103.14399999999999
13.483530069144786 104.177
13.505984506951902 108.652
13.528456981549432 117.87200000000001
13.550929978879088 132.41
13.573385983253365 157.06799999999998
13.595860028340867 200.512
13.618317081455832 257.998
13.64079217790333 326.1
13.663250283359057 378.777
13.685726434770173 386.06800000000004
13.708203115221277 327.653
13.730662806148091 241.25099999999998
13.75314054697177 166.623
13.775601299246777 115.603
13.798080104050406 91.4457
13.820559442405358 82.8055
13.843021793671388 80.2323
13.865502201420897 78.5621
13.887965623051947 78.3163
13.910447103807167 77.3425
13.932929122629764 76.0238
13.955394156785959 75.5119
13.977877254034569 74.4776
14.000343367582113 73.6878
14.022827546871707 73.285
14.045294743423524 72.3258
14.06778000837062 71.8713
14.090265817715476 71.671
14.112734645763819 71.2387
14.13522154619454 70.9083
14.157691466286913 70.8388
14.180179461423874 70.4357
14.202668005486178 70.1063
14.22513957064374 69.6479
14.247629214846473 69.2703
14.270101881097517 68.962
14.29259262906496 69.2118
14.315083930490205 69.1731
14.337558255389705 69.0721
14.360050666019726 69.0887
14.382526101071944 68.5571
14.405019624534942 68.2537
14.427513705993134 67.9495
14.449990813291825 68.1488
14.47248601302899 67.6495
14.49496423954951 67.5645
14.517460561197822 67.6085
14.539939910570322 67.3304
14.562437357763558 67.7644
14.58493536931253 68.7101
14.607416409993311 68.9179
14.62991555254159 69.5378
14.652397725157423 69.4506
14.674898002342799 69.676
14.697398848433282 69.645
14.719882725991326 70.8582
14.74238471217934 72.5606
14.764869730765593 75.714
14.787372860692983 78.2822
14.809876564079925 81.8589
14.83236330125751 87.3641
14.854868153850365 95.6606
14.877356041159485 109.98100000000001
14.899862046604186 130.149
14.922351087688757 158.249
14.944858249632887 189.75599999999997
14.967365991421232 218.6
14.989856770231246 229.13099999999997
15.012365673994204 214.872
15.03485761569738 178.792
15.05736768508665 137.868
15.07987833888692 103.36
15.102372032001655 83.6667
15.124883856909658 73.84
15.14737872204565 70.262
15.169891721717274 69.5329
15.192405310371893 69.0052
15.214901940621196 68.8725
15.237416709527137 68.5437
15.259914520936249 68.5013
15.282430473753607 67.5844
15.304947020131227 66.7051
15.327446610371178 66.5092
15.349964346154254 66.0003
15.372465126703139 65.7457
15.394984055556009 65.4067
15.417486030076159 65.5239
15.44000615566487 64.9283
15.462526881230803 64.8669
15.485030653812652 64.7539
15.507552581617434 64.7802
15.530057557334603 64.9282
15.55258069104857 64.7394
15.575104429329837 64.9829
15.597611216864632 64.8683
15.620136166564563 65.6088
15.6426441664095 66.9816
15.665170331202765 69.1375
15.687697105158826 71.49600000000001
15.710206930593545 74.3774
15.732734925158933 78.6547
15.755245972089478 84.5235
15.77777519094324 93.8569
15.800287463046663 108.05799999999999
15.822817909869592 128.585
15.84534897229804 153.078
15.867863089299354 177.857
15.890395385222186 194.76
15.912910736597423 195.52900000000002
15.935444269699861 176.885
15.957978423016485 145.049
15.980495633101265 111.61200000000001
16.003031029129367 86.4714
16.02554948280019 71.4992
16.048086125229432 64.7279
16.070623392487107 62.9615
16.09314371869582 62.0847
16.11568223789321 60.9847
16.13820381691126 60.3057
16.160743591742527 59.7992
16.183283996022084 59.2568
16.205807461423195 58.3129
16.228349126881973 57.7085
16.25087385432698 57.6663
16.27341678466365 57.2086
16.29594277784926 57.0788
16.31848697676433 56.9009
16.341031811604868 56.7156
16.36355971058487 56.7614
16.3861058195587 56.5654
16.40863499352978 55.9024
16.431182380342005 55.3943
16.453730407713202 54.946000000000005
16.476261501364792 54.701
16.498810812136167 54.4733
16.52134319004079 54.6714
16.54389378792203 54.5347
16.566445031001553 54.3201
16.588979342490088 54.2338
16.61153187824822 54.2606
16.634067483263312 53.9203
16.656621315414416 53.8405
16.679175797408888 53.6349
16.701713349928728 53.4846
16.72426913389191 53.8709
16.74680798922351 53.7191
16.76936507887444 53.7172
16.791905240734874 53.8511
16.814463639794468 53.7921
16.837022695210294 53.6552
16.859564824093756 54.006
16.882125194503903 54.3402
16.904668639217885 54.5713
16.927230328348003 54.5482
16.949792678493612 54.9217
16.972338104193863 54.5685
16.994901778652235 54.415
17.017448529496576 54.7558
17.040013531998152 55.1316
17.06257920018044 55.6635
17.0851279459922 56.2662
17.107694947817667 57.0229
17.130245028099072 57.4892
17.15281336730298 58.9186
17.17536478578733 60.6933
17.19793446610687 63.0031
17.220504818648422 65.9322
17.243058251703697 69.7961
17.265629950971032 74.676
17.288184731571736 79.4275
17.310757781306908 82.9073
17.33333150794385 82.7151
17.355888317140174 79.8629
17.37846339986244 73.8302
17.401021565958885 67.375
17.42359800851343 62.8491
17.44617513265564 60.2583
17.468735341390783 58.9325
17.491261035594565 58.3447
17.51396340099364 58.0099
17.536490463869136 58.1404
17.559018209820174 58.225
17.58154663977963 58.0847
17.604251766089718 58.4263
17.626781572227713 58.6555
17.64931206518155 58.9125
17.671843245885103 59.2341
17.69455114821572 59.4375
17.717083712612634 59.9421
17.739616967569667 59.9069
17.762150914021706 60.3217
17.78486160749854 60.615
17.807396945166804 61.2438
17.829932977143503 62.5949
17.85246970436452 64.0195
17.875183204129467 65.3836
17.897721330097664 67.0308
17.920260154126645 69.387
17.942799677153296 72.3494
17.9655159983646 76.1986
17.988056927677544 81.7515
18.010598558807683 90.2912
18.033140892692916 101.31700000000001
18.05586005052525 113.705
18.07840379824407 125.848
18.10094825154059 134.753
18.12366954819864 139.72799999999998
18.146215420998306 136.43200000000002
18.16876200220057 125.191
18.191309292745153 110.34
18.214033452627167 96.1889
18.236582170236648 86.7639
18.259131600016456 83.73
18.281681742907335 85.4144
18.304408781233683 90.7943
18.32696035875955 96.6406
18.349512652227624 102.081
18.372065662579683 106.397
18.394795594587553 105.461
18.41735004715306 99.072
18.43990521943684 90.7906
18.46246111238171 81.7161
18.485193953325208 72.9854
18.507751296070428 66.8261
18.530309362314178 63.6814
18.552868153000343 62.0063
18.57560391815056 60.7692
18.59816416623245 60.5137
18.620725141597372 59.975
18.643286845190268 59.5429
18.666025549835414 59.3313
18.688588718427933 58.6674
18.711152618092243 58.547
18.73389353884365 58.3887
18.75645890921984 57.9484
18.77902501351406 57.7559
18.801591852673102 57.7297
18.824335739722738 57.2095
18.846904057212626 57.0702
18.8694731124168 56.7863
18.89204290628315 56.7662
18.914789774966803 56.5995
18.937361054791623 56.256
18.959933076131318 55.9843
18.982505839934877 56.1542
19.00525570560582 56.158
19.027829963004184 55.7937
19.05040496572238 55.8907
19.072980714710468 56.0748
19.095733592739563 56.2695
19.11831084296757 56.4419
19.140888842324735 56.5596
19.16346759176222 56.9323
19.18622349753803 57.205
19.208803755869358 58.2961
19.231384767143577 59.4355
19.253966532312948 61.0906
19.276725481241822 63.5074
19.29930876296784 66.2095
19.3218928014549 69.2041
19.34465404436217 72.2344
19.36723960516257 74.825
19.389825925592426 74.6686
19.412413006605938 73.4174
19.43517731967805 69.1666
19.457765930683355 64.3709
19.48035530514408 60.4416
19.50294544401556 57.2353
19.525712842708348 55.0219
19.54830451925909 53.8182
19.570896963095727 53.1129
19.593490175174704 52.9809
19.616260674962184 53.0898
19.638855432416964 52.7592
19.661450960992624 52.9525
19.68404726164677 52.8784
19.706820878021247 52.5524
19.729418731756834 52.6283
19.752017360452857 52.4734
19.77461676506804 52.4815
19.797393513540218 52.7998
19.819994478951667 53.1593
19.84259622316767 53.4359
19.8651987471481 53.8564
19.887978643247177 53.9037
19.91058273574792 54.3025
19.933187610901943 55.2386
19.955969879466828 56.4599
19.97857632894404 58.1556
20.00118356396599 59.9257
20.023791585494575 62.4918
20.046577028914875 65.1666
20.069186632506966 67.506
20.091797025500632 69.1872
20.114408208858933 69.508
20.137196842715273 68.0486
20.159809615886765 66.1989
20.18242318232135 63.4263
20.20503754298326 61.5598
20.227829382875154 60.8434
20.250445341109344 61.3364
20.27306209647285 62.6021
20.29567964993108 64.1332
20.31847471147704 64.9331
20.34109387027612 65.1549
20.363713830075454 64.267
20.386334591841646 62.2073
20.409132890679302 59.3767
20.431755265564437 56.2521
20.454378445325528 53.7847
20.477002430930366 51.8792
20.499803982716553 50.9242
20.522429589228004 50.3406
20.54505600449589 49.9391
20.567683229489194 49.7648
20.590488049900088 49.4916
20.61311690359731 49.3487
20.63574656993626 49.1293
20.658553853717297 48.6058
20.681185154618298 48.6955
20.703817271080066 48.5556
20.72645020407368 48.2582
20.749260783967177 48.1038
20.771895359337133 48.1069
20.794530754161617 48.0662
20.817166969412938 47.7863
20.83998086114876 48.1091
20.86261872660049 47.933
20.885257415405402 47.8639
20.90789692853701 47.7542
20.930714147864748 47.8277
20.953355319030678 47.7677
20.97599731745334 47.7937
20.99864014410749 47.6859
21.021460706796564 47.9525
21.044105199328826 47.9813
21.06675052302631 48.1475
21.089396678865015 48.1827
21.112220600704806 48.6835
21.134868430275347 49.0006
21.15751709492456 49.303000000000004
21.180166595629693 49.6623
21.202993892429635 50.0724
21.22564507473034 50.4727
21.24829709602816 50.5634
21.27112693608965 50.666000000000004
21.293780644891275 50.5148
21.316435195634053 49.8113
21.339090589297417 49.089
21.361923832041875 48.6496
21.384580921090404 48.0677
21.407238856007325 47.6285
21.429897637773326 47.5343
21.45273429906592 47.5537
21.475394784108598 47.6143
21.498056118951983 47.512
21.520718304578022 47.6945
21.543558400304388 48.02
21.566222297108816 48.2815
21.58888704765135 48.3404
21.61155265291521 48.4111
21.63439619898156 48.9682
21.657063523335786 49.0902
21.67973170537063 49.596000000000004
21.7024007460706 50.0858
21.72524775840385 50.7796
21.747918526116475 51.8806
21.770590155457388 53.1028
21.79326264741238 54.8674
21.816113141960237 57.0718
21.838787368860547 58.9797
21.861462461341976 61.1229
21.884315579735777 63.0814
21.90699241312273 64.2366
21.92967011506078 64.1229
21.95234868653799 63.1981
21.9752053151131 61.2977
21.997885635446785 59.1086
22.020566828293532 57.3087
22.04324889464272 56.0286
22.066109049404666 55.4054
22.088792872571794 55.3446
22.111477572219204 55.5726
22.1341631493376 55.6019
22.157026846313123 55.1258
22.179714188221507 54.0513
22.202402410582668 52.7268
22.22509151438863 51.281000000000006
22.24795876962584 50.1057
22.270649646204486 49.2746
22.293341407213727 48.733000000000004
22.316034053646906 48.3281
22.338904883215342 48.1981
22.36159931041458 48.1754
22.38429462602756 47.9634
22.40699083104897 47.7984
22.429865251039757 47.8603
22.452563244831367 47.8622
22.47526213102522 47.757
22.49813925616515 47.7706
22.520839937143307 47.6697
22.543541513520587 47.8241
22.56624398629403 47.7025
22.589124730075895 47.7922
22.611829005656723 47.9654
22.63453418063466 47.9758
22.657240256008077 48.0927
22.680124634582935 48.2881
22.70283252079775 48.4385
22.725541310413075 48.7062
22.74825100442868 48.8868
22.771139033969575 49.3011
22.79385054687155 49.4824
22.81656296718292 50.2851
22.83927629590484 51.4021
22.862167992606945 52.3581
22.88488314827121 53.577
22.907599215359284 54.7999
22.93031619487366 55.9699
22.953211574954405 56.916000000000004
22.975930389478226 57.4216
22.998650119445763 57.1756
23.02137076586092 56.028999999999996
23.044269845560063 54.4245
23.06699233506288 52.8032
23.089715744034912 51.2638
23.112617610931565 49.6415
23.135342869061212 48.9023
23.158069049684816 48.1561
23.1807961538087 47.9982
23.20370174880544 47.9148
23.226430710184808 47.9484
23.249160598093425 48.063
23.271891413539002 48.0382
23.294800752937697 48.1319
23.31753343374794 48.1963
23.340267045128353 48.3241
23.36300158808808 48.7322
23.38591468821339 48.8322
23.408651104658304 49.3977
23.431388455719986 50.2207
23.454126742409 51.0281
23.4770436196085 52.141999999999996
23.499783787914662 53.5723
23.522524894889884 54.6889
23.54526694154616 55.9633
23.56818761219047 56.9374
23.59093154860734 57.2722
23.613676427751283 57.2192
23.636422250635754 55.9819
23.659346731118656 54.0057
23.68209445191868 51.9379
23.704843119509587 49.8027
23.72759273490623 48.201
23.750521041644767 47.1104
23.77327256312355 46.111000000000004
23.796025035462787 45.5789
23.818956224555475 45.2752
23.841710609113413 45.1926
23.86446594758979 44.9794
23.887222241002014 44.792
23.910157285144578 44.3948
23.932915498962537 44.3682
23.955674670778713 44.3047
23.978434801611975 44.1393
24.001373717286125 43.8933
24.024135776723917 43.7061
24.046898798245582 43.6318
24.06966278287146 43.7057
24.092605586582614 43.4281
24.115371508023642 43.3928
24.1381383956401 43.2103
24.16090625045381 43.105
24.183852958731244 43.0496
24.206622758582608 43.06
24.229393528706886 42.7969
24.252165270127392 42.8813
24.27511589952438 42.7868
24.297889594216997 42.6404
24.32066426328598 42.5012
24.34343990775613 42.6743
24.36639447485003 42.3691
24.38917208083877 42.3056
24.41195066531332 42.1976
24.43490819850244 42.3854
24.457688750692377 42.163999999999994
24.48047028445616 42.276
24.503252800821233 42.4294
24.526214300784112 42.481
24.548998793132213 42.4033
24.57178427117417 42.2878
24.59457073593893 42.2379
24.617536219319863 42.2208
24.64032466834748 42.3696
24.663114107195035 42.2181
24.685904536893013 41.7605
24.708874020360852 41.7557
24.731666442613744 41.7139
24.754459858818787 41.6871
24.777254270007962 41.6444
24.80022777025625 41.5887
24.82302418230472 41.6258
24.845821592443674 41.551
24.86862000170663 41.383
24.891597535453727 41.3722
24.914397953892728 41.5409
24.93719937456671 41.618
24.96000179851076 41.7044
24.98298338249997 41.8293
25.00578782394922 42.0913
25.028593271784167 42.1893
25.05157790644186 42.5198
25.07438537804115 42.6914
25.097193859145293 43.0115
25.120003350792075 43.2815
25.142992065061257 43.6125
25.165803588823465 43.8357
25.18861612625217 43.9816
25.211429678386736 44.0799
25.234422489079968 44.1228
25.257238081693636 43.9572
25.280054692141732 44.2759
25.3028723214652 44.1441
25.325869245420463 44.198
25.348688923599397 44.4191
25.371509623787006 44.3194
25.394331347025812 43.8295
25.41733240110666 43.2419
25.440156181590016 42.3936
25.46298098826268 41.9373
25.48580682216873 41.466
25.50881202326435 40.8234
25.53163992281684 40.6706
25.55446885274561 40.2265
25.577298814096377 40.1316
25.600308179121807 40.1384
25.623140214533745 40.2288
25.64597328451537 40.1081
25.66898578564376 39.8736
25.691820936010206 39.8331
25.714657124097695 39.8071
25.737494350954734 39.8475
25.760511045684957 39.7237
25.783350361364224 39.8117
25.806190718969255 39.69
25.82903211955018 39.946
25.852053024868923 39.9623
25.874896522722523 39.9499
25.897741066713106 39.9437
25.920586657892454 40.0836
25.943611790812668 40.2339
25.966459487728237 40.4643
25.989308234998564 40.4665
26.01215803367705 40.8964
26.03518741123814 40.9364
26.05803932412957 41.1315
26.080892291600094 41.003
26.10374631470478 41.037
26.12677995397268 41.2197
26.14963609978026 41.0274
26.172493304397875 40.6387
26.19535156888223 40.3699
26.218389486949604 39.9541
26.241249882640123 39.7727
26.26411134137826 39.5515
26.28715248187403 39.4796
26.31001607820869 39.4507
26.3328807407756 39.3264
26.35574647063438 39.4567
26.37879191991473 39.5098
26.401659795896734 39.4244
26.424528742360263 39.5532
26.447398760366614 39.7663
26.470448535598294 39.8969
26.49332070826805 40.0622
26.516193955675355 40.3964
26.53906827888316 40.6097
26.562122397260108 40.8415
26.584998883685063 41.2434
26.607876449110325 41.3914
26.63075509460056 41.4769
26.65381357334404 41.6321
26.67669439061878 41.5422
26.699576291163382 41.4087
26.722459276044212 41.1553
26.745522132402975 40.8643
26.768407297649354 40.5777
26.791293550442003 40.2826
26.814180891848974 40.219
26.837248143099337 39.9932
26.860137673466657 39.6685
26.88302829566349 39.443000000000005
26.90592001075963 39.1954
26.92899167420566 39.088
26.951885586870763 38.6324
26.974780595655517 38.5751
26.99785558178161 38.3765
27.020752794605112 38.3856
27.043651106772522 38.1891
27.06655051935668 38.1827
27.089629948036183 38.0695
27.112531573292053 38.0833
27.135434302194138 38.183
27.158338135817015 37.988
27.181422024430987 37.952
27.204328079372566 37.8388
27.22723524226965 37.8631
27.250143514198573 38.046
27.273231880156334 38.0138
27.296142382065014 37.7762
27.319053996245536 37.7239
27.341966723775965 37.8558
27.365059584515222 37.8162
27.38797455070062 37.9107
27.410890633481237 37.7542
27.433807833936918 37.8888
27.456905206923906 37.9606
27.47982465472398 37.9771
27.502745223449743 38.0537
27.525666914182825 38.1751
27.548768816912457 37.9367
27.571692763693633 37.9057
27.59461783573812 37.7924
27.617723149491244 37.6323
27.640650484125285 37.5881
27.66357894728264 37.535
27.686508540048052 37.4553
27.709618414237887 37.3696
27.732550278321757 37.2717
27.755483275279115 37.2251
27.778417406196485 37.3476
27.801531858397514 37.2798
27.824468269376716 37.2173
27.847405817586786 37.1521
27.870344504116094 37.3559
27.893463551932008 37.5516
27.916404527281053 37.8403
27.93934664422563 37.8971
27.962289903855886 37.9387
27.98541356491974 38.1779
28.00835912214229 38.2954
28.03130582533231 38.5575
28.054253675581805 38.5203
28.077381967556104 38.5018
28.100332124185126 38.4452
28.123283431160893 38.3299
28.146235889577238 38.0377
28.169368830154156 37.8763
28.192323603752033 37.7558
28.215279532083304 37.4345
28.238415973016764 37.1917
28.261374223145094 37.1354
28.284333631303806 36.9188
28.307294198589954 36.8362
28.330435319167677 36.4895
28.353398217078915 36.1923
28.376362277420153 35.9589
28.39932750129032 35.9453
28.422473319286713 35.8264
28.44544088262495 35.8684
28.468409612800283 35.5975
28.491379510913497 35.3574
28.51453004413313 35.2574
28.53750229057244 35.247
28.56047570826344 35.1071
28.583450298308804 35.2688
28.606605564586562 35.1188
28.629582511831156 35.1809
28.65256063474956 35.1267
28.675539934446338 35.0673
28.698699951647605 34.9852
28.72168161743193 34.9465
28.74466446331978 34.8492
28.767648490417624 34.8435
28.790813276438353 34.853
28.813799678527303 34.8738
28.836787265157085 34.8603
28.859955641890075 34.8696
28.882945610203045 34.9949
28.905936766392035 34.729
28.928929111566863 34.7356
28.952102288520145 34.7815
28.975097024308607 34.5358
28.998092952423807 34.3626
29.021090073977508 34.2362
29.04426806913204 34.3338
29.067267590245258 34.084
29.090268308143695 34.016999999999996
29.11327022394099 33.9642
29.13645305530891 33.8788
29.159457379627167 33.8679
29.18246290519685 33.9227
29.20546963313352 33.7871
29.22865731875826 33.8513
29.25166646419296 33.7946
29.27467681535305 33.6164
29.29768837335608 33.91
29.320880931312562 33.8033
29.34389491580634 33.7514
29.366910110507334 33.6626
29.38992651653503 33.7455
29.41312396492981 33.7198
29.436142806456754 33.4401
29.45916286268059 33.3934
29.48236399319994 33.1662
29.50538649169417 33.1497
29.528410208259935 33.1216
29.55143514402014 32.8479
29.574641196749695 32.8116
29.597668583816574 32.7222
29.6206971934585 32.532
29.64372702680042 32.6902
29.666938019934474 32.5847
29.689970313635285 32.4624
29.713003834422636 32.5105
29.73603858342347 32.3863
29.759254535188578 32.2797
29.78229175361658 32.4072
29.80533020365064 32.3988
29.82836988641968 32.2589
29.85159081507472 32.2751
29.874632976355343 32.1042
29.89767637376955 32.1737
29.920721008448314 31.9767
29.9439469322847 32.1512
29.96699405457564 32.027
29.9900424175358 31.976
30.013092022298157 32.0217
30.03632295963995 32.0072
30.059375061131373 31.9722
30.08242840783577 31.983
30.105483000888153 32.0315
30.128718970092244 31.8958
30.151776069006917 31.9083
30.17483441768648 31.989
30.198074175317235 31.9297
30.221135036724256 31.8882
30.24419715131772 31.8513
30.267260520236203 31.8554
30.290505341942243 31.8644
30.313571232750228 31.8369
30.336638381310948 31.7569
30.35970678876503 31.71
30.38295669299435 31.7103
30.40602763151657 31.6502
30.429099832366074 31.6273
30.452173296685572 31.5469
30.47542830191959 31.5911
30.498504306502497 31.5879
30.521581577995562 31.5844
30.544660117543582 31.508000000000003
30.56792024229725 31.6393
30.59100133132069 31.5877
30.614083691845494 31.5988
30.637167325018545 31.7026
30.660432587840603 31.7403
30.683518779717886 31.7605
30.70660624769615 31.8287
30.729694992924372 31.8013
30.75296541239743 31.7332
30.77605672557558 31.6024
30.799149319462742 31.5279
30.8224236211637 31.4594
30.845518789950724 31.2865
30.868615242910597 31.3478
30.891712981195973 31.0964
30.91499247215866 31.0211
30.938092794619365 31.0488
30.96119440587579 30.9438
30.984297307082752 30.8442
31.00758200598383 30.7725
31.030687500658694 30.6642
31.053794288760695 30.6901
31.076902371446767 30.6094
31.100192296997445 30.6069
31.12330298246119 30.4889
31.14641496599209 30.3778
31.169528248749216 30.429000000000002
31.19282341969534 30.3823
31.215939314557186 30.4152
31.239056512134788 30.4192
31.262175013589378 30.3788
31.28547544871168 30.4043
31.30859657161541 30.2392
31.331719001892175 30.2522
31.35484274070538 30.4191
31.378148458819545 30.3734
31.401274828443725 30.4358
31.424402510106933 30.4429
31.447712205419993 30.4568
31.470842524931633 30.3707
31.493974159989783 30.3569
31.51710711176168 30.2253
31.54042212308802 30.2473
31.563557722100917 30.1577
31.586694641341655 30.1202
31.609832881979628 30.0198
31.63315322823208 29.9589
31.656294125521327 29.8837
31.679436347728515 29.825
31.70257989602529 29.7446
31.725905596152327 29.6646
31.74905181052835 29.5223
31.772199354521323 29.7117
31.79534822930507 29.6978
31.818679302290967 29.6679
31.84183085259981 29.6838
31.864983737233473 29.5917
31.88813795736804 29.6766
31.911474422233013 29.5735
31.934631327356435 29.5641
31.9577895715215 29.6163
31.980949155906522 29.4513
32.004291031706956 29.4325
32.027453310562606 29.4632
32.05061693318573 29.1566
32.07396288236386 29.2142
32.09712920658542 29.2521
32.12029687812702 29.0705
32.14346589817093 29.034000000000002
32.166817291729984 28.9392
32.18998902288583 28.9125
32.21316210610336 28.889
32.23633654256711 28.7297
32.259693399663725 28.6098
32.282870556771144 28.6108
32.30604907069099 28.6967
32.329228942610065 28.6545
32.35259128243769 28.3995
32.375773884550505 28.5022
32.398957848235646 28.4604
32.422143174682176 28.3367
32.445511016471215 28.278000000000002
32.468699082679954 28.2341
32.49188851523011 28.1016
32.51507931531304 28.1645
32.538452678331 28.1274
32.56164622776311 28.1574
32.58484114831493 28.0411
32.60803744118015 28.055999999999997
32.631416344731896 28.0272
32.654615396551876 28.0339
32.67781582427913 28.0134
32.701198898634416 27.9548
32.72440209253756 27.7024
32.747606665947124 27.7716
32.77081262006088 27.750999999999998
32.79420126883317 27.7212
32.81740999876112 27.7073
32.840620112999424 27.6205
32.86383161274818 27.546
32.88722585534586 27.6136
32.91044014056596 27.6671
32.933655814909734 27.5014
32.95687287957963 27.5623
32.98027273544904 27.4387
33.00349259526636 27.4279
33.026713849030116 27.4373
33.04993649794511 27.3358
33.073341986570746 27.4185
33.09656744032826 27.3467
33.11979429286444 27.3751
33.14302254538647 27.4286
33.166433686291185 27.2783
33.18966475336992 27.2358
33.212897224069096 27.1008
33.23613109959831 27.2021
33.259547912343415 27.1313
33.2827846121627 27.1641
33.306022720453775 27.1047
33.32926223842861 26.936999999999998
33.352684742614166 26.8925
33.37592709463173 26.9088
33.399170859982064 26.8482
33.422597648419426 26.8016
33.44584425514446 26.6429
33.46909227885668 26.6013
33.4923417207723 26.5237
33.51577423505344 26.5309
33.539026528130385 26.4215
33.56228024307245 26.405
33.585535381098246 26.2995
33.60897364093058 26.2533
33.63223163992385 26.3163
33.6554910656699 26.2453
33.678751919389796 26.2021
33.702195944520106 26.1548
33.72545966903325 26.0963
33.74872482519663 26.0308
33.771991414233746 26.1075
33.79544122444841 26.0719
33.81871069412428 25.9504
33.84198160035767 25.8616
33.86525394437455 25.9253
33.88870955949969 25.8778
33.911984794020626 25.89
33.93526147001624 25.8326
33.958539588715006 25.7027
33.98200102861669 25.628
34.0052820477047 25.5092
34.02856451319451 25.6578
34.05203033759056 25.5516
34.07531571090147 25.5438
34.09860253431845 25.5354
34.121890809074316 25.416999999999998
34.145362493118924 25.4771
34.16865368561615 25.4697
34.191946333164054 25.3036
34.21524043699793 25.2812
34.23871800066799 25.3279
34.26201503218366 25.2
34.28531352370466 25.249000000000002
34.30861347646881 25.1354
34.33209693978188 25.1389
34.3553998301885 25.0013
34.378704185565205 24.9659
34.402010007152356 24.8931
34.42549939016683 24.9717
34.44880815937748 24.8351
34.472118398533134 24.8393
34.49543010887669 24.7602
34.51892543169198 24.7146
34.54224009966052 24.6937
34.56555624255917 24.807
34.58887386163339 24.6822
34.61237514439016 24.5782
34.6356957311114 24.5624
34.65901779775809 24.5141
34.68252356662995 24.5399
34.705848608458616 24.5818
34.72917513396849 24.467
34.75250314440949 24.3825
34.77601490857862 24.3568
34.799345904259795 24.3038
34.82267838863559 24.2967
34.846012362958525 24.2743
34.869530142679984 24.2735
34.89286711232212 24.1907
34.91620557568269 24.0952
34.93954553401677 24.1425
34.9630693495876 24.1066
34.986412313340814 24.1307
35.00975677584668 24.1247
35.033102738362956 24.0503
35.05663261012228 23.9506
35.0799815881786 23.9285
35.10333207003229 23.9241
35.12668405694369 23.89
35.150220005273056 23.8884
35.17357501786656 23.834
35.19693153931268 23.7365
35.220289570874385 23.711
35.24383161619786 23.7691
35.267192683604904 23.8173
35.290555264930376 23.6778
35.314101899412165 23.7395
35.33746752422433 23.6901
35.36083466676374 23.6744
35.38420332829803 23.6271
35.407756095629054 23.664
35.43112781085063 23.6437
35.45450104888391 23.5593
35.477875810999194 23.5407
35.50143473172161 23.4172
35.52481255774625 23.4886
35.54819191167777 23.4312
35.57157279478914 23.3718
35.595137889488406 23.3218
35.61852184675279 23.3759
35.641907337029984 23.3781
35.665294361595684 23.2079
35.68886565090076 23.1223
35.7122557598848 23.1695
35.73564740699838 23.0632
35.759040593519934 23.0526
35.78261809810353 23.1053
35.80601437933051 23.0219
35.829412203814705 22.9174
35.85281157283719 22.8242
35.876395313415884 22.8441
35.8997977874528 22.805
35.92320180988546 22.7838
35.946790244133936 22.7926
35.97019737933222 22.7881
35.993606066789866 22.6975
36.01701630779276 22.7694
36.04061101440684 22.6547
36.06402437852291 22.6385
36.08743930005611 22.6639
36.1108557802951 22.4656
36.13445678011326 22.5701
36.15787639383515 22.4498
36.18129757014299 22.4107
36.20472031032821 22.4129
36.22832762423364 22.3372
36.25175350829375 22.3343
36.275180960119776 22.2523
36.298609981005924 22.3097
36.32222362992669 22.2991
36.34565580510207 22.1617
36.36908955323448 22.1453
36.39252487562093 22.0936
36.416144880530226 22.0743
36.43958336764275 22.0846
36.463023432914625 22.127
36.486465077645676 22.0297
36.51009145956204 22.0858
36.53353627947859 22.0539
36.55698268276811 22.049
36.58043067073321 21.8729
36.60406345072071 21.9085
36.62751462435344 21.8461
36.65096738658405 21.7586
36.67460498210655 21.7332
36.69806093788647 21.8138
36.72151848619297 21.6922
36.744977628333636 21.7344
36.76862165890998 21.5443
36.79208400512205 21.5873
36.81554794910557 21.558000000000003
36.83901349217101 21.4251
36.862663978991606 21.4422
36.88613273667352 21.4843
36.90960309738324 21.4533
36.933075062434064 21.3934
36.95673202673572 21.3441
36.98020721697122 21.3853
37.003684015502365 21.2128
37.027162423645365 21.1492
37.050825886711465 21.1618
37.07430753063053 21.1989
37.09779078812467 21.128
37.121275660513014 21.1058
37.144945643673694 20.9875
37.16843376245278 20.9986
37.19192350009803 21.0799
37.215414857931435 20.9737
37.239091382563885 20.9176
37.262585997426164 20.8695
37.28608223645736 20.8536
37.309763684451696 20.8259
37.33326318851098 20.7678
37.356764320726555 20.7599
37.380267082425526 20.7373
37.40395510942588 20.7223
37.42746114683234 20.6978
37.45096881771841 20.6474
37.474478123414166 20.6339
37.49817275092816 20.5941
37.52168534303452 20.5894
37.54519957395567 20.47
37.568715445024665 20.4911
37.592416694607714 20.4233
37.61593586281424 20.3961
37.63945667518264 20.5115
37.66297913304891 20.3629
37.68668702630454 20.3379
37.710212792059274 20.2507
37.733740207334854 20.2547
37.757269273470364 20.2903
37.780983832050374 20.2013
37.80451621684926 20.1798
37.82805025654007 20.1401
37.851585952464795 20.088
37.8753071980695 20.0911
37.89884622345676 20.0366
37.92238690911902 19.9911
37.94611318753442 20.0031
37.969657210779765 19.9762
37.99320289834801 19.9376
38.016750251586465 19.8824
38.04048325513017 19.8278
38.06403395679343 19.785999999999998
38.087586328183946 19.7321
38.11114037065203 19.721
38.13488012115898 19.7715
38.1584375229181 19.6786
38.181996599821 19.6814
38.205557353221124 19.6613
38.229303872575656 19.5979
38.2528679961576 19.5297
38.27643380031219 19.5675
38.30000128639589 19.5054
38.32375459653193 19.4364
38.34732546371299 19.4275
38.37089801690786 19.3457
38.39447225747609 19.3153
38.418232380377425 19.3506
38.441810012983396 19.4133
38.46538933705673 19.3164
38.488970353960084 19.278
38.51273731166058 19.2172
38.536321731567014 19.1869
38.55990784840681 19.1603
38.58367995004091 19.118
38.60726947812959 19.0818
38.63086070726198 19.0972
38.654453638806274 19.0806
38.678232613930824 19.0397
38.70182896773327 18.9599
38.72542702806741 18.9526
38.7490267963045 18.9067
38.77281266709232 18.8558
38.79641586862214 18.8982
38.8200207821842 18.8479
38.843627409152944 18.7508
38.86742019782782 18.7459
38.891030269149255 18.7466
38.914642058016156 18.7184
38.938255565806124 18.5989
38.96205529464307 18.6295
38.98567225787121 18.5963
39.00929094417078 18.5486
39.03291135492255 18.6093
39.05671804624804 18.5813
39.080341923549106 18.5363
39.103967529460334 18.4583
39.127594865365744 18.4549
39.15140854155791 18.3718
39.17503935514948 18.3709
39.19867190290282 18.4003
39.22249083587951 18.35
39.24612686969409 18.273
39.269764641845306 18.2857
39.293404153722804 18.2885
39.317230110864074 18.1439
39.34087311998506 18.1073
39.36451787301696 18.1175
39.388164371352595 18.0581
39.41199737518003 18.0314
39.43564738196752 18.1637
39.45929913825317 18.0518
39.48295264543308 18.0099
39.506792718520884 17.897000000000002
39.530449745387216 17.9453
39.55410852735203 17.9294
39.57776906581474 17.9395
39.60161623079 17.8953
39.625280300200025 17.8919
39.64894613032202 17.8264
39.67261372255866 17.782
39.6964680021016 17.699
39.72013913657293 17.7364
39.74381203738292 17.7568
39.76748670593756 17.6594
39.79134812278169 17.6214
39.81502634488497 17.582
39.83870633896685 17.5996
39.862388106436654 17.54
39.88625668336918 17.5346
39.90994201572829 17.5358
39.933629125719285 17.4629
39.957503091207826 17.3962
39.9811937746168 17.4289
40.00488623990914 17.3672
40.02858048850006 17.3584
40.05246165409549 17.352
40.076159487492085 17.277
40.099859108448875 17.2796
40.123560518384345 17.2342
40.1474489070226 17.1915
40.171153913178564 17.2077
40.194860712584955 17.1609
40.2185693066637 17.1877
40.242464941335314 17.0758
40.26617714307655 17.0235
40.289891143772046 17.0322
40.3136069448471 17.0257
40.33750984859743 17.0433
40.3612292688043 16.999000000000002
40.3849504936829 16.9247
40.40867352466194 16.9706
40.43258372059144 16.9315
40.45631038219906 16.8858
40.48003885420956 16.7607
40.503769138055105 16.8009
40.52768664931955 16.798
40.55142057531802 16.8346
40.57515631746428 16.7891
40.599079334038514 16.705
40.62281872700477 16.6864
40.64655994043941 16.6521
40.67030297578061 16.6877
40.69423334835778 16.6161
40.71798004609188 16.5864
40.74172857006355 16.539
40.76547892171441 16.5638
40.7894166736039 16.4883
40.813170699248566 16.508
40.83692655691388 16.4532
40.86068424804498 16.4414
40.884629402612525 16.3749
40.908390779366385 16.340999999999998
40.932153993938 16.3385
40.95591904777605 16.3408
40.979871628443995 16.3314
41.003640379561936 16.302
41.02741097430883 16.2273
41.05118341413683 16.2119
41.075143444384416 16.2123
41.098919593177826 16.1644
41.1226975914255 16.1361
41.14647744058318 16.1251
41.170444943946755 16.1143
41.19422851378379 16.0798
41.218013938914645 16.0053
41.24198706625173 15.9928
41.26577622087193 15.9983
41.289567235177785 15.9788
41.31336011063129 15.9023
41.337340752422875 15.8762
41.361137369129835 15.8565
41.38493585138705 15.8911
41.40873620066004 15.8034
41.43272438060107 15.8371
41.45652848292052 15.8201
41.48033445666918 15.7098
41.50414230331616 15.7552
41.528138045159764 15.7246
41.551949656675205 15.6284
41.575763145513235 15.6317
41.59957851314666 15.6606
41.62358184070442 15.6132
41.64740098505737 15.5429
41.6712220126409 15.5386
41.69504492493139 15.5199
41.71905586207357 15.467
41.74288256296395 15.4421
41.766711153007456 15.3788
41.79054163368412 15.3308
41.814560204340054 15.3932
41.838394485526365 15.3711
41.86223066180303 15.2908
41.88625497706819 15.3253
41.910094962812 15.2582
41.93393684811168 15.2375
41.95778063445365 15.2288
41.981812625263366 15.1625
42.00566023303407 15.1735
42.029509746323676 15.1064
42.05336116662236 15.1252
42.077400857069705 15.1236
42.10125611078846 15.0341
42.12511327600405 15.0176
42.14897235421036 15.0237
42.173019768448455 14.9964
42.19688269209613 14.9537
42.22074753323349 14.9884
42.24461429335818 14.9422
42.268669455600495 14.9044
42.292540073217886 14.8978
42.31641261433284 14.8596
42.34028708044675 14.8432
42.36435001496739 14.7826
42.38822835065557 14.7747
42.41210861586426 14.7353
42.4359908120986 14.7393
42.46006154323262 14.6695
42.48394762115317 14.6434
42.507835634632315 14.6427
42.531912233047436 14.6008
42.55580413732265 14.5942
42.579697981698 14.6035
42.60359376768525 14.557
42.62767820545945 14.5462
42.65157789440821 14.5498
42.67547952952185 14.4623
42.699383112316 14.4505
42.72347541395347 14.3968
42.74738291190531 14.39
42.771292362102166 14.4015
42.795203766063516 14.3507
42.819303956130405 14.3496
42.843219287476536 14.3235
42.86713657716324 14.261
42.89105582671383 14.249
42.91516392983864 14.1826
42.939087119032166 14.2517
42.963012272677304 14.1702
42.98693939230129 14.1527
43.01105543317513 14.0796
43.034986504731386 14.1116
43.05891954686589 14.0634
43.08285456110972 14.1127
43.10697856448665 14.0212
43.130917542983475 13.9794
43.15485849820081 13.9772
43.17880143167367 13.936
43.20293342237094 13.9491
43.226880332449 13.8879
43.25082922540554 13.9079
43.27496722682525 13.8824
43.29892010567796 13.8232
43.32287497204102 13.7937
43.34683182745632 13.7574
43.370977859791836 13.7438
43.39493871351105 13.7104
43.41890156092628 13.725
43.44286640358341 13.7092
43.46702049182749 13.624
43.49098934522816 13.585
43.51496019852649 13.6167
43.5389330532723 13.6076
43.56309522248204 13.6186
43.58707210044314 13.5713
43.61105098451946 13.5851
43.63503187626491 13.5295
43.659202151562134 13.4387
43.68318707902681 13.4652
43.70717401884041 13.4788
43.731162972560874 13.4041
43.75534137913236 13.3976
43.779334381108384 13.3623
43.803329401683186 13.3366
43.82732644241872 13.3214
43.8515130055166 13.2786
43.87551410707659 13.2298
43.89951723350145 13.2139
43.923709934595614 13.1956
43.94771713129917 13.1779
43.97172635758096 13.1922
43.99573761501002 13.1889
44.0199385169922 13.1499
44.04395385732619 13.1334
44.067971233533086 13.1008
44.09199064718605 13.0528
44.11619977548961 13.042
44.14022328470671 12.991
44.16424883610785 12.991
44.18827643127035 12.9517
44.21249381139513 12.9739
44.236525514814076 12.9224
44.26055926674478 12.8527
44.28459506876863 12.9088
44.3088207262813 12.8447
44.33286064928722 12.8248
44.35690262714919 12.8434
44.38094666145278 12.7897
44.4051806219871 12.7753
44.42922879003185 12.7703
44.45327901929361 12.7318
44.477331311362136 12.7039
44.501573600619416 12.6901
44.525630039221795 12.6634
44.54968854541895 12.6766
44.573937102200176 12.5803
44.5979997645541 12.6166
44.622064499300315 12.5714
44.64613130803592 12.5801
44.67038823869318 12.594000000000001
44.69445921643748 12.4897
44.718532272981385 12.4509
44.742607409926194 12.4652
44.76687274034801 12.4922
44.79095205918753 12.3863
44.81503346325094 12.3671
44.839116954143876 12.3938
44.86339071028742 12.3379
44.88747839599524 12.3037
44.91156817336837 12.3376
44.93566004401666 12.3642
44.959942251908146 12.2706
44.984038330325966 12.2822
45.00813650686762 12.2007
45.03223678314731 12.2358
45.05652746888232 12.1958
45.08063196592069 12.1384
45.104738567558705 12.1247
45.128847275414856 12.1465
45.15314646515866 12.0692
45.17725940679741 12.0687
45.20137445952892 12.0663
45.22568004865265 12.0109
45.24979934496396 12.0119
45.27392075725247 11.9794
45.29804428714431 11.9722
45.322358426247604 11.9465
45.346486212804315 11.8866
45.370616121861914 11.8929
45.39474815505086 11.8739
45.41907087049246 11.8378
45.4432071734666 11.8457
45.46734560548283 11.8523
45.49148616817604 11.8515
45.51581748638564 11.7741
45.5399623320197 11.7854
45.56410931325473 11.7364
45.58825843173002 11.7311
45.61259837920865 11.7073
45.636751793816 11.6616
45.66090735060093 11.6426
45.68506505120716 11.6253
45.7094136545275 11.6035
45.73357566449271 11.5507
45.75773982322992 11.5517
45.78190613238733 11.5988
45.806263418194064 11.4596
45.83043404997326 11.5331
45.85460683713677 11.5156
45.87897065658495 11.4837
45.90314777634752 11.4497
45.92732705646868 11.3926
45.9515084986045 11.4033
45.97588104735473 11.4067
46.00006683541565 11.3236
46.02425479047904 11.3628
46.04844491420549 11.311
46.0728262191024 11.3122
46.09702070211635 11.3403
46.12121735879483 11.2901
46.14541619080294 11.2696
46.169806278764455 11.2361
46.194009483459034 11.2127
46.21821486849841 11.2044
46.24242243555223 11.1352
46.266821333570014 11.1606
46.29103328674601 11.1204
46.31524742696538 11.0906
46.33946375590237 11.0992
46.36387149104216 11.0704
46.38809221957392 11.0207
46.41231514186606 11.0641
46.436540259597464 11.0496
46.460956858999374 11.014000000000001
46.48518638983522 10.9595
46.509418121166966 10.9025
46.533652054678114 10.9421
46.55807754555709 10.9442
46.58231590571962 10.9041
46.60655647313217 10.8322
46.630988654873654 10.8177
46.655233659129024 10.8142
46.67948087571551 10.8158
46.70373030632484 10.785
46.72817142736393 10.7796
46.752425308428684 10.7499
46.77668140861147 10.7215
46.80093972960865 10.6631
46.82538981736788 10.6768
46.849652602470904 10.6413
46.87391761349769 10.6549
46.8981848521493 10.6261
46.9226439341274 10.6109
46.946915650573224 10.5832
46.97118959976749 10.5489
46.99546578341598 10.5682
47.019933887188216 10.5428
47.04421456235744 10.4732
47.06849747711879 10.4463
47.09278263318286 10.4469
47.11725978640143 10.4262
47.14154944775105 10.3859
47.165841355555656 10.3855
47.1901355115306 10.353
47.214621741924994 10.4047
47.23892041698887 10.360999999999999
47.26322134538975 10.3231
47.28771440635075 10.2864
47.31201986422527 10.2951
47.33632758061436 10.2793
47.360637557241866 10.2591
47.38513974410611 10.2596
47.40945426407847 10.2215
47.43377104948137 10.2185
47.45809010204344 10.1726
47.48260144275502 10.1544
47.506925052572285 10.1228
47.53125093475548 10.0813
47.55557909103813 10.0708
47.58009961361992 10.0606
47.60443234110732 10.0902
47.62876734791564 10.02
47.65310463578333 9.98016
47.6776343683373 10.0115
47.7019762413987 9.97519
47.72632040075572 9.981119999999999
47.75066684815169 9.9656
47.77520581885936 9.959710000000001
47.799556865477655 9.89815
47.823910205386 9.881210000000001
47.84826584033272 9.867289999999999
47.87281407745551 9.85872
47.89717432569297 9.84491
47.92153687423484 9.81798
47.94609208429692 9.84273
47.97045925671401 9.786769999999999
47.99482873471275 9.7528
48.01920052005013 9.77024
48.04376504619224 9.73554
48.068141469543484 9.74565
48.09252020552573 9.715019999999999
48.11690125590099 9.65215
48.1414751266064 9.66119
48.16586082917454 9.6932
48.19024885144316 9.660810000000001
48.2146391951793 9.63445
48.239222439012764 9.64371
48.26361744916137 9.606160000000001
48.28801478610016 9.5947
48.31241445160131 9.58842
48.337007097209366 9.53378
48.36141144338331 9.555
48.38581812345755 9.502289999999999
48.41022713920929 9.53657
48.434829215320704 9.47832
48.45924292604658 9.451080000000001
48.48365897780325 9.455789999999999
48.50807737237308 9.4418
48.532688907799276 9.40747
48.55711201168574 9.38232
48.581537463754074 9.35426
48.60615611725119 9.34479
48.63058628942721 9.33799
48.65501881516546 9.31933
48.6794536962573 9.28583
48.70408185970339 9.28702
48.72852147531801 9.28224
48.75296345168211 9.21953
48.77740779059232 9.19036
48.80204549302823 9.224689999999999
48.82649458091802 9.18949
48.85094603676547 9.18019
48.87539986237231 9.14841
48.90004713292306 9.16543
48.92450572200832 9.1566
48.94896668628025 9.1271
48.97343002754588 9.09067
48.99808689542115 9.093630000000001
49.02255501470614 9.07771
49.04702551642794 9.05769
49.0714984023988 9.02217
49.096164896893235 9.01575
49.120642575466796 9.018989999999999
49.145122643748394 8.9649
49.16960510355558 8.94913
49.19428125404938 8.90495
49.2187685210852 8.93379
49.243258185121555 8.9222
49.26794160167084 8.8747
49.2924360839405 8.86394
49.31693296869764 8.83618
49.34143225776915 8.85675
49.36612538195438 8.80954
49.39062950396021 8.82835
49.41513603578346 8.78686
49.4396449792564 8.75121
49.46434784069503 8.75341
49.488861631846454 8.70472
49.513377840166804 8.6992
49.537896467493745 8.72912
49.56260909589029 8.66659
49.587132585683285 8.70429
49.611658500018365 8.63115
49.636186840738596 8.59704
49.66090926588511 8.63153
49.685442483902584 8.59196
49.70997813385706 8.55668
49.734516217597076 8.54668
49.75924846937352 8.567169999999999
49.7837914452858 8.560789999999999
49.80833686055187 8.52244
49.83288471702571 8.49206
49.85762682540054 8.44635
49.882179588965734 8.46879
49.9067347993235 8.439630000000001
49.93129245833333 8.42672
49.95604445336378 8.4182
49.98060703442832 8.37091
50.005172069746266 8.38101
50.02993150438364 8.33136
50.05450147301533 8.37256
50.07907390151433 8.32342
50.10364879174981 8.320310000000001
50.12841816587289 8.307939999999999
50.1529980044635 8.274469999999999
50.17758031042124 8.25957
50.20216508562089 8.251439999999999
50.22694442953363 8.242360000000001
50.25153416817468 8.21523
50.27612638170508 8.23922
50.300721072005196 8.193660000000001
50.325510416102105 8.19065
50.350110084975064 8.13712
50.37471223628208 8.136660000000001
50.39931687190919 8.13437
50.424116246675766 8.12204
50.44872587605249 8.11783
50.47333799543065 8.09409
50.49795260670191 8.07967
50.52276204271512 8.050469999999999
50.54738166295838 8.03837
50.57200378079314 8.01593
50.596628398116835 7.97613
50.62144792604559 7.98987
50.646077567609396 7.959789999999999
50.670709714377715 7.9582
50.69553683636198 7.96364
50.72017401885922 7.928780000000001
50.7448137122895 7.89815
50.76945591856022 7.8816
50.79429318636823 7.8867899999999995
50.818940443716784 7.862360000000001
50.84359021965163 7.8442
50.868242516085964 7.837439999999999
50.893089960641895 7.832510000000001
50.917747323549435 7.767760000000001
50.94240721271973 7.767530000000001
50.96706963007175 7.749689999999999
50.99192728239342 7.734030000000001
51.01659478166073 7.7375
51.04126481489051 7.7398
51.06593738400761 7.73261
51.090805275207074 7.712269999999999
51.11548294172845 7.66459
51.14016314993547 7.656439999999999
51.164845901758845 7.65572
51.18972406304274 7.66478
51.21441192780656 7.623530000000001
51.23910234200271 7.62448
51.2637953075678 7.60745
51.288683770237945 7.6002
51.31338186432707 7.55585
51.33808251561888 7.5355
51.362978729967345 7.53264
51.387684521509755 7.51006
51.41239287610203 7.503539999999999
51.437103795691165 7.48314
51.46201036644977 7.466539999999999
51.486726441956634 7.44492
51.51144508832545 7.438689999999999
51.536166307509156 7.41637
51.56108326624387 7.408189999999999
51.58580965706056 7.39715
51.61053862657523 7.365760000000001
51.635270176746864 7.364669999999999
51.66019755512065 7.35155
51.68493429268881 7.33015
51.70967361681515 7.30121
51.73441552946465 7.2942800000000005
51.759353359237934 7.2774
51.7841004750961 7.2611300000000005
51.80885018539685 7.250430000000001
51.833602492111254 7.244739999999999
51.8585508051424 7.258489999999999
51.883308330926425 7.23095
51.90806845906181 7.1966
51.932831191525715 7.16732
51.95779001977161 7.155660000000001
51.98255798721516 7.148280000000001
52.00732856494335 7.15485
52.03229530577543 7.12985
52.057071130455945 7.07349
52.081849571391054 7.08223
52.106630630568695 7.09616
52.13160794279417 7.05578
52.15639426492067 7.064360000000001
52.18118321127822 7.040439999999999
52.205974783860896 6.994680000000001
52.23096269971011 6.96585
52.255759551287994 7.02217
52.280559035098186 6.9672600000000005
52.30536115314103 6.99932
52.33035970494467 6.9687600000000005
52.35516711807904 6.96755
52.37997717147198 6.948869999999999
52.40478986713005 6.93228
52.42979908731974 6.908810000000001
52.454617094216 6.879910000000001
52.47943774942214 6.89204
52.50426105495102 6.861089999999999
52.529280976059844 6.795380000000001
52.554109609024096 6.80047
52.57894089837482 6.824210000000001
52.60377484613117 6.79321
52.62880550079408 6.78401
52.65364479223379 6.7556
52.67848674816189 6.74403
52.70352547971946 6.7260100000000005
52.72837279155837 6.7384
52.753222773982785 6.69285
52.778075429022984 6.6868300000000005
52.80312495150885 6.691789999999999
52.827982978797436 6.70603
52.85284368481815 6.65158
52.87770707160767 6.63903
52.90276741793998 6.61803
52.92763619336701 6.626519999999999
52.952507655698504 6.59991
52.977381806977576 6.59185
53.00245301017842 6.562130000000001
53.02733256653592 6.55842
53.052214817996074 6.53756
53.077099766608484 6.54346
53.102181859804446 6.5060400000000005
53.127072229988265 6.50785
53.15196530349892 6.4762
53.17686108239249 6.48992
53.20195409881522 6.470219999999999
53.22685531582556 6.42134
53.25175924441303 6.42322
53.27666588664027 6.39555
53.30176985962693 6.40566
53.3266819565689 6.4065199999999995
53.35159677336455 6.37625
53.376514312083096 6.36095
53.40162927507703 6.3801
53.42655228516116 6.33969
53.45147802340193 6.33477
53.47660125628886 6.3019
53.50153247842639 6.28514
53.52646643496923 6.2897
53.55140312799818 6.2861
53.576537409691696 6.2786599999999995
53.60147960336152 6.27979
53.626424539786164 6.2075
53.65137222105307 6.21131
53.67651758529126 6.24188
53.70147078399681 6.177169999999999
53.72642673383343 6.18534
53.75138543689533 6.17459
53.776541917524526 6.15747
53.801506154876755 6.16151
53.826473151763246 6.09152
53.851442910284916 6.081840000000001
53.87661054126026 6.11322
53.9015858509782 6.08284
53.92656392866066 6.07039
53.95154477641532 6.04505
53.976723591801296 6.06112
54.00171000771266 6.03076
54.02669920004598 6.01245
54.051691170915745 6.00049
54.076881204886796 5.98608
54.101878760928514 5.97501
54.12687910187696 5.93927
54.152077577768296 5.92438
54.1770835166946 5.9146
54.20209224691339 5.93621
54.22710377055121 5.92396
54.25231352511594 5.89036
54.27733066384342 5.84312
54.30235060239643 5.873069999999999
54.32737334290836 5.82475
54.35259441062629 5.812790000000001
54.377622783395324 5.79732
54.40265396455061 5.784730000000001
54.42768795623251 5.799919999999999
54.45292037169559 5.75911
54.477960012857906 5.75547
54.50300247099511 5.71528
54.52804774825457 5.74086
54.55329154616743 5.64839
54.57834249018678 5.6128599999999995
54.6033962597977 5.6527400000000005
54.6284528571545 5.624
54.653708072335164 5.57033
54.67877035378786 5.62327
54.70383546947698 5.60042
54.72890342156389 5.50504
54.7541700889442 5.50598
54.77924374251975 5.50129
54.8043202390049 5.5118
54.82959552413022 5.4516599999999995
54.8546777351945 5.42373
54.87976279569621 5.37378
54.90485070780914 5.4768099999999995
54.930137506558005 5.44515
54.95523115074295 5.40941
54.98032765308844 5.39355
55.005427015775496 5.32941
55.03072536339621 5.33875
55.05583047570572 5.2788699999999995
55.080938454927676 5.28988
55.10604930325027 5.25406
55.131359235107396 5.24621
55.15647585066083 5.206580000000001
55.181595341907496 5.20696
55.20671771104285 5.12389
55.232039262617704 5.13821
55.25716741665048 5.15722
55.28229845518636 5.18965
55.30743238042802 5.08893
55.33276558731939 5.0991800000000005
55.357905315183636 5.09166
55.383047936390035 5.05216
55.40819345314859 4.98572
55.433538351073295 5.02988
55.458689688238415 4.9808699999999995
55.483843927614096 4.91683
55.509197623043605 4.924980000000001
55.53435769621134 4.9013
55.55952067826466 4.81639
55.5846865714265 4.8383199999999995
55.61005202069737 4.81614
55.63522376553902 4.8219199999999995
55.66039842818645 4.7899400000000005
55.68557601087004 4.75004
55.7109532500271 4.68377
55.73613670233794 4.74023
