TT I
1.2716486653135266 7.981730000000001
1.2939594142134223 7.7305
1.3162702121660406 7.69889
1.3385810600174564 6.8824
1.3608919586137629 6.8574399999999995
1.383202908801069 6.7689699999999995
1.405513911425503 5.90866
1.4278249673332093 6.43922
1.4501343378461518 6.57482
1.4724455028545926 6.06107
1.4947567236847858 6.1259
1.517068001182951 6.43845
1.5393793361953272 6.0856
1.5616907295681737 6.08181
1.5840021821477681 5.362430000000001
1.60631369478041 5.070469999999999
1.6286252683124185 5.41146
1.6509369035901333 5.52316
1.6732468618895553 5.52573
1.695558623192809 5.3577900000000005
1.7178704487808514 5.51261
1.7401823395001077 5.07702
1.7625012545597203 5.17058
1.7848028405262486 5.71861
1.8071218901122095 5.4428
1.8294236121921872 4.8431
1.8517427996910911 4.86857
1.8740620574440425 4.92685
1.8963639900671978 5.02963
1.9186833908139995 5.26851
1.9409854680117449 5.6230199999999995
1.9633050151394713 5.43454
1.9856246367570705 5.19876
2.0079269371922672 5.18901
2.03024671027244 4.91115
2.0525491637446027 4.68229
2.074869091674931 4.7739400000000005
2.097171701569106 5.01129
2.1194917877373847 5.12614
2.141811954326636 4.64471
2.164114805233074 4.80414
2.186435135143035 4.87087
2.208738150935709 4.93583
2.231058647554722 4.52041
2.2533792288321184 4.4092
2.275682498336085 4.3881
2.298003251406138 4.15344
2.3203066942619714 3.70116
2.3426276225136022 4.5620199999999995
2.3649486396617507 4.30163
2.387252348930071 4.249619999999999
2.4095735463442893 3.77136
2.4318774374315884 4.028230000000001
2.4541988185014043 4.2329099999999995
2.476502894794693 4.84323
2.498824462909887 4.02605
2.521146125856138 4.17708
2.5434504863470337 4.36651
2.5657723414244717 4.50146
2.588076895590662 5.20143
2.610398946189713 5.57463
2.6327210958598384 5.14705
2.6550259469304716 5.6677800000000005
2.6773482972090137 5.71145
2.6996533504259 5.87863
2.7219759047039602 6.45287
2.744298562293959 6.12249
2.7666039251246595 6.49484
2.7889267918020164 6.762639999999999
2.8112323652516555 7.27153
2.833555444408179 7.73752
2.8558786311183852 7.55991
2.8781845268938557 7.708760000000001
2.9005079311721484 8.120610000000001
2.9228140460410397 8.088330000000001
2.9451376712799635 8.891580000000001
2.967444008632326 9.641639999999999
2.9897678582247247 10.3241
3.0120918213106695 10.6236
3.0343984987899373 10.5374
3.0567226913198637 11.4142
3.079029599759726 11.9774
3.101354025127254 12.2102
3.123678568232338 12.8663
3.145985829517914 12.9179
3.16831061055229 13.4867
3.1906181112775593 14.595
3.212943133635653 14.808
3.2352682779763207 14.9677
3.2575761442691227 15.2752
3.2799015350264273 15.7858
3.302209649240067 16.2105
3.3245352898092655 16.8358
3.3468436553365257 16.9866
3.369169549113219 16.7978
3.3914955708171384 18.3609
3.413804319727358 18.7852
3.4361305997334863 18.5852
3.4584396084414553 19.1802
3.4807661501462652 19.9989
3.503092824025881 20.1824
3.5254022288463154 20.6955
3.5477291695206588 21.2345
3.5700388426251948 21.8666
3.5923660534916446 21.909000000000002
3.6146934007816114 22.409000000000002
3.637003482731501 22.9852
3.6593311053109985 23.1179
3.681641464033634 23.0283
3.7039693653009733 23.6739
3.726297407241705 24.2374
3.7486081875460804 24.0331
3.7709365132734978 25.0366
3.793247578841633 25.7158
3.8155761917550093 25.636
3.8378875459837216 25.8076
3.8602164494827234 26.1218
3.882545499606844 27.0526
3.9048572932539183 27.5195
3.9271866390645718 28.3535
3.9494987298666713 28.6254
3.971828374764527 29.1557
3.9941581705403255 29.529
4.016470713506008 30.0861
4.038800813471445 30.6449
4.061113662089144 31.5673
4.0834440696459176 31.9893
4.105774632334751 31.9065
4.128087945865126 32.7085
4.150418821249301 33.4137
4.172732448931298 34.5265
4.195063640413578 34.6493
4.2173775856475215 35.3013
4.239709096631102 36.2855
4.262040768704612 36.2225
4.284355196706267 37.2039
4.306687193387355 37.582
4.329001947444346 38.9093
4.35133427213731 39.5365
4.373666762177566 40.3766
4.395982011761091 40.7529
4.418314834921175 42.0269
4.44063041906622 42.5025
4.4629635787515625 44.0146
4.4852969080429785 45.0511
4.5076130004776225 46.0758
4.529946671403969 46.9954
4.552263106909177 47.4539
4.574597122877047 48.5628
4.596931312711224 50.4081
4.619248269273446 51.3545
4.6415828092605835 52.543
4.663900117405352 53.7545
4.686235010953232 54.8459
4.708552674085913 56.1632
4.730887924602802 57.6302
4.753223354952695 58.9225
4.775541557023902 60.3498
4.797877349456786 62.3941
4.820195915032126 64.4907
4.842532072957498 66.0095
4.864868414979744 67.9822
4.88718753227192 70.2864
4.909524244902505 72.2773
4.931843734218147 75.0649
4.954180820867835 78.6664
4.976518095879839 82.3269
4.998838149695359 85.6745
5.021175803844231 90.1738
5.043496238205739 94.5924
5.065834274903528 100.383
5.088172504230693 107.39399999999999
5.1104935158799565 117.035
5.132832132875765 131.668
5.155153533596801 154.29399999999998
5.1774925416746225 208.305
5.199814334878411 546.066
5.2221537374521505 1933.02
5.244493338631803 3766.58
5.266815727034316 5374.06
5.289155727832427 8186.05
5.311478517248165 9585.41
5.333818921080011 6352.21
5.356159527788849 1965.81
5.3784829252032536 454.04900000000004
5.400823940070432 213.168
5.423147747031976 162.77200000000002
5.445489173474152 139.483
5.467830807066149 127.414
5.490155234831516 119.958
5.512497285125229 114.205
5.534822130975162 110.53299999999999
5.557164601388673 107.361
5.579489868738879 103.40799999999999
5.601832762690846 100.831
5.6241758697774475 99.1028
5.646501775867269 98.9233
5.668845311622074 98.21
5.691171647754637 97.1493
5.713515615597765 96.0028
5.735859800852677 95.2376
5.758186788542988 94.3912
5.780531411018185 94.6885
5.802858837297399 94.4807
5.825203900414495 95.3171
5.8475491852224 95.9902
5.869877275883075 98.1721
5.892223006467101 101.167
5.914551544266608 105.039
5.936897724049891 111.774
5.959244129804903 124.196
5.981573344815301 154.851
6.0039202049061 286.482
6.026249875609095 744.987
6.04859719346037 1379.09
6.070927323278297 1913.78
6.093275102315365 2706.73
6.115623113320588 3799.91
6.137953938319995 3972.44
6.160302415650845 2241.67
6.182633708324452 728.498
6.2049826554078376 222.81900000000002
6.227331838745022 123.064
6.249663839443684 99.7772
6.27201349767565 89.4626
6.294345974611799 82.9654
6.316696111167083 78.2786
6.339046488263839 75.2713
6.361379686074702 72.472
6.383730546639482 70.4127
6.406064229255215 68.584
6.428415576718203 67.4172
6.450749747566656 66.1576
6.47310158535871 65.2895
6.495453669698332 64.2177
6.517788579421056 62.983999999999995
6.540141159237969 61.736999999999995
6.562476565766648 61.1978
6.5848296444934045 60.7334
6.607182974060425 60.1507
6.6295191323281015 59.6722
6.651872965955752 59.0344
6.6742096296068985 58.0656
6.6965639707294615 57.8728
6.71891856698715 57.5242
6.741255995248479 56.7539
6.763611104154477 56.5269
6.785949046381137 56.153999999999996
6.808304671371482 55.7284
6.8306605557940046 55.0897
6.852999275508618 55.1231
6.875355681171544 54.6942
6.897694923437771 54.5295
6.92005185377892 54.4261
6.9423916220322655 54.4271
6.964749080490181 53.6177
6.987106804399774 53.2529
7.009447368180821 53.4569
7.031805625367033 52.8506
7.054146723727803 53.0666
7.076505517631004 52.643
7.098864581288365 52.5002
7.121206488070854 52.4917
7.143566093607822 52.2517
7.165908543567245 52.0657
7.188268694426048 51.9789
7.2106291193438095 51.6135
7.232972390625943 51.8039
7.255333366030969 51.9637
7.277677189091925 51.5676
7.300038718428332 51.8297
7.322400526130865 51.7118
7.344745183422596 51.7543
7.367107550224791 51.5908
7.389452767901992 52.1186
7.411815697249891 52.0626
7.434161478756298 51.8102
7.456524974096713 51.5992
7.478888753837185 51.8453
7.501235387657368 52.7644
7.523599738562711 55.7185
7.545946944825532 61.2106
7.568311870344528 63.1998
7.5906770845765665 59.1339
7.613025156078678 55.1724
7.635390950099687 54.3266
7.657739602662809 53.0905
7.680105979923558 53.3101
7.702472650212829 53.9978
7.724822180948224 54.0757
7.747189439655568 54.2458
7.769539560075357 53.9724
7.791907410653562 54.6282
7.81425812420825 54.7859
7.836626570110925 54.9117
7.858995315087906 55.7661
7.881346924933401 55.9832
7.903716270417482 56.4181
7.926068482028405 56.9449
7.948438431475253 57.4493
7.9708086843180235 57.5956
7.993161805171116 58.5325
8.015532667162402 59.1272
8.037886398416653 60.4356
8.060257873014221 60.5175
8.082629655331942 61.0381
8.104984308787587 61.4655
8.127356708900503 62.42
8.149711981398308 63.3952
8.172085002766314 64.2532
8.194458336181368 64.8657
8.216814543847752 66.27600000000001
8.23918850371002 67.7755
8.26154533906492 68.4576
8.283919928836452 70.4956
8.306277395339652 71.4559
8.328652618483376 73.1522
8.351028159736202 75.6802
8.373386579575245 77.8988
8.395762759396959 79.9676
8.418121819038275 83.4515
8.440498640894003 88.1466
8.462875785192262 94.8088
8.485235811156207 109.691
8.507613602688501 171.85
8.529974277114228 364.909
8.552352719347912 602.019
8.574731488360351 770.209
8.59709314210385 885.165
8.619472567021075 1096.9
8.64183487789147 1487.29
8.664214962183097 1850.43
8.686577933647762 1634.56
8.708958680784317 933.914
8.731339760774953 402.583
8.753703729764451 175.51
8.77608547780821 116.355
8.798450116065078 103.066
8.820832535634787 96.9689
8.843215292401656 93.1371
8.865580941199045 90.7009
8.887964374703538 88.8757
8.910330701447199 87.3735
8.932714815164482 86.3079
8.955099270424924 85.0004
8.977466620733543 84.6257
8.999851761421976 83.83200000000001
9.022219798361645 82.9352
9.04460562795561 82.5751
9.066991803441677 82.0678
9.089360876979615 81.9679
9.111747746589993 81.5332
9.13411751544971 80.9224
9.156505082664324 80.8882
9.178875550323522 81.2
9.20126381862328 81.4175
9.223652438908596 86.5784
9.246023961427412 95.7555
9.26841328802173 97.5675
9.290785518039224 92.1562
9.313175554425882 86.5093
9.335565947154315 82.9736
9.357939245086508 81.9581
9.380330352834827 81.6478
9.40270436697103 81.6629
9.425096193225055 81.7676
9.447488380180165 82.9078
9.469863475295412 82.677
9.492256385987508 83.3275
9.514632206018318 83.7961
9.537025843935714 84.1945
9.559402392368193 84.7114
9.581796761000229 85.4631
9.604191496441521 86.1659
9.626569144158516 86.859
9.648964615551032 87.2468
9.671343000390081 88.1726
9.693739211225699 89.6174
9.716135793237463 90.5401
9.738515290448102 91.4482
9.760912617143402 92.6172
9.783292860202891 93.7629
9.805690935076182 94.9006
9.828089385495742 96.0741
9.850470754023561 98.2333
9.872869957865444 100.79299999999999
9.89525208097539 103.51700000000001
9.917652041736662 107.34700000000001
9.940052382417589 113.351
9.962435644102392 129.466
9.984836746950979 184.40200000000002
10.007220771957746 340.276
10.029622640473708 544.141
10.052007432299963 676.0010000000001
10.074410069984072 734.836
10.096813093716005 823.87
10.119199042482517 1029.36
10.141602840636468 1374.79
10.163989564971628 1660.51
10.186394141051062 1537.37
10.208799107559706 989.9860000000001
10.231187001965623 483.515
10.253592751657669 213.995
10.275981430388155 133.474
10.298387966769793 116.178
10.320794897965431 111.07799999999999
10.343184759907361 107.286
10.36559248305461 105.24600000000001
10.387983138083852 104.57799999999999
10.410391656691655 106.535
10.432800574501677 120.385
10.455192425893369 163.1
10.47760214443012 214.171
10.499994797678786 247.611
10.522405320453982 261.376
10.54479877906917 282.512
10.567210109595656 330.23400000000004
10.5896218454736 407.069
10.612016518879773 484.603
10.634429067781074 491.80300000000005
10.656824555333241 370.10400000000004
10.679237920773568 229.237
10.701651695961992 134.41899999999998
10.724048411481384 100.71600000000001
10.746463008485165 90.0502
10.768860546937125 86.55
10.791275969274796 83.5795
10.81369180576079 81.6607
10.836090585366925 80.2384
10.858507252467449 78.8867
10.88090686379991 77.9574
10.903324365036394 77.1001
10.925724811614439 75.5781
10.948143150509463 75.3513
10.970561909719066 74.3235
10.992963615930844 73.2998
11.015383218085756 72.2967
11.037785768347074 71.3301
11.06020621697282 71.2768
11.082627090322113 70.9004
11.105030913430326 70.2339
11.12745263854165 69.4255
11.149857314510728 68.5679
11.172279894912576 68.6536
11.194702904450653 67.5838
11.217108866490921 66.8139
11.239532736615194 66.4195
11.26193956033512 66.5544
11.284364294577085 65.94
11.306789462371718 65.4731
11.329197585398376 65.2146
11.351623622610898 65.0416
11.37403261614354 64.3815
11.396459526308487 64.375
11.418869393879497 63.9546
11.441297180532617 63.5554
11.463725406927658 63.1485
11.486136592353875 62.6865
11.508565700543707 62.5021
11.530977768845315 62.6003
11.553407762368774 61.9888
11.575838200059769 62.0264
11.598251599479612 61.8097
11.620682927815501 61.8016
11.64309721895548 61.9355
11.665529441478206 61.6616
11.687962112597958 61.1099
11.710377748130886 61.4749
11.732811318753434 61.2948
11.755227854859067 61.3459
11.777662328529495 61.3236
11.800079768750786 60.8181
11.822515149015453 60.8935
11.844950984084935 61.4326
11.867369787303163 61.1761
11.889806534289491 61.4595
11.912226250487029 62.3165
11.934663912939751 63.9637
11.9571020346363 65.7381
11.979523127133968 65.5261
12.001962169624331 65.1324
12.024384183972964 64.7832
12.046824150809913 67.5381
12.069264581333726 77.1876
12.091687985297767 90.2447
12.11412934550045 101.44200000000001
12.136553680195208 107.882
12.158995973632788 111.478
12.181438735204349 117.346
12.20386447284199 129.842
12.226308172985636 150.414
12.24873485024193 176.36700000000002
12.271179492516982 189.951
12.293607112949127 179.454
12.316052700916226 138.812
12.338498763250042 98.016
12.360927805303868 74.6782
12.383374818673879 66.2471
12.405804812803074 63.9993
12.428252780773262 63.4672
12.45070122756722 63.162
12.473132656675375 62.801
12.49558206341869 62.8644
12.518014453510101 62.7405
12.540464823770117 62.8087
12.562915677315177 62.9287
12.58534951575545 63.352
12.607801338171472 63.31
12.630236146511358 63.4841
12.652688941369085 64.0204
12.675124723177234 64.1619
12.697578494048786 64.6101
12.720032754458185 64.8679
12.742470003354093 65.4046
12.764925245138771 66.0183
12.787363476431278 66.4595
12.809819703166806 66.9733
12.83227642391173 67.4309
12.854716135692716 68.15899999999999
12.877173846755147 69.1832
12.899614549869717 69.264
12.9220732548287 70.4033
12.94453245827299 70.986
12.966974655289818 72.0166
12.989434858002571 72.7857
13.011878055298721 73.9115
13.034339260862497 74.9912
13.056800969391883 76.3425
13.079245674017244 79.083
13.101708390774869 81.0849
13.12415410463411 86.0071
13.146617833206086 101.74
13.169064559883248 132.332
13.191529303857127 163.553
13.213994557076367 186.597
13.236442809902437 197.081
13.258909083908291 204.324
13.28135835851934 217.458
13.30382565690295 244.282
13.326293469022952 289.914
13.348744283242008 349.227
13.371213125129904 394.333
13.39366497011003 381.62699999999995
13.416134845360597 304.945
13.438605238843131 211.00900000000001
13.46105863690397 143.855
13.483530069144786 119.306
13.505984506951902 129.364
13.528456981549432 153.757
13.550929978879088 172.25400000000002
13.573385983253365 182.079
13.595860028340867 185.34400000000002
13.618317081455832 192.06900000000002
13.64079217790333 208.543
13.663250283359057 236.84099999999998
13.685726434770173 279.857
13.708203115221277 332.43800000000005
13.730662806148091 344.77099999999996
13.75314054697177 308.899
13.775601299246777 231.19
13.798080104050406 154.317
13.820559442405358 106.54700000000001
13.843021793671388 88.6756
13.865502201420897 82.1186
13.887965623051947 80.2834
13.910447103807167 78.9493
13.932929122629764 77.4233
13.955394156785959 76.8461
13.977877254034569 75.7063
14.000343367582113 74.6646
14.022827546871707 74.1
14.045294743423524 73.48
14.06778000837062 72.6852
14.090265817715476 72.71300000000001
14.112734645763819 72.6277
14.13522154619454 73.3678
14.157691466286913 74.176
14.180179461423874 73.3331
14.202668005486178 72.3102
14.22513957064374 71.2455
14.247629214846473 70.4543
14.270101881097517 69.7987
14.29259262906496 69.3863
14.315083930490205 68.9554
14.337558255389705 68.8257
14.360050666019726 68.7372
14.382526101071944 68.2723
14.405019624534942 68.0956
14.427513705993134 67.9471
14.449990813291825 67.984
14.47248601302899 67.9386
14.49496423954951 68.1326
14.517460561197822 68.2003
14.539939910570322 67.8478
14.562437357763558 67.9769
14.58493536931253 68.443
14.607416409993311 68.4134
14.62991555254159 68.5613
14.652397725157423 68.6992
14.674898002342799 69.0847
14.697398848433282 69.2867
14.719882725991326 70.3055
14.74238471217934 70.9179
14.764869730765593 73.734
14.787372860692983 80.3187
14.809876564079925 93.3222
14.83236330125751 106.68799999999999
14.854868153850365 116.07
14.877356041159485 121.156
14.899862046604186 122.73100000000001
14.922351087688757 126.495
14.944858249632887 134.386
14.967365991421232 147.816
14.989856770231246 166.16299999999998
15.012365673994204 191.364
15.03485761569738 209.75900000000001
15.05736768508665 204.176
15.07987833888692 178.825
15.102372032001655 140.234
15.124883856909658 102.867
15.14737872204565 82.1522
15.169891721717274 73.7321
15.192405310371893 70.9182
15.214901940621196 69.7492
15.237416709527137 68.9594
15.259914520936249 68.4739
15.282430473753607 67.7412
15.304947020131227 67.0846
15.327446610371178 66.7631
15.349964346154254 66.3504
15.372465126703139 66.2229
15.394984055556009 66.0565
15.417486030076159 66.0387
15.44000615566487 65.6517
15.462526881230803 65.3754
15.485030653812652 65.3419
15.507552581617434 65.34100000000001
15.530057557334603 65.1577
15.55258069104857 65.3522
15.575104429329837 65.6
15.597611216864632 65.4807
15.620136166564563 65.6446
15.6426441664095 66.3857
15.665170331202765 67.9361
15.687697105158826 73.3404
15.710206930593545 83.5573
15.732734925158933 94.9791
15.755245972089478 103.01700000000001
15.77777519094324 107.781
15.800287463046663 109.074
15.822817909869592 110.619
15.84534897229804 115.03200000000001
15.867863089299354 124.18799999999999
15.890395385222186 136.437
15.912910736597423 153.766
15.935444269699861 174.293
15.957978423016485 184.373
15.980495633101265 176.301
16.003031029129367 151.399
16.02554948280019 116.861
16.048086125229432 88.6468
16.070623392487107 73.2723
16.09314371869582 66.1307
16.11568223789321 63.06100000000001
16.13820381691126 61.5498
16.160743591742527 60.8972
16.183283996022084 60.0139
16.205807461423195 59.0909
16.228349126881973 58.657
16.25087385432698 58.5353
16.27341678466365 57.9677
16.29594277784926 57.5655
16.31848697676433 57.0661
16.341031811604868 56.4368
16.36355971058487 56.3863
16.3861058195587 56.1188
16.40863499352978 55.7262
16.431182380342005 55.581
16.453730407713202 55.3569
16.476261501364792 55.2017
16.498810812136167 54.9262
16.52134319004079 54.7688
16.54389378792203 54.746
16.566445031001553 54.5109
16.588979342490088 54.4805
16.61153187824822 54.3377
16.634067483263312 54.1302
16.656621315414416 54.1169
16.679175797408888 53.8335
16.701713349928728 54.1346
16.72426913389191 54.2366
16.74680798922351 54.0877
16.76936507887444 53.9417
16.791905240734874 53.896
16.814463639794468 53.9802
16.837022695210294 53.9902
16.859564824093756 54.3134
16.882125194503903 54.2701
16.904668639217885 54.4315
16.927230328348003 54.4316
16.949792678493612 54.9858
16.972338104193863 54.821000000000005
16.994901778652235 54.7047
17.017448529496576 54.9812
17.040013531998152 55.2085
17.06257920018044 55.4764
17.0851279459922 56.5858
17.107694947817667 58.6006
17.130245028099072 60.8765
17.15281336730298 62.9619
17.17536478578733 64.0933
17.19793446610687 64.7892
17.220504818648422 65.2198
17.243058251703697 65.4914
17.265629950971032 67.0141
17.288184731571736 68.9664
17.310757781306908 72.3862
17.33333150794385 75.2845
17.355888317140174 79.214
17.37846339986244 81.9265
17.401021565958885 81.0241
17.42359800851343 76.9126
17.44617513265564 70.9557
17.468735341390783 65.3964
17.491261035594565 61.458
17.51396340099364 59.3905
17.536490463869136 59.0458
17.559018209820174 58.9144
17.58154663977963 58.8023
17.604251766089718 59.0147
17.626781572227713 59.1058
17.64931206518155 59.4073
17.671843245885103 59.7063
17.69455114821572 59.6844
17.717083712612634 59.9936
17.739616967569667 60.4057
17.762150914021706 61.3371
17.78486160749854 61.49100000000001
17.807396945166804 62.1784
17.829932977143503 62.6369
17.85246970436452 63.5869
17.875183204129467 66.1278
17.897721330097664 71.6907
17.920260154126645 78.3121
17.942799677153296 83.6803
17.9655159983646 86.7553
17.988056927677544 88.32700000000001
18.010598558807683 89.2312
18.033140892692916 90.6569
18.05586005052525 93.2763
18.07840379824407 97.915
18.10094825154059 104.831
18.12366954819864 114.79799999999999
18.146215420998306 127.445
18.16876200220057 140.369
18.191309292745153 146.35299999999998
18.214033452627167 142.05
18.236582170236648 128.391
18.259131600016456 111.303
18.281681742907335 96.2025
18.304408781233683 88.2081
18.32696035875955 85.6443
18.349512652227624 86.4963
18.372065662579683 89.8335
18.394795594587553 94.7715
18.41735004715306 100.304
18.43990521943684 103.45700000000001
18.46246111238171 101.635
18.485193953325208 94.9983
18.507751296070428 85.5197
18.530309362314178 76.1351
18.552868153000343 69.2973
18.57560391815056 64.9647
18.59816416623245 63.3015
18.620725141597372 62.1581
18.643286845190268 61.3217
18.666025549835414 60.8815
18.688588718427933 60.132
18.711152618092243 60.1098
18.73389353884365 59.571000000000005
18.75645890921984 59.2773
18.77902501351406 58.8162
18.801591852673102 58.5578
18.824335739722738 58.1188
18.846904057212626 58.0806
18.8694731124168 57.6602
18.89204290628315 57.7853
18.914789774966803 57.4683
18.937361054791623 57.1336
18.959933076131318 56.918
18.982505839934877 56.8809
19.00525570560582 56.7563
19.027829963004184 56.6349
19.05040496572238 56.5851
19.072980714710468 56.5989
19.095733592739563 56.623999999999995
19.11831084296757 56.983000000000004
19.140888842324735 58.1091
19.16346759176222 59.3633
19.18622349753803 60.7638
19.208803755869358 61.6682
19.231384767143577 61.9176
19.253966532312948 62.3008
19.276725481241822 62.3389
19.29930876296784 62.8884
19.3218928014549 63.7233
19.34465404436217 65.055
19.36723960516257 66.9539
19.389825925592426 69.0232
19.412413006605938 71.3909
19.43517731967805 73.5451
19.457765930683355 74.1197
19.48035530514408 72.3224
19.50294544401556 68.2144
19.525712842708348 63.7353
19.54830451925909 59.6815
19.570896963095727 56.3186
19.593490175174704 54.8064
19.616260674962184 54.1242
19.638855432416964 53.6983
19.661450960992624 53.7368
19.68404726164677 53.4976
19.706820878021247 53.3879
19.729418731756834 53.3963
19.752017360452857 53.1681
19.77461676506804 53.3518
19.797393513540218 53.4974
19.819994478951667 53.5948
19.84259622316767 54.5541
19.8651987471481 55.7554
19.887978643247177 56.6521
19.91058273574792 57.5308
19.933187610901943 57.9676
19.955969879466828 58.3445
19.97857632894404 58.5388
20.00118356396599 58.5725
20.023791585494575 58.9925
20.046577028914875 60.3143
20.069186632506966 61.7556
20.091797025500632 64.0739
20.114408208858933 66.8791
20.137196842715273 69.8946
20.159809615886765 72.1813
20.18242318232135 72.2698
20.20503754298326 70.7971
20.227829382875154 68.3665
20.250445341109344 65.2578
20.27306209647285 62.5548
20.29567964993108 61.0825
20.31847471147704 60.6117
20.34109387027612 61.461999999999996
20.363713830075454 63.0664
20.386334591841646 64.4559
20.409132890679302 65.115
20.431755265564437 64.2023
20.454378445325528 61.9484
20.477002430930366 58.9636
20.499803982716553 55.882
20.522429589228004 53.2511
20.54505600449589 51.5753
20.567683229489194 50.8835
20.590488049900088 50.4987
20.61311690359731 50.1841
20.63574656993626 50.0844
20.658553853717297 49.6953
20.681185154618298 49.8582
20.703817271080066 49.6842
20.72645020407368 49.2637
20.749260783967177 49.0942
20.771895359337133 49.1336
20.794530754161617 49.0535
20.817166969412938 48.9688
20.83998086114876 48.9928
20.86261872660049 48.7472
20.885257415405402 48.8332
20.90789692853701 48.5923
20.930714147864748 48.3393
20.953355319030678 48.5434
20.97599731745334 48.7202
20.99864014410749 48.7118
21.021460706796564 48.8513
21.044105199328826 49.0925
21.06675052302631 49.2331
21.089396678865015 49.3988
21.112220600704806 49.4077
21.134868430275347 49.5629
21.15751709492456 49.4767
21.180166595629693 49.3357
21.202993892429635 49.6574
21.22564507473034 49.8197
21.24829709602816 50.3086
21.27112693608965 50.7778
21.293780644891275 51.403
21.316435195634053 51.4279
21.339090589297417 51.4057
21.361923832041875 51.141999999999996
21.384580921090404 50.303999999999995
21.407238856007325 49.6127
21.429897637773326 49.1415
21.45273429906592 48.7356
21.475394784108598 48.5968
21.498056118951983 48.651
21.520718304578022 48.6777
21.543558400304388 48.7154
21.566222297108816 48.7795
21.58888704765135 48.9385
21.61155265291521 49.2034
21.63439619898156 50.1572
21.657063523335786 51.2194
21.67973170537063 52.1308
21.7024007460706 52.8425
21.72524775840385 53.6086
21.747918526116475 53.9442
21.770590155457388 54.3211
21.79326264741238 54.4649
21.816113141960237 54.8198
21.838787368860547 55.5336
21.861462461341976 56.6818
21.884315579735777 58.4289
21.90699241312273 60.056999999999995
21.92967011506078 61.8953
21.95234868653799 63.9392
21.9752053151131 65.4233
21.997885635446785 66.2887
22.020566828293532 65.7118
22.04324889464272 63.3626
22.066109049404666 60.6443
22.088792872571794 58.0372
22.111477572219204 56.1839
22.1341631493376 55.6427
22.157026846313123 55.5258
22.179714188221507 56.0236
22.202402410582668 56.2129
22.22509151438863 55.982
22.24795876962584 55.102
22.270649646204486 53.7834
22.293341407213727 52.3518
22.316034053646906 51.1104
22.338904883215342 50.0727
22.36159931041458 49.4785
22.38429462602756 49.2358
22.40699083104897 48.9161
22.429865251039757 48.7953
22.452563244831367 48.9147
22.47526213102522 48.6936
22.49813925616515 48.6988
22.520839937143307 48.7251
22.543541513520587 48.8044
22.56624398629403 48.6075
22.589124730075895 48.6633
22.611829005656723 48.8261
22.63453418063466 48.8042
22.657240256008077 49.1039
22.680124634582935 49.302
22.70283252079775 50.217
22.725541310413075 50.9125
22.74825100442868 51.3022
22.771139033969575 51.8264
22.79385054687155 51.8606
22.81656296718292 51.9271
22.83927629590484 51.9364
22.862167992606945 52.22
22.88488314827121 52.5137
22.907599215359284 52.7415
22.93031619487366 53.3945
22.953211574954405 53.95
22.975930389478226 54.9072
22.998650119445763 56.1432
23.02137076586092 57.2462
23.044269845560063 57.986999999999995
23.06699233506288 58.3069
23.089715744034912 57.4148
23.112617610931565 55.8222
23.135342869061212 53.9231
23.158069049684816 52.1831
23.1807961538087 50.5669
23.20370174880544 49.6763
23.226430710184808 49.3512
23.249160598093425 49.218999999999994
23.271891413539002 49.2988
23.294800752937697 49.696000000000005
23.31753343374794 50.4604
23.340267045128353 50.9136
23.36300158808808 51.3993
23.38591468821339 51.7682
23.408651104658304 51.81
23.431388455719986 51.6476
23.454126742409 51.5952
23.4770436196085 51.7789
23.499783787914662 52.2614
23.522524894889884 52.1772
23.54526694154616 52.6541
23.56818761219047 53.547
23.59093154860734 54.5228
23.613676427751283 55.7238
23.636422250635754 56.8148
23.659346731118656 57.8007
23.68209445191868 58.0315
23.704843119509587 57.0548
23.72759273490623 55.45399999999999
23.750521041644767 53.3933
23.77327256312355 51.1785
23.796025035462787 49.1514
23.818956224555475 47.5338
23.841710609113413 46.9065
23.86446594758979 46.4757
23.887222241002014 46.0593
23.910157285144578 45.629
23.932915498962537 45.5508
23.955674670778713 45.3089
23.978434801611975 45.0845
24.001373717286125 45.0075
24.024135776723917 45.0312
24.046898798245582 44.8537
24.06966278287146 44.6461
24.092605586582614 44.3826
24.115371508023642 44.2878
24.1381383956401 44.1387
24.16090625045381 44.074
24.183852958731244 44.0674
24.206622758582608 43.9774
24.229393528706886 43.7753
24.252165270127392 43.8136
24.27511589952438 43.8084
24.297889594216997 43.6265
24.32066426328598 43.4701
24.34343990775613 43.3515
24.36639447485003 43.3264
24.38917208083877 43.1554
24.41195066531332 43.158
24.43490819850244 43.1594
24.457688750692377 42.9221
24.48047028445616 42.8225
24.503252800821233 43.1499
24.526214300784112 43.016000000000005
24.548998793132213 42.951
24.57178427117417 42.9219
24.59457073593893 43.0067
24.617536219319863 42.9327
24.64032466834748 43.1637
24.663114107195035 43.1181
24.685904536893013 42.8875
24.708874020360852 43.0276
24.731666442613744 42.903
24.754459858818787 42.6366
24.777254270007962 42.4306
24.80022777025625 42.3621
24.82302418230472 42.409
24.845821592443674 42.586999999999996
24.86862000170663 42.4589
24.891597535453727 42.4128
24.914397953892728 42.6949
24.93719937456671 42.5734
24.96000179851076 42.6079
24.98298338249997 42.7559
25.00578782394922 42.7957
25.028593271784167 42.9481
25.05157790644186 43.3629
25.07438537804115 43.3909
25.097193859145293 43.6629
25.120003350792075 43.9644
25.142992065061257 44.1188
25.165803588823465 44.2313
25.18861612625217 44.3484
25.211429678386736 44.4872
25.234422489079968 44.9118
25.257238081693636 45.1022
25.280054692141732 44.9325
25.3028723214652 44.7605
25.325869245420463 44.8488
25.348688923599397 44.7073
25.371509623787006 44.8194
25.394331347025812 44.8847
25.41733240110666 44.9226
25.440156181590016 44.8914
25.46298098826268 44.7398
25.48580682216873 44.3861
25.50881202326435 43.8712
25.53163992281684 43.1624
25.55446885274561 42.342
25.577298814096377 41.7606
25.600308179121807 41.2779
25.623140214533745 41.3191
25.64597328451537 41.0593
25.66898578564376 40.8731
25.691820936010206 40.8915
25.714657124097695 40.7663
25.737494350954734 40.7857
25.760511045684957 40.696999999999996
25.783350361364224 40.7898
25.806190718969255 40.8561
25.82903211955018 40.9244
25.852053024868923 40.9495
25.874896522722523 41.0764
25.897741066713106 40.9831
25.920586657892454 40.9278
25.943611790812668 40.9808
25.966459487728237 40.8147
25.989308234998564 40.8758
26.01215803367705 41.1609
26.03518741123814 41.0555
26.05803932412957 41.1794
26.080892291600094 41.293
26.10374631470478 41.4149
26.12677995397268 41.6139
26.14963609978026 41.9713
26.172493304397875 41.8475
26.19535156888223 42.0687
26.218389486949604 41.9468
26.241249882640123 41.6893
26.26411134137826 41.3963
26.28715248187403 41.1424
26.31001607820869 40.8394
26.3328807407756 40.8029
26.35574647063438 40.8141
26.37879191991473 40.8438
26.401659795896734 40.7135
26.424528742360263 40.8698
26.447398760366614 40.8049
26.470448535598294 40.7729
26.49332070826805 40.88
26.516193955675355 41.0596
26.53906827888316 41.2052
26.562122397260108 41.2417
26.584998883685063 41.3262
26.607876449110325 41.4508
26.63075509460056 41.5955
26.65381357334404 41.8497
26.67669439061878 41.9974
26.699576291163382 42.2908
26.722459276044212 42.5279
26.745522132402975 42.5923
26.768407297649354 42.6019
26.791293550442003 42.3393
26.814180891848974 41.9878
26.837248143099337 41.4389
26.860137673466657 41.2959
26.88302829566349 40.9267
26.90592001075963 41.0305
26.92899167420566 40.705999999999996
26.951885586870763 40.4015
26.974780595655517 40.3492
26.99785558178161 40.0741
27.020752794605112 39.8004
27.043651106772522 39.608000000000004
27.06655051935668 39.4332
27.089629948036183 39.1211
27.112531573292053 39.0
27.135434302194138 39.0373
27.158338135817015 38.9132
27.181422024430987 39.0246
27.204328079372566 38.8056
27.22723524226965 38.9377
27.250143514198573 39.0026
27.273231880156334 38.921
27.296142382065014 38.8005
27.319053996245536 38.6705
27.341966723775965 38.6413
27.365059584515222 38.7826
27.38797455070062 38.7132
27.410890633481237 38.5885
27.433807833936918 38.548
27.456905206923906 38.4995
27.47982465472398 38.5126
27.502745223449743 38.687
27.525666914182825 38.8114
27.548768816912457 38.7432
27.571692763693633 38.8208
27.59461783573812 38.8271
27.617723149491244 38.7136
27.640650484125285 38.7593
27.66357894728264 38.6984
27.686508540048052 38.694
27.709618414237887 38.6275
27.732550278321757 38.5672
27.755483275279115 38.5788
27.778417406196485 38.4365
27.801531858397514 38.4323
27.824468269376716 38.3001
27.847405817586786 38.0944
27.870344504116094 38.2314
27.893463551932008 38.3494
27.916404527281053 38.4385
27.93934664422563 38.3213
27.962289903855886 38.4748
27.98541356491974 38.6339
28.00835912214229 38.6925
28.03130582533231 38.7954
28.054253675581805 38.9386
28.077381967556104 38.9378
28.100332124185126 39.1182
28.123283431160893 39.3252
28.146235889577238 39.4183
28.169368830154156 39.3548
28.192323603752033 39.302
28.215279532083304 39.0412
28.238415973016764 38.7909
28.261374223145094 38.5718
28.284333631303806 38.3362
28.307294198589954 38.2295
28.330435319167677 38.0964
28.353398217078915 37.7483
28.376362277420153 37.6694
28.39932750129032 37.5593
28.422473319286713 37.1283
28.44544088262495 37.0737
28.468409612800283 36.7965
28.491379510913497 36.514
28.51453004413313 36.3258
28.53750229057244 36.328
28.56047570826344 36.175
28.583450298308804 36.2406
28.606605564586562 36.0106
28.629582511831156 36.0414
28.65256063474956 35.9635
28.675539934446338 36.0674
28.698699951647605 35.8493
28.72168161743193 35.7273
28.74466446331978 35.6467
28.767648490417624 35.629
28.790813276438353 35.5424
28.813799678527303 35.5614
28.836787265157085 35.3741
28.859955641890075 35.5587
28.882945610203045 35.5297
28.905936766392035 35.4623
28.928929111566863 35.4991
28.952102288520145 35.4793
28.975097024308607 35.4269
28.998092952423807 35.3915
29.021090073977508 35.3478
29.04426806913204 35.4208
29.067267590245258 35.1361
29.090268308143695 35.1064
29.11327022394099 34.9898
29.13645305530891 34.9034
29.159457379627167 34.8048
29.18246290519685 34.6877
29.20546963313352 34.4622
29.22865731875826 34.5511
29.25166646419296 34.5447
29.27467681535305 34.332
29.29768837335608 34.419000000000004
29.320880931312562 34.4323
29.34389491580634 34.4552
29.366910110507334 34.29
29.38992651653503 34.2341
29.41312396492981 34.3035
29.436142806456754 34.2648
29.45916286268059 34.1678
29.48236399319994 34.1826
29.50538649169417 34.194
29.528410208259935 34.2383
29.55143514402014 34.077
29.574641196749695 33.9
29.597668583816574 33.7587
29.6206971934585 33.452
29.64372702680042 33.4896
29.666938019934474 33.2406
29.689970313635285 33.3015
29.713003834422636 33.2394
29.73603858342347 33.1991
29.759254535188578 32.9712
29.78229175361658 32.9933
29.80533020365064 33.0503
29.82836988641968 32.9835
29.85159081507472 32.9171
29.874632976355343 32.8854
29.89767637376955 32.9679
29.920721008448314 32.7581
29.9439469322847 32.775
29.96699405457564 32.7557
29.9900424175358 32.7336
30.013092022298157 32.8043
30.03632295963995 32.6169
30.059375061131373 32.5838
30.08242840783577 32.653
30.105483000888153 32.6233
30.128718970092244 32.4874
30.151776069006917 32.4796
30.17483441768648 32.5738
30.198074175317235 32.4749
30.221135036724256 32.45
30.24419715131772 32.4909
30.267260520236203 32.4288
30.290505341942243 32.5134
30.313571232750228 32.5293
30.336638381310948 32.5438
30.35970678876503 32.5909
30.38295669299435 32.5637
30.40602763151657 32.5263
30.429099832366074 32.4512
30.452173296685572 32.3214
30.47542830191959 32.36
30.498504306502497 32.3312
30.521581577995562 32.3191
30.544660117543582 32.3024
30.56792024229725 32.2733
30.59100133132069 32.2695
30.614083691845494 32.2282
30.637167325018545 32.2694
30.660432587840603 32.260999999999996
30.683518779717886 32.141999999999996
30.70660624769615 32.2414
30.729694992924372 32.3036
30.75296541239743 32.4339
30.77605672557558 32.3277
30.799149319462742 32.4581
30.8224236211637 32.4504
30.845518789950724 32.3548
30.868615242910597 32.3012
30.891712981195973 32.0858
30.91499247215866 32.0774
30.938092794619365 31.9666
30.96119440587579 31.9313
30.984297307082752 31.7709
31.00758200598383 31.7129
31.030687500658694 31.6814
31.053794288760695 31.4966
31.076902371446767 31.4053
31.100192296997445 31.4583
31.12330298246119 31.3519
31.14641496599209 31.3013
31.169528248749216 31.194000000000003
31.19282341969534 31.3586
31.215939314557186 31.2521
31.239056512134788 31.1754
31.262175013589378 31.1898
31.28547544871168 31.1282
31.30859657161541 31.0405
31.331719001892175 31.038
31.35484274070538 31.0954
31.378148458819545 31.1182
31.401274828443725 31.0464
31.424402510106933 31.0243
31.447712205419993 31.1121
31.470842524931633 30.9723
31.493974159989783 30.9878
31.51710711176168 30.9774
31.54042212308802 31.0749
31.563557722100917 31.0916
31.586694641341655 30.956999999999997
31.609832881979628 30.9941
31.63315322823208 30.9015
31.656294125521327 30.9115
31.679436347728515 30.8159
31.70257989602529 30.7222
31.725905596152327 30.5773
31.74905181052835 30.4943
31.772199354521323 30.5531
31.79534822930507 30.3698
31.818679302290967 30.4329
31.84183085259981 30.3023
31.864983737233473 30.3347
31.88813795736804 30.3638
31.911474422233013 30.1887
31.934631327356435 30.1978
31.9577895715215 30.2922
31.980949155906522 30.2398
32.004291031706956 30.2182
32.027453310562606 30.1576
32.05061693318573 30.0609
32.07396288236386 30.1128
32.09712920658542 30.1198
32.12029687812702 29.9661
32.14346589817093 29.9482
32.166817291729984 29.9098
32.18998902288583 29.741999999999997
32.21316210610336 29.6734
32.23633654256711 29.615
32.259693399663725 29.5092
32.282870556771144 29.5088
32.30604907069099 29.5185
32.329228942610065 29.451999999999998
32.35259128243769 29.1917
32.375773884550505 29.1231
32.398957848235646 29.052
32.422143174682176 29.0728
32.445511016471215 28.9727
32.468699082679954 29.0332
32.49188851523011 28.9208
32.51507931531304 28.8454
32.538452678331 28.8223
32.56164622776311 28.704
32.58484114831493 28.639
32.60803744118015 28.7367
32.631416344731896 28.636
32.654615396551876 28.594
32.67781582427913 28.6603
32.701198898634416 28.4751
32.72440209253756 28.5064
32.747606665947124 28.4559
32.77081262006088 28.3304
32.79420126883317 28.3635
32.81740999876112 28.3323
32.840620112999424 28.3273
32.86383161274818 28.3078
32.88722585534586 28.2828
32.91044014056596 28.2555
32.933655814909734 28.2267
32.95687287957963 28.2755
32.98027273544904 28.1334
33.00349259526636 27.9958
33.026713849030116 28.1257
33.04993649794511 27.9979
33.073341986570746 27.9913
33.09656744032826 28.0553
33.11979429286444 28.0696
33.14302254538647 27.9323
33.166433686291185 27.904
33.18966475336992 27.9287
33.212897224069096 27.79
33.23613109959831 27.787
33.259547912343415 27.6855
33.2827846121627 27.7198
33.306022720453775 27.6857
33.32926223842861 27.6391
33.352684742614166 27.6362
33.37592709463173 27.5981
33.399170859982064 27.581
33.422597648419426 27.4856
33.44584425514446 27.4019
33.46909227885668 27.4357
33.4923417207723 27.2775
33.51577423505344 27.263
33.539026528130385 27.1178
33.56228024307245 27.1825
33.585535381098246 27.0932
33.60897364093058 27.0494
33.63223163992385 27.0101
33.6554910656699 26.8312
33.678751919389796 26.8266
33.702195944520106 26.7051
33.72545966903325 26.7924
33.74872482519663 26.6536
33.771991414233746 26.6773
33.79544122444841 26.6092
33.81871069412428 26.5565
33.84198160035767 26.5021
33.86525394437455 26.5526
33.88870955949969 26.4609
33.911984794020626 26.4336
33.93526147001624 26.3872
33.958539588715006 26.4386
33.98200102861669 26.3529
34.0052820477047 26.1864
34.02856451319451 26.1714
34.05203033759056 26.2734
34.07531571090147 26.2401
34.09860253431845 26.174
34.121890809074316 26.0966
34.145362493118924 26.0565
34.16865368561615 26.0721
34.191946333164054 25.9353
34.21524043699793 25.9345
34.23871800066799 25.9312
34.26201503218366 25.7376
34.28531352370466 25.6923
34.30861347646881 25.6269
34.33209693978188 25.6637
34.3553998301885 25.7317
34.378704185565205 25.643
34.402010007152356 25.4863
34.42549939016683 25.5791
34.44880815937748 25.4997
34.472118398533134 25.4356
34.49543010887669 25.4456
34.51892543169198 25.3972
34.54224009966052 25.3719
34.56555624255917 25.3438
34.58887386163339 25.1993
34.61237514439016 25.1051
34.6356957311114 25.1175
34.65901779775809 25.0433
34.68252356662995 25.0319
34.705848608458616 25.0871
34.72917513396849 24.9328
34.75250314440949 25.0688
34.77601490857862 24.9293
34.799345904259795 24.8811
34.82267838863559 24.838
34.846012362958525 24.7601
34.869530142679984 24.745
34.89286711232212 24.7217
34.91620557568269 24.7324
34.93954553401677 24.6619
34.9630693495876 24.6524
34.986412313340814 24.6189
35.00975677584668 24.5853
35.033102738362956 24.5425
35.05663261012228 24.5135
35.0799815881786 24.5683
35.10333207003229 24.506999999999998
35.12668405694369 24.4366
35.150220005273056 24.41
35.17357501786656 24.3753
35.19693153931268 24.3125
35.220289570874385 24.2583
35.24383161619786 24.3298
35.267192683604904 24.3223
35.290555264930376 24.1932
35.314101899412165 24.221999999999998
35.33746752422433 24.2523
35.36083466676374 24.2013
35.38420332829803 24.0621
35.407756095629054 24.1276
35.43112781085063 24.1199
35.45450104888391 23.9814
35.477875810999194 24.0013
35.50143473172161 23.9572
35.52481255774625 24.0695
35.54819191167777 23.9416
35.57157279478914 24.0009
35.595137889488406 23.9065
35.61852184675279 23.8951
35.641907337029984 23.8467
35.665294361595684 23.7933
35.68886565090076 23.7484
35.7122557598848 23.7101
35.73564740699838 23.7394
35.759040593519934 23.7212
35.78261809810353 23.5953
35.80601437933051 23.5133
35.829412203814705 23.4625
35.85281157283719 23.3649
35.876395313415884 23.474
35.8997977874528 23.3734
35.92320180988546 23.3839
35.946790244133936 23.2761
35.97019737933222 23.1948
35.993606066789866 23.1928
36.01701630779276 23.1826
36.04061101440684 23.1592
36.06402437852291 23.1217
36.08743930005611 23.0874
36.1108557802951 23.0199
36.13445678011326 23.0119
36.15787639383515 23.0327
36.18129757014299 22.9556
36.20472031032821 22.9692
36.22832762423364 22.8715
36.25175350829375 22.8885
36.275180960119776 22.799
36.298609981005924 22.8212
36.32222362992669 22.8534
36.34565580510207 22.8105
36.36908955323448 22.7434
36.39252487562093 22.6347
36.416144880530226 22.6294
36.43958336764275 22.5934
36.463023432914625 22.6241
36.486465077645676 22.4607
36.51009145956204 22.5929
36.53353627947859 22.4413
36.55698268276811 22.5145
36.58043067073321 22.4282
36.60406345072071 22.3534
36.62751462435344 22.3903
36.65096738658405 22.3247
36.67460498210655 22.296999999999997
36.69806093788647 22.3177
36.72151848619297 22.2152
36.744977628333636 22.1935
36.76862165890998 22.116999999999997
36.79208400512205 22.1687
36.81554794910557 22.0703
36.83901349217101 22.0236
36.862663978991606 22.0124
36.88613273667352 21.991999999999997
36.90960309738324 21.9777
36.933075062434064 21.9633
36.95673202673572 21.9088
36.98020721697122 21.8313
37.003684015502365 21.8328
37.027162423645365 21.7103
37.050825886711465 21.6656
37.07430753063053 21.6944
37.09779078812467 21.6191
37.121275660513014 21.6656
37.144945643673694 21.5892
37.16843376245278 21.6091
37.19192350009803 21.53
37.215414857931435 21.4394
37.239091382563885 21.461
37.262585997426164 21.3887
37.28608223645736 21.4547
37.309763684451696 21.3443
37.33326318851098 21.2665
37.356764320726555 21.294
37.380267082425526 21.3497
37.40395510942588 21.22
37.42746114683234 21.118000000000002
37.45096881771841 21.0989
37.474478123414166 21.1279
37.49817275092816 21.1163
37.52168534303452 21.0801
37.54519957395567 20.965999999999998
37.568715445024665 20.9715
37.592416694607714 20.9197
37.61593586281424 20.9142
37.63945667518264 20.9025
37.66297913304891 20.9009
37.68668702630454 20.8619
37.710212792059274 20.8041
37.733740207334854 20.7319
37.757269273470364 20.6992
37.780983832050374 20.605
37.80451621684926 20.6808
37.82805025654007 20.6373
37.851585952464795 20.5996
37.8753071980695 20.561999999999998
37.89884622345676 20.569000000000003
37.92238690911902 20.4582
37.94611318753442 20.3747
37.969657210779765 20.3978
37.99320289834801 20.3739
38.016750251586465 20.3853
38.04048325513017 20.3214
38.06403395679343 20.2299
38.087586328183946 20.1778
38.11114037065203 20.2613
38.13488012115898 20.2208
38.1584375229181 20.1176
38.181996599821 20.0263
38.205557353221124 20.0619
38.229303872575656 20.0728
38.2528679961576 20.0282
38.27643380031219 19.9662
38.30000128639589 19.9481
38.32375459653193 19.9695
38.34732546371299 19.9668
38.37089801690786 19.8543
38.39447225747609 19.7658
38.418232380377425 19.7612
38.441810012983396 19.7945
38.46538933705673 19.7395
38.488970353960084 19.7326
38.51273731166058 19.6498
38.536321731567014 19.6191
38.55990784840681 19.6251
38.58367995004091 19.5592
38.60726947812959 19.486
38.63086070726198 19.4932
38.654453638806274 19.4817
38.678232613930824 19.438
38.70182896773327 19.3609
38.72542702806741 19.4017
38.7490267963045 19.3626
38.77281266709232 19.3333
38.79641586862214 19.3258
38.8200207821842 19.2592
38.843627409152944 19.2656
38.86742019782782 19.2105
38.891030269149255 19.1531
38.914642058016156 19.1467
38.938255565806124 19.143
38.96205529464307 19.0971
38.98567225787121 19.0196
39.00929094417078 19.0326
39.03291135492255 19.0468
39.05671804624804 18.9735
39.080341923549106 18.9125
39.103967529460334 18.8462
39.127594865365744 18.8555
39.15140854155791 18.8784
39.17503935514948 18.8346
39.19867190290282 18.7961
39.22249083587951 18.7719
39.24612686969409 18.7105
39.269764641845306 18.7311
39.293404153722804 18.6843
39.317230110864074 18.6342
39.34087311998506 18.5924
39.36451787301696 18.5609
39.388164371352595 18.5173
39.41199737518003 18.5157
39.43564738196752 18.4868
39.45929913825317 18.4064
39.48295264543308 18.4365
39.506792718520884 18.4552
39.530449745387216 18.3863
39.55410852735203 18.3555
39.57776906581474 18.3798
39.60161623079 18.3135
39.625280300200025 18.2378
39.64894613032202 18.2103
39.67261372255866 18.2126
39.6964680021016 18.1584
39.72013913657293 18.1294
39.74381203738292 18.116
39.76748670593756 18.0886
39.79134812278169 18.113
39.81502634488497 18.0348
39.83870633896685 18.0275
39.862388106436654 17.9575
39.88625668336918 17.8792
39.90994201572829 17.9641
39.933629125719285 17.904
39.957503091207826 17.8673
39.9811937746168 17.9112
40.00488623990914 17.779
40.02858048850006 17.7936
40.05246165409549 17.7499
40.076159487492085 17.6972
40.099859108448875 17.7242
40.123560518384345 17.6725
40.1474489070226 17.6174
40.171153913178564 17.5486
40.194860712584955 17.5001
40.2185693066637 17.53
40.242464941335314 17.4886
40.26617714307655 17.4981
40.289891143772046 17.4843
40.3136069448471 17.4548
40.33750984859743 17.4653
40.3612292688043 17.3851
40.3849504936829 17.3219
40.40867352466194 17.2387
40.43258372059144 17.2818
40.45631038219906 17.3306
40.48003885420956 17.2361
40.503769138055105 17.2215
40.52768664931955 17.1879
40.55142057531802 17.1857
40.57515631746428 17.0969
40.599079334038514 17.1225
40.62281872700477 17.0689
40.64655994043941 17.0012
40.67030297578061 17.0808
40.69423334835778 17.029
40.71798004609188 16.9709
40.74172857006355 16.9082
40.76547892171441 16.8856
40.7894166736039 16.8757
40.813170699248566 16.8338
40.83692655691388 16.7716
40.86068424804498 16.8649
40.884629402612525 16.8233
40.908390779366385 16.8055
40.932153993938 16.749000000000002
40.95591904777605 16.6853
40.979871628443995 16.735
41.003640379561936 16.7171
41.02741097430883 16.6532
41.05118341413683 16.6442
41.075143444384416 16.5963
41.098919593177826 16.5371
41.1226975914255 16.5133
41.14647744058318 16.4354
41.170444943946755 16.4621
41.19422851378379 16.4216
41.218013938914645 16.4023
41.24198706625173 16.3765
41.26577622087193 16.3138
41.289567235177785 16.3622
41.31336011063129 16.3144
41.337340752422875 16.2509
41.361137369129835 16.2431
41.38493585138705 16.1975
41.40873620066004 16.2117
41.43272438060107 16.171
41.45652848292052 16.1193
41.48033445666918 16.022000000000002
41.50414230331616 16.031
41.528138045159764 15.9786
41.551949656675205 16.0068
41.575763145513235 15.9405
41.59957851314666 15.9889
41.62358184070442 15.9181
41.64740098505737 15.8965
41.6712220126409 15.8758
41.69504492493139 15.852
41.71905586207357 15.8183
41.74288256296395 15.7734
41.766711153007456 15.7996
41.79054163368412 15.8134
41.814560204340054 15.7623
41.838394485526365 15.7035
41.86223066180303 15.6994
41.88625497706819 15.6701
41.910094962812 15.6518
41.93393684811168 15.6232
41.95778063445365 15.5748
41.981812625263366 15.5502
42.00566023303407 15.495999999999999
42.029509746323676 15.472999999999999
42.05336116662236 15.4866
42.077400857069705 15.4662
42.10125611078846 15.4565
42.12511327600405 15.4531
42.14897235421036 15.3508
42.173019768448455 15.3394
42.19688269209613 15.3822
42.22074753323349 15.3039
42.24461429335818 15.2251
42.268669455600495 15.2083
42.292540073217886 15.2123
42.31641261433284 15.2115
42.34028708044675 15.1636
42.36435001496739 15.0983
42.38822835065557 15.1281
42.41210861586426 15.0747
42.4359908120986 15.1059
42.46006154323262 15.0011
42.48394762115317 15.0053
42.507835634632315 14.9901
42.531912233047436 14.9578
42.55580413732265 14.9198
42.579697981698 14.8979
42.60359376768525 14.879000000000001
42.62767820545945 14.8385
42.65157789440821 14.8568
42.67547952952185 14.8107
42.699383112316 14.8106
42.72347541395347 14.7416
42.74738291190531 14.7303
42.771292362102166 14.7221
42.795203766063516 14.6508
42.819303956130405 14.6503
42.843219287476536 14.609000000000002
42.86713657716324 14.5751
42.89105582671383 14.5769
42.91516392983864 14.53
42.939087119032166 14.4808
42.963012272677304 14.5082
42.98693939230129 14.4874
43.01105543317513 14.4895
43.034986504731386 14.4602
43.05891954686589 14.4186
43.08285456110972 14.398
43.10697856448665 14.3866
43.130917542983475 14.2938
43.15485849820081 14.3215
43.17880143167367 14.2746
43.20293342237094 14.1941
43.226880332449 14.1997
43.25082922540554 14.2521
43.27496722682525 14.1768
43.29892010567796 14.1298
43.32287497204102 14.0835
43.34683182745632 14.0842
43.370977859791836 14.0373
43.39493871351105 14.0749
43.41890156092628 14.0408
43.44286640358341 13.9932
43.46702049182749 13.9535
43.49098934522816 13.9441
43.51496019852649 13.9296
43.5389330532723 13.9189
43.56309522248204 13.8768
43.58707210044314 13.8533
43.61105098451946 13.8296
43.63503187626491 13.84
43.659202151562134 13.8147
43.68318707902681 13.7756
43.70717401884041 13.7821
43.731162972560874 13.7074
43.75534137913236 13.6854
43.779334381108384 13.6317
43.803329401683186 13.6589
43.82732644241872 13.6512
43.8515130055166 13.6069
43.87551410707659 13.552999999999999
43.89951723350145 13.5979
43.923709934595614 13.5324
43.94771713129917 13.4816
43.97172635758096 13.4923
43.99573761501002 13.4505
44.0199385169922 13.3974
44.04395385732619 13.4066
44.067971233533086 13.4126
44.09199064718605 13.374
44.11619977548961 13.3275
44.14022328470671 13.2643
44.16424883610785 13.2798
44.18827643127035 13.2936
44.21249381139513 13.2732
44.236525514814076 13.2107
44.26055926674478 13.2302
44.28459506876863 13.217
44.3088207262813 13.1715
44.33286064928722 13.1428
44.35690262714919 13.0906
44.38094666145278 13.0668
44.4051806219871 13.1153
44.42922879003185 13.0286
44.45327901929361 13.0097
44.477331311362136 12.9862
44.501573600619416 12.9584
44.525630039221795 12.9766
44.54968854541895 12.9415
44.573937102200176 12.9626
44.5979997645541 12.8875
44.622064499300315 12.815
44.64613130803592 12.8104
44.67038823869318 12.863
44.69445921643748 12.8298
44.718532272981385 12.7707
44.742607409926194 12.7328
44.76687274034801 12.7054
44.79095205918753 12.7065
44.81503346325094 12.6745
44.839116954143876 12.6229
44.86339071028742 12.6476
44.88747839599524 12.6162
44.91156817336837 12.6224
44.93566004401666 12.6013
44.959942251908146 12.5507
44.984038330325966 12.5764
45.00813650686762 12.5126
45.03223678314731 12.4848
45.05652746888232 12.4296
45.08063196592069 12.4256
45.104738567558705 12.4511
45.128847275414856 12.3855
45.15314646515866 12.302
45.17725940679741 12.3424
45.20137445952892 12.3427
45.22568004865265 12.3621
45.24979934496396 12.2507
45.27392075725247 12.2248
45.29804428714431 12.2822
45.322358426247604 12.2552
45.346486212804315 12.2183
45.370616121861914 12.1849
45.39474815505086 12.1696
45.41907087049246 12.1355
45.4432071734666 12.1158
45.46734560548283 12.1102
45.49148616817604 12.105
45.51581748638564 12.0436
45.5399623320197 12.0675
45.56410931325473 12.0369
45.58825843173002 12.0059
45.61259837920865 11.9765
45.636751793816 11.9221
45.66090735060093 11.9243
45.68506505120716 11.8661
45.7094136545275 11.8487
45.73357566449271 11.8356
45.75773982322992 11.8242
45.78190613238733 11.8044
45.806263418194064 11.7837
45.83043404997326 11.7856
45.85460683713677 11.7557
45.87897065658495 11.672
45.90314777634752 11.6872
45.92732705646868 11.655
45.9515084986045 11.6913
45.97588104735473 11.6424
46.00006683541565 11.6175
46.02425479047904 11.612
46.04844491420549 11.5812
46.0728262191024 11.5408
46.09702070211635 11.5402
46.12121735879483 11.5169
46.14541619080294 11.495
46.169806278764455 11.5294
46.194009483459034 11.4714
46.21821486849841 11.4096
46.24242243555223 11.4137
46.266821333570014 11.4258
46.29103328674601 11.4096
46.31524742696538 11.3582
46.33946375590237 11.3144
46.36387149104216 11.3533
46.38809221957392 11.2966
46.41231514186606 11.2786
46.436540259597464 11.2617
46.460956858999374 11.2333
46.48518638983522 11.1727
46.509418121166966 11.159
46.533652054678114 11.1556
46.55807754555709 11.1605
46.58231590571962 11.1094
46.60655647313217 11.0827
46.630988654873654 11.0636
46.655233659129024 11.0707
46.67948087571551 11.0588
46.70373030632484 11.008
46.72817142736393 11.0279
46.752425308428684 10.9835
46.77668140861147 10.9833
46.80093972960865 10.9343
46.82538981736788 10.9099
46.849652602470904 10.9042
46.87391761349769 10.9231
46.8981848521493 10.8352
46.9226439341274 10.8512
46.946915650573224 10.8349
46.97118959976749 10.7815
46.99546578341598 10.7885
47.019933887188216 10.783
47.04421456235744 10.7769
47.06849747711879 10.7374
47.09278263318286 10.7135
47.11725978640143 10.7218
47.14154944775105 10.6749
47.165841355555656 10.6303
47.1901355115306 10.624
47.214621741924994 10.5744
47.23892041698887 10.6043
47.26322134538975 10.5559
47.28771440635075 10.5565
47.31201986422527 10.5205
47.33632758061436 10.5152
47.360637557241866 10.4992
47.38513974410611 10.4559
47.40945426407847 10.4251
47.43377104948137 10.4431
47.45809010204344 10.4254
47.48260144275502 10.3282
47.506925052572285 10.38
47.53125093475548 10.328
47.55557909103813 10.3141
47.58009961361992 10.2941
47.60443234110732 10.2954
47.62876734791564 10.2897
47.65310463578333 10.2347
47.6776343683373 10.2521
47.7019762413987 10.2116
47.72632040075572 10.2296
47.75066684815169 10.2297
47.77520581885936 10.1813
47.799556865477655 10.1286
47.823910205386 10.1355
47.84826584033272 10.1106
47.87281407745551 10.0485
47.89717432569297 10.0629
47.92153687423484 10.0763
47.94609208429692 10.0503
47.97045925671401 10.01
47.99482873471275 9.96269
48.01920052005013 9.994439999999999
48.04376504619224 9.9665
48.068141469543484 9.97102
48.09252020552573 9.97545
48.11690125590099 9.91997
48.1414751266064 9.89356
48.16586082917454 9.84351
48.19024885144316 9.85277
48.2146391951793 9.84559
48.239222439012764 9.83489
48.26361744916137 9.82426
48.28801478610016 9.7858
48.31241445160131 9.76613
48.337007097209366 9.74906
48.36141144338331 9.74681
48.38581812345755 9.72283
48.41022713920929 9.72185
48.434829215320704 9.6697
48.45924292604658 9.673869999999999
48.48365897780325 9.65485
48.50807737237308 9.62566
48.532688907799276 9.65225
48.55711201168574 9.62225
48.581537463754074 9.54835
48.60615611725119 9.576319999999999
48.63058628942721 9.55803
48.65501881516546 9.54527
48.6794536962573 9.53476
48.70408185970339 9.534289999999999
48.72852147531801 9.47516
48.75296345168211 9.42608
48.77740779059232 9.45889
48.80204549302823 9.50784
48.82649458091802 9.43262
48.85094603676547 9.39343
48.87539986237231 9.39715
48.90004713292306 9.34436
48.92450572200832 9.34313
48.94896668628025 9.34805
48.97343002754588 9.31743
48.99808689542115 9.289639999999999
49.02255501470614 9.282169999999999
49.04702551642794 9.239460000000001
49.0714984023988 9.239289999999999
49.096164896893235 9.27631
49.120642575466796 9.19845
49.145122643748394 9.18407
49.16960510355558 9.15698
49.19428125404938 9.126510000000001
49.2187685210852 9.13713
49.243258185121555 9.14175
49.26794160167084 9.08791
49.2924360839405 9.06188
49.31693296869764 9.03397
49.34143225776915 9.0606
49.36612538195438 8.97984
49.39062950396021 9.02069
49.41513603578346 8.98445
49.4396449792564 8.9989
49.46434784069503 8.95527
49.488861631846454 8.92715
49.513377840166804 8.922239999999999
49.537896467493745 8.890189999999999
49.56260909589029 8.89349
49.587132585683285 8.880889999999999
49.611658500018365 8.81552
49.636186840738596 8.80466
49.66090926588511 8.80818
49.685442483902584 8.81582
49.70997813385706 8.74613
49.734516217597076 8.74128
49.75924846937352 8.765989999999999
49.7837914452858 8.72433
49.80833686055187 8.70166
49.83288471702571 8.67798
49.85762682540054 8.70819
49.882179588965734 8.65362
49.9067347993235 8.615310000000001
49.93129245833333 8.636560000000001
49.95604445336378 8.60789
49.98060703442832 8.6038
50.005172069746266 8.5524
50.02993150438364 8.57575
50.05450147301533 8.5552
50.07907390151433 8.557269999999999
50.10364879174981 8.51957
50.12841816587289 8.51945
50.1529980044635 8.51265
50.17758031042124 8.492339999999999
50.20216508562089 8.44862
50.22694442953363 8.43621
50.25153416817468 8.4385
50.27612638170508 8.38216
50.300721072005196 8.368139999999999
50.325510416102105 8.37198
50.350110084975064 8.34398
50.37471223628208 8.37181
50.39931687190919 8.306339999999999
50.424116246675766 8.298630000000001
50.44872587605249 8.31135
50.47333799543065 8.29915
50.49795260670191 8.24821
50.52276204271512 8.22439
50.54738166295838 8.23932
50.57200378079314 8.19467
50.596628398116835 8.21908
50.62144792604559 8.187330000000001
50.646077567609396 8.15767
50.670709714377715 8.17164
50.69553683636198 8.14114
50.72017401885922 8.13454
50.7448137122895 8.1291
50.76945591856022 8.09116
50.79429318636823 8.050980000000001
50.818940443716784 8.071539999999999
50.84359021965163 8.07652
50.868242516085964 8.01544
50.893089960641895 8.011610000000001
50.917747323549435 7.9797199999999995
50.94240721271973 8.00807
50.96706963007175 7.998139999999999
50.99192728239342 7.96466
51.01659478166073 7.95827
51.04126481489051 7.93233
51.06593738400761 7.878430000000001
51.090805275207074 7.8508
51.11548294172845 7.90574
51.14016314993547 7.84928
51.164845901758845 7.848089999999999
51.18972406304274 7.817830000000001
51.21441192780656 7.817989999999999
51.23910234200271 7.79356
51.2637953075678 7.77406
51.288683770237945 7.78159
51.31338186432707 7.75409
51.33808251561888 7.72876
51.362978729967345 7.72967
51.387684521509755 7.736610000000001
51.41239287610203 7.67098
51.437103795691165 7.65769
51.46201036644977 7.656210000000001
51.486726441956634 7.62288
51.51144508832545 7.620089999999999
51.536166307509156 7.59881
51.56108326624387 7.59468
51.58580965706056 7.542269999999999
51.61053862657523 7.55132
51.635270176746864 7.51852
51.66019755512065 7.52212
51.68493429268881 7.4855
51.70967361681515 7.49533
51.73441552946465 7.48872
51.759353359237934 7.47279
51.7841004750961 7.4659
51.80885018539685 7.46634
51.833602492111254 7.44327
51.8585508051424 7.42022
51.883308330926425 7.377269999999999
51.90806845906181 7.325419999999999
51.932831191525715 7.31513
51.95779001977161 7.314660000000001
51.98255798721516 7.285489999999999
52.00732856494335 7.23468
52.03229530577543 7.2867
52.057071130455945 7.280360000000001
52.081849571391054 7.235930000000001
52.106630630568695 7.22812
52.13160794279417 7.22545
52.15639426492067 7.22125
52.18118321127822 7.20419
52.205974783860896 7.172560000000001
52.23096269971011 7.170730000000001
52.255759551287994 7.189539999999999
52.280559035098186 7.140039999999999
52.30536115314103 7.114960000000001
52.33035970494467 7.1088
52.35516711807904 7.09686
52.37997717147198 7.05728
52.40478986713005 7.0919300000000005
52.42979908731974 7.0479
52.454617094216 7.04842
52.47943774942214 7.0604
52.50426105495102 7.0141800000000005
52.529280976059844 7.00505
52.554109609024096 7.00121
52.57894089837482 6.9547
52.60377484613117 6.95483
52.62880550079408 6.92536
52.65364479223379 6.9172899999999995
52.67848674816189 6.89717
52.70352547971946 6.91546
52.72837279155837 6.91585
52.753222773982785 6.88255
52.778075429022984 6.85882
52.80312495150885 6.819939999999999
52.827982978797436 6.83575
52.85284368481815 6.8228100000000005
52.87770707160767 6.8087100000000005
52.90276741793998 6.812819999999999
52.92763619336701 6.781630000000001
52.952507655698504 6.76496
52.977381806977576 6.74745
53.00245301017842 6.7074
53.02733256653592 6.68743
53.052214817996074 6.68513
53.077099766608484 6.6993
53.102181859804446 6.65901
53.127072229988265 6.67425
53.15196530349892 6.65313
53.17686108239249 6.617999999999999
53.20195409881522 6.612360000000001
53.22685531582556 6.58351
53.25175924441303 6.54475
53.27666588664027 6.57867
53.30176985962693 6.57959
53.3266819565689 6.54716
53.35159677336455 6.52436
53.376514312083096 6.536919999999999
53.40162927507703 6.52758
53.42655228516116 6.45906
53.45147802340193 6.47369
53.47660125628886 6.46579
53.50153247842639 6.42575
53.52646643496923 6.43225
53.55140312799818 6.39588
53.576537409691696 6.41228
53.60147960336152 6.39468
53.626424539786164 6.379
53.65137222105307 6.368130000000001
53.67651758529126 6.31934
53.70147078399681 6.30535
53.72642673383343 6.31451
53.75138543689533 6.30505
53.776541917524526 6.27076
53.801506154876755 6.27682
53.826473151763246 6.26802
53.851442910284916 6.23916
53.87661054126026 6.282719999999999
53.9015858509782 6.22625
53.92656392866066 6.1804
53.95154477641532 6.21864
53.976723591801296 6.2199
54.00171000771266 6.1877699999999995
54.02669920004598 6.1649199999999995
54.051691170915745 6.133830000000001
54.076881204886796 6.1279900000000005
54.101878760928514 6.11404
54.12687910187696 6.10527
54.152077577768296 6.084980000000001
54.1770835166946 6.04639
54.20209224691339 6.0283
54.22710377055121 6.02643
54.25231352511594 6.01394
54.27733066384342 5.99883
54.30235060239643 6.02364
54.32737334290836 5.95654
54.35259441062629 5.94179
54.377622783395324 5.92115
54.40265396455061 5.88211
54.42768795623251 5.89248
54.45292037169559 5.83835
54.477960012857906 5.845680000000001
54.50300247099511 5.82573
54.52804774825457 5.75024
54.55329154616743 5.74765
54.57834249018678 5.7673
54.6033962597977 5.746519999999999
54.6284528571545 5.68007
54.653708072335164 5.6706199999999995
54.67877035378786 5.71307
54.70383546947698 5.62879
54.72890342156389 5.58425
54.7541700889442 5.60456
54.77924374251975 5.57339
54.8043202390049 5.54017
54.82959552413022 5.49034
54.8546777351945 5.53327
54.87976279569621 5.4754
54.90485070780914 5.54671
54.930137506558005 5.43966
54.95523115074295 5.42957
54.98032765308844 5.4002099999999995
55.005427015775496 5.36712
55.03072536339621 5.38384
55.05583047570572 5.35001
55.080938454927676 5.3503300000000005
55.10604930325027 5.357469999999999
55.131359235107396 5.31619
55.15647585066083 5.21559
55.181595341907496 5.19102
55.20671771104285 5.16381
55.232039262617704 5.17201
55.25716741665048 5.16516
55.28229845518636 5.14226
55.30743238042802 5.12395
55.33276558731939 5.07075
55.357905315183636 5.06003
55.383047936390035 4.99252
55.40819345314859 5.00263
55.433538351073295 5.05428
55.458689688238415 5.00344
55.483843927614096 4.95286
55.509197623043605 4.927919999999999
55.53435769621134 4.90224
55.55952067826466 4.89679
55.5846865714265 4.86294
55.61005202069737 4.797280000000001
55.63522376553902 4.79783
55.66039842818645 4.84466
55.68557601087004 4.80642
55.7109532500271 4.707319999999999
55.73613670233794 4.75099
