TT I
1.2716486653135266 7.938160000000001
1.2939594142134223 7.03242
1.3162702121660406 6.1384
1.3385810600174564 6.67922
1.3608919586137629 6.387490000000001
1.383202908801069 6.40561
1.405513911425503 6.376469999999999
1.4278249673332093 6.5627699999999995
1.4501343378461518 6.3705300000000005
1.4724455028545926 5.58408
1.4947567236847858 6.26233
1.517068001182951 6.31316
1.5393793361953272 6.1318
1.5616907295681737 6.15258
1.5840021821477681 5.49939
1.60631369478041 4.8329
1.6286252683124185 5.61346
1.6509369035901333 4.7186
1.6732468618895553 5.018759999999999
1.695558623192809 5.019080000000001
1.7178704487808514 5.11632
1.7401823395001077 5.19833
1.7625012545597203 5.31529
1.7848028405262486 4.73106
1.8071218901122095 4.95067
1.8294236121921872 4.36811
1.8517427996910911 4.45129
1.8740620574440425 4.80227
1.8963639900671978 4.80771
1.9186833908139995 5.0554
1.9409854680117449 5.0559400000000005
1.9633050151394713 5.19564
1.9856246367570705 4.45576
2.0079269371922672 4.91518
2.03024671027244 5.10881
2.0525491637446027 4.44369
2.074869091674931 5.02208
2.097171701569106 4.41169
2.1194917877373847 4.76917
2.141811954326636 5.31495
2.164114805233074 5.1328
2.186435135143035 6.701110000000001
2.208738150935709 14.4476
2.231058647554722 29.3556
2.2533792288321184 22.0044
2.275682498336085 10.1139
2.298003251406138 5.724480000000001
2.3203066942619714 5.47398
2.3426276225136022 5.38732
2.3649486396617507 5.856990000000001
2.387252348930071 6.101030000000001
2.4095735463442893 6.42026
2.4318774374315884 6.15953
2.4541988185014043 6.39471
2.476502894794693 6.70856
2.498824462909887 6.4203
2.521146125856138 6.59998
2.5434504863470337 6.9366
2.5657723414244717 7.469339999999999
2.588076895590662 7.652260000000001
2.610398946189713 8.08463
2.6327210958598384 7.6951600000000004
2.6550259469304716 7.665789999999999
2.6773482972090137 7.62737
2.6996533504259 7.76065
2.7219759047039602 8.04818
2.744298562293959 8.40511
2.7666039251246595 7.79856
2.7889267918020164 8.44811
2.8112323652516555 8.06627
2.833555444408179 7.8871899999999995
2.8558786311183852 8.16607
2.8781845268938557 9.02012
2.9005079311721484 8.97938
2.9228140460410397 8.85488
2.9451376712799635 9.62478
2.967444008632326 9.55935
2.9897678582247247 9.89823
3.0120918213106695 10.3031
3.0343984987899373 10.703
3.0567226913198637 10.9966
3.079029599759726 11.5592
3.101354025127254 13.3604
3.123678568232338 12.7878
3.145985829517914 13.3607
3.16831061055229 13.7503
3.1906181112775593 14.7544
3.212943133635653 15.0839
3.2352682779763207 14.9565
3.2575761442691227 15.4338
3.2799015350264273 16.1744
3.302209649240067 15.9267
3.3245352898092655 16.8695
3.3468436553365257 17.8064
3.369169549113219 18.2539
3.3914955708171384 19.2749
3.413804319727358 19.5624
3.4361305997334863 19.2174
3.4584396084414553 19.4838
3.4807661501462652 20.2828
3.503092824025881 21.0148
3.5254022288463154 21.6038
3.5477291695206588 22.0841
3.5700388426251948 23.1434
3.5923660534916446 24.2697
3.6146934007816114 39.4614
3.637003482731501 92.6479
3.6593311053109985 103.056
3.681641464033634 58.7822
3.7039693653009733 31.1047
3.726297407241705 26.355
3.7486081875460804 25.685
3.7709365132734978 26.6154
3.793247578841633 26.8689
3.8155761917550093 26.9751
3.8378875459837216 27.3303
3.8602164494827234 27.6527
3.882545499606844 28.8032
3.9048572932539183 29.406999999999996
3.9271866390645718 29.6762
3.9494987298666713 30.1856
3.971828374764527 30.7257
3.9941581705403255 31.2494
4.016470713506008 31.0577
4.038800813471445 32.5764
4.061113662089144 33.0367
4.0834440696459176 33.6464
4.105774632334751 34.0818
4.128087945865126 34.885999999999996
4.150418821249301 35.7401
4.172732448931298 37.5372
4.195063640413578 38.9821
4.2173775856475215 43.2732
4.239709096631102 76.283
4.262040768704612 246.808
4.284355196706267 336.283
4.306687193387355 215.52
4.329001947444346 83.1092
4.35133427213731 48.7673
4.373666762177566 44.9879
4.395982011761091 44.4503
4.418314834921175 46.0437
4.44063041906622 54.2201
4.4629635787515625 66.5046
4.4852969080429785 65.6117
4.5076130004776225 54.7794
4.529946671403969 50.918
4.552263106909177 50.4669
4.574597122877047 50.9713
4.596931312711224 52.7728
4.619248269273446 53.7181
4.6415828092605835 54.6632
4.663900117405352 56.3188
4.686235010953232 57.0962
4.708552674085913 58.1783
4.730887924602802 60.0574
4.753223354952695 61.2778
4.775541557023902 62.6194
4.797877349456786 64.1317
4.820195915032126 66.4648
4.842532072957498 67.6808
4.864868414979744 69.7961
4.88718753227192 71.6601
4.909524244902505 74.1164
4.931843734218147 75.8381
4.954180820867835 78.6594
4.976518095879839 81.5934
4.998838149695359 84.3949
5.021175803844231 87.7722
5.043496238205739 91.2899
5.065834274903528 96.2186
5.088172504230693 101.051
5.1104935158799565 108.109
5.132832132875765 132.00799999999998
5.155153533596801 178.49099999999999
5.1774925416746225 214.542
5.199814334878411 374.712
5.2221537374521505 1070.66
5.244493338631803 2940.84
5.266815727034316 7644.73
5.289155727832427 12343.4
5.311478517248165 9185.36
5.333818921080011 3168.45
5.356159527788849 644.857
5.3784829252032536 199.575
5.400823940070432 148.513
5.423147747031976 131.248
5.445489173474152 120.181
5.467830807066149 114.01100000000001
5.490155234831516 110.415
5.512497285125229 106.54799999999999
5.534822130975162 104.915
5.557164601388673 102.749
5.579489868738879 100.287
5.601832762690846 99.5302
5.6241758697774475 98.5238
5.646501775867269 97.5371
5.668845311622074 95.6809
5.691171647754637 95.1552
5.713515615597765 93.7208
5.735859800852677 93.0106
5.758186788542988 91.9926
5.780531411018185 92.1503
5.802858837297399 91.72
5.825203900414495 92.1037
5.8475491852224 92.6525
5.869877275883075 92.587
5.892223006467101 94.6146
5.914551544266608 96.1403
5.936897724049891 98.5968
5.959244129804903 104.415
5.981573344815301 124.074
6.0039202049061 216.235
6.026249875609095 475.853
6.04859719346037 1003.91
6.070927323278297 2194.13
6.093275102315365 4333.72
6.115623113320588 5349.89
6.137953938319995 3359.21
6.160302415650845 1088.92
6.182633708324452 259.132
6.2049826554078376 117.84700000000001
6.227331838745022 94.84299999999999
6.249663839443684 86.9526
6.27201349767565 83.69
6.294345974611799 90.295
6.316696111167083 102.835
6.339046488263839 97.2112
6.361379686074702 81.2327
6.383730546639482 72.5844
6.406064229255215 69.7781
6.428415576718203 68.965
6.450749747566656 67.9713
6.47310158535871 66.5675
6.495453669698332 66.025
6.517788579421056 65.3565
6.540141159237969 64.2574
6.562476565766648 63.9301
6.5848296444934045 63.1244
6.607182974060425 63.0162
6.6295191323281015 63.2641
6.651872965955752 66.807
6.6742096296068985 94.4257
6.6965639707294615 143.986
6.71891856698715 143.838
6.741255995248479 97.3852
6.763611104154477 69.2038
6.785949046381137 60.9257
6.808304671371482 59.0019
6.8306605557940046 58.4427
6.852999275508618 57.9038
6.875355681171544 57.269
6.897694923437771 57.1649
6.92005185377892 57.2139
6.9423916220322655 57.3176
6.964749080490181 56.4411
6.987106804399774 56.2446
7.009447368180821 56.2018
7.031805625367033 56.0043
7.054146723727803 55.8986
7.076505517631004 55.1444
7.098864581288365 55.5235
7.121206488070854 55.6735
7.143566093607822 55.6126
7.165908543567245 55.8309
7.188268694426048 55.8462
7.2106291193438095 56.0983
7.232972390625943 57.4227
7.255333366030969 69.9913
7.277677189091925 128.161
7.300038718428332 179.519
7.322400526130865 151.658
7.344745183422596 92.4819
7.367107550224791 62.852
7.389452767901992 57.0681
7.411815697249891 55.6777
7.434161478756298 54.8006
7.456524974096713 54.8552
7.478888753837185 54.8218
7.501235387657368 55.1657
7.523599738562711 55.4882
7.545946944825532 55.5613
7.568311870344528 55.9091
7.5906770845765665 56.0059
7.613025156078678 57.1904
7.635390950099687 58.9359
7.657739602662809 57.8575
7.680105979923558 56.4488
7.702472650212829 56.7412
7.724822180948224 56.3887
7.747189439655568 56.6392
7.769539560075357 56.4589
7.791907410653562 56.9729
7.81425812420825 57.0808
7.836626570110925 57.2277
7.858995315087906 58.2305
7.881346924933401 58.1821
7.903716270417482 58.58
7.926068482028405 58.8259
7.948438431475253 59.6142
7.9708086843180235 60.3693
7.993161805171116 61.2939
8.015532667162402 61.2366
8.037886398416653 62.4305
8.060257873014221 62.9259
8.082629655331942 63.4334
8.104984308787587 64.4917
8.127356708900503 68.0471
8.149711981398308 74.0155
8.172085002766314 76.2544
8.194458336181368 72.9799
8.216814543847752 70.3095
8.23918850371002 70.149
8.26154533906492 70.5994
8.283919928836452 72.3438
8.306277395339652 73.1542
8.328652618483376 74.6397
8.351028159736202 76.4391
8.373386579575245 79.2248
8.395762759396959 81.0779
8.418121819038275 86.3638
8.440498640894003 100.345
8.462875785192262 115.682
8.485235811156207 127.074
8.507613602688501 167.774
8.529974277114228 260.264
8.552352719347912 399.667
8.574731488360351 671.972
8.59709314210385 1184.33
8.619472567021075 1859.6
8.64183487789147 2201.45
8.664214962183097 1823.53
8.686577933647762 961.72
8.708958680784317 375.184
8.731339760774953 169.048
8.753703729764451 113.249
8.77608547780821 100.664
8.798450116065078 96.3847
8.820832535634787 93.3022
8.843215292401656 91.3236
8.865580941199045 90.0242
8.887964374703538 88.9879
8.910330701447199 90.0092
8.932714815164482 92.678
8.955099270424924 92.4137
8.977466620733543 88.5951
8.999851761421976 85.5361
9.022219798361645 84.3317
9.04460562795561 83.9283
9.066991803441677 83.3416
9.089360876979615 83.2448
9.111747746589993 82.9229
9.13411751544971 82.6004
9.156505082664324 82.3179
9.178875550323522 82.6224
9.20126381862328 82.9659
9.223652438908596 83.7088
9.246023961427412 83.3236
9.26841328802173 82.4773
9.290785518039224 82.7418
9.313175554425882 83.1679
9.335565947154315 82.8628
9.357939245086508 83.0408
9.380330352834827 83.103
9.40270436697103 83.3657
9.425096193225055 83.6616
9.447488380180165 84.5319
9.469863475295412 84.8216
9.492256385987508 85.0193
9.514632206018318 85.6647
9.537025843935714 86.098
9.559402392368193 86.5109
9.581796761000229 87.4319
9.604191496441521 88.5168
9.626569144158516 92.4817
9.648964615551032 97.1536
9.671343000390081 99.4697
9.693739211225699 97.0815
9.716135793237463 94.5374
9.738515290448102 93.8527
9.760912617143402 94.3884
9.783292860202891 95.7057
9.805690935076182 97.1241
9.828089385495742 98.2133
9.850470754023561 100.725
9.872869957865444 108.99600000000001
9.89525208097539 124.92299999999999
9.917652041736662 138.483
9.940052382417589 137.735
9.962435644102392 143.20600000000002
9.984836746950979 179.503
10.007220771957746 247.486
10.029622640473708 350.871
10.052007432299963 526.465
10.074410069984072 811.45
10.096813093716005 1254.52
10.119199042482517 1703.24
10.141602840636468 1941.2
10.163989564971628 1621.56
10.186394141051062 908.762
10.208799107559706 400.934
10.231187001965623 189.862
10.253592751657669 127.475
10.275981430388155 114.292
10.298387966769793 114.15700000000001
10.320794897965431 116.946
10.343184759907361 115.57700000000001
10.36559248305461 109.821
10.387983138083852 105.63600000000001
10.410391656691655 108.26299999999999
10.432800574501677 119.632
10.455192425893369 136.90200000000002
10.47760214443012 163.87900000000002
10.499994797678786 205.25599999999997
10.522405320453982 286.606
10.54479877906917 395.149
10.567210109595656 517.996
10.5896218454736 562.195
10.612016518879773 515.77
10.634429067781074 345.85699999999997
10.656824555333241 196.981
10.679237920773568 122.8
10.701651695961992 96.0137
10.724048411481384 89.6429
10.746463008485165 86.5291
10.768860546937125 85.5442
10.791275969274796 83.6213
10.81369180576079 82.7008
10.836090585366925 81.774
10.858507252467449 80.1972
10.88090686379991 79.4915
10.903324365036394 78.8936
10.925724811614439 79.0796
10.948143150509463 80.3859
10.970561909719066 79.3677
10.992963615930844 77.3808
11.015383218085756 75.3775
11.037785768347074 73.8268
11.06020621697282 73.1252
11.082627090322113 73.0286
11.105030913430326 72.2517
11.12745263854165 72.7132
11.149857314510728 76.5214
11.172279894912576 83.0832
11.194702904450653 83.7886
11.217108866490921 79.4219
11.239532736615194 74.9716
11.26193956033512 72.7437
11.284364294577085 70.7843
11.306789462371718 68.9532
11.329197585398376 67.8737
11.351623622610898 67.5839
11.37403261614354 66.4558
11.396459526308487 66.4028
11.418869393879497 66.0319
11.441297180532617 65.7306
11.463725406927658 65.2862
11.486136592353875 65.0823
11.508565700543707 65.8499
11.530977768845315 67.68
11.553407762368774 68.4135
11.575838200059769 68.0368
11.598251599479612 65.8431
11.620682927815501 64.5844
11.64309721895548 63.8061
11.665529441478206 63.3984
11.687962112597958 63.4051
11.710377748130886 63.5132
11.732811318753434 63.3227
11.755227854859067 63.357
11.777662328529495 63.2964
11.800079768750786 63.0514
11.822515149015453 62.8655
11.844950984084935 62.9782
11.867369787303163 62.423
11.889806534289491 62.747
11.912226250487029 63.1209
11.934663912939751 63.413999999999994
11.9571020346363 63.6161
11.979523127133968 63.5756
12.001962169624331 64.1113
12.024384183972964 65.0403
12.046824150809913 67.9014
12.069264581333726 73.7556
12.091687985297767 80.1958
12.11412934550045 89.5236
12.136553680195208 103.823
12.158995973632788 125.37700000000001
12.181438735204349 152.083
12.20386447284199 181.048
12.226308172985636 206.017
12.24873485024193 203.435
12.271179492516982 166.946
12.293607112949127 131.011
12.316052700916226 96.1765
12.338498763250042 78.779
12.360927805303868 70.8284
12.383374818673879 66.9858
12.405804812803074 65.0027
12.428252780773262 64.7501
12.45070122756722 64.6258
12.473132656675375 64.4481
12.49558206341869 64.4934
12.518014453510101 64.656
12.540464823770117 64.9707
12.562915677315177 65.2287
12.58534951575545 65.9621
12.607801338171472 67.967
12.630236146511358 73.5924
12.652688941369085 78.8366
12.675124723177234 79.1911
12.697578494048786 75.3074
12.720032754458185 70.5422
12.742470003354093 68.5094
12.764925245138771 68.4296
12.787363476431278 68.5974
12.809819703166806 69.1086
12.83227642391173 69.6309
12.854716135692716 70.2709
12.877173846755147 71.303
12.899614549869717 71.5349
12.9220732548287 72.1385
12.94453245827299 72.7317
12.966974655289818 73.7958
12.989434858002571 74.6028
13.011878055298721 75.3662
13.034339260862497 76.3216
13.056800969391883 77.3847
13.079245674017244 79.488
13.101708390774869 81.6877
13.12415410463411 88.8754
13.146617833206086 101.137
13.169064559883248 113.63600000000001
13.191529303857127 128.69
13.213994557076367 150.939
13.236442809902437 186.699
13.258909083908291 238.86599999999999
13.28135835851934 300.83299999999997
13.30382565690295 369.642
13.326293469022952 427.32599999999996
13.348744283242008 434.22
13.371213125129904 366.517
13.39366497011003 266.755
13.416134845360597 175.61700000000002
13.438605238843131 124.249
13.46105863690397 106.38600000000001
13.483530069144786 106.245
13.505984506951902 112.089
13.528456981549432 121.988
13.550929978879088 136.749
13.573385983253365 160.162
13.595860028340867 197.77200000000002
13.618317081455832 248.16099999999997
13.64079217790333 304.302
13.663250283359057 352.07
13.685726434770173 375.43699999999995
13.708203115221277 344.05800000000005
13.730662806148091 266.121
13.75314054697177 188.023
13.775601299246777 130.562
13.798080104050406 97.8352
13.820559442405358 85.6419
13.843021793671388 82.4233
13.865502201420897 80.6747
13.887965623051947 80.2384
13.910447103807167 78.9661
13.932929122629764 77.6963
13.955394156785959 77.1951
13.977877254034569 76.2374
14.000343367582113 75.4928
14.022827546871707 74.6641
14.045294743423524 74.0077
14.06778000837062 73.4105
14.090265817715476 73.2562
14.112734645763819 72.8472
14.13522154619454 73.0197
14.157691466286913 72.9299
14.180179461423874 72.8175
14.202668005486178 72.0438
14.22513957064374 71.1799
14.247629214846473 71.0456
14.270101881097517 70.783
14.29259262906496 71.0901
14.315083930490205 71.9469
14.337558255389705 72.1014
14.360050666019726 71.8599
14.382526101071944 70.6994
14.405019624534942 69.587
14.427513705993134 69.2704
14.449990813291825 69.2969
14.47248601302899 68.9773
14.49496423954951 69.2052
14.517460561197822 69.5301
14.539939910570322 69.2946
14.562437357763558 69.8114
14.58493536931253 70.4953
14.607416409993311 71.6651
14.62991555254159 72.5131
14.652397725157423 72.3681
14.674898002342799 71.7009
14.697398848433282 70.9138
14.719882725991326 71.3996
14.74238471217934 72.3493
14.764869730765593 75.6808
14.787372860692983 79.6481
14.809876564079925 84.3747
14.83236330125751 90.1272
14.854868153850365 98.7448
14.877356041159485 111.943
14.899862046604186 129.895
14.922351087688757 153.502
14.944858249632887 181.46599999999998
14.967365991421232 209.512
14.989856770231246 224.218
15.012365673994204 220.262
15.03485761569738 189.363
15.05736768508665 149.43200000000002
15.07987833888692 113.83
15.102372032001655 90.5554
15.124883856909658 77.5321
15.14737872204565 72.813
15.169891721717274 70.8912
15.192405310371893 70.8062
15.214901940621196 71.3588
15.237416709527137 71.4976
15.259914520936249 71.7303
15.282430473753607 70.9565
15.304947020131227 69.6386
15.327446610371178 68.7141
15.349964346154254 67.7628
15.372465126703139 67.3349
15.394984055556009 67.1503
15.417486030076159 66.8102
15.44000615566487 66.4015
15.462526881230803 66.3234
15.485030653812652 66.8915
15.507552581617434 66.6662
15.530057557334603 66.9757
15.55258069104857 66.8538
15.575104429329837 66.5052
15.597611216864632 66.2078
15.620136166564563 66.6016
15.6426441664095 67.2843
15.665170331202765 69.5932
15.687697105158826 72.7476
15.710206930593545 76.3153
15.732734925158933 80.6472
15.755245972089478 87.0985
15.77777519094324 95.9757
15.800287463046663 108.615
15.822817909869592 126.669
15.84534897229804 147.403
15.867863089299354 170.928
15.890395385222186 188.628
15.912910736597423 196.295
15.935444269699861 183.393
15.957978423016485 155.734
15.980495633101265 123.62
16.003031029129367 96.355
16.02554948280019 76.5431
16.048086125229432 68.0582
16.070623392487107 65.6959
16.09314371869582 65.1541
16.11568223789321 64.2398
16.13820381691126 63.2825
16.160743591742527 62.0011
16.183283996022084 60.9299
16.205807461423195 59.7996
16.228349126881973 59.3235
16.25087385432698 59.4421
16.27341678466365 58.8299
16.29594277784926 58.7882
16.31848697676433 59.2381
16.341031811604868 59.4018
16.36355971058487 59.7597
16.3861058195587 59.5596
16.40863499352978 58.1219
16.431182380342005 57.2805
16.453730407713202 56.6656
16.476261501364792 56.3121
16.498810812136167 55.7934
16.52134319004079 55.9967
16.54389378792203 55.8502
16.566445031001553 55.6861
16.588979342490088 55.6776
16.61153187824822 55.5235
16.634067483263312 55.0358
16.656621315414416 55.2662
16.679175797408888 54.8592
16.701713349928728 55.0016
16.72426913389191 55.3615
16.74680798922351 55.347
16.76936507887444 55.3159
16.791905240734874 55.4538
16.814463639794468 55.248999999999995
16.837022695210294 55.1838
16.859564824093756 55.6773
16.882125194503903 56.5529
16.904668639217885 57.1286
16.927230328348003 57.5826
16.949792678493612 57.6083
16.972338104193863 56.8875
16.994901778652235 56.2386
17.017448529496576 56.0376
17.040013531998152 56.1527
17.06257920018044 56.7355
17.0851279459922 57.5555
17.107694947817667 58.4714
17.130245028099072 59.073
17.15281336730298 60.6184
17.17536478578733 62.2907
17.19793446610687 64.2895
17.220504818648422 67.2664
17.243058251703697 70.3298
17.265629950971032 74.689
17.288184731571736 79.143
17.310757781306908 83.304
17.33333150794385 84.2829
17.355888317140174 82.6822
17.37846339986244 78.467
17.401021565958885 71.5623
17.42359800851343 66.5168
17.44617513265564 62.4794
17.468735341390783 60.5698
17.491261035594565 59.4874
17.51396340099364 59.2871
17.536490463869136 59.5265
17.559018209820174 59.5584
17.58154663977963 59.7002
17.604251766089718 59.8071
17.626781572227713 59.9016
17.64931206518155 60.3111
17.671843245885103 60.8119
17.69455114821572 61.1266
17.717083712612634 61.3803
17.739616967569667 61.6828
17.762150914021706 61.7598
17.78486160749854 61.8495
17.807396945166804 62.3348
17.829932977143503 63.1991
17.85246970436452 64.6278
17.875183204129467 66.8338
17.897721330097664 69.104
17.920260154126645 71.2882
17.942799677153296 74.5628
17.9655159983646 78.3167
17.988056927677544 83.0368
18.010598558807683 90.4538
18.033140892692916 100.005
18.05586005052525 110.398
18.07840379824407 122.125
18.10094825154059 133.536
18.12366954819864 141.974
18.146215420998306 142.05700000000002
18.16876200220057 132.778
18.191309292745153 118.234
18.214033452627167 103.68299999999999
18.236582170236648 91.8764
18.259131600016456 86.4442
18.281681742907335 86.8687
18.304408781233683 90.9768
18.32696035875955 96.2732
18.349512652227624 101.439
18.372065662579683 106.14399999999999
18.394795594587553 108.01299999999999
18.41735004715306 104.76899999999999
18.43990521943684 97.2951
18.46246111238171 87.9957
18.485193953325208 78.1533
18.507751296070428 70.8746
18.530309362314178 66.5627
18.552868153000343 64.1537
18.57560391815056 62.5331
18.59816416623245 62.1521
18.620725141597372 61.7389
18.643286845190268 61.3468
18.666025549835414 60.9071
18.688588718427933 60.2308
18.711152618092243 59.8216
18.73389353884365 59.7873
18.75645890921984 59.3572
18.77902501351406 59.0215
18.801591852673102 59.0887
18.824335739722738 58.5254
18.846904057212626 58.461999999999996
18.8694731124168 58.2318
18.89204290628315 58.2076
18.914789774966803 58.1046
18.937361054791623 57.786
18.959933076131318 57.415
18.982505839934877 57.4821
19.00525570560582 57.7706
19.027829963004184 57.1698
19.05040496572238 57.4538
19.072980714710468 57.3506
19.095733592739563 57.4019
19.11831084296757 57.8074
19.140888842324735 58.6483
19.16346759176222 58.7507
19.18622349753803 59.268
19.208803755869358 60.0252
19.231384767143577 61.1465
19.253966532312948 62.3286
19.276725481241822 64.3477
19.29930876296784 67.1572
19.3218928014549 70.1057
19.34465404436217 73.166
19.36723960516257 75.7462
19.389825925592426 77.1407
19.412413006605938 76.3549
19.43517731967805 72.9071
19.457765930683355 68.4696
19.48035530514408 63.6117
19.50294544401556 59.8316
19.525712842708348 56.8749
19.54830451925909 55.5269
19.570896963095727 54.4582
19.593490175174704 54.2813
19.616260674962184 54.3884
19.638855432416964 53.9975
19.661450960992624 54.1227
19.68404726164677 53.8625
19.706820878021247 53.6246
19.729418731756834 53.9279
19.752017360452857 53.6296
19.77461676506804 53.7821
19.797393513540218 53.9495
19.819994478951667 54.1881
19.84259622316767 54.9996
19.8651987471481 55.4209
19.887978643247177 55.4759
19.91058273574792 55.908
19.933187610901943 56.5779
19.955969879466828 57.7364
19.97857632894404 59.1227
20.00118356396599 60.7575
20.023791585494575 62.7393
20.046577028914875 65.3393
20.069186632506966 67.6295
20.091797025500632 69.7454
20.114408208858933 70.8734
20.137196842715273 70.5326
20.159809615886765 68.9746
20.18242318232135 65.9964
20.20503754298326 63.9271
20.227829382875154 62.4617
20.250445341109344 62.438
20.27306209647285 63.2004
20.29567964993108 64.3983
20.31847471147704 65.6983
20.34109387027612 66.6385
20.363713830075454 66.4695
20.386334591841646 64.8834
20.409132890679302 61.9421
20.431755265564437 58.9014
20.454378445325528 55.8758
20.477002430930366 53.996
20.499803982716553 52.8064
20.522429589228004 51.8647
20.54505600449589 51.7043
20.567683229489194 51.3375
20.590488049900088 50.9706
20.61311690359731 50.5661
20.63574656993626 50.3138
20.658553853717297 50.0242
20.681185154618298 50.107
20.703817271080066 49.9049
20.72645020407368 49.6931
20.749260783967177 49.695
20.771895359337133 49.3502
20.794530754161617 49.5104
20.817166969412938 49.2917
20.83998086114876 49.2844
20.86261872660049 48.9861
20.885257415405402 49.0184
20.90789692853701 48.958
20.930714147864748 48.9581
20.953355319030678 48.9829
20.97599731745334 49.06399999999999
20.99864014410749 48.7634
21.021460706796564 48.8829
21.044105199328826 49.1521
21.06675052302631 49.4791
21.089396678865015 49.7572
21.112220600704806 49.913999999999994
21.134868430275347 50.2812
21.15751709492456 50.4607
21.180166595629693 50.6967
21.202993892429635 51.3468
21.22564507473034 51.5896
21.24829709602816 51.9453
21.27112693608965 52.0184
21.293780644891275 51.7064
21.316435195634053 51.1662
21.339090589297417 50.2906
21.361923832041875 50.0065
21.384580921090404 49.2429
21.407238856007325 48.8258
21.429897637773326 48.7358
21.45273429906592 48.7823
21.475394784108598 48.6349
21.498056118951983 48.5884
21.520718304578022 48.6512
21.543558400304388 48.905
21.566222297108816 49.0634
21.58888704765135 49.3275
21.61155265291521 49.5684
21.63439619898156 50.1244
21.657063523335786 50.2474
21.67973170537063 50.8475
21.7024007460706 51.3874
21.72524775840385 51.9142
21.747918526116475 52.9524
21.770590155457388 54.1326
21.79326264741238 55.6165
21.816113141960237 57.3444
21.838787368860547 59.2489
21.861462461341976 61.1901
21.884315579735777 63.1496
21.90699241312273 64.5055
21.92967011506078 65.2415
21.95234868653799 65.1236
21.9752053151131 63.7418
21.997885635446785 61.7798
22.020566828293532 60.0315
22.04324889464272 58.12
22.066109049404666 56.8411
22.088792872571794 56.2741
22.111477572219204 56.5649
22.1341631493376 56.6374
22.157026846313123 56.3592
22.179714188221507 55.6673
22.202402410582668 54.6024
22.22509151438863 53.0138
22.24795876962584 51.7891
22.270649646204486 51.055
22.293341407213727 50.3403
22.316034053646906 49.6538
22.338904883215342 49.5058
22.36159931041458 49.4431
22.38429462602756 49.5381
22.40699083104897 49.2594
22.429865251039757 49.1714
22.452563244831367 49.2549
22.47526213102522 49.3147
22.49813925616515 49.1692
22.520839937143307 48.8704
22.543541513520587 48.9905
22.56624398629403 48.821000000000005
22.589124730075895 48.7788
22.611829005656723 49.0085
22.63453418063466 48.9732
22.657240256008077 49.2081
22.680124634582935 49.3945
22.70283252079775 49.6779
22.725541310413075 49.8496
22.74825100442868 50.0021
22.771139033969575 50.4558
22.79385054687155 50.8049
22.81656296718292 51.5412
22.83927629590484 52.2534
22.862167992606945 53.2832
22.88488314827121 54.4483
22.907599215359284 55.4974
22.93031619487366 56.6089
22.953211574954405 57.4462
22.975930389478226 58.3629
22.998650119445763 58.7562
23.02137076586092 58.0903
23.044269845560063 56.6519
23.06699233506288 54.9027
23.089715744034912 52.9674
23.112617610931565 51.343
23.135342869061212 50.2612
23.158069049684816 49.5944
23.1807961538087 49.092
23.20370174880544 49.1181
23.226430710184808 49.1709
23.249160598093425 49.1429
23.271891413539002 49.0927
23.294800752937697 49.1314
23.31753343374794 49.4445
23.340267045128353 49.6243
23.36300158808808 49.7866
23.38591468821339 50.0185
23.408651104658304 50.5171
23.431388455719986 51.0728
23.454126742409 52.1101
23.4770436196085 53.0663
23.499783787914662 54.2332
23.522524894889884 55.2004
23.54526694154616 56.2112
23.56818761219047 57.7272
23.59093154860734 58.1382
23.613676427751283 58.6418
23.636422250635754 57.7585
23.659346731118656 56.1093
23.68209445191868 54.0791
23.704843119509587 51.9105
23.72759273490623 49.9756
23.750521041644767 48.4581
23.77327256312355 47.3405
23.796025035462787 47.0401
23.818956224555475 46.5074
23.841710609113413 46.4023
23.86446594758979 46.1104
23.887222241002014 45.8956
23.910157285144578 45.4457
23.932915498962537 45.5734
23.955674670778713 45.3736
23.978434801611975 45.2171
24.001373717286125 45.0281
24.024135776723917 45.0789
24.046898798245582 44.9394
24.06966278287146 44.7182
24.092605586582614 44.6862
24.115371508023642 44.4771
24.1381383956401 44.4411
24.16090625045381 44.4649
24.183852958731244 44.3278
24.206622758582608 44.1579
24.229393528706886 43.8858
24.252165270127392 43.8656
24.27511589952438 43.9185
24.297889594216997 43.8879
24.32066426328598 43.5269
24.34343990775613 43.6784
24.36639447485003 43.5568
24.38917208083877 43.481
24.41195066531332 43.4356
24.43490819850244 43.4112
24.457688750692377 43.2512
24.48047028445616 43.3187
24.503252800821233 43.4549
24.526214300784112 43.4355
24.548998793132213 43.4396
24.57178427117417 43.3887
24.59457073593893 43.2893
24.617536219319863 43.2554
24.64032466834748 43.2791
24.663114107195035 43.2333
24.685904536893013 42.9345
24.708874020360852 42.7913
24.731666442613744 42.7528
24.754459858818787 42.5964
24.777254270007962 42.7051
24.80022777025625 42.5833
24.82302418230472 42.5669
24.845821592443674 42.6233
24.86862000170663 42.5427
24.891597535453727 42.2831
24.914397953892728 42.6607
24.93719937456671 42.5238
24.96000179851076 42.6656
24.98298338249997 43.0093
25.00578782394922 43.158
25.028593271784167 43.2214
25.05157790644186 43.5569
25.07438537804115 43.7255
25.097193859145293 43.8441
25.120003350792075 44.1084
25.142992065061257 44.5363
25.165803588823465 44.8034
25.18861612625217 45.0053
25.211429678386736 44.9062
25.234422489079968 45.0278
25.257238081693636 45.0418
25.280054692141732 45.3288
25.3028723214652 45.2414
25.325869245420463 45.3216
25.348688923599397 45.291000000000004
25.371509623787006 45.2777
25.394331347025812 44.9663
25.41733240110666 44.5146
25.440156181590016 43.8309
25.46298098826268 43.3983
25.48580682216873 42.8529
25.50881202326435 42.1499
25.53163992281684 41.8625
25.55446885274561 41.4729
25.577298814096377 41.1851
25.600308179121807 41.1782
25.623140214533745 41.1634
25.64597328451537 41.025
25.66898578564376 40.9121
25.691820936010206 40.9286
25.714657124097695 40.8895
25.737494350954734 40.9464
25.760511045684957 40.7744
25.783350361364224 40.8798
25.806190718969255 40.8648
25.82903211955018 40.9455
25.852053024868923 40.994
25.874896522722523 41.0774
25.897741066713106 40.8095
25.920586657892454 40.9709
25.943611790812668 41.2185
25.966459487728237 41.3314
25.989308234998564 41.2433
26.01215803367705 41.7225
26.03518741123814 41.8371
26.05803932412957 41.9601
26.080892291600094 41.9805
26.10374631470478 41.9501
26.12677995397268 42.0857
26.14963609978026 41.8948
26.172493304397875 41.629
26.19535156888223 41.452
26.218389486949604 41.0641
26.241249882640123 40.9079
26.26411134137826 40.5745
26.28715248187403 40.5874
26.31001607820869 40.3921
26.3328807407756 40.2902
26.35574647063438 40.5545
26.37879191991473 40.5331
26.401659795896734 40.4759
26.424528742360263 40.6265
26.447398760366614 40.7799
26.470448535598294 40.8757
26.49332070826805 41.099
26.516193955675355 41.4103
26.53906827888316 41.5886
26.562122397260108 41.8211
26.584998883685063 42.1534
26.607876449110325 42.2976
26.63075509460056 42.3875
26.65381357334404 42.5204
26.67669439061878 42.57
26.699576291163382 42.4276
26.722459276044212 42.4135
26.745522132402975 42.0419
26.768407297649354 41.7366
26.791293550442003 41.4422
26.814180891848974 41.1625
26.837248143099337 40.8449
26.860137673466657 40.7072
26.88302829566349 40.5061
26.90592001075963 40.2752
26.92899167420566 40.2428
26.951885586870763 39.9512
26.974780595655517 39.7125
26.99785558178161 39.5594
27.020752794605112 39.4738
27.043651106772522 39.1346
27.06655051935668 39.1468
27.089629948036183 39.0838
27.112531573292053 39.0208
27.135434302194138 39.0775
27.158338135817015 38.9899
27.181422024430987 38.9677
27.204328079372566 38.7318
27.22723524226965 38.8425
27.250143514198573 38.7599
27.273231880156334 38.9225
27.296142382065014 38.676
27.319053996245536 38.5671
27.341966723775965 38.8233
27.365059584515222 38.7944
27.38797455070062 38.8908
27.410890633481237 38.6392
27.433807833936918 38.6772
27.456905206923906 38.7133
27.47982465472398 38.8074
27.502745223449743 38.8944
27.525666914182825 38.8656
27.548768816912457 38.8589
27.571692763693633 38.8932
27.59461783573812 38.6613
27.617723149491244 38.5122
27.640650484125285 38.5004
27.66357894728264 38.4219
27.686508540048052 38.3577
27.709618414237887 38.2574
27.732550278321757 38.1331
27.755483275279115 38.099000000000004
27.778417406196485 38.2819
27.801531858397514 38.13
27.824468269376716 38.0358
27.847405817586786 38.1628
27.870344504116094 38.3366
27.893463551932008 38.4879
27.916404527281053 38.6038
27.93934664422563 38.6827
27.962289903855886 38.7226
27.98541356491974 38.9821
28.00835912214229 39.1096
28.03130582533231 39.3225
28.054253675581805 39.3509
28.077381967556104 39.3333
28.100332124185126 39.3753
28.123283431160893 39.2847
28.146235889577238 39.1892
28.169368830154156 38.9775
28.192323603752033 38.7911
28.215279532083304 38.4523
28.238415973016764 38.3136
28.261374223145094 38.2407
28.284333631303806 37.7916
28.307294198589954 37.7172
28.330435319167677 37.4413
28.353398217078915 37.1799
28.376362277420153 37.063
28.39932750129032 36.9136
28.422473319286713 36.7589
28.44544088262495 36.7926
28.468409612800283 36.6515
28.491379510913497 36.4096
28.51453004413313 36.2242
28.53750229057244 36.174
28.56047570826344 36.143
28.583450298308804 36.0708
28.606605564586562 35.9978
28.629582511831156 36.0937
28.65256063474956 35.9271
28.675539934446338 35.9371
28.698699951647605 36.0007
28.72168161743193 35.8484
28.74466446331978 35.7067
28.767648490417624 35.7274
28.790813276438353 35.6438
28.813799678527303 35.7548
28.836787265157085 35.7284
28.859955641890075 35.7862
28.882945610203045 35.7274
28.905936766392035 35.6494
28.928929111566863 35.5922
28.952102288520145 35.467
28.975097024308607 35.4364
28.998092952423807 35.3007
29.021090073977508 35.2722
29.04426806913204 35.0821
29.067267590245258 34.8673
29.090268308143695 34.9281
29.11327022394099 34.7947
29.13645305530891 34.7603
29.159457379627167 34.6586
29.18246290519685 34.5771
29.20546963313352 34.683
29.22865731875826 34.5919
29.25166646419296 34.6106
29.27467681535305 34.5064
29.29768837335608 34.6278
29.320880931312562 34.6293
29.34389491580634 34.6245
29.366910110507334 34.5624
29.38992651653503 34.5465
29.41312396492981 34.5149
29.436142806456754 34.4748
29.45916286268059 34.4335
29.48236399319994 34.3121
29.50538649169417 34.06
29.528410208259935 33.9434
29.55143514402014 33.7706
29.574641196749695 33.6971
29.597668583816574 33.6242
29.6206971934585 33.4203
29.64372702680042 33.4185
29.666938019934474 33.366
29.689970313635285 33.415
29.713003834422636 33.3805
29.73603858342347 33.4025
29.759254535188578 33.1653
29.78229175361658 33.0845
29.80533020365064 33.1606
29.82836988641968 33.0782
29.85159081507472 32.9996
29.874632976355343 32.9467
29.89767637376955 32.9521
29.920721008448314 32.9033
29.9439469322847 32.8896
29.96699405457564 32.7648
29.9900424175358 32.8501
30.013092022298157 32.8647
30.03632295963995 32.7138
30.059375061131373 32.6318
30.08242840783577 32.7011
30.105483000888153 32.7369
30.128718970092244 32.6793
30.151776069006917 32.6597
30.17483441768648 32.6576
30.198074175317235 32.699
30.221135036724256 32.8
30.24419715131772 32.6851
30.267260520236203 32.4839
30.290505341942243 32.6461
30.313571232750228 32.6624
30.336638381310948 32.548
30.35970678876503 32.4763
30.38295669299435 32.3933
30.40602763151657 32.3619
30.429099832366074 32.473
30.452173296685572 32.372
30.47542830191959 32.2668
30.498504306502497 32.3553
30.521581577995562 32.4319
30.544660117543582 32.3565
30.56792024229725 32.4726
30.59100133132069 32.3918
30.614083691845494 32.4831
30.637167325018545 32.4509
30.660432587840603 32.4753
30.683518779717886 32.5082
30.70660624769615 32.5938
30.729694992924372 32.6015
30.75296541239743 32.5577
30.77605672557558 32.4569
30.799149319462742 32.4685
30.8224236211637 32.2073
30.845518789950724 32.0787
30.868615242910597 32.0384
30.891712981195973 31.9369
30.91499247215866 31.8432
30.938092794619365 31.8554
30.96119440587579 31.7645
30.984297307082752 31.5356
31.00758200598383 31.5816
31.030687500658694 31.5074
31.053794288760695 31.4922
31.076902371446767 31.3528
31.100192296997445 31.3389
31.12330298246119 31.3901
31.14641496599209 31.2433
31.169528248749216 31.3632
31.19282341969534 31.2185
31.215939314557186 31.2145
31.239056512134788 31.1742
31.262175013589378 31.1366
31.28547544871168 31.0735
31.30859657161541 30.9646
31.331719001892175 31.0527
31.35484274070538 31.213
31.378148458819545 31.1814
31.401274828443725 31.1422
31.424402510106933 31.0539
31.447712205419993 31.2924
31.470842524931633 31.1036
31.493974159989783 31.0847
31.51710711176168 31.1002
31.54042212308802 31.0461
31.563557722100917 30.9785
31.586694641341655 30.838
31.609832881979628 30.7941
31.63315322823208 30.6474
31.656294125521327 30.735
31.679436347728515 30.5475
31.70257989602529 30.4677
31.725905596152327 30.4517
31.74905181052835 30.4353
31.772199354521323 30.5273
31.79534822930507 30.3441
31.818679302290967 30.3691
31.84183085259981 30.3555
31.864983737233473 30.398000000000003
31.88813795736804 30.4593
31.911474422233013 30.2186
31.934631327356435 30.3685
31.9577895715215 30.2856
31.980949155906522 30.2676
32.004291031706956 30.3399
32.027453310562606 30.1656
32.05061693318573 30.136
32.07396288236386 30.0576
32.09712920658542 30.0211
32.12029687812702 29.8295
32.14346589817093 29.8201
32.166817291729984 29.7224
32.18998902288583 29.6966
32.21316210610336 29.6058
32.23633654256711 29.4476
32.259693399663725 29.4576
32.282870556771144 29.4117
32.30604907069099 29.4536
32.329228942610065 29.3645
32.35259128243769 29.1488
32.375773884550505 29.1715
32.398957848235646 29.1418
32.422143174682176 29.1114
32.445511016471215 29.0858
32.468699082679954 29.0286
32.49188851523011 28.9383
32.51507931531304 28.8611
32.538452678331 28.8955
32.56164622776311 28.7879
32.58484114831493 28.7318
32.60803744118015 28.7401
32.631416344731896 28.7656
32.654615396551876 28.7105
32.67781582427913 28.6741
32.701198898634416 28.5173
32.72440209253756 28.5502
32.747606665947124 28.4757
32.77081262006088 28.4733
32.79420126883317 28.3589
32.81740999876112 28.3333
32.840620112999424 28.2707
32.86383161274818 28.2687
32.88722585534586 28.271
32.91044014056596 28.3236
32.933655814909734 28.2775
32.95687287957963 28.2012
32.98027273544904 28.1773
33.00349259526636 28.1078
33.026713849030116 28.1209
33.04993649794511 28.128
33.073341986570746 28.025
33.09656744032826 28.0693
33.11979429286444 28.0134
33.14302254538647 28.0698
33.166433686291185 28.0306
33.18966475336992 28.0083
33.212897224069096 27.8809
33.23613109959831 27.8719
33.259547912343415 27.7531
33.2827846121627 27.8
33.306022720453775 27.7603
33.32926223842861 27.6318
33.352684742614166 27.6056
33.37592709463173 27.5552
33.399170859982064 27.4737
33.422597648419426 27.4376
33.44584425514446 27.3494
33.46909227885668 27.3197
33.4923417207723 27.1584
33.51577423505344 27.2565
33.539026528130385 27.0903
33.56228024307245 27.1072
33.585535381098246 26.956
33.60897364093058 26.886999999999997
33.63223163992385 27.0137
33.6554910656699 26.8956
33.678751919389796 26.8669
33.702195944520106 26.8329
33.72545966903325 26.8821
33.74872482519663 26.7858
33.771991414233746 26.7872
33.79544122444841 26.6811
33.81871069412428 26.5766
33.84198160035767 26.5908
33.86525394437455 26.5819
33.88870955949969 26.5107
33.911984794020626 26.4906
33.93526147001624 26.454
33.958539588715006 26.4116
33.98200102861669 26.3176
34.0052820477047 26.2491
34.02856451319451 26.3151
34.05203033759056 26.1725
34.07531571090147 26.2212
34.09860253431845 26.1488
34.121890809074316 26.0743
34.145362493118924 26.0848
34.16865368561615 26.1202
34.191946333164054 26.0256
34.21524043699793 26.0726
34.23871800066799 25.9638
34.26201503218366 25.908
34.28531352370466 25.8387
34.30861347646881 25.7688
34.33209693978188 25.7379
34.3553998301885 25.6978
34.378704185565205 25.6313
34.402010007152356 25.58
34.42549939016683 25.5433
34.44880815937748 25.4466
34.472118398533134 25.502
34.49543010887669 25.4268
34.51892543169198 25.3579
34.54224009966052 25.3485
34.56555624255917 25.3727
34.58887386163339 25.218000000000004
34.61237514439016 25.1238
34.6356957311114 25.1475
34.65901779775809 25.1442
34.68252356662995 25.1328
34.705848608458616 25.0632
34.72917513396849 25.0578
34.75250314440949 24.9715
34.77601490857862 24.9422
34.799345904259795 24.8623
34.82267838863559 24.8911
34.846012362958525 24.8659
34.869530142679984 24.8436
34.89286711232212 24.8179
34.91620557568269 24.7571
34.93954553401677 24.7534
34.9630693495876 24.6981
34.986412313340814 24.7103
35.00975677584668 24.6821
35.033102738362956 24.5291
35.05663261012228 24.5248
35.0799815881786 24.5401
35.10333207003229 24.4766
35.12668405694369 24.5212
35.150220005273056 24.4822
35.17357501786656 24.4351
35.19693153931268 24.4167
35.220289570874385 24.3535
35.24383161619786 24.3676
35.267192683604904 24.3156
35.290555264930376 24.3037
35.314101899412165 24.3271
35.33746752422433 24.2475
35.36083466676374 24.2556
35.38420332829803 24.1726
35.407756095629054 24.1995
35.43112781085063 24.1506
35.45450104888391 24.0852
35.477875810999194 24.1911
35.50143473172161 24.016
35.52481255774625 24.0583
35.54819191167777 23.9555
35.57157279478914 23.9086
35.595137889488406 23.866999999999997
35.61852184675279 23.8383
35.641907337029984 23.835
35.665294361595684 23.8767
35.68886565090076 23.7783
35.7122557598848 23.7065
35.73564740699838 23.6972
35.759040593519934 23.5832
35.78261809810353 23.5964
35.80601437933051 23.5001
35.829412203814705 23.5079
35.85281157283719 23.4564
35.876395313415884 23.5264
35.8997977874528 23.426
35.92320180988546 23.4205
35.946790244133936 23.2341
35.97019737933222 23.2731
35.993606066789866 23.2533
36.01701630779276 23.3122
36.04061101440684 23.2245
36.06402437852291 23.171999999999997
36.08743930005611 23.1255
36.1108557802951 23.0674
36.13445678011326 23.086
36.15787639383515 23.0947
36.18129757014299 23.0598
36.20472031032821 22.9485
36.22832762423364 22.9078
36.25175350829375 22.8946
36.275180960119776 22.8038
36.298609981005924 22.8434
36.32222362992669 22.8428
36.34565580510207 22.7806
36.36908955323448 22.8111
36.39252487562093 22.6656
36.416144880530226 22.6182
36.43958336764275 22.671999999999997
36.463023432914625 22.6497
36.486465077645676 22.4868
36.51009145956204 22.605999999999998
36.53353627947859 22.5764
36.55698268276811 22.5583
36.58043067073321 22.5355
36.60406345072071 22.3091
36.62751462435344 22.3288
36.65096738658405 22.4165
36.67460498210655 22.261
36.69806093788647 22.288
36.72151848619297 22.2228
36.744977628333636 22.1881
36.76862165890998 22.1461
36.79208400512205 22.1799
36.81554794910557 22.1364
36.83901349217101 22.0432
36.862663978991606 22.0448
36.88613273667352 21.9716
36.90960309738324 22.0362
36.933075062434064 21.9421
36.95673202673572 21.8627
36.98020721697122 21.848000000000003
37.003684015502365 21.7832
37.027162423645365 21.7934
37.050825886711465 21.7177
37.07430753063053 21.67
37.09779078812467 21.6607
37.121275660513014 21.6595
37.144945643673694 21.6359
37.16843376245278 21.6415
37.19192350009803 21.5251
37.215414857931435 21.5373
37.239091382563885 21.4607
37.262585997426164 21.3806
37.28608223645736 21.361
37.309763684451696 21.408
37.33326318851098 21.3324
37.356764320726555 21.3869
37.380267082425526 21.3472
37.40395510942588 21.2594
37.42746114683234 21.206999999999997
37.45096881771841 21.1403
37.474478123414166 21.1907
37.49817275092816 21.1103
37.52168534303452 21.0961
37.54519957395567 21.0273
37.568715445024665 21.0181
37.592416694607714 20.9705
37.61593586281424 21.0412
37.63945667518264 20.9938
37.66297913304891 20.8992
37.68668702630454 20.898000000000003
37.710212792059274 20.8445
37.733740207334854 20.8113
37.757269273470364 20.6921
37.780983832050374 20.6764
37.80451621684926 20.6975
37.82805025654007 20.6493
37.851585952464795 20.5172
37.8753071980695 20.433
37.89884622345676 20.4831
37.92238690911902 20.4926
37.94611318753442 20.4917
37.969657210779765 20.4576
37.99320289834801 20.410999999999998
38.016750251586465 20.342
38.04048325513017 20.3149
38.06403395679343 20.2583
38.087586328183946 20.2675
38.11114037065203 20.2449
38.13488012115898 20.3002
38.1584375229181 20.1938
38.181996599821 20.1598
38.205557353221124 20.1269
38.229303872575656 20.1144
38.2528679961576 20.0623
38.27643380031219 19.986
38.30000128639589 19.9972
38.32375459653193 20.0284
38.34732546371299 19.9795
38.37089801690786 19.8288
38.39447225747609 19.8538
38.418232380377425 19.8075
38.441810012983396 19.762999999999998
38.46538933705673 19.811
38.488970353960084 19.845
38.51273731166058 19.7449
38.536321731567014 19.6816
38.55990784840681 19.7024
38.58367995004091 19.6454
38.60726947812959 19.5061
38.63086070726198 19.5773
38.654453638806274 19.6144
38.678232613930824 19.4946
38.70182896773327 19.4138
38.72542702806741 19.3523
38.7490267963045 19.3469
38.77281266709232 19.3516
38.79641586862214 19.3542
38.8200207821842 19.3281
38.843627409152944 19.3155
38.86742019782782 19.2761
38.891030269149255 19.2138
38.914642058016156 19.2074
38.938255565806124 19.1905
38.96205529464307 19.148
38.98567225787121 19.0654
39.00929094417078 19.0265
39.03291135492255 19.0148
39.05671804624804 18.9932
39.080341923549106 18.9944
39.103967529460334 18.952
39.127594865365744 18.8948
39.15140854155791 18.8944
39.17503935514948 18.8705
39.19867190290282 18.8786
39.22249083587951 18.8026
39.24612686969409 18.7926
39.269764641845306 18.7276
39.293404153722804 18.7244
39.317230110864074 18.6861
39.34087311998506 18.6343
39.36451787301696 18.6349
39.388164371352595 18.5969
39.41199737518003 18.5859
39.43564738196752 18.5038
39.45929913825317 18.4836
39.48295264543308 18.4481
39.506792718520884 18.3584
39.530449745387216 18.3834
39.55410852735203 18.3843
39.57776906581474 18.4029
39.60161623079 18.3459
39.625280300200025 18.2579
39.64894613032202 18.1776
39.67261372255866 18.1662
39.6964680021016 18.2039
39.72013913657293 18.1836
39.74381203738292 18.1886
39.76748670593756 18.1597
39.79134812278169 18.1081
39.81502634488497 18.1247
39.83870633896685 18.0225
39.862388106436654 18.0068
39.88625668336918 17.9823
39.90994201572829 18.017
39.933629125719285 17.9342
39.957503091207826 17.892
39.9811937746168 17.9412
40.00488623990914 17.8317
40.02858048850006 17.81
40.05246165409549 17.8153
40.076159487492085 17.6998
40.099859108448875 17.6839
40.123560518384345 17.6501
40.1474489070226 17.7038
40.171153913178564 17.5795
40.194860712584955 17.5338
40.2185693066637 17.5718
40.242464941335314 17.602
40.26617714307655 17.5474
40.289891143772046 17.5408
40.3136069448471 17.4824
40.33750984859743 17.4573
40.3612292688043 17.4517
40.3849504936829 17.3854
40.40867352466194 17.3556
40.43258372059144 17.3243
40.45631038219906 17.2824
40.48003885420956 17.2779
40.503769138055105 17.2419
40.52768664931955 17.2405
40.55142057531802 17.2404
40.57515631746428 17.1642
40.599079334038514 17.1396
40.62281872700477 17.0664
40.64655994043941 17.0208
40.67030297578061 17.0568
40.69423334835778 17.0292
40.71798004609188 17.0305
40.74172857006355 16.95
40.76547892171441 16.9588
40.7894166736039 16.932000000000002
40.813170699248566 16.9164
40.83692655691388 16.8974
40.86068424804498 16.8781
40.884629402612525 16.7645
40.908390779366385 16.8178
40.932153993938 16.7666
40.95591904777605 16.7678
40.979871628443995 16.7445
41.003640379561936 16.7053
41.02741097430883 16.7018
41.05118341413683 16.6626
41.075143444384416 16.6129
41.098919593177826 16.5795
41.1226975914255 16.6261
41.14647744058318 16.5478
41.170444943946755 16.4679
41.19422851378379 16.5155
41.218013938914645 16.4221
41.24198706625173 16.3671
41.26577622087193 16.3694
41.289567235177785 16.3849
41.31336011063129 16.3387
41.337340752422875 16.3238
41.361137369129835 16.2235
41.38493585138705 16.2363
41.40873620066004 16.1776
41.43272438060107 16.1824
41.45652848292052 16.1586
41.48033445666918 16.1236
41.50414230331616 16.1382
41.528138045159764 16.1143
41.551949656675205 16.0186
41.575763145513235 16.0065
41.59957851314666 16.0156
41.62358184070442 15.9698
41.64740098505737 15.9109
41.6712220126409 15.8845
41.69504492493139 15.874
41.71905586207357 15.8334
41.74288256296395 15.8139
41.766711153007456 15.7889
41.79054163368412 15.8003
41.814560204340054 15.7653
41.838394485526365 15.7733
41.86223066180303 15.7362
41.88625497706819 15.6983
41.910094962812 15.6777
41.93393684811168 15.6856
41.95778063445365 15.5624
41.981812625263366 15.5179
42.00566023303407 15.5557
42.029509746323676 15.5159
42.05336116662236 15.53
42.077400857069705 15.4713
42.10125611078846 15.4913
42.12511327600405 15.4277
42.14897235421036 15.4081
42.173019768448455 15.3622
42.19688269209613 15.3799
42.22074753323349 15.3191
42.24461429335818 15.3386
42.268669455600495 15.302
42.292540073217886 15.2553
42.31641261433284 15.1633
42.34028708044675 15.198
42.36435001496739 15.1773
42.38822835065557 15.1436
42.41210861586426 15.1517
42.4359908120986 15.1314
42.46006154323262 15.0843
42.48394762115317 15.0576
42.507835634632315 15.0376
42.531912233047436 15.008
42.55580413732265 14.9328
42.579697981698 14.9141
42.60359376768525 14.9096
42.62767820545945 14.8657
42.65157789440821 14.9325
42.67547952952185 14.8686
42.699383112316 14.8186
42.72347541395347 14.7421
42.74738291190531 14.7575
42.771292362102166 14.7638
42.795203766063516 14.6754
42.819303956130405 14.6354
42.843219287476536 14.6228
42.86713657716324 14.63
42.89105582671383 14.5996
42.91516392983864 14.6635
42.939087119032166 14.6113
42.963012272677304 14.5482
42.98693939230129 14.5225
43.01105543317513 14.4586
43.034986504731386 14.4727
43.05891954686589 14.4237
43.08285456110972 14.3878
43.10697856448665 14.3851
43.130917542983475 14.3336
43.15485849820081 14.3418
43.17880143167367 14.2788
43.20293342237094 14.2422
43.226880332449 14.2329
43.25082922540554 14.2721
43.27496722682525 14.1851
43.29892010567796 14.1504
43.32287497204102 14.1598
43.34683182745632 14.1282
43.370977859791836 14.0917
43.39493871351105 14.1188
43.41890156092628 14.0942
43.44286640358341 14.0604
43.46702049182749 14.0309
43.49098934522816 14.0217
43.51496019852649 13.992
43.5389330532723 13.9196
43.56309522248204 13.8684
43.58707210044314 13.9157
43.61105098451946 13.8652
43.63503187626491 13.8725
43.659202151562134 13.8125
43.68318707902681 13.7843
43.70717401884041 13.7647
43.731162972560874 13.7625
43.75534137913236 13.7278
43.779334381108384 13.6907
43.803329401683186 13.6806
43.82732644241872 13.6707
43.8515130055166 13.6338
43.87551410707659 13.6271
43.89951723350145 13.6266
43.923709934595614 13.5515
43.94771713129917 13.5236
43.97172635758096 13.5265
43.99573761501002 13.5344
44.0199385169922 13.4857
44.04395385732619 13.4362
44.067971233533086 13.4104
44.09199064718605 13.445
44.11619977548961 13.3493
44.14022328470671 13.3313
44.16424883610785 13.3381
44.18827643127035 13.3048
44.21249381139513 13.2984
44.236525514814076 13.2942
44.26055926674478 13.2671
44.28459506876863 13.2253
44.3088207262813 13.1943
44.33286064928722 13.1894
44.35690262714919 13.1549
44.38094666145278 13.0832
44.4051806219871 13.0935
44.42922879003185 13.0499
44.45327901929361 13.0121
44.477331311362136 13.0187
44.501573600619416 12.9953
44.525630039221795 12.975999999999999
44.54968854541895 12.972999999999999
44.573937102200176 12.9499
44.5979997645541 12.9171
44.622064499300315 12.8532
44.64613130803592 12.8749
44.67038823869318 12.8827
44.69445921643748 12.8157
44.718532272981385 12.7831
44.742607409926194 12.7677
44.76687274034801 12.7698
44.79095205918753 12.7374
44.81503346325094 12.7192
44.839116954143876 12.7714
44.86339071028742 12.6669
44.88747839599524 12.6316
44.91156817336837 12.6044
44.93566004401666 12.6129
44.959942251908146 12.584000000000001
44.984038330325966 12.5513
45.00813650686762 12.4951
45.03223678314731 12.4614
45.05652746888232 12.418
45.08063196592069 12.4434
45.104738567558705 12.4075
45.128847275414856 12.4073
45.15314646515866 12.4036
45.17725940679741 12.4086
45.20137445952892 12.3453
45.22568004865265 12.3022
45.24979934496396 12.3354
45.27392075725247 12.2982
45.29804428714431 12.2367
45.322358426247604 12.2372
45.346486212804315 12.2533
45.370616121861914 12.2333
45.39474815505086 12.2419
45.41907087049246 12.1283
45.4432071734666 12.124
45.46734560548283 12.128
45.49148616817604 12.1719
45.51581748638564 12.120999999999999
45.5399623320197 12.0386
45.56410931325473 12.035
45.58825843173002 12.0292
45.61259837920865 12.0049
45.636751793816 11.9823
45.66090735060093 11.8915
45.68506505120716 11.9242
45.7094136545275 11.8784
45.73357566449271 11.802999999999999
45.75773982322992 11.883
45.78190613238733 11.8827
45.806263418194064 11.8046
45.83043404997326 11.8267
45.85460683713677 11.8406
45.87897065658495 11.79
45.90314777634752 11.7083
45.92732705646868 11.7176
45.9515084986045 11.6557
45.97588104735473 11.6707
46.00006683541565 11.6798
46.02425479047904 11.6226
46.04844491420549 11.639000000000001
46.0728262191024 11.5802
46.09702070211635 11.5757
46.12121735879483 11.5689
46.14541619080294 11.5801
46.169806278764455 11.5203
46.194009483459034 11.4776
46.21821486849841 11.4784
46.24242243555223 11.4363
46.266821333570014 11.3921
46.29103328674601 11.3722
46.31524742696538 11.4021
46.33946375590237 11.3682
46.36387149104216 11.322000000000001
46.38809221957392 11.3103
46.41231514186606 11.3032
46.436540259597464 11.3036
46.460956858999374 11.2721
46.48518638983522 11.2775
46.509418121166966 11.2535
46.533652054678114 11.2068
46.55807754555709 11.1626
46.58231590571962 11.1755
46.60655647313217 11.1692
46.630988654873654 11.1039
46.655233659129024 11.0764
46.67948087571551 11.0993
46.70373030632484 11.0647
46.72817142736393 11.0743
46.752425308428684 11.0013
46.77668140861147 10.9755
46.80093972960865 10.9744
46.82538981736788 10.9558
46.849652602470904 10.9574
46.87391761349769 10.9004
46.8981848521493 10.8906
46.9226439341274 10.85
46.946915650573224 10.8274
46.97118959976749 10.8251
46.99546578341598 10.8129
47.019933887188216 10.804
47.04421456235744 10.7889
47.06849747711879 10.788
47.09278263318286 10.7465
47.11725978640143 10.6904
47.14154944775105 10.6863
47.165841355555656 10.6721
47.1901355115306 10.6608
47.214621741924994 10.6549
47.23892041698887 10.6422
47.26322134538975 10.5761
47.28771440635075 10.5569
47.31201986422527 10.6093
47.33632758061436 10.5544
47.360637557241866 10.4895
47.38513974410611 10.4888
47.40945426407847 10.4903
47.43377104948137 10.4763
47.45809010204344 10.485999999999999
47.48260144275502 10.4494
47.506925052572285 10.4317
47.53125093475548 10.3502
47.55557909103813 10.3317
47.58009961361992 10.2972
47.60443234110732 10.2974
47.62876734791564 10.3083
47.65310463578333 10.2634
47.6776343683373 10.2749
47.7019762413987 10.2392
47.72632040075572 10.1923
47.75066684815169 10.2296
47.77520581885936 10.1723
47.799556865477655 10.1219
47.823910205386 10.1583
47.84826584033272 10.1636
47.87281407745551 10.1137
47.89717432569297 10.122
47.92153687423484 10.0922
47.94609208429692 10.121
47.97045925671401 10.0667
47.99482873471275 10.0254
48.01920052005013 10.0243
48.04376504619224 9.99249
48.068141469543484 9.97638
48.09252020552573 9.96086
48.11690125590099 9.91646
48.1414751266064 9.91465
48.16586082917454 9.89369
48.19024885144316 9.84856
48.2146391951793 9.86399
48.239222439012764 9.87813
48.26361744916137 9.84492
48.28801478610016 9.84885
48.31241445160131 9.7973
48.337007097209366 9.790610000000001
48.36141144338331 9.773760000000001
48.38581812345755 9.700619999999999
48.41022713920929 9.714360000000001
48.434829215320704 9.74032
48.45924292604658 9.7125
48.48365897780325 9.69144
48.50807737237308 9.626
48.532688907799276 9.67048
48.55711201168574 9.64087
48.581537463754074 9.63232
48.60615611725119 9.60392
48.63058628942721 9.57017
48.65501881516546 9.55161
48.6794536962573 9.561539999999999
48.70408185970339 9.50283
48.72852147531801 9.520439999999999
48.75296345168211 9.436639999999999
48.77740779059232 9.49635
48.80204549302823 9.486880000000001
48.82649458091802 9.49338
48.85094603676547 9.406930000000001
48.87539986237231 9.41387
48.90004713292306 9.36824
48.92450572200832 9.40198
48.94896668628025 9.33618
48.97343002754588 9.335139999999999
48.99808689542115 9.30969
49.02255501470614 9.3062
49.04702551642794 9.26697
49.0714984023988 9.260589999999999
49.096164896893235 9.23275
49.120642575466796 9.188189999999999
49.145122643748394 9.17297
49.16960510355558 9.19375
49.19428125404938 9.19176
49.2187685210852 9.14002
49.243258185121555 9.12544
49.26794160167084 9.10042
49.2924360839405 9.11392
49.31693296869764 9.05405
49.34143225776915 9.03368
49.36612538195438 9.05358
49.39062950396021 9.03001
49.41513603578346 9.02255
49.4396449792564 8.988489999999999
49.46434784069503 8.98772
49.488861631846454 8.963460000000001
49.513377840166804 8.9523
49.537896467493745 8.9139
49.56260909589029 8.86781
49.587132585683285 8.88924
49.611658500018365 8.89062
49.636186840738596 8.820260000000001
49.66090926588511 8.83422
49.685442483902584 8.78892
49.70997813385706 8.76188
49.734516217597076 8.776710000000001
49.75924846937352 8.745339999999999
49.7837914452858 8.77202
49.80833686055187 8.72908
49.83288471702571 8.70255
49.85762682540054 8.74596
49.882179588965734 8.71884
49.9067347993235 8.61518
49.93129245833333 8.65531
49.95604445336378 8.6613
49.98060703442832 8.639610000000001
50.005172069746266 8.613339999999999
50.02993150438364 8.59646
50.05450147301533 8.58981
50.07907390151433 8.58959
50.10364879174981 8.55511
50.12841816587289 8.549710000000001
50.1529980044635 8.509360000000001
50.17758031042124 8.50531
50.20216508562089 8.492
50.22694442953363 8.426
50.25153416817468 8.44847
50.27612638170508 8.427710000000001
50.300721072005196 8.376539999999999
50.325510416102105 8.388060000000001
50.350110084975064 8.36722
50.37471223628208 8.38358
50.39931687190919 8.35604
50.424116246675766 8.34727
50.44872587605249 8.314589999999999
50.47333799543065 8.31785
50.49795260670191 8.259780000000001
50.52276204271512 8.22395
50.54738166295838 8.26567
50.57200378079314 8.22556
50.596628398116835 8.20074
50.62144792604559 8.22759
50.646077567609396 8.19541
50.670709714377715 8.16499
50.69553683636198 8.1659
50.72017401885922 8.141589999999999
50.7448137122895 8.13393
50.76945591856022 8.05725
50.79429318636823 8.086139999999999
50.818940443716784 8.06762
50.84359021965163 8.060360000000001
50.868242516085964 8.05026
50.893089960641895 8.059460000000001
50.917747323549435 8.00908
50.94240721271973 7.970289999999999
50.96706963007175 7.99689
50.99192728239342 7.97412
51.01659478166073 7.965660000000001
51.04126481489051 7.9204
51.06593738400761 7.908110000000001
51.090805275207074 7.90952
51.11548294172845 7.8788800000000005
51.14016314993547 7.86331
51.164845901758845 7.85566
51.18972406304274 7.85429
51.21441192780656 7.8059899999999995
51.23910234200271 7.79085
51.2637953075678 7.79835
51.288683770237945 7.76498
51.31338186432707 7.75327
51.33808251561888 7.74649
51.362978729967345 7.7326
51.387684521509755 7.693060000000001
51.41239287610203 7.72755
51.437103795691165 7.682869999999999
51.46201036644977 7.615069999999999
51.486726441956634 7.632910000000001
51.51144508832545 7.668989999999999
51.536166307509156 7.62458
51.56108326624387 7.5669
51.58580965706056 7.6006100000000005
51.61053862657523 7.6056
51.635270176746864 7.546069999999999
51.66019755512065 7.565460000000001
51.68493429268881 7.515739999999999
51.70967361681515 7.4663699999999995
51.73441552946465 7.48688
51.759353359237934 7.496580000000001
51.7841004750961 7.45907
51.80885018539685 7.44435
51.833602492111254 7.437010000000001
51.8585508051424 7.41533
51.883308330926425 7.401160000000001
51.90806845906181 7.36348
51.932831191525715 7.37052
51.95779001977161 7.37258
51.98255798721516 7.35842
52.00732856494335 7.31953
52.03229530577543 7.26975
52.057071130455945 7.3033
52.081849571391054 7.29213
52.106630630568695 7.24483
52.13160794279417 7.19804
52.15639426492067 7.22273
52.18118321127822 7.223
52.205974783860896 7.1610000000000005
52.23096269971011 7.19965
52.255759551287994 7.18485
52.280559035098186 7.17937
52.30536115314103 7.14324
52.33035970494467 7.09773
52.35516711807904 7.1394
52.37997717147198 7.1163300000000005
52.40478986713005 7.095219999999999
52.42979908731974 7.0612699999999995
52.454617094216 7.0357
52.47943774942214 7.03263
52.50426105495102 7.0328
52.529280976059844 6.9977800000000006
52.554109609024096 6.97584
52.57894089837482 6.97434
52.60377484613117 6.9686699999999995
52.62880550079408 6.929530000000001
52.65364479223379 6.90477
52.67848674816189 6.888739999999999
52.70352547971946 6.892460000000001
52.72837279155837 6.90707
52.753222773982785 6.86601
52.778075429022984 6.87055
52.80312495150885 6.844869999999999
52.827982978797436 6.83145
52.85284368481815 6.80843
52.87770707160767 6.783939999999999
52.90276741793998 6.79971
52.92763619336701 6.77907
52.952507655698504 6.75403
52.977381806977576 6.76525
53.00245301017842 6.73005
53.02733256653592 6.708589999999999
53.052214817996074 6.71477
53.077099766608484 6.69718
53.102181859804446 6.67833
53.127072229988265 6.69473
53.15196530349892 6.669980000000001
53.17686108239249 6.673780000000001
53.20195409881522 6.64421
53.22685531582556 6.587389999999999
53.25175924441303 6.6069
53.27666588664027 6.56981
53.30176985962693 6.573980000000001
53.3266819565689 6.53754
53.35159677336455 6.5599300000000005
53.376514312083096 6.53492
53.40162927507703 6.52254
53.42655228516116 6.53385
53.45147802340193 6.46082
53.47660125628886 6.4945699999999995
53.50153247842639 6.42621
53.52646643496923 6.45616
53.55140312799818 6.42413
53.576537409691696 6.38751
53.60147960336152 6.40566
53.626424539786164 6.39882
53.65137222105307 6.3612400000000004
53.67651758529126 6.36267
53.70147078399681 6.3227199999999995
53.72642673383343 6.350969999999999
53.75138543689533 6.31191
53.776541917524526 6.27907
53.801506154876755 6.29427
53.826473151763246 6.28019
53.851442910284916 6.23872
53.87661054126026 6.24014
53.9015858509782 6.28736
53.92656392866066 6.2431
53.95154477641532 6.24678
53.976723591801296 6.174580000000001
54.00171000771266 6.15076
54.02669920004598 6.16065
54.051691170915745 6.16049
54.076881204886796 6.16672
54.101878760928514 6.15562
54.12687910187696 6.14267
54.152077577768296 6.143009999999999
54.1770835166946 6.08044
54.20209224691339 6.02566
54.22710377055121 6.02745
54.25231352511594 6.02364
54.27733066384342 5.98245
54.30235060239643 5.98325
54.32737334290836 5.98894
54.35259441062629 5.93544
54.377622783395324 5.9490099999999995
54.40265396455061 5.9327
54.42768795623251 5.87376
54.45292037169559 5.931369999999999
54.477960012857906 5.90179
54.50300247099511 5.86719
54.52804774825457 5.83977
54.55329154616743 5.8406400000000005
54.57834249018678 5.79893
54.6033962597977 5.80428
54.6284528571545 5.75571
54.653708072335164 5.7596300000000005
54.67877035378786 5.72837
54.70383546947698 5.68272
54.72890342156389 5.70097
54.7541700889442 5.632619999999999
54.77924374251975 5.641369999999999
54.8043202390049 5.65902
54.82959552413022 5.58208
54.8546777351945 5.54496
54.87976279569621 5.56399
54.90485070780914 5.59025
54.930137506558005 5.53326
54.95523115074295 5.52992
54.98032765308844 5.47093
55.005427015775496 5.488980000000001
55.03072536339621 5.48811
55.05583047570572 5.42521
55.080938454927676 5.4497599999999995
55.10604930325027 5.40757
55.131359235107396 5.42963
55.15647585066083 5.39501
55.181595341907496 5.30393
55.20671771104285 5.3143
55.232039262617704 5.31358
55.25716741665048 5.27237
55.28229845518636 5.312180000000001
55.30743238042802 5.17248
55.33276558731939 5.172630000000001
55.357905315183636 5.1517599999999995
55.383047936390035 5.12234
55.40819345314859 5.10821
55.433538351073295 5.07799
55.458689688238415 5.09055
55.483843927614096 5.04465
55.509197623043605 5.0362599999999995
55.53435769621134 4.9995
55.55952067826466 4.95224
55.5846865714265 4.95201
55.61005202069737 4.90212
55.63522376553902 4.96272
55.66039842818645 4.863180000000001
55.68557601087004 4.91004
55.7109532500271 4.84296
55.73613670233794 4.85294
