TT I
1.2716486653135266 7.995889999999999
1.2939594142134223 7.4078100000000004
1.3162702121660406 6.92019
1.3385810600174564 7.36372
1.3608919586137629 7.58285
1.383202908801069 7.16666
1.405513911425503 6.377190000000001
1.4278249673332093 6.593710000000001
1.4501343378461518 6.849639999999999
1.4724455028545926 6.51992
1.4947567236847858 5.65436
1.517068001182951 6.41045
1.5393793361953272 6.424980000000001
1.5616907295681737 5.963480000000001
1.5840021821477681 5.51468
1.60631369478041 5.33065
1.6286252683124185 5.19425
1.6509369035901333 5.53561
1.6732468618895553 5.2177
1.695558623192809 5.584219999999999
1.7178704487808514 5.20516
1.7401823395001077 4.7590900000000005
1.7625012545597203 5.0136
1.7848028405262486 5.31691
1.8071218901122095 5.52732
1.8294236121921872 5.14271
1.8517427996910911 4.68725
1.8740620574440425 5.61763
1.8963639900671978 5.47201
1.9186833908139995 5.5932900000000005
1.9409854680117449 5.60329
1.9633050151394713 5.3794699999999995
1.9856246367570705 5.33185
2.0079269371922672 5.13673
2.03024671027244 4.87288
2.0525491637446027 5.238569999999999
2.074869091674931 4.76461
2.097171701569106 4.70827
2.1194917877373847 5.0665
2.141811954326636 5.24717
2.164114805233074 4.65576
2.186435135143035 4.96627
2.208738150935709 4.42307
2.231058647554722 4.51726
2.2533792288321184 4.56725
2.275682498336085 4.89544
2.298003251406138 4.75294
2.3203066942619714 4.3243599999999995
2.3426276225136022 4.455030000000001
2.3649486396617507 4.6615
2.387252348930071 4.09663
2.4095735463442893 4.29624
2.4318774374315884 3.93401
2.4541988185014043 4.35554
2.476502894794693 4.0041199999999995
2.498824462909887 4.32113
2.521146125856138 4.002
2.5434504863470337 4.033440000000001
2.5657723414244717 4.09101
2.588076895590662 4.95828
2.610398946189713 4.70087
2.6327210958598384 4.36583
2.6550259469304716 5.07953
2.6773482972090137 5.260730000000001
2.6996533504259 4.29451
2.7219759047039602 5.48877
2.744298562293959 5.91856
2.7666039251246595 5.76308
2.7889267918020164 6.0289
2.8112323652516555 7.109039999999999
2.833555444408179 7.22412
2.8558786311183852 7.540589999999999
2.8781845268938557 7.572139999999999
2.9005079311721484 7.97548
2.9228140460410397 8.14081
2.9451376712799635 9.29105
2.967444008632326 9.3029
2.9897678582247247 9.46706
3.0120918213106695 10.7833
3.0343984987899373 10.6923
3.0567226913198637 11.1023
3.079029599759726 11.485999999999999
3.101354025127254 12.6329
3.123678568232338 12.7497
3.145985829517914 13.073
3.16831061055229 13.1697
3.1906181112775593 13.9873
3.212943133635653 14.0732
3.2352682779763207 15.3126
3.2575761442691227 15.0877
3.2799015350264273 15.5472
3.302209649240067 16.0382
3.3245352898092655 16.6096
3.3468436553365257 17.0867
3.369169549113219 17.4301
3.3914955708171384 18.5078
3.413804319727358 18.611
3.4361305997334863 18.4492
3.4584396084414553 19.3085
3.4807661501462652 19.583
3.503092824025881 20.4466
3.5254022288463154 20.5414
3.5477291695206588 20.6024
3.5700388426251948 20.953000000000003
3.5923660534916446 21.5935
3.6146934007816114 21.8348
3.637003482731501 22.3626
3.6593311053109985 23.1074
3.681641464033634 23.4912
3.7039693653009733 23.5736
3.726297407241705 24.0008
3.7486081875460804 24.1471
3.7709365132734978 24.6056
3.793247578841633 25.0218
3.8155761917550093 25.4844
3.8378875459837216 25.8702
3.8602164494827234 26.2241
3.882545499606844 27.1839
3.9048572932539183 27.7296
3.9271866390645718 27.528000000000002
3.9494987298666713 28.2929
3.971828374764527 28.8595
3.9941581705403255 29.464000000000002
4.016470713506008 29.7631
4.038800813471445 30.4728
4.061113662089144 30.4147
4.0834440696459176 31.8236
4.105774632334751 31.7162
4.128087945865126 32.4292
4.150418821249301 33.0063
4.172732448931298 33.6664
4.195063640413578 34.6775
4.2173775856475215 35.4908
4.239709096631102 35.8695
4.262040768704612 36.1088
4.284355196706267 36.7879
4.306687193387355 37.297
4.329001947444346 38.5576
4.35133427213731 39.6127
4.373666762177566 40.2073
4.395982011761091 40.7717
4.418314834921175 41.3571
4.44063041906622 42.5204
4.4629635787515625 43.3291
4.4852969080429785 44.5772
4.5076130004776225 46.2713
4.529946671403969 46.981
4.552263106909177 47.5213
4.574597122877047 48.8825
4.596931312711224 50.1177
4.619248269273446 51.0724
4.6415828092605835 52.1202
4.663900117405352 53.2934
4.686235010953232 55.0005
4.708552674085913 56.65
4.730887924602802 58.1126
4.753223354952695 58.9921
4.775541557023902 60.6077
4.797877349456786 62.1702
4.820195915032126 64.4852
4.842532072957498 65.5382
4.864868414979744 68.1052
4.88718753227192 70.14699999999999
4.909524244902505 72.5085
4.931843734218147 75.473
4.954180820867835 78.8864
4.976518095879839 82.7203
4.998838149695359 86.0978
5.021175803844231 90.5841
5.043496238205739 95.7897
5.065834274903528 101.338
5.088172504230693 109.081
5.1104935158799565 117.743
5.132832132875765 132.869
5.155153533596801 157.047
5.1774925416746225 216.63400000000001
5.199814334878411 577.669
5.2221537374521505 2001.1
5.244493338631803 3759.73
5.266815727034316 5158.35
5.289155727832427 7784.58
5.311478517248165 9469.94
5.333818921080011 6463.51
5.356159527788849 2112.83
5.3784829252032536 505.025
5.400823940070432 226.581
5.423147747031976 167.96200000000002
5.445489173474152 142.54399999999998
5.467830807066149 128.983
5.490155234831516 120.935
5.512497285125229 115.02799999999999
5.534822130975162 111.346
5.557164601388673 107.756
5.579489868738879 103.802
5.601832762690846 101.65299999999999
5.6241758697774475 100.027
5.646501775867269 98.8813
5.668845311622074 98.0651
5.691171647754637 97.19200000000001
5.713515615597765 96.4651
5.735859800852677 95.4608
5.758186788542988 94.6285
5.780531411018185 95.6404
5.802858837297399 95.1991
5.825203900414495 95.7375
5.8475491852224 97.2846
5.869877275883075 98.9232
5.892223006467101 102.156
5.914551544266608 106.501
5.936897724049891 112.956
5.959244129804903 126.64299999999999
5.981573344815301 159.697
6.0039202049061 298.885
6.026249875609095 767.825
6.04859719346037 1396.52
6.070927323278297 1871.55
6.093275102315365 2550.95
6.115623113320588 3585.04
6.137953938319995 3915.27
6.160302415650845 2285.67
6.182633708324452 731.0260000000001
6.2049826554078376 227.958
6.227331838745022 126.475
6.249663839443684 101.272
6.27201349767565 90.21700000000001
6.294345974611799 83.7436
6.316696111167083 78.5546
6.339046488263839 75.8019
6.361379686074702 72.8227
6.383730546639482 70.8061
6.406064229255215 68.4808
6.428415576718203 67.7087
6.450749747566656 66.2159
6.47310158535871 65.0239
6.495453669698332 63.743
6.517788579421056 63.5496
6.540141159237969 62.0
6.562476565766648 61.2138
6.5848296444934045 60.6565
6.607182974060425 59.5686
6.6295191323281015 59.4257
6.651872965955752 58.7074
6.6742096296068985 57.9098
6.6965639707294615 57.7781
6.71891856698715 56.9136
6.741255995248479 56.5131
6.763611104154477 56.5862
6.785949046381137 55.6394
6.808304671371482 55.2196
6.8306605557940046 54.7081
6.852999275508618 54.2893
6.875355681171544 54.2322
6.897694923437771 54.1699
6.92005185377892 53.9768
6.9423916220322655 53.4034
6.964749080490181 52.9556
6.987106804399774 53.0786
7.009447368180821 52.8294
7.031805625367033 52.5628
7.054146723727803 52.8265
7.076505517631004 52.508
7.098864581288365 52.4683
7.121206488070854 52.3651
7.143566093607822 52.0802
7.165908543567245 52.1686
7.188268694426048 51.9371
7.2106291193438095 51.6867
7.232972390625943 51.6635
7.255333366030969 51.5532
7.277677189091925 51.5394
7.300038718428332 51.5386
7.322400526130865 51.3094
7.344745183422596 51.5834
7.367107550224791 51.5827
7.389452767901992 51.7758
7.411815697249891 51.8677
7.434161478756298 51.1304
7.456524974096713 51.2948
7.478888753837185 51.8593
7.501235387657368 52.492
7.523599738562711 56.2848
7.545946944825532 63.5324
7.568311870344528 65.2163
7.5906770845765665 60.6171
7.613025156078678 55.5884
7.635390950099687 53.8419
7.657739602662809 52.9118
7.680105979923558 53.013999999999996
7.702472650212829 53.5614
7.724822180948224 53.3682
7.747189439655568 53.8809
7.769539560075357 54.4488
7.791907410653562 54.4013
7.81425812420825 54.3021
7.836626570110925 54.7819
7.858995315087906 55.7458
7.881346924933401 55.6613
7.903716270417482 56.0028
7.926068482028405 56.55
7.948438431475253 57.256
7.9708086843180235 58.0707
7.993161805171116 58.8059
8.015532667162402 58.9483
8.037886398416653 59.6421
8.060257873014221 60.1552
8.082629655331942 60.6881
8.104984308787587 61.2594
8.127356708900503 62.3218
8.149711981398308 63.1882
8.172085002766314 63.9342
8.194458336181368 64.7663
8.216814543847752 65.9592
8.23918850371002 67.4814
8.26154533906492 68.6624
8.283919928836452 70.4046
8.306277395339652 71.4154
8.328652618483376 72.80199999999999
8.351028159736202 74.9983
8.373386579575245 77.7582
8.395762759396959 79.933
8.418121819038275 83.3154
8.440498640894003 88.2803
8.462875785192262 95.9726
8.485235811156207 111.23700000000001
8.507613602688501 174.56900000000002
8.529974277114228 372.086
8.552352719347912 613.6569999999999
8.574731488360351 769.8539999999999
8.59709314210385 848.822
8.619472567021075 1032.49
8.64183487789147 1401.0
8.664214962183097 1818.98
8.686577933647762 1680.52
8.708958680784317 1001.93
8.731339760774953 438.601
8.753703729764451 182.59
8.77608547780821 118.3
8.798450116065078 104.51700000000001
8.820832535634787 97.7027
8.843215292401656 93.6607
8.865580941199045 91.3914
8.887964374703538 88.8735
8.910330701447199 87.3947
8.932714815164482 86.3154
8.955099270424924 85.0599
8.977466620733543 84.1598
8.999851761421976 83.6526
9.022219798361645 82.9056
9.04460562795561 82.83
9.066991803441677 82.3297
9.089360876979615 82.0626
9.111747746589993 81.7923
9.13411751544971 81.0142
9.156505082664324 81.0057
9.178875550323522 80.8921
9.20126381862328 81.581
9.223652438908596 87.5075
9.246023961427412 98.0127
9.26841328802173 100.928
9.290785518039224 95.1286
9.313175554425882 87.9348
9.335565947154315 83.1118
9.357939245086508 81.6518
9.380330352834827 81.64
9.40270436697103 81.643
9.425096193225055 81.6405
9.447488380180165 82.6553
9.469863475295412 82.6477
9.492256385987508 82.9668
9.514632206018318 83.2846
9.537025843935714 83.9441
9.559402392368193 84.3115
9.581796761000229 85.7862
9.604191496441521 85.9667
9.626569144158516 86.4955
9.648964615551032 87.2951
9.671343000390081 88.0999
9.693739211225699 89.3619
9.716135793237463 90.0369
9.738515290448102 90.9696
9.760912617143402 92.45299999999999
9.783292860202891 93.5902
9.805690935076182 94.5108
9.828089385495742 95.7763
9.850470754023561 98.0706
9.872869957865444 100.395
9.89525208097539 103.425
9.917652041736662 107.645
9.940052382417589 113.88799999999999
9.962435644102392 130.836
9.984836746950979 187.13
10.007220771957746 346.51800000000003
10.029622640473708 555.471
10.052007432299963 682.45
10.074410069984072 718.602
10.096813093716005 777.3760000000001
10.119199042482517 956.23
10.141602840636468 1299.84
10.163989564971628 1614.22
10.186394141051062 1580.97
10.208799107559706 1038.3
10.231187001965623 522.633
10.253592751657669 228.858
10.275981430388155 137.26
10.298387966769793 117.564
10.320794897965431 111.304
10.343184759907361 107.96799999999999
10.36559248305461 105.125
10.387983138083852 104.344
10.410391656691655 106.54899999999999
10.432800574501677 120.959
10.455192425893369 164.67700000000002
10.47760214443012 217.347
10.499994797678786 249.063
10.522405320453982 256.061
10.54479877906917 269.441
10.567210109595656 312.171
10.5896218454736 384.452
10.612016518879773 477.869
10.634429067781074 488.532
10.656824555333241 383.211
10.679237920773568 241.513
10.701651695961992 139.933
10.724048411481384 102.251
10.746463008485165 91.0355
10.768860546937125 86.6556
10.791275969274796 83.5038
10.81369180576079 81.4539
10.836090585366925 80.0573
10.858507252467449 78.5611
10.88090686379991 77.4885
10.903324365036394 76.7886
10.925724811614439 75.4236
10.948143150509463 75.0753
10.970561909719066 74.156
10.992963615930844 73.5321
11.015383218085756 72.5538
11.037785768347074 71.3543
11.06020621697282 70.6907
11.082627090322113 70.5301
11.105030913430326 69.6382
11.12745263854165 69.2153
11.149857314510728 68.1181
11.172279894912576 68.2083
11.194702904450653 67.0647
11.217108866490921 66.3105
11.239532736615194 66.2567
11.26193956033512 66.0392
11.284364294577085 65.7012
11.306789462371718 65.0942
11.329197585398376 64.9513
11.351623622610898 64.7791
11.37403261614354 64.2518
11.396459526308487 64.1891
11.418869393879497 63.7235
11.441297180532617 63.2868
11.463725406927658 63.1265
11.486136592353875 62.7171
11.508565700543707 62.2057
11.530977768845315 62.4008
11.553407762368774 61.7335
11.575838200059769 61.6984
11.598251599479612 61.5094
11.620682927815501 61.3848
11.64309721895548 61.5568
11.665529441478206 61.3494
11.687962112597958 60.8748
11.710377748130886 61.0748
11.732811318753434 61.1955
11.755227854859067 60.8865
11.777662328529495 60.9767
11.800079768750786 60.9644
11.822515149015453 60.7226
11.844950984084935 61.1189
11.867369787303163 60.7563
11.889806534289491 60.8575
11.912226250487029 62.0154
11.934663912939751 64.3616
11.9571020346363 66.1293
11.979523127133968 66.3393
12.001962169624331 65.7379
12.024384183972964 65.2015
12.046824150809913 67.5756
12.069264581333726 77.2823
12.091687985297767 90.70700000000001
12.11412934550045 102.06200000000001
12.136553680195208 107.514
12.158995973632788 109.88
12.181438735204349 114.016
12.20386447284199 123.87700000000001
12.226308172985636 143.439
12.24873485024193 170.114
12.271179492516982 188.51
12.293607112949127 179.588
12.316052700916226 143.928
12.338498763250042 101.97200000000001
12.360927805303868 75.8145
12.383374818673879 66.7554
12.405804812803074 63.7157
12.428252780773262 63.0738
12.45070122756722 62.785
12.473132656675375 62.568000000000005
12.49558206341869 62.5411
12.518014453510101 62.5472
12.540464823770117 62.4495
12.562915677315177 62.7339
12.58534951575545 63.2318
12.607801338171472 63.0968
12.630236146511358 63.5634
12.652688941369085 63.6876
12.675124723177234 63.7634
12.697578494048786 64.4913
12.720032754458185 64.6953
12.742470003354093 65.0437
12.764925245138771 65.5141
12.787363476431278 66.20100000000001
12.809819703166806 66.3181
12.83227642391173 67.2588
12.854716135692716 67.4969
12.877173846755147 68.9298
12.899614549869717 69.0
12.9220732548287 70.038
12.94453245827299 70.3889
12.966974655289818 71.5574
12.989434858002571 72.5772
13.011878055298721 73.3306
13.034339260862497 74.6507
13.056800969391883 76.1319
13.079245674017244 79.558
13.101708390774869 81.128
13.12415410463411 86.1353
13.146617833206086 102.65
13.169064559883248 133.846
13.191529303857127 165.572
13.213994557076367 187.96400000000003
13.236442809902437 195.67
13.258909083908291 198.535
13.28135835851934 207.59
13.30382565690295 231.08
13.326293469022952 275.112
13.348744283242008 334.079
13.371213125129904 386.105
13.39366497011003 388.545
13.416134845360597 318.877
13.438605238843131 223.455
13.46105863690397 150.203
13.483530069144786 121.848
13.505984506951902 130.829
13.528456981549432 155.625
13.550929978879088 174.31900000000002
13.573385983253365 182.41
13.595860028340867 181.90200000000002
13.618317081455832 185.238
13.64079217790333 198.53900000000002
13.663250283359057 224.635
13.685726434770173 266.222
13.708203115221277 317.462
13.730662806148091 340.06
13.75314054697177 309.45799999999997
13.775601299246777 241.71099999999998
13.798080104050406 161.317
13.820559442405358 109.016
13.843021793671388 88.7122
13.865502201420897 82.1069
13.887965623051947 80.1619
13.910447103807167 78.6003
13.932929122629764 77.2213
13.955394156785959 76.62100000000001
13.977877254034569 75.6865
14.000343367582113 74.551
14.022827546871707 73.9821
14.045294743423524 72.9992
14.06778000837062 72.3098
14.090265817715476 72.3817
14.112734645763819 72.2402
14.13522154619454 73.4449
14.157691466286913 74.2382
14.180179461423874 74.001
14.202668005486178 72.9308
14.22513957064374 71.6066
14.247629214846473 70.2246
14.270101881097517 69.4401
14.29259262906496 68.9497
14.315083930490205 68.8492
14.337558255389705 68.4927
14.360050666019726 68.4587
14.382526101071944 68.0069
14.405019624534942 67.7992
14.427513705993134 67.5034
14.449990813291825 67.818
14.47248601302899 67.5965
14.49496423954951 67.6282
14.517460561197822 67.7122
14.539939910570322 67.2685
14.562437357763558 67.7471
14.58493536931253 68.03399999999999
14.607416409993311 68.0899
14.62991555254159 68.498
14.652397725157423 68.5771
14.674898002342799 69.0049
14.697398848433282 69.1847
14.719882725991326 70.0801
14.74238471217934 70.5823
14.764869730765593 73.4481
14.787372860692983 80.15899999999999
14.809876564079925 93.5396
14.83236330125751 107.666
14.854868153850365 116.86
14.877356041159485 120.352
14.899862046604186 120.689
14.922351087688757 122.706
14.944858249632887 129.032
14.967365991421232 141.192
14.989856770231246 158.985
15.012365673994204 184.78900000000002
15.03485761569738 206.003
15.05736768508665 205.832
15.07987833888692 182.454
15.102372032001655 143.55100000000002
15.124883856909658 105.4
15.14737872204565 83.2088
15.169891721717274 74.0582
15.192405310371893 70.9027
15.214901940621196 69.6375
15.237416709527137 68.8181
15.259914520936249 68.2532
15.282430473753607 67.3048
15.304947020131227 66.7925
15.327446610371178 66.359
15.349964346154254 66.0299
15.372465126703139 65.9778
15.394984055556009 65.8442
15.417486030076159 65.7577
15.44000615566487 65.4549
15.462526881230803 65.3999
15.485030653812652 65.0509
15.507552581617434 64.7307
15.530057557334603 64.8237
15.55258069104857 64.8067
15.575104429329837 65.2448
15.597611216864632 65.1262
15.620136166564563 65.2806
15.6426441664095 66.1589
15.665170331202765 67.7159
15.687697105158826 73.2025
15.710206930593545 83.7603
15.732734925158933 95.3819
15.755245972089478 103.428
15.77777519094324 107.77600000000001
15.800287463046663 107.631
15.822817909869592 108.176
15.84534897229804 111.083
15.867863089299354 119.09299999999999
15.890395385222186 130.41299999999998
15.912910736597423 147.78
15.935444269699861 170.19099999999997
15.957978423016485 184.067
15.980495633101265 179.667
16.003031029129367 156.33
16.02554948280019 122.60799999999999
16.048086125229432 91.4248
16.070623392487107 74.8897
16.09314371869582 67.0242
16.11568223789321 63.332
16.13820381691126 61.7314
16.160743591742527 60.7369
16.183283996022084 60.2402
16.205807461423195 58.9077
16.228349126881973 58.3976
16.25087385432698 58.1515
16.27341678466365 57.5106
16.29594277784926 57.3645
16.31848697676433 56.8428
16.341031811604868 56.4126
16.36355971058487 56.3612
16.3861058195587 56.1972
16.40863499352978 55.6572
16.431182380342005 55.3632
16.453730407713202 55.181000000000004
16.476261501364792 54.8411
16.498810812136167 54.5015
16.52134319004079 54.7912
16.54389378792203 54.4701
16.566445031001553 54.4023
16.588979342490088 54.0632
16.61153187824822 54.0911
16.634067483263312 54.058
16.656621315414416 53.8681
16.679175797408888 53.6971
16.701713349928728 53.8459
16.72426913389191 53.9561
16.74680798922351 53.8987
16.76936507887444 53.7301
16.791905240734874 53.835
16.814463639794468 53.6451
16.837022695210294 53.6675
16.859564824093756 54.0014
16.882125194503903 53.9012
16.904668639217885 54.2736
16.927230328348003 54.1479
16.949792678493612 54.5503
16.972338104193863 54.5379
16.994901778652235 54.4913
17.017448529496576 54.6551
17.040013531998152 54.8421
17.06257920018044 55.1232
17.0851279459922 56.202
17.107694947817667 58.4219
17.130245028099072 60.5893
17.15281336730298 62.5118
17.17536478578733 63.9997
17.19793446610687 64.4048
17.220504818648422 64.4175
17.243058251703697 64.5693
17.265629950971032 65.6251
17.288184731571736 67.5972
17.310757781306908 70.7875
17.33333150794385 73.9847
17.355888317140174 77.7864
17.37846339986244 80.7719
17.401021565958885 80.882
17.42359800851343 77.7444
17.44617513265564 71.8213
17.468735341390783 65.944
17.491261035594565 61.63
17.51396340099364 59.2702
17.536490463869136 58.8147
17.559018209820174 58.4723
17.58154663977963 58.5091
17.604251766089718 58.6467
17.626781572227713 58.8493
17.64931206518155 58.9236
17.671843245885103 59.1856
17.69455114821572 59.5097
17.717083712612634 59.9216
17.739616967569667 60.4113
17.762150914021706 61.0289
17.78486160749854 61.281000000000006
17.807396945166804 61.6444
17.829932977143503 62.2834
17.85246970436452 63.2852
17.875183204129467 65.9879
17.897721330097664 71.4326
17.920260154126645 78.1067
17.942799677153296 83.62899999999999
17.9655159983646 87.0148
17.988056927677544 88.1539
18.010598558807683 88.0593
18.033140892692916 88.8579
18.05586005052525 91.0206
18.07840379824407 94.8984
18.10094825154059 101.29
18.12366954819864 110.82799999999999
18.146215420998306 123.98700000000001
18.16876200220057 138.188
18.191309292745153 145.77100000000002
18.214033452627167 144.174
18.236582170236648 131.716
18.259131600016456 113.58200000000001
18.281681742907335 97.1497
18.304408781233683 87.6227
18.32696035875955 84.488
18.349512652227624 84.6792
18.372065662579683 87.7688
18.394795594587553 92.632
18.41735004715306 98.1199
18.43990521943684 102.145
18.46246111238171 102.10700000000001
18.485193953325208 96.2616
18.507751296070428 86.9235
18.530309362314178 77.5645
18.552868153000343 69.967
18.57560391815056 65.1075
18.59816416623245 62.8949
18.620725141597372 61.8634
18.643286845190268 60.9904
18.666025549835414 60.625
18.688588718427933 59.9357
18.711152618092243 59.5758
18.73389353884365 59.159
18.75645890921984 58.8706
18.77902501351406 58.4849
18.801591852673102 58.4841
18.824335739722738 57.8812
18.846904057212626 57.695
18.8694731124168 57.409
18.89204290628315 57.4221
18.914789774966803 57.1497
18.937361054791623 56.9117
18.959933076131318 56.4888
18.982505839934877 56.5665
19.00525570560582 56.4261
19.027829963004184 56.3502
19.05040496572238 56.4387
19.072980714710468 56.4411
19.095733592739563 56.2509
19.11831084296757 56.8447
19.140888842324735 58.0021
19.16346759176222 59.2959
19.18622349753803 60.7418
19.208803755869358 61.4894
19.231384767143577 61.8119
19.253966532312948 61.8844
19.276725481241822 62.0652
19.29930876296784 62.3612
19.3218928014549 62.8959
19.34465404436217 64.0462
19.36723960516257 65.7994
19.389825925592426 67.8095
19.412413006605938 70.4057
19.43517731967805 72.6384
19.457765930683355 73.7662
19.48035530514408 72.4782
19.50294544401556 68.9551
19.525712842708348 64.2347
19.54830451925909 59.8824
19.570896963095727 56.3329
19.593490175174704 54.5078
19.616260674962184 53.9711
19.638855432416964 53.4904
19.661450960992624 53.5029
19.68404726164677 53.3057
19.706820878021247 53.11600000000001
19.729418731756834 53.3492
19.752017360452857 52.9519
19.77461676506804 53.0786
19.797393513540218 53.1644
19.819994478951667 53.3205
19.84259622316767 54.2125
19.8651987471481 55.4903
19.887978643247177 56.581
19.91058273574792 57.2874
19.933187610901943 57.9173
19.955969879466828 58.1381
19.97857632894404 58.0351
20.00118356396599 57.8866
20.023791585494575 58.287
20.046577028914875 59.3201
20.069186632506966 61.0174
20.091797025500632 63.2148
20.114408208858933 65.8299
20.137196842715273 69.1018
20.159809615886765 71.7092
20.18242318232135 72.27
20.20503754298326 71.2815
20.227829382875154 68.5899
20.250445341109344 65.2638
20.27306209647285 62.3844
20.29567964993108 60.6213
20.31847471147704 59.943000000000005
20.34109387027612 60.5626
20.363713830075454 61.9465
20.386334591841646 63.7446
20.409132890679302 64.7953
20.431755265564437 64.4643
20.454378445325528 62.527
20.477002430930366 59.339
20.499803982716553 56.278
20.522429589228004 53.4019
20.54505600449589 51.4896
20.567683229489194 50.6545
20.590488049900088 50.2575
20.61311690359731 49.8897
20.63574656993626 49.685
20.658553853717297 49.4169
20.681185154618298 49.3091
20.703817271080066 49.3064
20.72645020407368 48.8367
20.749260783967177 48.9226
20.771895359337133 48.8863
20.794530754161617 48.9054
20.817166969412938 48.8575
20.83998086114876 48.8793
20.86261872660049 48.5937
20.885257415405402 48.5538
20.90789692853701 48.208999999999996
20.930714147864748 48.2329
20.953355319030678 48.3175
20.97599731745334 48.4723
20.99864014410749 48.4659
21.021460706796564 48.755
21.044105199328826 48.8912
21.06675052302631 49.0946
21.089396678865015 49.1224
21.112220600704806 49.1184
21.134868430275347 49.073
21.15751709492456 49.1431
21.180166595629693 49.0735
21.202993892429635 49.1799
21.22564507473034 49.4338
21.24829709602816 49.9076
21.27112693608965 50.2282
21.293780644891275 50.9393
21.316435195634053 50.9987
21.339090589297417 51.0523
21.361923832041875 50.8679
21.384580921090404 50.3355
21.407238856007325 49.472
21.429897637773326 49.0886
21.45273429906592 48.6525
21.475394784108598 48.4634
21.498056118951983 48.381
21.520718304578022 48.3783
21.543558400304388 48.5762
21.566222297108816 48.653999999999996
21.58888704765135 48.6712
21.61155265291521 49.0744
21.63439619898156 49.8861
21.657063523335786 50.8125
21.67973170537063 52.0675
21.7024007460706 52.9216
21.72524775840385 53.4114
21.747918526116475 53.7732
21.770590155457388 53.8199
21.79326264741238 53.8256
21.816113141960237 54.1952
21.838787368860547 54.9795
21.861462461341976 56.1667
21.884315579735777 57.7762
21.90699241312273 59.1659
21.92967011506078 61.0123
21.95234868653799 63.0074
21.9752053151131 64.9196
21.997885635446785 65.7994
22.020566828293532 65.65
22.04324889464272 63.5623
22.066109049404666 60.8334
22.088792872571794 58.0605
22.111477572219204 55.9524
22.1341631493376 55.1133
22.157026846313123 55.0716
22.179714188221507 55.5917
22.202402410582668 56.1696
22.22509151438863 55.7925
22.24795876962584 55.0463
22.270649646204486 53.8171
22.293341407213727 52.4366
22.316034053646906 50.9439
22.338904883215342 49.9341
22.36159931041458 49.4184
22.38429462602756 49.0026
22.40699083104897 48.6739
22.429865251039757 48.4691
22.452563244831367 48.3847
22.47526213102522 48.4559
22.49813925616515 48.5373
22.520839937143307 48.5843
22.543541513520587 48.5793
22.56624398629403 48.3689
22.589124730075895 48.3483
22.611829005656723 48.6736
22.63453418063466 48.532
22.657240256008077 48.8347
22.680124634582935 49.1111
22.70283252079775 49.8662
22.725541310413075 50.721000000000004
22.74825100442868 51.0279
22.771139033969575 51.6491
22.79385054687155 51.7232
22.81656296718292 51.6899
22.83927629590484 51.7078
22.862167992606945 51.7894
22.88488314827121 52.2283
22.907599215359284 52.3193
22.93031619487366 52.823
22.953211574954405 53.242
22.975930389478226 54.5006
22.998650119445763 55.5289
23.02137076586092 56.3682
23.044269845560063 57.435
23.06699233506288 57.9431
23.089715744034912 57.5086
23.112617610931565 56.2703
23.135342869061212 54.4538
23.158069049684816 52.4345
23.1807961538087 50.8632
23.20370174880544 49.7223
23.226430710184808 49.0381
23.249160598093425 48.9079
23.271891413539002 48.9925
23.294800752937697 49.2813
23.31753343374794 50.3372
23.340267045128353 50.7442
23.36300158808808 51.3536
23.38591468821339 51.6527
23.408651104658304 51.6368
23.431388455719986 51.5154
23.454126742409 51.4325
23.4770436196085 51.2591
23.499783787914662 51.6504
23.522524894889884 51.8426
23.54526694154616 52.1406
23.56818761219047 52.7293
23.59093154860734 53.6439
23.613676427751283 55.0989
23.636422250635754 56.0458
23.659346731118656 57.18899999999999
23.68209445191868 57.8209
23.704843119509587 57.1679
23.72759273490623 55.4589
23.750521041644767 53.5693
23.77327256312355 51.2368
23.796025035462787 49.0961
23.818956224555475 47.3879
23.841710609113413 46.6781
23.86446594758979 46.1313
23.887222241002014 45.8807
23.910157285144578 45.4824
23.932915498962537 45.4292
23.955674670778713 45.0463
23.978434801611975 44.9634
24.001373717286125 44.8364
24.024135776723917 44.8
24.046898798245582 44.6364
24.06966278287146 44.5046
24.092605586582614 44.2606
24.115371508023642 44.068000000000005
24.1381383956401 43.9369
24.16090625045381 43.9332
24.183852958731244 43.7898
24.206622758582608 43.7274
24.229393528706886 43.5262
24.252165270127392 43.6084
24.27511589952438 43.4365
24.297889594216997 43.3928
24.32066426328598 43.1481
24.34343990775613 43.331
24.36639447485003 43.1564
24.38917208083877 43.1072
24.41195066531332 42.8399
24.43490819850244 42.8871
24.457688750692377 42.7002
24.48047028445616 42.696999999999996
24.503252800821233 42.8747
24.526214300784112 42.7934
24.548998793132213 42.7229
24.57178427117417 42.6349
24.59457073593893 42.8239
24.617536219319863 42.7395
24.64032466834748 42.931999999999995
24.663114107195035 42.8482
24.685904536893013 42.7545
24.708874020360852 42.5939
24.731666442613744 42.6435
24.754459858818787 42.4737
24.777254270007962 42.2798
24.80022777025625 42.1683
24.82302418230472 42.2041
24.845821592443674 42.2157
24.86862000170663 42.246
24.891597535453727 42.2855
24.914397953892728 42.6051
24.93719937456671 42.4546
24.96000179851076 42.3586
24.98298338249997 42.5637
25.00578782394922 42.6766
25.028593271784167 42.8458
25.05157790644186 43.1156
25.07438537804115 43.2041
25.097193859145293 43.3717
25.120003350792075 43.4467
25.142992065061257 43.7883
25.165803588823465 44.0009
25.18861612625217 44.1597
25.211429678386736 44.2243
25.234422489079968 44.4668
25.257238081693636 44.6206
25.280054692141732 44.6904
25.3028723214652 44.526
25.325869245420463 44.5342
25.348688923599397 44.4982
25.371509623787006 44.5028
25.394331347025812 44.3034
25.41733240110666 44.7063
25.440156181590016 44.6802
25.46298098826268 44.7477
25.48580682216873 44.4182
25.50881202326435 43.6566
25.53163992281684 43.133
25.55446885274561 42.428999999999995
25.577298814096377 41.74
25.600308179121807 41.3459
25.623140214533745 41.1655
25.64597328451537 40.9126
25.66898578564376 40.7848
25.691820936010206 40.6591
25.714657124097695 40.5845
25.737494350954734 40.475
25.760511045684957 40.4263
25.783350361364224 40.6419
25.806190718969255 40.8319
25.82903211955018 40.8365
25.852053024868923 40.851
25.874896522722523 40.7415
25.897741066713106 40.7216
25.920586657892454 40.7902
25.943611790812668 40.7075
25.966459487728237 40.709
25.989308234998564 40.6611
26.01215803367705 40.6402
26.03518741123814 40.7996
26.05803932412957 40.8269
26.080892291600094 40.9962
26.10374631470478 41.0926
26.12677995397268 41.4249
26.14963609978026 41.6102
26.172493304397875 41.7102
26.19535156888223 41.9281
26.218389486949604 41.8551
26.241249882640123 41.6388
26.26411134137826 41.3104
26.28715248187403 41.0808
26.31001607820869 40.882
26.3328807407756 40.5769
26.35574647063438 40.6398
26.37879191991473 40.6289
26.401659795896734 40.5454
26.424528742360263 40.6714
26.447398760366614 40.6972
26.470448535598294 40.6917
26.49332070826805 40.8115
26.516193955675355 40.9172
26.53906827888316 40.8399
26.562122397260108 41.0616
26.584998883685063 41.1837
26.607876449110325 41.2528
26.63075509460056 41.3975
26.65381357334404 41.5151
26.67669439061878 41.7009
26.699576291163382 41.9319
26.722459276044212 42.38
26.745522132402975 42.5327
26.768407297649354 42.4987
26.791293550442003 42.2459
26.814180891848974 41.8826
26.837248143099337 41.2874
26.860137673466657 41.0951
26.88302829566349 40.8274
26.90592001075963 40.5932
26.92899167420566 40.5728
26.951885586870763 40.1695
26.974780595655517 40.0566
26.99785558178161 39.8762
27.020752794605112 39.6777
27.043651106772522 39.2656
27.06655051935668 39.1508
27.089629948036183 38.9372
27.112531573292053 38.8856
27.135434302194138 38.8569
27.158338135817015 38.7039
27.181422024430987 38.7224
27.204328079372566 38.6678
27.22723524226965 38.7609
27.250143514198573 38.6765
27.273231880156334 38.8088
27.296142382065014 38.5235
27.319053996245536 38.5569
27.341966723775965 38.5618
27.365059584515222 38.6867
27.38797455070062 38.5986
27.410890633481237 38.2771
27.433807833936918 38.2735
27.456905206923906 38.4006
27.47982465472398 38.3965
27.502745223449743 38.4643
27.525666914182825 38.5815
27.548768816912457 38.5794
27.571692763693633 38.4868
27.59461783573812 38.468
27.617723149491244 38.5209
27.640650484125285 38.538000000000004
27.66357894728264 38.6118
27.686508540048052 38.5012
27.709618414237887 38.5779
27.732550278321757 38.3571
27.755483275279115 38.334
27.778417406196485 38.3869
27.801531858397514 38.2102
27.824468269376716 38.0678
27.847405817586786 38.0047
27.870344504116094 38.1789
27.893463551932008 38.1269
27.916404527281053 38.2676
27.93934664422563 38.3338
27.962289903855886 38.2782
27.98541356491974 38.3422
28.00835912214229 38.3149
28.03130582533231 38.4648
28.054253675581805 38.5789
28.077381967556104 38.6488
28.100332124185126 38.7203
28.123283431160893 38.9492
28.146235889577238 39.131
28.169368830154156 39.150999999999996
28.192323603752033 39.1424
28.215279532083304 38.851
28.238415973016764 38.6698
28.261374223145094 38.5583
28.284333631303806 38.1708
28.307294198589954 38.089
28.330435319167677 37.8267
28.353398217078915 37.7424
28.376362277420153 37.518
28.39932750129032 37.1862
28.422473319286713 36.9459
28.44544088262495 36.8769
28.468409612800283 36.5605
28.491379510913497 36.2528
28.51453004413313 36.0311
28.53750229057244 36.1083
28.56047570826344 36.0401
28.583450298308804 35.9728
28.606605564586562 35.8495
28.629582511831156 35.8781
28.65256063474956 35.8314
28.675539934446338 35.7446
28.698699951647605 35.6842
28.72168161743193 35.4103
28.74466446331978 35.5638
28.767648490417624 35.5072
28.790813276438353 35.3569
28.813799678527303 35.3616
28.836787265157085 35.3763
28.859955641890075 35.3841
28.882945610203045 35.2199
28.905936766392035 35.1796
28.928929111566863 35.1925
28.952102288520145 35.2288
28.975097024308607 35.2338
28.998092952423807 35.1806
29.021090073977508 35.0621
29.04426806913204 35.1932
29.067267590245258 35.003
29.090268308143695 34.9885
29.11327022394099 34.8393
29.13645305530891 34.7135
29.159457379627167 34.5836
29.18246290519685 34.4833
29.20546963313352 34.3458
29.22865731875826 34.3746
29.25166646419296 34.3529
29.27467681535305 34.1135
29.29768837335608 34.0705
29.320880931312562 34.1492
29.34389491580634 34.013000000000005
29.366910110507334 34.0796
29.38992651653503 33.9916
29.41312396492981 33.9845
29.436142806456754 34.0617
29.45916286268059 34.1184
29.48236399319994 34.0846
29.50538649169417 33.9997
29.528410208259935 34.0311
29.55143514402014 33.7795
29.574641196749695 33.8394
29.597668583816574 33.6437
29.6206971934585 33.4169
29.64372702680042 33.4511
29.666938019934474 33.1863
29.689970313635285 33.0646
29.713003834422636 33.0686
29.73603858342347 33.0236
29.759254535188578 32.8807
29.78229175361658 32.8358
29.80533020365064 32.92
29.82836988641968 32.8877
29.85159081507472 32.8821
29.874632976355343 32.7319
29.89767637376955 32.754
29.920721008448314 32.644
29.9439469322847 32.6222
29.96699405457564 32.3813
29.9900424175358 32.6609
30.013092022298157 32.6231
30.03632295963995 32.4552
30.059375061131373 32.5726
30.08242840783577 32.5945
30.105483000888153 32.4806
30.128718970092244 32.247
30.151776069006917 32.38
30.17483441768648 32.3698
30.198074175317235 32.3007
30.221135036724256 32.2885
30.24419715131772 32.3246
30.267260520236203 32.2664
30.290505341942243 32.2562
30.313571232750228 32.4685
30.336638381310948 32.5026
30.35970678876503 32.4685
30.38295669299435 32.433
30.40602763151657 32.4387
30.429099832366074 32.3129
30.452173296685572 32.1914
30.47542830191959 32.1047
30.498504306502497 32.1201
30.521581577995562 32.1597
30.544660117543582 32.118
30.56792024229725 32.199
30.59100133132069 32.1037
30.614083691845494 32.1236
30.637167325018545 32.0332
30.660432587840603 32.1082
30.683518779717886 32.0171
30.70660624769615 32.116
30.729694992924372 32.1677
30.75296541239743 32.1635
30.77605672557558 32.1897
30.799149319462742 32.2511
30.8224236211637 32.1417
30.845518789950724 32.2367
30.868615242910597 32.2127
30.891712981195973 31.9652
30.91499247215866 31.9123
30.938092794619365 31.7674
30.96119440587579 31.8373
30.984297307082752 31.6726
31.00758200598383 31.4892
31.030687500658694 31.393
31.053794288760695 31.2871
31.076902371446767 31.2191
31.100192296997445 31.2896
31.12330298246119 31.188000000000002
31.14641496599209 31.0677
31.169528248749216 30.9987
31.19282341969534 30.8954
31.215939314557186 31.0338
31.239056512134788 31.0816
31.262175013589378 30.9938
31.28547544871168 30.9023
31.30859657161541 30.8654
31.331719001892175 30.9356
31.35484274070538 31.0512
31.378148458819545 30.9648
31.401274828443725 30.889
31.424402510106933 30.8338
31.447712205419993 30.9271
31.470842524931633 30.8448
31.493974159989783 30.857
31.51710711176168 30.8492
31.54042212308802 30.893
31.563557722100917 30.9467
31.586694641341655 30.901
31.609832881979628 30.8586
31.63315322823208 30.8509
31.656294125521327 30.7549
31.679436347728515 30.6327
31.70257989602529 30.6012
31.725905596152327 30.4229
31.74905181052835 30.3134
31.772199354521323 30.2994
31.79534822930507 30.2221
31.818679302290967 30.2489
31.84183085259981 30.1549
31.864983737233473 30.1562
31.88813795736804 30.2295
31.911474422233013 30.0079
31.934631327356435 30.031
31.9577895715215 30.0646
31.980949155906522 30.1507
32.004291031706956 30.1272
32.027453310562606 30.0119
32.05061693318573 29.914
32.07396288236386 29.9345
32.09712920658542 29.9825
32.12029687812702 29.8147
32.14346589817093 29.8013
32.166817291729984 29.8111
32.18998902288583 29.6129
32.21316210610336 29.5295
32.23633654256711 29.4712
32.259693399663725 29.3691
32.282870556771144 29.3939
32.30604907069099 29.3783
32.329228942610065 29.3718
32.35259128243769 29.1293
32.375773884550505 29.0439
32.398957848235646 29.0105
32.422143174682176 28.9301
32.445511016471215 28.8135
32.468699082679954 28.7911
32.49188851523011 28.7644
32.51507931531304 28.6651
32.538452678331 28.6985
32.56164622776311 28.6074
32.58484114831493 28.5457
32.60803744118015 28.5497
32.631416344731896 28.6032
32.654615396551876 28.5709
32.67781582427913 28.447
32.701198898634416 28.357
32.72440209253756 28.2619
32.747606665947124 28.3051
32.77081262006088 28.304000000000002
32.79420126883317 28.3127
32.81740999876112 28.2434
32.840620112999424 28.2036
32.86383161274818 28.1004
32.88722585534586 28.1735
32.91044014056596 28.2046
32.933655814909734 27.9996
32.95687287957963 28.0425
32.98027273544904 28.0383
33.00349259526636 27.924
33.026713849030116 28.0584
33.04993649794511 27.9407
33.073341986570746 27.7655
33.09656744032826 27.8582
33.11979429286444 27.8455
33.14302254538647 27.7991
33.166433686291185 27.7391
33.18966475336992 27.695
33.212897224069096 27.6266
33.23613109959831 27.7115
33.259547912343415 27.6616
33.2827846121627 27.5851
33.306022720453775 27.5833
33.32926223842861 27.4056
33.352684742614166 27.4663
33.37592709463173 27.4559
33.399170859982064 27.4518
33.422597648419426 27.3676
33.44584425514446 27.2876
33.46909227885668 27.2412
33.4923417207723 27.1314
33.51577423505344 27.1644
33.539026528130385 27.0798
33.56228024307245 27.0125
33.585535381098246 26.9054
33.60897364093058 26.8349
33.63223163992385 26.833000000000002
33.6554910656699 26.6609
33.678751919389796 26.7058
33.702195944520106 26.6794
33.72545966903325 26.5992
33.74872482519663 26.5267
33.771991414233746 26.5378
33.79544122444841 26.4082
33.81871069412428 26.435
33.84198160035767 26.5081
33.86525394437455 26.3751
33.88870955949969 26.2811
33.911984794020626 26.2931
33.93526147001624 26.3109
33.958539588715006 26.2823
33.98200102861669 26.2377
34.0052820477047 26.2277
34.02856451319451 26.1462
34.05203033759056 26.0794
34.07531571090147 26.0827
34.09860253431845 26.0692
34.121890809074316 26.0564
34.145362493118924 26.0011
34.16865368561615 25.8835
34.191946333164054 25.8188
34.21524043699793 25.7782
34.23871800066799 25.7559
34.26201503218366 25.6453
34.28531352370466 25.6362
34.30861347646881 25.6263
34.33209693978188 25.5836
34.3553998301885 25.5639
34.378704185565205 25.4441
34.402010007152356 25.3734
34.42549939016683 25.3722
34.44880815937748 25.3395
34.472118398533134 25.2923
34.49543010887669 25.2462
34.51892543169198 25.1574
34.54224009966052 25.1826
34.56555624255917 25.2283
34.58887386163339 25.1586
34.61237514439016 25.055
34.6356957311114 25.0964
34.65901779775809 24.9794
34.68252356662995 24.8852
34.705848608458616 24.9113
34.72917513396849 24.8262
34.75250314440949 24.8665
34.77601490857862 24.7167
34.799345904259795 24.7147
34.82267838863559 24.6909
34.846012362958525 24.6886
34.869530142679984 24.6419
34.89286711232212 24.552
34.91620557568269 24.5119
34.93954553401677 24.5318
34.9630693495876 24.5246
34.986412313340814 24.5606
35.00975677584668 24.4919
35.033102738362956 24.4771
35.05663261012228 24.3562
35.0799815881786 24.4079
35.10333207003229 24.2866
35.12668405694369 24.3199
35.150220005273056 24.3089
35.17357501786656 24.3111
35.19693153931268 24.2687
35.220289570874385 24.1776
35.24383161619786 24.1634
35.267192683604904 24.1828
35.290555264930376 24.0714
35.314101899412165 24.0511
35.33746752422433 23.9824
35.36083466676374 23.9863
35.38420332829803 24.0036
35.407756095629054 24.0559
35.43112781085063 23.9877
35.45450104888391 23.9053
35.477875810999194 23.9117
35.50143473172161 23.8762
35.52481255774625 23.951999999999998
35.54819191167777 23.8598
35.57157279478914 23.7424
35.595137889488406 23.77
35.61852184675279 23.7304
35.641907337029984 23.6805
35.665294361595684 23.7013
35.68886565090076 23.5471
35.7122557598848 23.5919
35.73564740699838 23.6533
35.759040593519934 23.5224
35.78261809810353 23.467
35.80601437933051 23.3681
35.829412203814705 23.3569
35.85281157283719 23.2738
35.876395313415884 23.3256
35.8997977874528 23.2767
35.92320180988546 23.2769
35.946790244133936 23.1291
35.97019737933222 23.1853
35.993606066789866 23.118000000000002
36.01701630779276 23.1165
36.04061101440684 23.0215
36.06402437852291 22.9718
36.08743930005611 23.0055
36.1108557802951 22.9105
36.13445678011326 22.9335
36.15787639383515 22.8951
36.18129757014299 22.8764
36.20472031032821 22.7361
36.22832762423364 22.6648
36.25175350829375 22.7372
36.275180960119776 22.7432
36.298609981005924 22.7216
36.32222362992669 22.6869
36.34565580510207 22.6354
36.36908955323448 22.6467
36.39252487562093 22.5057
36.416144880530226 22.5081
36.43958336764275 22.4707
36.463023432914625 22.5347
36.486465077645676 22.4224
36.51009145956204 22.4744
36.53353627947859 22.4335
36.55698268276811 22.3862
36.58043067073321 22.2919
36.60406345072071 22.2243
36.62751462435344 22.1745
36.65096738658405 22.1594
36.67460498210655 22.1578
36.69806093788647 22.1865
36.72151848619297 22.0846
36.744977628333636 22.1192
36.76862165890998 22.0813
36.79208400512205 22.0487
36.81554794910557 22.0006
36.83901349217101 21.8489
36.862663978991606 21.8524
36.88613273667352 21.8327
36.90960309738324 21.8438
36.933075062434064 21.7693
36.95673202673572 21.7788
36.98020721697122 21.6934
37.003684015502365 21.6164
37.027162423645365 21.6359
37.050825886711465 21.6512
37.07430753063053 21.5633
37.09779078812467 21.5924
37.121275660513014 21.4361
37.144945643673694 21.4531
37.16843376245278 21.3571
37.19192350009803 21.3378
37.215414857931435 21.3941
37.239091382563885 21.2951
37.262585997426164 21.326
37.28608223645736 21.2866
37.309763684451696 21.2886
37.33326318851098 21.226999999999997
37.356764320726555 21.1647
37.380267082425526 21.2239
37.40395510942588 21.1984
37.42746114683234 21.0987
37.45096881771841 21.0161
37.474478123414166 21.0331
37.49817275092816 21.0413
37.52168534303452 20.9991
37.54519957395567 20.8988
37.568715445024665 20.9127
37.592416694607714 20.815
37.61593586281424 20.8446
37.63945667518264 20.835
37.66297913304891 20.7993
37.68668702630454 20.7583
37.710212792059274 20.6617
37.733740207334854 20.6437
37.757269273470364 20.6449
37.780983832050374 20.5804
37.80451621684926 20.5916
37.82805025654007 20.5198
37.851585952464795 20.5047
37.8753071980695 20.4474
37.89884622345676 20.4196
37.92238690911902 20.3466
37.94611318753442 20.2374
37.969657210779765 20.2912
37.99320289834801 20.2686
38.016750251586465 20.2258
38.04048325513017 20.1882
38.06403395679343 20.1468
38.087586328183946 20.1313
38.11114037065203 20.1242
38.13488012115898 20.1368
38.1584375229181 19.9968
38.181996599821 19.9848
38.205557353221124 19.9951
38.229303872575656 19.9886
38.2528679961576 19.9038
38.27643380031219 19.8805
38.30000128639589 19.8027
38.32375459653193 19.8576
38.34732546371299 19.8397
38.37089801690786 19.7519
38.39447225747609 19.7627
38.418232380377425 19.7074
38.441810012983396 19.7048
38.46538933705673 19.6433
38.488970353960084 19.6621
38.51273731166058 19.6062
38.536321731567014 19.4775
38.55990784840681 19.4662
38.58367995004091 19.452
38.60726947812959 19.412
38.63086070726198 19.3575
38.654453638806274 19.3823
38.678232613930824 19.3528
38.70182896773327 19.3528
38.72542702806741 19.2811
38.7490267963045 19.2859
38.77281266709232 19.2506
38.79641586862214 19.2576
38.8200207821842 19.1737
38.843627409152944 19.1659
38.86742019782782 19.1713
38.891030269149255 19.0478
38.914642058016156 19.0
38.938255565806124 19.038
38.96205529464307 19.0172
38.98567225787121 18.9588
39.00929094417078 18.9384
39.03291135492255 18.9039
39.05671804624804 18.8608
39.080341923549106 18.8668
39.103967529460334 18.8299
39.127594865365744 18.7681
39.15140854155791 18.7184
39.17503935514948 18.686
39.19867190290282 18.6587
39.22249083587951 18.6234
39.24612686969409 18.6308
39.269764641845306 18.611
39.293404153722804 18.5827
39.317230110864074 18.5527
39.34087311998506 18.4847
39.36451787301696 18.4679
39.388164371352595 18.3547
39.41199737518003 18.3472
39.43564738196752 18.308
39.45929913825317 18.344
39.48295264543308 18.2902
39.506792718520884 18.2378
39.530449745387216 18.2675
39.55410852735203 18.2561
39.57776906581474 18.2856
39.60161623079 18.1739
39.625280300200025 18.191
39.64894613032202 18.1436
39.67261372255866 18.1017
39.6964680021016 18.0492
39.72013913657293 18.134
39.74381203738292 18.0898
39.76748670593756 18.0393
39.79134812278169 17.9946
39.81502634488497 17.9659
39.83870633896685 17.9301
39.862388106436654 17.8559
39.88625668336918 17.8314
39.90994201572829 17.8374
39.933629125719285 17.8524
39.957503091207826 17.8424
39.9811937746168 17.8224
40.00488623990914 17.7455
40.02858048850006 17.7149
40.05246165409549 17.6383
40.076159487492085 17.6573
40.099859108448875 17.6535
40.123560518384345 17.5935
40.1474489070226 17.5652
40.171153913178564 17.4642
40.194860712584955 17.4423
40.2185693066637 17.489
40.242464941335314 17.4177
40.26617714307655 17.3863
40.289891143772046 17.3228
40.3136069448471 17.3661
40.33750984859743 17.3661
40.3612292688043 17.2634
40.3849504936829 17.2795
40.40867352466194 17.2728
40.43258372059144 17.2295
40.45631038219906 17.267
40.48003885420956 17.1216
40.503769138055105 17.0993
40.52768664931955 17.1123
40.55142057531802 17.05
40.57515631746428 17.0677
40.599079334038514 17.0998
40.62281872700477 16.9791
40.64655994043941 16.9837
40.67030297578061 16.9041
40.69423334835778 16.9204
40.71798004609188 16.926
40.74172857006355 16.8386
40.76547892171441 16.8374
40.7894166736039 16.8234
40.813170699248566 16.7688
40.83692655691388 16.7001
40.86068424804498 16.7333
40.884629402612525 16.7265
40.908390779366385 16.67
40.932153993938 16.6494
40.95591904777605 16.7025
40.979871628443995 16.7218
41.003640379561936 16.5714
41.02741097430883 16.5728
41.05118341413683 16.5418
41.075143444384416 16.5375
41.098919593177826 16.5357
41.1226975914255 16.4292
41.14647744058318 16.3865
41.170444943946755 16.3916
41.19422851378379 16.365
41.218013938914645 16.3326
41.24198706625173 16.3061
41.26577622087193 16.288
41.289567235177785 16.2912
41.31336011063129 16.2035
41.337340752422875 16.1952
41.361137369129835 16.1949
41.38493585138705 16.0903
41.40873620066004 16.0845
41.43272438060107 16.1054
41.45652848292052 16.0153
41.48033445666918 15.9848
41.50414230331616 15.972999999999999
41.528138045159764 15.9179
41.551949656675205 15.9134
41.575763145513235 15.8763
41.59957851314666 15.8589
41.62358184070442 15.8432
41.64740098505737 15.8282
41.6712220126409 15.7511
41.69504492493139 15.7503
41.71905586207357 15.695
41.74288256296395 15.6795
41.766711153007456 15.6638
41.79054163368412 15.6554
41.814560204340054 15.7116
41.838394485526365 15.6546
41.86223066180303 15.5845
41.88625497706819 15.5504
41.910094962812 15.5525
41.93393684811168 15.5078
41.95778063445365 15.48
41.981812625263366 15.4115
42.00566023303407 15.469000000000001
42.029509746323676 15.4436
42.05336116662236 15.4061
42.077400857069705 15.4154
42.10125611078846 15.3749
42.12511327600405 15.3153
42.14897235421036 15.2998
42.173019768448455 15.2931
42.19688269209613 15.2051
42.22074753323349 15.1822
42.24461429335818 15.1799
42.268669455600495 15.1431
42.292540073217886 15.1762
42.31641261433284 15.1272
42.34028708044675 15.0775
42.36435001496739 15.036
42.38822835065557 15.0267
42.41210861586426 15.0308
42.4359908120986 14.9938
42.46006154323262 14.9709
42.48394762115317 14.8958
42.507835634632315 14.9072
42.531912233047436 14.8723
42.55580413732265 14.8131
42.579697981698 14.8476
42.60359376768525 14.8066
42.62767820545945 14.7584
42.65157789440821 14.774000000000001
42.67547952952185 14.7579
42.699383112316 14.697000000000001
42.72347541395347 14.636
42.74738291190531 14.6019
42.771292362102166 14.6082
42.795203766063516 14.6609
42.819303956130405 14.5664
42.843219287476536 14.5623
42.86713657716324 14.5042
42.89105582671383 14.4702
42.91516392983864 14.5098
42.939087119032166 14.4669
42.963012272677304 14.4639
42.98693939230129 14.4248
43.01105543317513 14.3348
43.034986504731386 14.3501
43.05891954686589 14.3145
43.08285456110972 14.3613
43.10697856448665 14.2603
43.130917542983475 14.2262
43.15485849820081 14.2097
43.17880143167367 14.1969
43.20293342237094 14.199000000000002
43.226880332449 14.1283
43.25082922540554 14.147
43.27496722682525 14.1103
43.29892010567796 14.1028
43.32287497204102 14.093
43.34683182745632 13.9987
43.370977859791836 14.033
43.39493871351105 14.0056
43.41890156092628 13.9562
43.44286640358341 13.9826
43.46702049182749 13.8976
43.49098934522816 13.8942
43.51496019852649 13.8731
43.5389330532723 13.8533
43.56309522248204 13.8331
43.58707210044314 13.8168
43.61105098451946 13.7675
43.63503187626491 13.724
43.659202151562134 13.6975
43.68318707902681 13.7217
43.70717401884041 13.693
43.731162972560874 13.654000000000002
43.75534137913236 13.615
43.779334381108384 13.6034
43.803329401683186 13.6162
43.82732644241872 13.5738
43.8515130055166 13.5767
43.87551410707659 13.5094
43.89951723350145 13.4662
43.923709934595614 13.4824
43.94771713129917 13.4778
43.97172635758096 13.4015
43.99573761501002 13.4022
44.0199385169922 13.3409
44.04395385732619 13.3836
44.067971233533086 13.3796
44.09199064718605 13.2724
44.11619977548961 13.2815
44.14022328470671 13.261
44.16424883610785 13.2235
44.18827643127035 13.2276
44.21249381139513 13.2294
44.236525514814076 13.1383
44.26055926674478 13.1074
44.28459506876863 13.1079
44.3088207262813 13.0693
44.33286064928722 13.0637
44.35690262714919 13.0308
44.38094666145278 12.9898
44.4051806219871 13.0654
44.42922879003185 13.03
44.45327901929361 12.9565
44.477331311362136 12.9429
44.501573600619416 12.912
44.525630039221795 12.857999999999999
44.54968854541895 12.8654
44.573937102200176 12.8303
44.5979997645541 12.8368
44.622064499300315 12.7973
44.64613130803592 12.7727
44.67038823869318 12.7823
44.69445921643748 12.7449
44.718532272981385 12.7221
44.742607409926194 12.7
44.76687274034801 12.6701
44.79095205918753 12.6453
44.81503346325094 12.6594
44.839116954143876 12.6229
44.86339071028742 12.5781
44.88747839599524 12.5546
44.91156817336837 12.5643
44.93566004401666 12.5339
44.959942251908146 12.462
44.984038330325966 12.4528
45.00813650686762 12.3922
45.03223678314731 12.4139
45.05652746888232 12.3839
45.08063196592069 12.3688
45.104738567558705 12.3289
45.128847275414856 12.307
45.15314646515866 12.2505
45.17725940679741 12.3097
45.20137445952892 12.290999999999999
45.22568004865265 12.2536
45.24979934496396 12.2065
45.27392075725247 12.1675
45.29804428714431 12.2231
45.322358426247604 12.1801
45.346486212804315 12.1819
45.370616121861914 12.152999999999999
45.39474815505086 12.114
45.41907087049246 12.0447
45.4432071734666 12.0074
45.46734560548283 12.0799
45.49148616817604 12.0134
45.51581748638564 12.0585
45.5399623320197 11.9742
45.56410931325473 11.9734
45.58825843173002 11.9624
45.61259837920865 11.8848
45.636751793816 11.8534
45.66090735060093 11.8542
45.68506505120716 11.827
45.7094136545275 11.8179
45.73357566449271 11.7616
45.75773982322992 11.7496
45.78190613238733 11.75
45.806263418194064 11.6804
45.83043404997326 11.7514
45.85460683713677 11.7015
45.87897065658495 11.638
45.90314777634752 11.6577
45.92732705646868 11.6591
45.9515084986045 11.6282
45.97588104735473 11.6034
46.00006683541565 11.572000000000001
46.02425479047904 11.5225
46.04844491420549 11.5246
46.0728262191024 11.5199
46.09702070211635 11.4954
46.12121735879483 11.4731
46.14541619080294 11.5052
46.169806278764455 11.4472
46.194009483459034 11.4228
46.21821486849841 11.3892
46.24242243555223 11.3798
46.266821333570014 11.3506
46.29103328674601 11.2893
46.31524742696538 11.3107
46.33946375590237 11.2761
46.36387149104216 11.248
46.38809221957392 11.2081
46.41231514186606 11.1978
46.436540259597464 11.2151
46.460956858999374 11.1862
46.48518638983522 11.1654
46.509418121166966 11.1708
46.533652054678114 11.1139
46.55807754555709 11.0671
46.58231590571962 11.1009
46.60655647313217 11.0526
46.630988654873654 11.0157
46.655233659129024 10.9631
46.67948087571551 10.9419
46.70373030632484 10.9474
46.72817142736393 10.9904
46.752425308428684 10.9303
46.77668140861147 10.912
46.80093972960865 10.8589
46.82538981736788 10.8285
46.849652602470904 10.8387
46.87391761349769 10.8607
46.8981848521493 10.795
46.9226439341274 10.8019
46.946915650573224 10.7473
46.97118959976749 10.7274
46.99546578341598 10.6898
47.019933887188216 10.696
47.04421456235744 10.7135
47.06849747711879 10.6548
47.09278263318286 10.6388
47.11725978640143 10.628
47.14154944775105 10.5624
47.165841355555656 10.5609
47.1901355115306 10.5838
47.214621741924994 10.5601
47.23892041698887 10.5638
47.26322134538975 10.5271
47.28771440635075 10.4791
47.31201986422527 10.5145
47.33632758061436 10.4896
47.360637557241866 10.4278
47.38513974410611 10.4059
47.40945426407847 10.3913
47.43377104948137 10.3619
47.45809010204344 10.3421
47.48260144275502 10.2997
47.506925052572285 10.3178
47.53125093475548 10.2444
47.55557909103813 10.2406
47.58009961361992 10.248
47.60443234110732 10.2481
47.62876734791564 10.2449
47.65310463578333 10.1995
47.6776343683373 10.2013
47.7019762413987 10.1496
47.72632040075572 10.1346
47.75066684815169 10.0997
47.77520581885936 10.0688
47.799556865477655 10.0903
47.823910205386 10.1076
47.84826584033272 10.0636
47.87281407745551 10.0619
47.89717432569297 10.043
47.92153687423484 10.0032
47.94609208429692 10.0091
47.97045925671401 9.97979
47.99482873471275 9.932260000000001
48.01920052005013 9.941230000000001
48.04376504619224 9.91429
48.068141469543484 9.913260000000001
48.09252020552573 9.92511
48.11690125590099 9.83597
48.1414751266064 9.87369
48.16586082917454 9.82445
48.19024885144316 9.78905
48.2146391951793 9.75908
48.239222439012764 9.746089999999999
48.26361744916137 9.74767
48.28801478610016 9.77023
48.31241445160131 9.74132
48.337007097209366 9.714739999999999
48.36141144338331 9.66659
48.38581812345755 9.64594
48.41022713920929 9.645719999999999
48.434829215320704 9.61883
48.45924292604658 9.59511
48.48365897780325 9.61149
48.50807737237308 9.592030000000001
48.532688907799276 9.56551
48.55711201168574 9.5314
48.581537463754074 9.52558
48.60615611725119 9.53134
48.63058628942721 9.48851
48.65501881516546 9.49006
48.6794536962573 9.47071
48.70408185970339 9.514330000000001
48.72852147531801 9.41338
48.75296345168211 9.394060000000001
48.77740779059232 9.38289
48.80204549302823 9.45548
48.82649458091802 9.37157
48.85094603676547 9.334
48.87539986237231 9.3163
48.90004713292306 9.29712
48.92450572200832 9.31948
48.94896668628025 9.29557
48.97343002754588 9.26865
48.99808689542115 9.24018
49.02255501470614 9.23061
49.04702551642794 9.20052
49.0714984023988 9.18957
49.096164896893235 9.15472
49.120642575466796 9.1558
49.145122643748394 9.16838
49.16960510355558 9.117360000000001
49.19428125404938 9.1044
49.2187685210852 9.06552
49.243258185121555 9.087530000000001
49.26794160167084 9.0677
49.2924360839405 9.04826
49.31693296869764 9.00967
49.34143225776915 8.990089999999999
49.36612538195438 8.93163
49.39062950396021 8.988560000000001
49.41513603578346 8.958160000000001
49.4396449792564 8.92835
49.46434784069503 8.91288
49.488861631846454 8.92262
49.513377840166804 8.84665
49.537896467493745 8.85603
49.56260909589029 8.8048
49.587132585683285 8.83573
49.611658500018365 8.8138
49.636186840738596 8.7901
49.66090926588511 8.771360000000001
49.685442483902584 8.73167
49.70997813385706 8.726989999999999
49.734516217597076 8.7011
49.75924846937352 8.69505
49.7837914452858 8.71159
49.80833686055187 8.65915
49.83288471702571 8.6504
49.85762682540054 8.62355
49.882179588965734 8.620519999999999
49.9067347993235 8.62887
49.93129245833333 8.63849
49.95604445336378 8.60898
49.98060703442832 8.57263
50.005172069746266 8.5611
50.02993150438364 8.5294
50.05450147301533 8.53285
50.07907390151433 8.50644
50.10364879174981 8.49792
50.12841816587289 8.49173
50.1529980044635 8.44303
50.17758031042124 8.42795
50.20216508562089 8.43493
50.22694442953363 8.41427
50.25153416817468 8.36379
50.27612638170508 8.38917
50.300721072005196 8.36373
50.325510416102105 8.31551
50.350110084975064 8.32093
50.37471223628208 8.33485
50.39931687190919 8.260019999999999
50.424116246675766 8.28171
50.44872587605249 8.25806
50.47333799543065 8.24005
50.49795260670191 8.21376
50.52276204271512 8.213389999999999
50.54738166295838 8.20663
50.57200378079314 8.15982
50.596628398116835 8.1323
50.62144792604559 8.1587
50.646077567609396 8.10614
50.670709714377715 8.09615
50.69553683636198 8.09724
50.72017401885922 8.08015
50.7448137122895 8.07047
50.76945591856022 8.02188
50.79429318636823 8.03238
50.818940443716784 8.028189999999999
50.84359021965163 7.993239999999999
50.868242516085964 8.01878
50.893089960641895 7.9522699999999995
50.917747323549435 7.962260000000001
50.94240721271973 7.96352
50.96706963007175 7.93675
50.99192728239342 7.9201
51.01659478166073 7.9264399999999995
51.04126481489051 7.86804
51.06593738400761 7.866160000000001
51.090805275207074 7.83825
51.11548294172845 7.8461300000000005
51.14016314993547 7.82075
51.164845901758845 7.808610000000001
51.18972406304274 7.751580000000001
51.21441192780656 7.7733300000000005
51.23910234200271 7.78317
51.2637953075678 7.735110000000001
51.288683770237945 7.7020100000000005
51.31338186432707 7.688680000000001
51.33808251561888 7.72991
51.362978729967345 7.7037
51.387684521509755 7.664689999999999
51.41239287610203 7.63042
51.437103795691165 7.62665
51.46201036644977 7.613689999999999
51.486726441956634 7.58908
51.51144508832545 7.59652
51.536166307509156 7.588030000000001
51.56108326624387 7.553039999999999
51.58580965706056 7.51352
51.61053862657523 7.498289999999999
51.635270176746864 7.4386
51.66019755512065 7.468369999999999
51.68493429268881 7.469060000000001
51.70967361681515 7.455939999999999
51.73441552946465 7.43757
51.759353359237934 7.44394
51.7841004750961 7.435460000000001
51.80885018539685 7.4138399999999995
51.833602492111254 7.36838
51.8585508051424 7.353689999999999
51.883308330926425 7.3314
51.90806845906181 7.30046
51.932831191525715 7.305960000000001
51.95779001977161 7.272589999999999
51.98255798721516 7.266360000000001
52.00732856494335 7.29127
52.03229530577543 7.25075
52.057071130455945 7.22662
52.081849571391054 7.218780000000001
52.106630630568695 7.198589999999999
52.13160794279417 7.172839999999999
52.15639426492067 7.2092
52.18118321127822 7.17017
52.205974783860896 7.1677100000000005
52.23096269971011 7.14036
52.255759551287994 7.142689999999999
52.280559035098186 7.082039999999999
52.30536115314103 7.08977
52.33035970494467 7.085539999999999
52.35516711807904 7.11182
52.37997717147198 7.0496300000000005
52.40478986713005 7.021719999999999
52.42979908731974 7.026089999999999
52.454617094216 7.002619999999999
52.47943774942214 6.97002
52.50426105495102 6.9605
52.529280976059844 6.96895
52.554109609024096 6.9361
52.57894089837482 6.93266
52.60377484613117 6.936
52.62880550079408 6.91092
52.65364479223379 6.86998
52.67848674816189 6.900460000000001
52.70352547971946 6.85407
52.72837279155837 6.84127
52.753222773982785 6.8114
52.778075429022984 6.83818
52.80312495150885 6.81464
52.827982978797436 6.77446
52.85284368481815 6.734780000000001
52.87770707160767 6.75276
52.90276741793998 6.74288
52.92763619336701 6.74793
52.952507655698504 6.75513
52.977381806977576 6.68112
53.00245301017842 6.7227
53.02733256653592 6.70565
53.052214817996074 6.68115
53.077099766608484 6.645739999999999
53.102181859804446 6.63674
53.127072229988265 6.631989999999999
53.15196530349892 6.63847
53.17686108239249 6.565939999999999
53.20195409881522 6.573689999999999
53.22685531582556 6.55576
53.25175924441303 6.52231
53.27666588664027 6.51242
53.30176985962693 6.48643
53.3266819565689 6.50105
53.35159677336455 6.50087
53.376514312083096 6.49526
53.40162927507703 6.48944
53.42655228516116 6.45012
53.45147802340193 6.38512
53.47660125628886 6.37662
53.50153247842639 6.41951
53.52646643496923 6.4080900000000005
53.55140312799818 6.39593
53.576537409691696 6.392469999999999
53.60147960336152 6.33657
53.626424539786164 6.32011
53.65137222105307 6.28915
53.67651758529126 6.29453
53.70147078399681 6.26118
53.72642673383343 6.31682
53.75138543689533 6.27259
53.776541917524526 6.28195
53.801506154876755 6.25847
53.826473151763246 6.20399
53.851442910284916 6.2038400000000005
53.87661054126026 6.17508
53.9015858509782 6.18588
53.92656392866066 6.16869
53.95154477641532 6.2060699999999995
53.976723591801296 6.18131
54.00171000771266 6.1876
54.02669920004598 6.123819999999999
54.051691170915745 6.1077
54.076881204886796 6.1006599999999995
54.101878760928514 6.11134
54.12687910187696 6.081919999999999
54.152077577768296 6.019769999999999
54.1770835166946 6.02504
54.20209224691339 5.98971
54.22710377055121 5.96745
54.25231352511594 5.99297
54.27733066384342 5.9232
54.30235060239643 5.93895
54.32737334290836 5.94059
54.35259441062629 5.88647
54.377622783395324 5.86644
54.40265396455061 5.85508
54.42768795623251 5.82744
54.45292037169559 5.795380000000001
54.477960012857906 5.80823
54.50300247099511 5.75851
54.52804774825457 5.73374
54.55329154616743 5.72998
54.57834249018678 5.6963099999999995
54.6033962597977 5.68294
54.6284528571545 5.635
54.653708072335164 5.60798
54.67877035378786 5.629169999999999
54.70383546947698 5.636080000000001
54.72890342156389 5.54329
54.7541700889442 5.52095
54.77924374251975 5.5262199999999995
54.8043202390049 5.474
54.82959552413022 5.4689
54.8546777351945 5.4832
54.87976279569621 5.4210199999999995
54.90485070780914 5.49814
54.930137506558005 5.41613
54.95523115074295 5.42429
54.98032765308844 5.37351
55.005427015775496 5.31564
55.03072536339621 5.31573
55.05583047570572 5.27064
55.080938454927676 5.293819999999999
55.10604930325027 5.26202
55.131359235107396 5.2744800000000005
55.15647585066083 5.202719999999999
55.181595341907496 5.21366
55.20671771104285 5.15532
55.232039262617704 5.12148
55.25716741665048 5.06508
55.28229845518636 5.0907
55.30743238042802 4.98833
55.33276558731939 5.00286
55.357905315183636 5.0477
55.383047936390035 5.0254
55.40819345314859 4.96384
55.433538351073295 4.95831
55.458689688238415 4.93392
55.483843927614096 4.88995
55.509197623043605 4.9189300000000005
55.53435769621134 4.86239
55.55952067826466 4.8444400000000005
55.5846865714265 4.83673
55.61005202069737 4.80714
55.63522376553902 4.8232
55.66039842818645 4.77032
55.68557601087004 4.75025
55.7109532500271 4.69567
55.73613670233794 4.7352
