TT I
1.2716486653135266 7.398460000000001
1.2939594142134223 7.34209
1.3162702121660406 6.70423
1.3385810600174564 6.84006
1.3608919586137629 6.30722
1.383202908801069 6.4271400000000005
1.405513911425503 5.90375
1.4278249673332093 5.982069999999999
1.4501343378461518 6.08031
1.4724455028545926 5.501119999999999
1.4947567236847858 5.94551
1.517068001182951 6.6771899999999995
1.5393793361953272 5.95287
1.5616907295681737 5.586069999999999
1.5840021821477681 4.96036
1.60631369478041 4.93204
1.6286252683124185 5.60715
1.6509369035901333 5.4531
1.6732468618895553 5.1761099999999995
1.695558623192809 5.020490000000001
1.7178704487808514 5.41295
1.7401823395001077 5.37774
1.7625012545597203 4.4478
1.7848028405262486 4.4667
1.8071218901122095 4.56884
1.8294236121921872 4.51871
1.8517427996910911 5.16301
1.8740620574440425 4.92966
1.8963639900671978 4.42344
1.9186833908139995 4.42594
1.9409854680117449 4.62093
1.9633050151394713 4.4734300000000005
1.9856246367570705 4.8775900000000005
2.0079269371922672 4.42518
2.03024671027244 4.43436
2.0525491637446027 4.33068
2.074869091674931 4.5292
2.097171701569106 3.9989999999999997
2.1194917877373847 5.3106599999999995
2.141811954326636 5.31262
2.164114805233074 5.00822
2.186435135143035 5.2781
2.208738150935709 12.1496
2.231058647554722 21.2686
2.2533792288321184 16.4745
2.275682498336085 8.679089999999999
2.298003251406138 5.78995
2.3203066942619714 5.45752
2.3426276225136022 5.47474
2.3649486396617507 5.53558
2.387252348930071 6.02539
2.4095735463442893 6.1782
2.4318774374315884 6.40165
2.4541988185014043 6.69325
2.476502894794693 6.94552
2.498824462909887 7.308739999999999
2.521146125856138 6.82115
2.5434504863470337 7.1697
2.5657723414244717 7.82158
2.588076895590662 8.11459
2.610398946189713 8.33995
2.6327210958598384 8.433010000000001
2.6550259469304716 8.25469
2.6773482972090137 8.21611
2.6996533504259 8.52615
2.7219759047039602 9.05213
2.744298562293959 8.292689999999999
2.7666039251246595 8.20925
2.7889267918020164 7.896889999999999
2.8112323652516555 8.128160000000001
2.833555444408179 9.15489
2.8558786311183852 8.55438
2.8781845268938557 8.69037
2.9005079311721484 9.28251
2.9228140460410397 8.65063
2.9451376712799635 9.25638
2.967444008632326 9.64001
2.9897678582247247 9.926160000000001
3.0120918213106695 10.4054
3.0343984987899373 10.728
3.0567226913198637 11.1962
3.079029599759726 11.7734
3.101354025127254 12.3641
3.123678568232338 12.5046
3.145985829517914 12.6928
3.16831061055229 13.6707
3.1906181112775593 14.7661
3.212943133635653 14.5571
3.2352682779763207 14.9785
3.2575761442691227 14.9843
3.2799015350264273 15.638
3.302209649240067 16.0345
3.3245352898092655 17.0283
3.3468436553365257 17.3144
3.369169549113219 17.3773
3.3914955708171384 18.5141
3.413804319727358 18.9353
3.4361305997334863 19.0664
3.4584396084414553 19.5864
3.4807661501462652 20.2282
3.503092824025881 20.6709
3.5254022288463154 21.0342
3.5477291695206588 21.6923
3.5700388426251948 22.0476
3.5923660534916446 23.2258
3.6146934007816114 34.3588
3.637003482731501 70.7275
3.6593311053109985 78.1348
3.681641464033634 47.7994
3.7039693653009733 28.691
3.726297407241705 25.607
3.7486081875460804 25.549
3.7709365132734978 26.0278
3.793247578841633 26.5179
3.8155761917550093 26.6299
3.8378875459837216 26.6349
3.8602164494827234 27.0238
3.882545499606844 28.2026
3.9048572932539183 28.241
3.9271866390645718 28.7842
3.9494987298666713 29.4179
3.971828374764527 30.0912
3.9941581705403255 30.5911
4.016470713506008 31.005
4.038800813471445 31.482
4.061113662089144 32.26
4.0834440696459176 33.2377
4.105774632334751 33.3439
4.128087945865126 34.2462
4.150418821249301 35.3273
4.172732448931298 36.3675
4.195063640413578 37.4236
4.2173775856475215 40.5744
4.239709096631102 65.4254
4.262040768704612 184.071
4.284355196706267 243.12599999999998
4.306687193387355 158.731
4.329001947444346 68.9858
4.35133427213731 46.156000000000006
4.373666762177566 43.9263
4.395982011761091 43.7351
4.418314834921175 44.928000000000004
4.44063041906622 51.56100000000001
4.4629635787515625 59.618
4.4852969080429785 59.2514
4.5076130004776225 52.3308
4.529946671403969 50.8548
4.552263106909177 51.1743
4.574597122877047 51.3878
4.596931312711224 52.2283
4.619248269273446 52.6244
4.6415828092605835 53.8346
4.663900117405352 54.9716
4.686235010953232 56.3108
4.708552674085913 57.7544
4.730887924602802 59.2825
4.753223354952695 60.4866
4.775541557023902 62.2652
4.797877349456786 64.0719
4.820195915032126 66.0768
4.842532072957498 66.9245
4.864868414979744 68.6642
4.88718753227192 71.7621
4.909524244902505 73.2824
4.931843734218147 75.0082
4.954180820867835 77.1602
4.976518095879839 79.5658
4.998838149695359 82.87299999999999
5.021175803844231 86.2801
5.043496238205739 89.339
5.065834274903528 93.7086
5.088172504230693 98.5151
5.1104935158799565 104.863
5.132832132875765 124.133
5.155153533596801 159.33
5.1774925416746225 193.005
5.199814334878411 354.03
5.2221537374521505 983.791
5.244493338631803 2825.23
5.266815727034316 7897.91
5.289155727832427 12618.0
5.311478517248165 8469.92
5.333818921080011 2568.6
5.356159527788849 484.101
5.3784829252032536 176.71900000000002
5.400823940070432 140.567
5.423147747031976 125.42399999999999
5.445489173474152 116.331
5.467830807066149 111.611
5.490155234831516 108.024
5.512497285125229 104.874
5.534822130975162 103.294
5.557164601388673 100.99600000000001
5.579489868738879 97.9415
5.601832762690846 97.2028
5.6241758697774475 96.3604
5.646501775867269 95.1273
5.668845311622074 94.0189
5.691171647754637 93.0482
5.713515615597765 92.0476
5.735859800852677 91.6484
5.758186788542988 90.7631
5.780531411018185 91.6394
5.802858837297399 90.7991
5.825203900414495 91.0686
5.8475491852224 91.4598
5.869877275883075 92.4567
5.892223006467101 92.8077
5.914551544266608 93.6428
5.936897724049891 96.0023
5.959244129804903 101.98700000000001
5.981573344815301 122.66
6.0039202049061 213.08700000000002
6.026249875609095 456.855
6.04859719346037 955.638
6.070927323278297 2231.13
6.093275102315365 4544.98
6.115623113320588 5288.52
6.137953938319995 3125.36
6.160302415650845 882.215
6.182633708324452 206.479
6.2049826554078376 107.303
6.227331838745022 89.8359
6.249663839443684 82.9446
6.27201349767565 80.4801
6.294345974611799 84.7369
6.316696111167083 92.5694
6.339046488263839 87.6067
6.361379686074702 76.7593
6.383730546639482 70.6579
6.406064229255215 68.2794
6.428415576718203 67.9243
6.450749747566656 66.9264
6.47310158535871 65.6767
6.495453669698332 64.9004
6.517788579421056 64.0034
6.540141159237969 63.045
6.562476565766648 62.497
6.5848296444934045 62.3239
6.607182974060425 61.9503
6.6295191323281015 62.0149
6.651872965955752 64.4254
6.6742096296068985 83.7721
6.6965639707294615 116.889
6.71891856698715 116.053
6.741255995248479 84.6435
6.763611104154477 65.2161
6.785949046381137 59.4006
6.808304671371482 57.8947
6.8306605557940046 57.6502
6.852999275508618 56.8184
6.875355681171544 56.6295
6.897694923437771 56.3618
6.92005185377892 56.2487
6.9423916220322655 55.9787
6.964749080490181 55.3641
6.987106804399774 55.1404
7.009447368180821 55.0957
7.031805625367033 54.8773
7.054146723727803 54.6942
7.076505517631004 54.4524
7.098864581288365 54.2576
7.121206488070854 54.6672
7.143566093607822 54.3394
7.165908543567245 54.8152
7.188268694426048 54.5546
7.2106291193438095 54.5913
7.232972390625943 55.5693
7.255333366030969 65.7991
7.277677189091925 104.303
7.300038718428332 138.67600000000002
7.322400526130865 119.531
7.344745183422596 79.227
7.367107550224791 59.6126
7.389452767901992 55.4679
7.411815697249891 54.7647
7.434161478756298 53.8874
7.456524974096713 53.7985
7.478888753837185 53.6181
7.501235387657368 54.1216
7.523599738562711 53.9393
7.545946944825532 54.196000000000005
7.568311870344528 54.647
7.5906770845765665 54.9981
7.613025156078678 55.573
7.635390950099687 56.8252
7.657739602662809 56.2434
7.680105979923558 55.3944
7.702472650212829 55.7004
7.724822180948224 55.6278
7.747189439655568 55.5224
7.769539560075357 55.4167
7.791907410653562 55.9979
7.81425812420825 56.0553
7.836626570110925 56.4961
7.858995315087906 57.3637
7.881346924933401 57.6433
7.903716270417482 57.8792
7.926068482028405 58.0258
7.948438431475253 58.556999999999995
7.9708086843180235 59.2079
7.993161805171116 59.8729
8.015532667162402 60.4533
8.037886398416653 61.3001
8.060257873014221 61.8286
8.082629655331942 62.2909
8.104984308787587 63.2539
8.127356708900503 65.9465
8.149711981398308 70.5924
8.172085002766314 72.4209
8.194458336181368 70.1665
8.216814543847752 68.7317
8.23918850371002 68.899
8.26154533906492 69.6
8.283919928836452 71.2384
8.306277395339652 72.0717
8.328652618483376 73.4
8.351028159736202 75.4241
8.373386579575245 77.8546
8.395762759396959 79.441
8.418121819038275 83.8038
8.440498640894003 94.6439
8.462875785192262 107.20200000000001
8.485235811156207 122.816
8.507613602688501 168.551
8.529974277114228 254.37599999999998
8.552352719347912 381.101
8.574731488360351 655.696
8.59709314210385 1211.41
8.619472567021075 1931.25
8.64183487789147 2190.14
8.664214962183097 1710.16
8.686577933647762 842.7330000000001
8.708958680784317 313.86
8.731339760774953 148.07399999999998
8.753703729764451 107.00200000000001
8.77608547780821 96.8964
8.798450116065078 93.8249
8.820832535634787 91.4927
8.843215292401656 90.2399
8.865580941199045 88.8172
8.887964374703538 87.5871
8.910330701447199 88.4418
8.932714815164482 90.0541
8.955099270424924 88.695
8.977466620733543 86.3351
8.999851761421976 83.9883
9.022219798361645 82.9788
9.04460562795561 82.652
9.066991803441677 82.2641
9.089360876979615 82.1881
9.111747746589993 82.0945
9.13411751544971 81.2416
9.156505082664324 80.8943
9.178875550323522 81.2996
9.20126381862328 81.2375
9.223652438908596 81.5615
9.246023961427412 81.5185
9.26841328802173 81.2645
9.290785518039224 81.2282
9.313175554425882 81.93799999999999
9.335565947154315 82.1434
9.357939245086508 82.2898
9.380330352834827 82.6054
9.40270436697103 82.7635
9.425096193225055 82.6579
9.447488380180165 83.2878
9.469863475295412 83.3643
9.492256385987508 84.0549
9.514632206018318 84.5294
9.537025843935714 84.6536
9.559402392368193 85.6809
9.581796761000229 86.5249
9.604191496441521 87.7416
9.626569144158516 90.5509
9.648964615551032 93.8436
9.671343000390081 95.3566
9.693739211225699 94.1416
9.716135793237463 92.4588
9.738515290448102 92.1834
9.760912617143402 93.5575
9.783292860202891 95.0025
9.805690935076182 95.898
9.828089385495742 96.9193
9.850470754023561 99.2915
9.872869957865444 105.444
9.89525208097539 116.89399999999999
9.917652041736662 126.88
9.940052382417589 130.058
9.962435644102392 141.93
9.984836746950979 178.748
10.007220771957746 241.977
10.029622640473708 341.779
10.052007432299963 515.145
10.074410069984072 822.2280000000001
10.096813093716005 1285.16
10.119199042482517 1768.47
10.141602840636468 1956.83
10.163989564971628 1504.19
10.186394141051062 802.1030000000001
10.208799107559706 343.069
10.231187001965623 166.405
10.253592751657669 119.79799999999999
10.275981430388155 110.486
10.298387966769793 109.99700000000001
10.320794897965431 111.527
10.343184759907361 110.25200000000001
10.36559248305461 105.99600000000001
10.387983138083852 103.515
10.410391656691655 107.38600000000001
10.432800574501677 118.925
10.455192425893369 136.22299999999998
10.47760214443012 160.787
10.499994797678786 205.84900000000002
10.522405320453982 289.612
10.54479877906917 416.66900000000004
10.567210109595656 532.38
10.5896218454736 576.6030000000001
10.612016518879773 482.56300000000005
10.634429067781074 321.337
10.656824555333241 183.28900000000002
10.679237920773568 114.258
10.701651695961992 93.5272
10.724048411481384 87.9323
10.746463008485165 85.1313
10.768860546937125 83.73899999999999
10.791275969274796 82.0286
10.81369180576079 80.9818
10.836090585366925 80.1381
10.858507252467449 79.0193
10.88090686379991 77.918
10.903324365036394 77.4988
10.925724811614439 76.8861
10.948143150509463 77.8887
10.970561909719066 77.2993
10.992963615930844 75.7741
11.015383218085756 73.9586
11.037785768347074 72.5315
11.06020621697282 71.9786
11.082627090322113 71.3385
11.105030913430326 70.8319
11.12745263854165 71.2614
11.149857314510728 73.6597
11.172279894912576 78.124
11.194702904450653 78.4475
11.217108866490921 75.1572
11.239532736615194 71.5689
11.26193956033512 70.0538
11.284364294577085 68.9468
11.306789462371718 67.1533
11.329197585398376 66.1924
11.351623622610898 66.2259
11.37403261614354 65.309
11.396459526308487 65.2854
11.418869393879497 64.8284
11.441297180532617 64.3695
11.463725406927658 63.8839
11.486136592353875 64.1958
11.508565700543707 64.2024
11.530977768845315 65.6545
11.553407762368774 66.2487
11.575838200059769 65.9278
11.598251599479612 64.3759
11.620682927815501 63.2313
11.64309721895548 62.931999999999995
11.665529441478206 62.4989
11.687962112597958 62.2106
11.710377748130886 62.3022
11.732811318753434 62.0849
11.755227854859067 62.3714
11.777662328529495 62.098
11.800079768750786 62.2553
11.822515149015453 61.7803
11.844950984084935 62.0888
11.867369787303163 61.6761
11.889806534289491 61.5112
11.912226250487029 62.1414
11.934663912939751 62.4311
11.9571020346363 62.4846
11.979523127133968 62.3144
12.001962169624331 63.3282
12.024384183972964 64.337
12.046824150809913 67.7562
12.069264581333726 72.3056
12.091687985297767 77.7547
12.11412934550045 86.7417
12.136553680195208 101.844
12.158995973632788 126.365
12.181438735204349 157.89
12.20386447284199 193.657
12.226308172985636 212.643
12.24873485024193 202.024
12.271179492516982 166.417
12.293607112949127 118.90899999999999
12.316052700916226 88.6096
12.338498763250042 74.17399999999999
12.360927805303868 67.7544
12.383374818673879 65.0736
12.405804812803074 63.6672
12.428252780773262 63.3412
12.45070122756722 63.3838
12.473132656675375 63.1774
12.49558206341869 63.3929
12.518014453510101 63.7272
12.540464823770117 63.7701
12.562915677315177 64.0094
12.58534951575545 64.7321
12.607801338171472 66.3995
12.630236146511358 69.9861
12.652688941369085 73.4856
12.675124723177234 73.905
12.697578494048786 71.3905
12.720032754458185 68.1309
12.742470003354093 66.8837
12.764925245138771 66.8874
12.787363476431278 67.2429
12.809819703166806 67.6369
12.83227642391173 68.454
12.854716135692716 68.9371
12.877173846755147 70.0462
12.899614549869717 70.1546
12.9220732548287 71.1658
12.94453245827299 71.8232
12.966974655289818 72.7845
12.989434858002571 73.40100000000001
13.011878055298721 74.0948
13.034339260862497 75.2967
13.056800969391883 76.3841
13.079245674017244 78.5772
13.101708390774869 81.3842
13.12415410463411 88.59899999999999
13.146617833206086 99.8559
13.169064559883248 110.92299999999999
13.191529303857127 125.09299999999999
13.213994557076367 148.04399999999998
13.236442809902437 185.701
13.258909083908291 244.674
13.28135835851934 315.262
13.30382565690295 386.07199999999995
13.326293469022952 436.97
13.348744283242008 422.851
13.371213125129904 346.18
13.39366497011003 242.952
13.416134845360597 159.304
13.438605238843131 117.096
13.46105863690397 103.434
13.483530069144786 104.669
13.505984506951902 109.867
13.528456981549432 119.488
13.550929978879088 133.769
13.573385983253365 158.666
13.595860028340867 198.96200000000002
13.618317081455832 254.858
13.64079217790333 314.816
13.663250283359057 360.789
13.685726434770173 378.789
13.708203115221277 329.914
13.730662806148091 247.075
13.75314054697177 167.497
13.775601299246777 117.617
13.798080104050406 92.6144
13.820559442405358 83.25299999999999
13.843021793671388 80.5064
13.865502201420897 78.9322
13.887965623051947 78.42
13.910447103807167 77.4122
13.932929122629764 76.0596
13.955394156785959 75.7363
13.977877254034569 74.905
14.000343367582113 73.987
14.022827546871707 73.6701
14.045294743423524 72.9792
14.06778000837062 72.1541
14.090265817715476 72.1243
14.112734645763819 71.8248
14.13522154619454 71.3787
14.157691466286913 71.3916
14.180179461423874 71.09100000000001
14.202668005486178 70.5771
14.22513957064374 70.0676
14.247629214846473 69.6964
14.270101881097517 69.2482
14.29259262906496 69.6702
14.315083930490205 70.2163
14.337558255389705 70.1995
14.360050666019726 70.0731
14.382526101071944 69.3047
14.405019624534942 68.5167
14.427513705993134 68.2713
14.449990813291825 67.96300000000001
14.47248601302899 67.9247
14.49496423954951 68.0164
14.517460561197822 68.2756
14.539939910570322 67.9391
14.562437357763558 68.2059
14.58493536931253 69.2309
14.607416409993311 69.7713
14.62991555254159 70.4935
14.652397725157423 70.4577
14.674898002342799 69.7882
14.697398848433282 69.8118
14.719882725991326 70.6776
14.74238471217934 71.7778
14.764869730765593 75.0739
14.787372860692983 78.6996
14.809876564079925 82.4559
14.83236330125751 88.234
14.854868153850365 96.7305
14.877356041159485 110.389
14.899862046604186 129.959
14.922351087688757 156.97299999999998
14.944858249632887 187.3
14.967365991421232 214.77700000000002
14.989856770231246 228.15099999999998
15.012365673994204 220.327
15.03485761569738 185.037
15.05736768508665 141.671
15.07987833888692 107.31
15.102372032001655 85.7205
15.124883856909658 74.8086
15.14737872204565 71.1611
15.169891721717274 69.4918
15.192405310371893 69.6326
15.214901940621196 69.604
15.237416709527137 69.668
15.259914520936249 69.6493
15.282430473753607 68.7212
15.304947020131227 67.928
15.327446610371178 67.2531
15.349964346154254 66.4881
15.372465126703139 65.9972
15.394984055556009 65.8854
15.417486030076159 65.4375
15.44000615566487 65.2157
15.462526881230803 65.3447
15.485030653812652 65.434
15.507552581617434 65.4038
15.530057557334603 65.4411
15.55258069104857 65.2456
15.575104429329837 65.3297
15.597611216864632 65.3343
15.620136166564563 65.4433
15.6426441664095 66.6048
15.665170331202765 68.8159
15.687697105158826 71.7393
15.710206930593545 75.0499
15.732734925158933 79.15100000000001
15.755245972089478 85.1662
15.77777519094324 94.3074
15.800287463046663 108.318
15.822817909869592 128.727
15.84534897229804 152.30700000000002
15.867863089299354 178.87599999999998
15.890395385222186 196.09099999999998
15.912910736597423 199.13400000000001
15.935444269699861 180.394
15.957978423016485 147.80100000000002
15.980495633101265 114.37299999999999
16.003031029129367 89.1641
16.02554948280019 72.7872
16.048086125229432 65.9285
16.070623392487107 63.448
16.09314371869582 62.9547
16.11568223789321 62.2308
16.13820381691126 61.3121
16.160743591742527 60.4075
16.183283996022084 59.6776
16.205807461423195 58.7062
16.228349126881973 58.1363
16.25087385432698 58.1445
16.27341678466365 57.6464
16.29594277784926 57.5712
16.31848697676433 57.6256
16.341031811604868 57.8814
16.36355971058487 58.0235
16.3861058195587 57.7707
16.40863499352978 56.5874
16.431182380342005 55.8934
16.453730407713202 55.6156
16.476261501364792 55.1644
16.498810812136167 54.971000000000004
16.52134319004079 55.0309
16.54389378792203 54.7503
16.566445031001553 54.4016
16.588979342490088 54.4256
16.61153187824822 54.4787
16.634067483263312 54.276
16.656621315414416 54.1343
16.679175797408888 53.8272
16.701713349928728 53.7474
16.72426913389191 54.0602
16.74680798922351 54.0641
16.76936507887444 54.2724
16.791905240734874 54.2635
16.814463639794468 54.0022
16.837022695210294 54.1897
16.859564824093756 54.5431
16.882125194503903 54.9084
16.904668639217885 55.528
16.927230328348003 55.6273
16.949792678493612 55.8224
16.972338104193863 55.4083
16.994901778652235 54.8601
17.017448529496576 55.1322
17.040013531998152 55.361000000000004
17.06257920018044 55.6238
17.0851279459922 56.5052
17.107694947817667 57.3724
17.130245028099072 58.1156
17.15281336730298 59.1268
17.17536478578733 61.0001
17.19793446610687 63.3684
17.220504818648422 66.6632
17.243058251703697 69.954
17.265629950971032 74.9761
17.288184731571736 80.1147
17.310757781306908 83.411
17.33333150794385 83.4303
17.355888317140174 81.2339
17.37846339986244 75.5889
17.401021565958885 68.89699999999999
17.42359800851343 63.8957
17.44617513265564 60.6154
17.468735341390783 59.1391
17.491261035594565 58.2748
17.51396340099364 58.4248
17.536490463869136 58.5085
17.559018209820174 58.6222
17.58154663977963 58.6136
17.604251766089718 58.5853
17.626781572227713 58.8538
17.64931206518155 59.0773
17.671843245885103 59.5593
17.69455114821572 59.8499
17.717083712612634 60.1637
17.739616967569667 60.283
17.762150914021706 60.4083
17.78486160749854 60.7464
17.807396945166804 61.5971
17.829932977143503 62.4212
17.85246970436452 63.7761
17.875183204129467 65.7176
17.897721330097664 67.925
17.920260154126645 70.0455
17.942799677153296 73.1299
17.9655159983646 76.904
17.988056927677544 82.4698
18.010598558807683 90.4213
18.033140892692916 101.09700000000001
18.05586005052525 113.03200000000001
18.07840379824407 125.42
18.10094825154059 135.048
18.12366954819864 141.62
18.146215420998306 138.144
18.16876200220057 127.073
18.191309292745153 112.20700000000001
18.214033452627167 98.34200000000001
18.236582170236648 88.0491
18.259131600016456 84.1475
18.281681742907335 85.6881
18.304408781233683 91.0088
18.32696035875955 96.8391
18.349512652227624 101.509
18.372065662579683 105.835
18.394795594587553 105.68299999999999
18.41735004715306 100.82700000000001
18.43990521943684 92.859
18.46246111238171 83.3948
18.485193953325208 74.5457
18.507751296070428 67.8134
18.530309362314178 64.4638
18.552868153000343 62.4056
18.57560391815056 61.3161
18.59816416623245 61.095
18.620725141597372 60.6932
18.643286845190268 60.0925
18.666025549835414 59.6144
18.688588718427933 59.0308
18.711152618092243 59.114
18.73389353884365 58.6741
18.75645890921984 58.2327
18.77902501351406 58.0088
18.801591852673102 57.8365
18.824335739722738 57.4092
18.846904057212626 57.3348
18.8694731124168 57.1585
18.89204290628315 57.2063
18.914789774966803 57.0312
18.937361054791623 56.6265
18.959933076131318 56.4797
18.982505839934877 56.295
19.00525570560582 56.5559
19.027829963004184 56.3265
19.05040496572238 56.4449
19.072980714710468 56.3961
19.095733592739563 56.6272
19.11831084296757 56.9183
19.140888842324735 57.1223
19.16346759176222 57.4086
19.18622349753803 57.8904
19.208803755869358 58.6139
19.231384767143577 59.8764
19.253966532312948 61.7037
19.276725481241822 63.9134
19.29930876296784 66.498
19.3218928014549 69.77
19.34465404436217 73.0261
19.36723960516257 75.3634
19.389825925592426 75.8877
19.412413006605938 74.5877
19.43517731967805 70.3493
19.457765930683355 65.9421
19.48035530514408 61.1744
19.50294544401556 57.9067
19.525712842708348 55.483999999999995
19.54830451925909 54.3209
19.570896963095727 53.3766
19.593490175174704 53.1664
19.616260674962184 53.2855
19.638855432416964 52.9709
19.661450960992624 53.0807
19.68404726164677 52.9822
19.706820878021247 52.8283
19.729418731756834 52.9185
19.752017360452857 52.7098
19.77461676506804 52.9157
19.797393513540218 53.0216
19.819994478951667 53.3556
19.84259622316767 54.0314
19.8651987471481 54.3101
19.887978643247177 54.5085
19.91058273574792 55.0944
19.933187610901943 55.7046
19.955969879466828 56.9904
19.97857632894404 58.2466
20.00118356396599 60.0437
20.023791585494575 62.5368
20.046577028914875 65.4272
20.069186632506966 67.7905
20.091797025500632 69.3342
20.114408208858933 69.6774
20.137196842715273 68.7931
20.159809615886765 67.0166
20.18242318232135 64.1438
20.20503754298326 62.2403
20.227829382875154 61.3715
20.250445341109344 61.6547
20.27306209647285 62.768
20.29567964993108 63.9766
20.31847471147704 65.2264
20.34109387027612 65.5875
20.363713830075454 64.7175
20.386334591841646 62.9775
20.409132890679302 60.1141
20.431755265564437 56.7886
20.454378445325528 54.2402
20.477002430930366 52.473
20.499803982716553 51.4251
20.522429589228004 50.9554
20.54505600449589 50.3748
20.567683229489194 50.2316
20.590488049900088 49.7948
20.61311690359731 49.6169
20.63574656993626 49.4766
20.658553853717297 48.9431
20.681185154618298 49.1759
20.703817271080066 48.8559
20.72645020407368 48.5528
20.749260783967177 48.4195
20.771895359337133 48.4302
20.794530754161617 48.5516
20.817166969412938 48.3169
20.83998086114876 48.445
20.86261872660049 48.1908
20.885257415405402 48.1541
20.90789692853701 48.0729
20.930714147864748 48.1466
20.953355319030678 48.0777
20.97599731745334 48.125
20.99864014410749 47.9515
21.021460706796564 48.041000000000004
21.044105199328826 48.2129
21.06675052302631 48.4853
21.089396678865015 48.6505
21.112220600704806 48.8638
21.134868430275347 49.299
21.15751709492456 49.7377
21.180166595629693 50.1477
21.202993892429635 50.4429
21.22564507473034 50.8593
21.24829709602816 51.1848
21.27112693608965 50.9207
21.293780644891275 50.7852
21.316435195634053 50.0903
21.339090589297417 49.1716
21.361923832041875 48.8476
21.384580921090404 48.1845
21.407238856007325 47.8393
21.429897637773326 47.7371
21.45273429906592 47.8164
21.475394784108598 47.8146
21.498056118951983 47.7928
21.520718304578022 48.015
21.543558400304388 48.2824
21.566222297108816 48.3203
21.58888704765135 48.5298
21.61155265291521 48.8583
21.63439619898156 49.1372
21.657063523335786 49.4538
21.67973170537063 49.8977
21.7024007460706 50.4747
21.72524775840385 51.0131
21.747918526116475 52.0675
21.770590155457388 53.438
21.79326264741238 55.0203
21.816113141960237 56.9748
21.838787368860547 58.9921
21.861462461341976 60.8603
21.884315579735777 62.766999999999996
21.90699241312273 63.8277
21.92967011506078 64.0471
21.95234868653799 63.3558
21.9752053151131 61.8043
21.997885635446785 59.8694
22.020566828293532 58.2074
22.04324889464272 56.4569
22.066109049404666 55.6483
22.088792872571794 55.5847
22.111477572219204 55.7232
22.1341631493376 55.8679
22.157026846313123 55.3313
22.179714188221507 54.4345
22.202402410582668 53.2037
22.22509151438863 51.8785
22.24795876962584 50.4312
22.270649646204486 49.5694
22.293341407213727 49.0764
22.316034053646906 48.6742
22.338904883215342 48.5171
22.36159931041458 48.3844
22.38429462602756 48.4015
22.40699083104897 48.3321
22.429865251039757 48.2962
22.452563244831367 48.178999999999995
22.47526213102522 48.2921
22.49813925616515 48.0957
22.520839937143307 48.0372
22.543541513520587 48.1324
22.56624398629403 47.9145
22.589124730075895 47.8818
22.611829005656723 48.2852
22.63453418063466 48.1882
22.657240256008077 48.3555
22.680124634582935 48.5447
22.70283252079775 48.8138
22.725541310413075 49.0333
22.74825100442868 49.0946
22.771139033969575 49.4443
22.79385054687155 49.8552
22.81656296718292 50.5765
22.83927629590484 51.5648
22.862167992606945 52.7116
22.88488314827121 53.8175
22.907599215359284 54.9129
22.93031619487366 55.9195
22.953211574954405 56.7263
22.975930389478226 57.5129
22.998650119445763 57.4724
23.02137076586092 56.527
23.044269845560063 55.0984
23.06699233506288 53.5415
23.089715744034912 51.4149
23.112617610931565 50.1301
23.135342869061212 49.2003
23.158069049684816 48.5331
23.1807961538087 48.2199
23.20370174880544 48.1511
23.226430710184808 48.2193
23.249160598093425 48.357
23.271891413539002 48.3719
23.294800752937697 48.3664
23.31753343374794 48.5958
23.340267045128353 48.5959
23.36300158808808 48.8453
23.38591468821339 49.2882
23.408651104658304 49.5925
23.431388455719986 50.1782
23.454126742409 51.1925
23.4770436196085 52.2708
23.499783787914662 53.6333
23.522524894889884 54.7192
23.54526694154616 55.9153
23.56818761219047 57.0998
23.59093154860734 57.4024
23.613676427751283 57.45
23.636422250635754 56.483000000000004
23.659346731118656 54.58
23.68209445191868 52.5286
23.704843119509587 50.3296
23.72759273490623 48.7347
23.750521041644767 47.3186
23.77327256312355 46.5374
23.796025035462787 46.0102
23.818956224555475 45.5542
23.841710609113413 45.4993
23.86446594758979 45.1783
23.887222241002014 45.0626
23.910157285144578 44.7047
23.932915498962537 44.7639
23.955674670778713 44.705
23.978434801611975 44.3646
24.001373717286125 44.2701
24.024135776723917 44.2463
24.046898798245582 44.0104
24.06966278287146 43.9464
24.092605586582614 43.7829
24.115371508023642 43.7169
24.1381383956401 43.56399999999999
24.16090625045381 43.5961
24.183852958731244 43.4056
24.206622758582608 43.3231
24.229393528706886 43.0857
24.252165270127392 43.1853
24.27511589952438 43.2046
24.297889594216997 43.0572
24.32066426328598 42.8079
24.34343990775613 42.8641
24.36639447485003 42.5985
24.38917208083877 42.7163
24.41195066531332 42.6109
24.43490819850244 42.7236
24.457688750692377 42.547
24.48047028445616 42.3481
24.503252800821233 42.5724
24.526214300784112 42.7636
24.548998793132213 42.6883
24.57178427117417 42.575
24.59457073593893 42.558
24.617536219319863 42.5169
24.64032466834748 42.5667
24.663114107195035 42.4073
24.685904536893013 42.0954
24.708874020360852 41.9937
24.731666442613744 41.8668
24.754459858818787 41.9378
24.777254270007962 41.8072
24.80022777025625 41.7585
24.82302418230472 41.7155
24.845821592443674 41.7354
24.86862000170663 41.6942
24.891597535453727 41.5604
24.914397953892728 41.8
24.93719937456671 41.6228
24.96000179851076 41.8144
24.98298338249997 42.0624
25.00578782394922 42.3124
25.028593271784167 42.3391
25.05157790644186 42.8517
25.07438537804115 42.9662
25.097193859145293 43.0953
25.120003350792075 43.2622
25.142992065061257 43.7208
25.165803588823465 43.9005
25.18861612625217 44.233999999999995
25.211429678386736 44.2424
25.234422489079968 44.2332
25.257238081693636 44.3472
25.280054692141732 44.3922
25.3028723214652 44.4112
25.325869245420463 44.5548
25.348688923599397 44.533
25.371509623787006 44.5721
25.394331347025812 44.0392
25.41733240110666 43.4828
25.440156181590016 42.9025
25.46298098826268 42.3105
25.48580682216873 41.6082
25.50881202326435 41.2489
25.53163992281684 40.9913
25.55446885274561 40.5841
25.577298814096377 40.4018
25.600308179121807 40.2996
25.623140214533745 40.4857
25.64597328451537 40.4024
25.66898578564376 40.2242
25.691820936010206 40.1318
25.714657124097695 40.1811
25.737494350954734 40.1153
25.760511045684957 40.0226
25.783350361364224 40.1652
25.806190718969255 40.1211
25.82903211955018 40.1266
25.852053024868923 40.1016
25.874896522722523 40.1249
25.897741066713106 40.0364
25.920586657892454 40.3133
25.943611790812668 40.5731
25.966459487728237 40.5885
25.989308234998564 40.5885
26.01215803367705 41.021
26.03518741123814 41.1637
26.05803932412957 41.2844
26.080892291600094 41.215
26.10374631470478 41.2688
26.12677995397268 41.277
26.14963609978026 41.2107
26.172493304397875 40.8428
26.19535156888223 40.5136
26.218389486949604 40.2356
26.241249882640123 40.0737
26.26411134137826 39.7106
26.28715248187403 39.7052
26.31001607820869 39.6521
26.3328807407756 39.4848
26.35574647063438 39.6421
26.37879191991473 39.6599
26.401659795896734 39.6086
26.424528742360263 39.8162
26.447398760366614 40.1072
26.470448535598294 40.1334
26.49332070826805 40.3368
26.516193955675355 40.7124
26.53906827888316 40.9002
26.562122397260108 40.9819
26.584998883685063 41.4041
26.607876449110325 41.6666
26.63075509460056 41.7533
26.65381357334404 41.7306
26.67669439061878 41.6962
26.699576291163382 41.5472
26.722459276044212 41.3896
26.745522132402975 41.1379
26.768407297649354 40.8886
26.791293550442003 40.709
26.814180891848974 40.4926
26.837248143099337 40.0644
26.860137673466657 40.0265
26.88302829566349 39.7053
26.90592001075963 39.5619
26.92899167420566 39.3934
26.951885586870763 38.9528
26.974780595655517 38.9327
26.99785558178161 38.7704
27.020752794605112 38.6104
27.043651106772522 38.4788
27.06655051935668 38.3941
27.089629948036183 38.2571
27.112531573292053 38.3235
27.135434302194138 38.3474
27.158338135817015 38.1199
27.181422024430987 38.1482
27.204328079372566 38.015
27.22723524226965 38.1463
27.250143514198573 38.1919
27.273231880156334 38.207
27.296142382065014 37.9147
27.319053996245536 37.8476
27.341966723775965 38.0654
27.365059584515222 38.0859
27.38797455070062 38.1507
27.410890633481237 37.9469
27.433807833936918 37.9223
27.456905206923906 38.1122
27.47982465472398 38.0674
27.502745223449743 38.1473
27.525666914182825 38.1868
27.548768816912457 38.2549
27.571692763693633 38.0786
27.59461783573812 37.8995
27.617723149491244 37.809
27.640650484125285 37.7491
27.66357894728264 37.7132
27.686508540048052 37.519
27.709618414237887 37.5821
27.732550278321757 37.5253
27.755483275279115 37.4773
27.778417406196485 37.4391
27.801531858397514 37.3283
27.824468269376716 37.5855
27.847405817586786 37.3619
27.870344504116094 37.5375
27.893463551932008 37.6831
27.916404527281053 37.8926
27.93934664422563 37.9436
27.962289903855886 38.0647
27.98541356491974 38.2831
28.00835912214229 38.4387
28.03130582533231 38.6356
28.054253675581805 38.7712
28.077381967556104 38.6412
28.100332124185126 38.5458
28.123283431160893 38.5418
28.146235889577238 38.3764
28.169368830154156 38.2108
28.192323603752033 38.0124
28.215279532083304 37.6962
28.238415973016764 37.5217
28.261374223145094 37.4557
28.284333631303806 37.1405
28.307294198589954 37.0687
28.330435319167677 36.6863
28.353398217078915 36.4829
28.376362277420153 36.2357
28.39932750129032 36.1083
28.422473319286713 36.0082
28.44544088262495 35.9482
28.468409612800283 35.79
28.491379510913497 35.7528
28.51453004413313 35.543
28.53750229057244 35.5309
28.56047570826344 35.4992
28.583450298308804 35.4278
28.606605564586562 35.2897
28.629582511831156 35.3181
28.65256063474956 35.2784
28.675539934446338 35.3706
28.698699951647605 35.2167
28.72168161743193 35.2067
28.74466446331978 35.1125
28.767648490417624 34.9755
28.790813276438353 35.0298
28.813799678527303 34.9903
28.836787265157085 35.235
28.859955641890075 35.0741
28.882945610203045 35.073
28.905936766392035 34.8998
28.928929111566863 34.8724
28.952102288520145 34.8246
28.975097024308607 34.723
28.998092952423807 34.5203
29.021090073977508 34.5188
29.04426806913204 34.4269
29.067267590245258 34.2784
29.090268308143695 34.2288
29.11327022394099 34.1398
29.13645305530891 34.0483
29.159457379627167 34.086
29.18246290519685 33.945
29.20546963313352 34.0077
29.22865731875826 34.073
29.25166646419296 34.0422
29.27467681535305 33.8373
29.29768837335608 33.964
29.320880931312562 33.9972
29.34389491580634 33.8749
29.366910110507334 33.8125
29.38992651653503 33.8378
29.41312396492981 33.7314
29.436142806456754 33.8289
29.45916286268059 33.7653
29.48236399319994 33.6692
29.50538649169417 33.5184
29.528410208259935 33.3516
29.55143514402014 33.0352
29.574641196749695 33.0224
29.597668583816574 32.9996
29.6206971934585 32.7742
29.64372702680042 32.8059
29.666938019934474 32.7119
29.689970313635285 32.5667
29.713003834422636 32.5922
29.73603858342347 32.6379
29.759254535188578 32.597
29.78229175361658 32.4658
29.80533020365064 32.5724
29.82836988641968 32.5479
29.85159081507472 32.4688
29.874632976355343 32.375
29.89767637376955 32.4731
29.920721008448314 32.2482
29.9439469322847 32.2015
29.96699405457564 32.157
29.9900424175358 32.2242
30.013092022298157 32.1471
30.03632295963995 32.1101
30.059375061131373 32.0779
30.08242840783577 32.166
30.105483000888153 32.1029
30.128718970092244 32.0092
30.151776069006917 32.0013
30.17483441768648 32.0534
30.198074175317235 32.1944
30.221135036724256 32.2051
30.24419715131772 32.0294
30.267260520236203 31.9325
30.290505341942243 31.9748
30.313571232750228 32.04
30.336638381310948 31.9874
30.35970678876503 31.8926
30.38295669299435 31.9118
30.40602763151657 31.8949
30.429099832366074 31.795
30.452173296685572 31.7294
30.47542830191959 31.6299
30.498504306502497 31.607
30.521581577995562 31.776
30.544660117543582 31.9177
30.56792024229725 31.8456
30.59100133132069 31.8307
30.614083691845494 31.8565
30.637167325018545 31.921999999999997
30.660432587840603 31.9764
30.683518779717886 31.8735
30.70660624769615 31.8799
30.729694992924372 31.8969
30.75296541239743 31.9898
30.77605672557558 31.8299
30.799149319462742 31.7614
30.8224236211637 31.638
30.845518789950724 31.5741
30.868615242910597 31.5122
30.891712981195973 31.2788
30.91499247215866 31.2483
30.938092794619365 31.2402
30.96119440587579 31.1723
30.984297307082752 31.0022
31.00758200598383 31.0292
31.030687500658694 30.9502
31.053794288760695 30.8556
31.076902371446767 30.6466
31.100192296997445 30.85
31.12330298246119 30.7703
31.14641496599209 30.7671
31.169528248749216 30.6886
31.19282341969534 30.607
31.215939314557186 30.6783
31.239056512134788 30.6735
31.262175013589378 30.6727
31.28547544871168 30.4642
31.30859657161541 30.4902
31.331719001892175 30.5838
31.35484274070538 30.723000000000003
31.378148458819545 30.6798
31.401274828443725 30.546
31.424402510106933 30.6024
31.447712205419993 30.7203
31.470842524931633 30.5096
31.493974159989783 30.5207
31.51710711176168 30.5353
31.54042212308802 30.4331
31.563557722100917 30.4889
31.586694641341655 30.3231
31.609832881979628 30.2414
31.63315322823208 30.1075
31.656294125521327 29.9953
31.679436347728515 29.9852
31.70257989602529 29.9233
31.725905596152327 29.8468
31.74905181052835 29.8067
31.772199354521323 29.9017
31.79534822930507 29.8508
31.818679302290967 29.8479
31.84183085259981 29.8991
31.864983737233473 29.8008
31.88813795736804 29.8332
31.911474422233013 29.7408
31.934631327356435 29.7538
31.9577895715215 29.7727
31.980949155906522 29.7315
32.004291031706956 29.6936
32.027453310562606 29.5874
32.05061693318573 29.4325
32.07396288236386 29.5358
32.09712920658542 29.495
32.12029687812702 29.2351
32.14346589817093 29.1229
32.166817291729984 29.1406
32.18998902288583 29.188000000000002
32.21316210610336 29.0719
32.23633654256711 28.9046
32.259693399663725 28.9195
32.282870556771144 28.8091
32.30604907069099 28.8603
32.329228942610065 28.8354
32.35259128243769 28.7376
32.375773884550505 28.6896
32.398957848235646 28.6382
32.422143174682176 28.5689
32.445511016471215 28.4801
32.468699082679954 28.465999999999998
32.49188851523011 28.4053
32.51507931531304 28.4298
32.538452678331 28.4364
32.56164622776311 28.3332
32.58484114831493 28.1471
32.60803744118015 28.2254
32.631416344731896 28.1577
32.654615396551876 28.1005
32.67781582427913 28.1396
32.701198898634416 28.0286
32.72440209253756 28.0099
32.747606665947124 27.9491
32.77081262006088 27.803
32.79420126883317 27.9029
32.81740999876112 27.8742
32.840620112999424 27.7493
32.86383161274818 27.7007
32.88722585534586 27.6873
32.91044014056596 27.822
32.933655814909734 27.7223
32.95687287957963 27.7437
32.98027273544904 27.6941
33.00349259526636 27.5048
33.026713849030116 27.6255
33.04993649794511 27.5378
33.073341986570746 27.5436
33.09656744032826 27.5638
33.11979429286444 27.4233
33.14302254538647 27.4714
33.166433686291185 27.3993
33.18966475336992 27.3732
33.212897224069096 27.2506
33.23613109959831 27.3364
33.259547912343415 27.2586
33.2827846121627 27.3347
33.306022720453775 27.2102
33.32926223842861 27.136999999999997
33.352684742614166 27.2084
33.37592709463173 27.0282
33.399170859982064 26.9566
33.422597648419426 26.9655
33.44584425514446 26.8618
33.46909227885668 26.831
33.4923417207723 26.6579
33.51577423505344 26.7696
33.539026528130385 26.6705
33.56228024307245 26.5993
33.585535381098246 26.505
33.60897364093058 26.5114
33.63223163992385 26.5132
33.6554910656699 26.4515
33.678751919389796 26.4429
33.702195944520106 26.2975
33.72545966903325 26.2243
33.74872482519663 26.2372
33.771991414233746 26.3599
33.79544122444841 26.162
33.81871069412428 26.1032
33.84198160035767 26.0084
33.86525394437455 26.064
33.88870955949969 26.0281
33.911984794020626 26.0264
33.93526147001624 26.0499
33.958539588715006 25.899
33.98200102861669 25.8796
34.0052820477047 25.7913
34.02856451319451 25.8295
34.05203033759056 25.6859
34.07531571090147 25.6983
34.09860253431845 25.744
34.121890809074316 25.6645
34.145362493118924 25.5989
34.16865368561615 25.5183
34.191946333164054 25.4863
34.21524043699793 25.5324
34.23871800066799 25.4401
34.26201503218366 25.3643
34.28531352370466 25.3804
34.30861347646881 25.2833
34.33209693978188 25.3122
34.3553998301885 25.2999
34.378704185565205 25.2195
34.402010007152356 25.1873
34.42549939016683 25.1788
34.44880815937748 24.9943
34.472118398533134 24.976
34.49543010887669 24.9413
34.51892543169198 24.9453
34.54224009966052 25.0112
34.56555624255917 24.9944
34.58887386163339 24.7954
34.61237514439016 24.7063
34.6356957311114 24.734
34.65901779775809 24.7057
34.68252356662995 24.6816
34.705848608458616 24.6812
34.72917513396849 24.6649
34.75250314440949 24.6042
34.77601490857862 24.5087
34.799345904259795 24.4565
34.82267838863559 24.4545
34.846012362958525 24.4177
34.869530142679984 24.4076
34.89286711232212 24.320999999999998
34.91620557568269 24.3144
34.93954553401677 24.348000000000003
34.9630693495876 24.1928
34.986412313340814 24.2377
35.00975677584668 24.2555
35.033102738362956 24.183000000000003
35.05663261012228 24.1588
35.0799815881786 24.095
35.10333207003229 24.0489
35.12668405694369 24.1498
35.150220005273056 24.0182
35.17357501786656 23.9515
35.19693153931268 23.8982
35.220289570874385 23.9488
35.24383161619786 23.9345
35.267192683604904 23.8763
35.290555264930376 23.9003
35.314101899412165 23.8521
35.33746752422433 23.7877
35.36083466676374 23.7926
35.38420332829803 23.7369
35.407756095629054 23.7878
35.43112781085063 23.7812
35.45450104888391 23.7151
35.477875810999194 23.7042
35.50143473172161 23.6013
35.52481255774625 23.6388
35.54819191167777 23.5574
35.57157279478914 23.5097
35.595137889488406 23.5059
35.61852184675279 23.4311
35.641907337029984 23.3583
35.665294361595684 23.3872
35.68886565090076 23.2784
35.7122557598848 23.302
35.73564740699838 23.2092
35.759040593519934 23.2262
35.78261809810353 23.2665
35.80601437933051 23.1202
35.829412203814705 23.0605
35.85281157283719 23.061
35.876395313415884 23.0558
35.8997977874528 22.9718
35.92320180988546 22.9586
35.946790244133936 22.8036
35.97019737933222 22.9043
35.993606066789866 22.8582
36.01701630779276 22.7891
36.04061101440684 22.7687
36.06402437852291 22.717
36.08743930005611 22.7614
36.1108557802951 22.6949
36.13445678011326 22.7299
36.15787639383515 22.6227
36.18129757014299 22.5646
36.20472031032821 22.5768
36.22832762423364 22.516
36.25175350829375 22.476999999999997
36.275180960119776 22.5032
36.298609981005924 22.4174
36.32222362992669 22.3494
36.34565580510207 22.3419
36.36908955323448 22.3737
36.39252487562093 22.2194
36.416144880530226 22.2551
36.43958336764275 22.2033
36.463023432914625 22.2437
36.486465077645676 22.1239
36.51009145956204 22.1928
36.53353627947859 22.1678
36.55698268276811 22.0829
36.58043067073321 22.0648
36.60406345072071 21.976
36.62751462435344 22.0293
36.65096738658405 21.9817
36.67460498210655 21.9123
36.69806093788647 21.9883
36.72151848619297 21.8501
36.744977628333636 21.8236
36.76862165890998 21.7425
36.79208400512205 21.7527
36.81554794910557 21.7511
36.83901349217101 21.6308
36.862663978991606 21.544
36.88613273667352 21.5331
36.90960309738324 21.5733
36.933075062434064 21.563000000000002
36.95673202673572 21.4566
36.98020721697122 21.4498
37.003684015502365 21.362
37.027162423645365 21.3298
37.050825886711465 21.4118
37.07430753063053 21.2847
37.09779078812467 21.287
37.121275660513014 21.2436
37.144945643673694 21.213
37.16843376245278 21.2342
37.19192350009803 21.1529
37.215414857931435 21.0927
37.239091382563885 21.0267
37.262585997426164 20.9774
37.28608223645736 21.0077
37.309763684451696 20.9726
37.33326318851098 20.9311
37.356764320726555 20.8457
37.380267082425526 20.916
37.40395510942588 20.9103
37.42746114683234 20.8784
37.45096881771841 20.7832
37.474478123414166 20.7236
37.49817275092816 20.6656
37.52168534303452 20.7027
37.54519957395567 20.6733
37.568715445024665 20.568
37.592416694607714 20.6235
37.61593586281424 20.6225
37.63945667518264 20.6187
37.66297913304891 20.4805
37.68668702630454 20.5097
37.710212792059274 20.4791
37.733740207334854 20.4154
37.757269273470364 20.3999
37.780983832050374 20.3257
37.80451621684926 20.3135
37.82805025654007 20.2842
37.851585952464795 20.232
37.8753071980695 20.2013
37.89884622345676 20.1359
37.92238690911902 20.107
37.94611318753442 20.0234
37.969657210779765 20.0817
37.99320289834801 20.0505
38.016750251586465 19.983
38.04048325513017 19.9986
38.06403395679343 20.0019
38.087586328183946 19.9519
38.11114037065203 19.915
38.13488012115898 19.8791
38.1584375229181 19.7449
38.181996599821 19.7535
38.205557353221124 19.6802
38.229303872575656 19.6934
38.2528679961576 19.7191
38.27643380031219 19.6744
38.30000128639589 19.5608
38.32375459653193 19.6353
38.34732546371299 19.6321
38.37089801690786 19.5003
38.39447225747609 19.5156
38.418232380377425 19.4512
38.441810012983396 19.4672
38.46538933705673 19.3979
38.488970353960084 19.4062
38.51273731166058 19.3389
38.536321731567014 19.3306
38.55990784840681 19.3644
38.58367995004091 19.2517
38.60726947812959 19.1891
38.63086070726198 19.2108
38.654453638806274 19.1791
38.678232613930824 19.0977
38.70182896773327 19.1006
38.72542702806741 19.0711
38.7490267963045 19.027
38.77281266709232 19.0049
38.79641586862214 19.0076
38.8200207821842 18.9617
38.843627409152944 18.9774
38.86742019782782 18.9297
38.891030269149255 18.8385
38.914642058016156 18.8306
38.938255565806124 18.8749
38.96205529464307 18.7984
38.98567225787121 18.6945
39.00929094417078 18.6934
39.03291135492255 18.7249
39.05671804624804 18.6414
39.080341923549106 18.5939
39.103967529460334 18.6017
39.127594865365744 18.5935
39.15140854155791 18.5544
39.17503935514948 18.5054
39.19867190290282 18.507
39.22249083587951 18.521
39.24612686969409 18.4489
39.269764641845306 18.426
39.293404153722804 18.3152
39.317230110864074 18.2595
39.34087311998506 18.2973
39.36451787301696 18.2557
39.388164371352595 18.1919
39.41199737518003 18.2006
39.43564738196752 18.164
39.45929913825317 18.1359
39.48295264543308 18.034000000000002
39.506792718520884 18.0919
39.530449745387216 18.0392
39.55410852735203 18.0695
39.57776906581474 18.0174
39.60161623079 17.9714
39.625280300200025 17.9692
39.64894613032202 17.9012
39.67261372255866 17.9537
39.6964680021016 17.9086
39.72013913657293 17.8287
39.74381203738292 17.8315
39.76748670593756 17.7644
39.79134812278169 17.779
39.81502634488497 17.7489
39.83870633896685 17.6863
39.862388106436654 17.6705
39.88625668336918 17.6468
39.90994201572829 17.6706
39.933629125719285 17.6504
39.957503091207826 17.5301
39.9811937746168 17.5966
40.00488623990914 17.5293
40.02858048850006 17.4882
40.05246165409549 17.4975
40.076159487492085 17.3846
40.099859108448875 17.3648
40.123560518384345 17.3106
40.1474489070226 17.38
40.171153913178564 17.3326
40.194860712584955 17.3058
40.2185693066637 17.3184
40.242464941335314 17.1671
40.26617714307655 17.1832
40.289891143772046 17.1555
40.3136069448471 17.1447
40.33750984859743 17.157
40.3612292688043 17.11
40.3849504936829 17.0878
40.40867352466194 17.1106
40.43258372059144 17.0118
40.45631038219906 16.9902
40.48003885420956 16.9843
40.503769138055105 16.9705
40.52768664931955 16.9577
40.55142057531802 16.9053
40.57515631746428 16.8636
40.599079334038514 16.8597
40.62281872700477 16.8166
40.64655994043941 16.7487
40.67030297578061 16.7519
40.69423334835778 16.6823
40.71798004609188 16.7548
40.74172857006355 16.6842
40.76547892171441 16.6416
40.7894166736039 16.6244
40.813170699248566 16.5979
40.83692655691388 16.5573
40.86068424804498 16.5785
40.884629402612525 16.4984
40.908390779366385 16.482
40.932153993938 16.4404
40.95591904777605 16.4638
40.979871628443995 16.417
41.003640379561936 16.3798
41.02741097430883 16.4011
41.05118341413683 16.3558
41.075143444384416 16.2855
41.098919593177826 16.3225
41.1226975914255 16.2754
41.14647744058318 16.2284
41.170444943946755 16.168
41.19422851378379 16.154
41.218013938914645 16.0582
41.24198706625173 16.0193
41.26577622087193 16.0707
41.289567235177785 15.9964
41.31336011063129 16.0353
41.337340752422875 15.9926
41.361137369129835 15.9543
41.38493585138705 15.9677
41.40873620066004 15.9288
41.43272438060107 15.9263
41.45652848292052 15.8349
41.48033445666918 15.7332
41.50414230331616 15.8023
41.528138045159764 15.7534
41.551949656675205 15.7092
41.575763145513235 15.7057
41.59957851314666 15.6848
41.62358184070442 15.6661
41.64740098505737 15.6419
41.6712220126409 15.5733
41.69504492493139 15.5646
41.71905586207357 15.6187
41.74288256296395 15.6098
41.766711153007456 15.559000000000001
41.79054163368412 15.5135
41.814560204340054 15.4912
41.838394485526365 15.472000000000001
41.86223066180303 15.3957
41.88625497706819 15.3886
41.910094962812 15.3521
41.93393684811168 15.4023
41.95778063445365 15.2743
41.981812625263366 15.2799
42.00566023303407 15.3228
42.029509746323676 15.2414
42.05336116662236 15.1966
42.077400857069705 15.1942
42.10125611078846 15.1491
42.12511327600405 15.1239
42.14897235421036 15.1359
42.173019768448455 15.0896
42.19688269209613 15.0481
42.22074753323349 15.0271
42.24461429335818 15.003
42.268669455600495 14.9771
42.292540073217886 14.9329
42.31641261433284 14.9363
42.34028708044675 14.9187
42.36435001496739 14.9012
42.38822835065557 14.8843
42.41210861586426 14.845
42.4359908120986 14.8766
42.46006154323262 14.7987
42.48394762115317 14.734000000000002
42.507835634632315 14.7489
42.531912233047436 14.7468
42.55580413732265 14.6456
42.579697981698 14.7116
42.60359376768525 14.6112
42.62767820545945 14.6354
42.65157789440821 14.6039
42.67547952952185 14.6316
42.699383112316 14.5318
42.72347541395347 14.4902
42.74738291190531 14.4688
42.771292362102166 14.4275
42.795203766063516 14.4608
42.819303956130405 14.3806
42.843219287476536 14.41
42.86713657716324 14.3475
42.89105582671383 14.3249
42.91516392983864 14.3096
42.939087119032166 14.2644
42.963012272677304 14.2519
42.98693939230129 14.2078
43.01105543317513 14.2437
43.034986504731386 14.2436
43.05891954686589 14.1727
43.08285456110972 14.1471
43.10697856448665 14.0725
43.130917542983475 14.0559
43.15485849820081 14.0866
43.17880143167367 14.0148
43.20293342237094 14.0027
43.226880332449 13.9819
43.25082922540554 13.9795
43.27496722682525 13.9634
43.29892010567796 13.9186
43.32287497204102 13.8815
43.34683182745632 13.8477
43.370977859791836 13.862
43.39493871351105 13.8382
43.41890156092628 13.8548
43.44286640358341 13.7653
43.46702049182749 13.7585
43.49098934522816 13.7316
43.51496019852649 13.7554
43.5389330532723 13.7132
43.56309522248204 13.6761
43.58707210044314 13.6662
43.61105098451946 13.5775
43.63503187626491 13.5859
43.659202151562134 13.6103
43.68318707902681 13.5211
43.70717401884041 13.5013
43.731162972560874 13.5271
43.75534137913236 13.4936
43.779334381108384 13.4403
43.803329401683186 13.4576
43.82732644241872 13.4097
43.8515130055166 13.3711
43.87551410707659 13.3496
43.89951723350145 13.3136
43.923709934595614 13.3778
43.94771713129917 13.3366
43.97172635758096 13.2634
43.99573761501002 13.2408
44.0199385169922 13.2062
44.04395385732619 13.220999999999998
44.067971233533086 13.1528
44.09199064718605 13.1986
44.11619977548961 13.1484
44.14022328470671 13.0613
44.16424883610785 13.118
44.18827643127035 13.0872
44.21249381139513 13.078
44.236525514814076 13.0576
44.26055926674478 13.0462
44.28459506876863 13.0004
44.3088207262813 12.9299
44.33286064928722 12.9346
44.35690262714919 12.9014
44.38094666145278 12.8809
44.4051806219871 12.885
44.42922879003185 12.8331
44.45327901929361 12.8105
44.477331311362136 12.8281
44.501573600619416 12.773
44.525630039221795 12.742
44.54968854541895 12.6915
44.573937102200176 12.7155
44.5979997645541 12.6866
44.622064499300315 12.6463
44.64613130803592 12.6663
44.67038823869318 12.6847
44.69445921643748 12.5801
44.718532272981385 12.5874
44.742607409926194 12.6294
44.76687274034801 12.5832
44.79095205918753 12.5092
44.81503346325094 12.4814
44.839116954143876 12.4793
44.86339071028742 12.4325
44.88747839599524 12.4226
44.91156817336837 12.3871
44.93566004401666 12.3874
44.959942251908146 12.3541
44.984038330325966 12.3281
45.00813650686762 12.2973
45.03223678314731 12.279000000000002
45.05652746888232 12.2696
45.08063196592069 12.2317
45.104738567558705 12.1996
45.128847275414856 12.1729
45.15314646515866 12.1512
45.17725940679741 12.1614
45.20137445952892 12.1453
45.22568004865265 12.1197
45.24979934496396 12.062000000000001
45.27392075725247 12.0842
45.29804428714431 12.0438
45.322358426247604 12.0595
45.346486212804315 12.0094
45.370616121861914 11.9691
45.39474815505086 11.9606
45.41907087049246 11.9505
45.4432071734666 11.8974
45.46734560548283 11.9421
45.49148616817604 11.9236
45.51581748638564 11.8495
45.5399623320197 11.8093
45.56410931325473 11.7813
45.58825843173002 11.8404
45.61259837920865 11.7594
45.636751793816 11.7721
45.66090735060093 11.7386
45.68506505120716 11.7277
45.7094136545275 11.7144
45.73357566449271 11.6278
45.75773982322992 11.6617
45.78190613238733 11.632
45.806263418194064 11.5643
45.83043404997326 11.5786
45.85460683713677 11.5738
45.87897065658495 11.5072
45.90314777634752 11.499
45.92732705646868 11.5044
45.9515084986045 11.4993
45.97588104735473 11.4888
46.00006683541565 11.4446
46.02425479047904 11.4383
46.04844491420549 11.4607
46.0728262191024 11.4167
46.09702070211635 11.3474
46.12121735879483 11.3409
46.14541619080294 11.3506
46.169806278764455 11.3045
46.194009483459034 11.2889
46.21821486849841 11.3059
46.24242243555223 11.2373
46.266821333570014 11.2074
46.29103328674601 11.1975
46.31524742696538 11.2041
46.33946375590237 11.1663
46.36387149104216 11.1623
46.38809221957392 11.1445
46.41231514186606 11.1006
46.436540259597464 11.0947
46.460956858999374 11.0892
46.48518638983522 11.0417
46.509418121166966 10.9944
46.533652054678114 10.9968
46.55807754555709 10.9639
46.58231590571962 11.0014
46.60655647313217 10.9402
46.630988654873654 10.9358
46.655233659129024 10.9173
46.67948087571551 10.8617
46.70373030632484 10.8163
46.72817142736393 10.8414
46.752425308428684 10.8514
46.77668140861147 10.7957
46.80093972960865 10.7726
46.82538981736788 10.7449
46.849652602470904 10.7358
46.87391761349769 10.7498
46.8981848521493 10.728
46.9226439341274 10.7054
46.946915650573224 10.6274
46.97118959976749 10.6196
46.99546578341598 10.6136
47.019933887188216 10.5759
47.04421456235744 10.5786
47.06849747711879 10.5552
47.09278263318286 10.5314
47.11725978640143 10.5064
47.14154944775105 10.5142
47.165841355555656 10.4838
47.1901355115306 10.48
47.214621741924994 10.4615
47.23892041698887 10.4057
47.26322134538975 10.4053
47.28771440635075 10.3658
47.31201986422527 10.4173
47.33632758061436 10.3544
47.360637557241866 10.3244
47.38513974410611 10.3154
47.40945426407847 10.2921
47.43377104948137 10.2755
47.45809010204344 10.245
47.48260144275502 10.2347
47.506925052572285 10.1734
47.53125093475548 10.1895
47.55557909103813 10.1708
47.58009961361992 10.1658
47.60443234110732 10.1562
47.62876734791564 10.1482
47.65310463578333 10.1221
47.6776343683373 10.1087
47.7019762413987 10.0664
47.72632040075572 10.022
47.75066684815169 10.0158
47.77520581885936 9.97129
47.799556865477655 9.970419999999999
47.823910205386 9.97475
47.84826584033272 9.95231
47.87281407745551 9.90752
47.89717432569297 9.92136
47.92153687423484 9.90568
47.94609208429692 9.91416
47.97045925671401 9.86843
47.99482873471275 9.85719
48.01920052005013 9.8124
48.04376504619224 9.81333
48.068141469543484 9.78154
48.09252020552573 9.753630000000001
48.11690125590099 9.759830000000001
48.1414751266064 9.76197
48.16586082917454 9.74012
48.19024885144316 9.720460000000001
48.2146391951793 9.71653
48.239222439012764 9.73802
48.26361744916137 9.65255
48.28801478610016 9.64558
48.31241445160131 9.60632
48.337007097209366 9.624839999999999
48.36141144338331 9.6252
48.38581812345755 9.56668
48.41022713920929 9.55643
48.434829215320704 9.52864
48.45924292604658 9.50301
48.48365897780325 9.5352
48.50807737237308 9.5053
48.532688907799276 9.47674
48.55711201168574 9.46198
48.581537463754074 9.40783
48.60615611725119 9.42638
48.63058628942721 9.38817
48.65501881516546 9.358789999999999
48.6794536962573 9.35978
48.70408185970339 9.356530000000001
48.72852147531801 9.35855
48.75296345168211 9.27112
48.77740779059232 9.30424
48.80204549302823 9.260589999999999
48.82649458091802 9.257769999999999
48.85094603676547 9.23299
48.87539986237231 9.20704
48.90004713292306 9.1799
48.92450572200832 9.19833
48.94896668628025 9.1671
48.97343002754588 9.179689999999999
48.99808689542115 9.13529
49.02255501470614 9.127419999999999
49.04702551642794 9.113339999999999
49.0714984023988 9.10487
49.096164896893235 9.06746
49.120642575466796 9.03792
49.145122643748394 9.02027
49.16960510355558 8.99032
49.19428125404938 9.00539
49.2187685210852 8.97755
49.243258185121555 8.94887
49.26794160167084 8.93956
49.2924360839405 8.95023
49.31693296869764 8.91568
49.34143225776915 8.878919999999999
49.36612538195438 8.87734
49.39062950396021 8.8641
49.41513603578346 8.8495
49.4396449792564 8.82025
49.46434784069503 8.84022
49.488861631846454 8.817860000000001
49.513377840166804 8.80804
49.537896467493745 8.76625
49.56260909589029 8.68798
49.587132585683285 8.71273
49.611658500018365 8.73052
49.636186840738596 8.70317
49.66090926588511 8.68339
49.685442483902584 8.64296
49.70997813385706 8.61417
49.734516217597076 8.62093
49.75924846937352 8.627839999999999
49.7837914452858 8.58453
49.80833686055187 8.53167
49.83288471702571 8.54341
49.85762682540054 8.573210000000001
49.882179588965734 8.51148
49.9067347993235 8.47819
49.93129245833333 8.5074
49.95604445336378 8.47327
49.98060703442832 8.45377
50.005172069746266 8.45352
50.02993150438364 8.44422
50.05450147301533 8.469389999999999
50.07907390151433 8.42579
50.10364879174981 8.344430000000001
50.12841816587289 8.33703
50.1529980044635 8.314160000000001
50.17758031042124 8.35183
50.20216508562089 8.3091
50.22694442953363 8.29016
50.25153416817468 8.28253
50.27612638170508 8.26807
50.300721072005196 8.242339999999999
50.325510416102105 8.22926
50.350110084975064 8.23795
50.37471223628208 8.22236
50.39931687190919 8.18454
50.424116246675766 8.1535
50.44872587605249 8.192639999999999
50.47333799543065 8.12536
50.49795260670191 8.11244
50.52276204271512 8.09164
50.54738166295838 8.11425
50.57200378079314 8.0831
50.596628398116835 8.078489999999999
50.62144792604559 8.06058
50.646077567609396 8.03213
50.670709714377715 8.0173
50.69553683636198 8.04082
50.72017401885922 8.00208
50.7448137122895 7.971889999999999
50.76945591856022 7.96396
50.79429318636823 7.9827
50.818940443716784 7.92629
50.84359021965163 7.91817
50.868242516085964 7.9001
50.893089960641895 7.8867199999999995
50.917747323549435 7.84123
50.94240721271973 7.830710000000001
50.96706963007175 7.8415
50.99192728239342 7.780760000000001
51.01659478166073 7.8131699999999995
51.04126481489051 7.8055699999999995
51.06593738400761 7.789289999999999
51.090805275207074 7.763380000000001
51.11548294172845 7.753189999999999
51.14016314993547 7.72266
51.164845901758845 7.71258
51.18972406304274 7.7037
51.21441192780656 7.66988
51.23910234200271 7.63444
51.2637953075678 7.643660000000001
51.288683770237945 7.628819999999999
51.31338186432707 7.59475
51.33808251561888 7.57976
51.362978729967345 7.5926
51.387684521509755 7.57558
51.41239287610203 7.5515
51.437103795691165 7.5160800000000005
51.46201036644977 7.537139999999999
51.486726441956634 7.478789999999999
51.51144508832545 7.468710000000001
51.536166307509156 7.476610000000001
51.56108326624387 7.44186
51.58580965706056 7.42564
51.61053862657523 7.42347
51.635270176746864 7.386769999999999
51.66019755512065 7.408360000000001
51.68493429268881 7.3629
51.70967361681515 7.348739999999999
51.73441552946465 7.3259300000000005
51.759353359237934 7.31568
51.7841004750961 7.339589999999999
51.80885018539685 7.31255
51.833602492111254 7.317480000000001
51.8585508051424 7.27987
51.883308330926425 7.2431600000000005
51.90806845906181 7.2237100000000005
51.932831191525715 7.1719100000000005
51.95779001977161 7.19915
51.98255798721516 7.19448
52.00732856494335 7.18685
52.03229530577543 7.18467
52.057071130455945 7.17215
52.081849571391054 7.1421600000000005
52.106630630568695 7.1101
52.13160794279417 7.08303
52.15639426492067 7.09363
52.18118321127822 7.099069999999999
52.205974783860896 7.0643199999999995
52.23096269971011 7.050739999999999
52.255759551287994 7.038189999999999
52.280559035098186 7.0110399999999995
52.30536115314103 7.01554
52.33035970494467 7.01732
52.35516711807904 7.03085
52.37997717147198 6.98862
52.40478986713005 6.98279
52.42979908731974 6.93964
52.454617094216 6.900180000000001
52.47943774942214 6.921889999999999
52.50426105495102 6.883769999999999
52.529280976059844 6.89928
52.554109609024096 6.86935
52.57894089837482 6.84315
52.60377484613117 6.86777
52.62880550079408 6.84692
52.65364479223379 6.8006
52.67848674816189 6.792439999999999
52.70352547971946 6.774769999999999
52.72837279155837 6.79732
52.753222773982785 6.7655899999999995
52.778075429022984 6.72922
52.80312495150885 6.719119999999999
52.827982978797436 6.7199800000000005
52.85284368481815 6.69025
52.87770707160767 6.67055
52.90276741793998 6.64123
52.92763619336701 6.671539999999999
52.952507655698504 6.596489999999999
52.977381806977576 6.6186300000000005
53.00245301017842 6.63173
53.02733256653592 6.6128800000000005
53.052214817996074 6.568860000000001
53.077099766608484 6.565930000000001
53.102181859804446 6.53761
53.127072229988265 6.534
53.15196530349892 6.55283
53.17686108239249 6.49509
53.20195409881522 6.52314
53.22685531582556 6.50689
53.25175924441303 6.47299
53.27666588664027 6.45637
53.30176985962693 6.44004
53.3266819565689 6.4301699999999995
53.35159677336455 6.412030000000001
53.376514312083096 6.42135
53.40162927507703 6.422280000000001
53.42655228516116 6.40725
53.45147802340193 6.35085
53.47660125628886 6.33419
53.50153247842639 6.36761
53.52646643496923 6.28285
53.55140312799818 6.2769699999999995
53.576537409691696 6.27345
53.60147960336152 6.31297
53.626424539786164 6.30358
53.65137222105307 6.25615
53.67651758529126 6.2171199999999995
53.70147078399681 6.213480000000001
53.72642673383343 6.1846
53.75138543689533 6.189780000000001
53.776541917524526 6.17022
53.801506154876755 6.14037
53.826473151763246 6.12826
53.851442910284916 6.08253
53.87661054126026 6.10055
53.9015858509782 6.10125
53.92656392866066 6.08646
53.95154477641532 6.07483
53.976723591801296 6.08456
54.00171000771266 6.09196
54.02669920004598 6.0881099999999995
54.051691170915745 6.01706
54.076881204886796 6.04079
54.101878760928514 6.03215
54.12687910187696 6.01735
54.152077577768296 5.98372
54.1770835166946 5.90722
54.20209224691339 5.9692300000000005
54.22710377055121 5.94144
54.25231352511594 5.929209999999999
54.27733066384342 5.93923
54.30235060239643 5.91616
54.32737334290836 5.88716
54.35259441062629 5.8508
54.377622783395324 5.87502
54.40265396455061 5.84035
54.42768795623251 5.83397
54.45292037169559 5.7979199999999995
54.477960012857906 5.764130000000001
54.50300247099511 5.71999
54.52804774825457 5.67145
54.55329154616743 5.70368
54.57834249018678 5.68594
54.6033962597977 5.674119999999999
54.6284528571545 5.68783
54.653708072335164 5.63322
54.67877035378786 5.610580000000001
54.70383546947698 5.59334
54.72890342156389 5.60035
54.7541700889442 5.52677
54.77924374251975 5.4997300000000005
54.8043202390049 5.53584
54.82959552413022 5.4828
54.8546777351945 5.47701
54.87976279569621 5.47009
54.90485070780914 5.47401
54.930137506558005 5.39102
54.95523115074295 5.4341800000000005
54.98032765308844 5.41753
55.005427015775496 5.36474
55.03072536339621 5.35697
55.05583047570572 5.3753
55.080938454927676 5.31307
55.10604930325027 5.29514
55.131359235107396 5.28645
55.15647585066083 5.24524
55.181595341907496 5.206980000000001
55.20671771104285 5.20983
55.232039262617704 5.185919999999999
55.25716741665048 5.16549
55.28229845518636 5.15259
55.30743238042802 5.12143
55.33276558731939 5.11032
55.357905315183636 5.08217
55.383047936390035 5.043819999999999
55.40819345314859 5.00799
55.433538351073295 5.02272
55.458689688238415 5.06545
55.483843927614096 4.98588
55.509197623043605 4.91426
55.53435769621134 4.87472
55.55952067826466 4.86408
55.5846865714265 4.87613
55.61005202069737 4.85544
55.63522376553902 4.88387
55.66039842818645 4.80462
55.68557601087004 4.83248
55.7109532500271 4.7232400000000005
55.73613670233794 4.716419999999999
