TT I
1.2716486653135266 6.996169999999999
1.2939594142134223 6.96404
1.3162702121660406 6.522469999999999
1.3385810600174564 6.7301
1.3608919586137629 7.312130000000001
1.383202908801069 6.21155
1.405513911425503 5.95634
1.4278249673332093 6.14422
1.4501343378461518 6.01229
1.4724455028545926 5.62608
1.4947567236847858 5.91224
1.517068001182951 5.734719999999999
1.5393793361953272 5.64164
1.5616907295681737 5.85053
1.5840021821477681 5.8616
1.60631369478041 5.8845
1.6286252683124185 5.59756
1.6509369035901333 4.9701900000000006
1.6732468618895553 5.72887
1.695558623192809 5.02862
1.7178704487808514 5.0998
1.7401823395001077 5.47291
1.7625012545597203 5.19358
1.7848028405262486 4.43797
1.8071218901122095 4.96404
1.8294236121921872 4.31608
1.8517427996910911 4.5882
1.8740620574440425 4.75565
1.8963639900671978 4.88207
1.9186833908139995 4.77356
1.9409854680117449 4.767519999999999
1.9633050151394713 5.39722
1.9856246367570705 4.79009
2.0079269371922672 4.28889
2.03024671027244 4.03568
2.0525491637446027 4.45365
2.074869091674931 4.64381
2.097171701569106 4.54766
2.1194917877373847 5.33218
2.141811954326636 4.62427
2.164114805233074 4.40362
2.186435135143035 5.90179
2.208738150935709 13.7878
2.231058647554722 28.7865
2.2533792288321184 22.3828
2.275682498336085 10.4485
2.298003251406138 6.6235
2.3203066942619714 5.82475
2.3426276225136022 4.8167599999999995
2.3649486396617507 5.43882
2.387252348930071 5.93241
2.4095735463442893 5.54666
2.4318774374315884 5.61583
2.4541988185014043 6.26294
2.476502894794693 6.563860000000001
2.498824462909887 7.14805
2.521146125856138 7.217169999999999
2.5434504863470337 7.41085
2.5657723414244717 7.5905
2.588076895590662 8.12577
2.610398946189713 8.07414
2.6327210958598384 7.712280000000001
2.6550259469304716 7.877330000000001
2.6773482972090137 7.549189999999999
2.6996533504259 7.56672
2.7219759047039602 8.19308
2.744298562293959 8.105089999999999
2.7666039251246595 8.25717
2.7889267918020164 8.11293
2.8112323652516555 8.564960000000001
2.833555444408179 8.29803
2.8558786311183852 8.44497
2.8781845268938557 8.48152
2.9005079311721484 8.80434
2.9228140460410397 8.674489999999999
2.9451376712799635 9.2444
2.967444008632326 9.31283
2.9897678582247247 10.3049
3.0120918213106695 10.2849
3.0343984987899373 10.7528
3.0567226913198637 10.8171
3.079029599759726 11.6502
3.101354025127254 12.3792
3.123678568232338 12.7122
3.145985829517914 12.5492
3.16831061055229 13.1759
3.1906181112775593 13.9089
3.212943133635653 14.4991
3.2352682779763207 15.1903
3.2575761442691227 15.4701
3.2799015350264273 15.3781
3.302209649240067 16.3868
3.3245352898092655 16.998
3.3468436553365257 17.5342
3.369169549113219 17.6576
3.3914955708171384 18.7777
3.413804319727358 19.1196
3.4361305997334863 19.4001
3.4584396084414553 19.5896
3.4807661501462652 20.2347
3.503092824025881 20.8027
3.5254022288463154 20.861
3.5477291695206588 21.6124
3.5700388426251948 21.7452
3.5923660534916446 23.2964
3.6146934007816114 39.3003
3.637003482731501 89.8218
3.6593311053109985 99.9599
3.681641464033634 57.4056
3.7039693653009733 30.7666
3.726297407241705 26.3001
3.7486081875460804 25.7893
3.7709365132734978 26.1039
3.793247578841633 26.4527
3.8155761917550093 26.9101
3.8378875459837216 26.9514
3.8602164494827234 27.148000000000003
3.882545499606844 28.4071
3.9048572932539183 28.9086
3.9271866390645718 29.3019
3.9494987298666713 30.0467
3.971828374764527 30.4814
3.9941581705403255 31.1229
4.016470713506008 31.8358
4.038800813471445 32.2417
4.061113662089144 32.4373
4.0834440696459176 33.6923
4.105774632334751 33.7849
4.128087945865126 34.306
4.150418821249301 35.6674
4.172732448931298 36.944
4.195063640413578 38.6656
4.2173775856475215 43.0181
4.239709096631102 73.5589
4.262040768704612 242.37900000000002
4.284355196706267 324.514
4.306687193387355 208.423
4.329001947444346 81.0806
4.35133427213731 47.7971
4.373666762177566 44.6372
4.395982011761091 44.2296
4.418314834921175 45.3866
4.44063041906622 53.8903
4.4629635787515625 64.0075
4.4852969080429785 64.1073
4.5076130004776225 53.5703
4.529946671403969 50.1288
4.552263106909177 49.696000000000005
4.574597122877047 50.8562
4.596931312711224 51.9622
4.619248269273446 53.1207
4.6415828092605835 54.5483
4.663900117405352 55.7464
4.686235010953232 56.8241
4.708552674085913 58.1606
4.730887924602802 60.0792
4.753223354952695 60.8464
4.775541557023902 62.0234
4.797877349456786 63.6016
4.820195915032126 65.4029
4.842532072957498 67.0963
4.864868414979744 69.3209
4.88718753227192 71.2531
4.909524244902505 73.5209
4.931843734218147 75.109
4.954180820867835 77.3483
4.976518095879839 80.7867
4.998838149695359 83.3046
5.021175803844231 86.7831
5.043496238205739 90.0896
5.065834274903528 94.3795
5.088172504230693 99.1776
5.1104935158799565 105.65100000000001
5.132832132875765 127.92
5.155153533596801 172.476
5.1774925416746225 203.905
5.199814334878411 338.148
5.2221537374521505 973.1610000000001
5.244493338631803 2797.12
5.266815727034316 7659.5
5.289155727832427 12692.2
5.311478517248165 9040.17
5.333818921080011 2823.54
5.356159527788849 540.423
5.3784829252032536 185.18900000000002
5.400823940070432 142.828
5.423147747031976 127.113
5.445489173474152 117.891
5.467830807066149 112.426
5.490155234831516 108.632
5.512497285125229 105.531
5.534822130975162 104.723
5.557164601388673 102.07700000000001
5.579489868738879 98.9692
5.601832762690846 97.7724
5.6241758697774475 97.6138
5.646501775867269 96.4679
5.668845311622074 94.8955
5.691171647754637 93.7097
5.713515615597765 93.0683
5.735859800852677 92.2215
5.758186788542988 91.0268
5.780531411018185 91.1537
5.802858837297399 90.5216
5.825203900414495 90.4776
5.8475491852224 91.2481
5.869877275883075 91.8149
5.892223006467101 92.9383
5.914551544266608 94.0613
5.936897724049891 97.0588
5.959244129804903 102.459
5.981573344815301 119.36200000000001
6.0039202049061 198.52599999999998
6.026249875609095 439.897
6.04859719346037 956.943
6.070927323278297 2188.98
6.093275102315365 4559.06
6.115623113320588 5291.63
6.137953938319995 3272.67
6.160302415650845 972.797
6.182633708324452 228.595
6.2049826554078376 112.685
6.227331838745022 92.4157
6.249663839443684 84.9218
6.27201349767565 82.8308
6.294345974611799 88.6059
6.316696111167083 100.611
6.339046488263839 95.3386
6.361379686074702 80.0757
6.383730546639482 71.892
6.406064229255215 68.8482
6.428415576718203 68.0962
6.450749747566656 67.067
6.47310158535871 66.0502
6.495453669698332 65.3195
6.517788579421056 64.5334
6.540141159237969 63.8226
6.562476565766648 63.1954
6.5848296444934045 62.8047
6.607182974060425 62.369
6.6295191323281015 62.7679
6.651872965955752 66.1319
6.6742096296068985 92.8208
6.6965639707294615 139.697
6.71891856698715 140.606
6.741255995248479 95.1547
6.763611104154477 68.1447
6.785949046381137 60.566
6.808304671371482 58.3413
6.8306605557940046 57.9994
6.852999275508618 57.2583
6.875355681171544 56.9186
6.897694923437771 56.5692
6.92005185377892 56.7228
6.9423916220322655 56.4896
6.964749080490181 55.8227
6.987106804399774 55.6074
7.009447368180821 55.5609
7.031805625367033 55.3029
7.054146723727803 55.4248
7.076505517631004 55.2256
7.098864581288365 55.4073
7.121206488070854 54.9985
7.143566093607822 54.9724
7.165908543567245 55.1601
7.188268694426048 55.5449
7.2106291193438095 55.5088
7.232972390625943 57.0226
7.255333366030969 69.8443
7.277677189091925 125.20200000000001
7.300038718428332 173.203
7.322400526130865 147.947
7.344745183422596 90.3398
7.367107550224791 62.0653
7.389452767901992 56.3678
7.411815697249891 55.7159
7.434161478756298 54.3153
7.456524974096713 54.5334
7.478888753837185 54.4196
7.501235387657368 54.6287
7.523599738562711 54.7399
7.545946944825532 54.8095
7.568311870344528 54.9433
7.5906770845765665 55.2574
7.613025156078678 56.8267
7.635390950099687 58.2565
7.657739602662809 56.8449
7.680105979923558 56.0826
7.702472650212829 56.3417
7.724822180948224 56.078
7.747189439655568 56.0433
7.769539560075357 56.1004
7.791907410653562 56.3726
7.81425812420825 56.5279
7.836626570110925 56.9253
7.858995315087906 57.6646
7.881346924933401 58.0995
7.903716270417482 58.473
7.926068482028405 58.522
7.948438431475253 59.4192
7.9708086843180235 59.6848
7.993161805171116 60.2371
8.015532667162402 60.6791
8.037886398416653 61.7505
8.060257873014221 62.115
8.082629655331942 62.7145
8.104984308787587 63.9278
8.127356708900503 67.305
8.149711981398308 72.9373
8.172085002766314 75.0782
8.194458336181368 72.1266
8.216814543847752 69.4591
8.23918850371002 69.4774
8.26154533906492 70.1247
8.283919928836452 71.4548
8.306277395339652 72.6619
8.328652618483376 74.1118
8.351028159736202 76.2164
8.373386579575245 78.3223
8.395762759396959 80.0907
8.418121819038275 85.0455
8.440498640894003 98.756
8.462875785192262 112.51
8.485235811156207 123.311
8.507613602688501 161.579
8.529974277114228 247.11700000000002
8.552352719347912 385.37300000000005
8.574731488360351 645.993
8.59709314210385 1193.12
8.619472567021075 1905.22
8.64183487789147 2245.32
8.664214962183097 1793.12
8.686577933647762 922.638
8.708958680784317 355.292
8.731339760774953 156.813
8.753703729764451 109.01299999999999
8.77608547780821 98.3195
8.798450116065078 94.8737
8.820832535634787 92.0422
8.843215292401656 90.3146
8.865580941199045 89.2024
8.887964374703538 88.1422
8.910330701447199 88.9258
8.932714815164482 91.3964
8.955099270424924 90.5195
8.977466620733543 87.3983
8.999851761421976 85.1231
9.022219798361645 83.1996
9.04460562795561 83.2886
9.066991803441677 82.7853
9.089360876979615 82.6098
9.111747746589993 82.4389
9.13411751544971 81.6975
9.156505082664324 81.3174
9.178875550323522 82.0162
9.20126381862328 82.102
9.223652438908596 82.6194
9.246023961427412 82.7919
9.26841328802173 81.6865
9.290785518039224 81.658
9.313175554425882 82.4261
9.335565947154315 82.5637
9.357939245086508 82.6675
9.380330352834827 82.6741
9.40270436697103 82.8673
9.425096193225055 82.72200000000001
9.447488380180165 83.8408
9.469863475295412 84.0369
9.492256385987508 84.2637
9.514632206018318 84.7847
9.537025843935714 85.4066
9.559402392368193 86.0034
9.581796761000229 86.8842
9.604191496441521 87.8116
9.626569144158516 91.7119
9.648964615551032 96.2316
9.671343000390081 98.1068
9.693739211225699 95.8913
9.716135793237463 93.4528
9.738515290448102 93.1697
9.760912617143402 93.7512
9.783292860202891 94.7763
9.805690935076182 96.2269
9.828089385495742 97.2733
9.850470754023561 99.4689
9.872869957865444 107.45299999999999
9.89525208097539 123.124
9.917652041736662 135.713
9.940052382417589 135.43
9.962435644102392 139.438
9.984836746950979 172.898
10.007220771957746 237.929
10.029622640473708 340.472
10.052007432299963 519.034
10.074410069984072 812.0010000000001
10.096813093716005 1270.67
10.119199042482517 1791.71
10.141602840636468 1979.59
10.163989564971628 1592.13
10.186394141051062 885.3330000000001
10.208799107559706 386.93199999999996
10.231187001965623 182.042
10.253592751657669 124.21799999999999
10.275981430388155 112.807
10.298387966769793 112.34299999999999
10.320794897965431 115.255
10.343184759907361 113.84899999999999
10.36559248305461 108.384
10.387983138083852 104.443
10.410391656691655 106.44200000000001
10.432800574501677 116.02
10.455192425893369 133.314
10.47760214443012 158.46200000000002
10.499994797678786 201.304
10.522405320453982 278.392
10.54479877906917 396.898
10.567210109595656 517.063
10.5896218454736 587.589
10.612016518879773 505.728
10.634429067781074 348.53
10.656824555333241 193.821
10.679237920773568 120.441
10.701651695961992 95.0513
10.724048411481384 88.8597
10.746463008485165 86.2799
10.768860546937125 84.5795
10.791275969274796 82.9264
10.81369180576079 82.0645
10.836090585366925 80.964
10.858507252467449 79.6205
10.88090686379991 78.6689
10.903324365036394 77.8683
10.925724811614439 78.089
10.948143150509463 79.5419
10.970561909719066 78.8222
10.992963615930844 76.6766
11.015383218085756 74.5647
11.037785768347074 73.1563
11.06020621697282 72.6207
11.082627090322113 72.1954
11.105030913430326 71.7724
11.12745263854165 72.2818
11.149857314510728 75.7078
11.172279894912576 82.0903
11.194702904450653 82.7909
11.217108866490921 78.8672
11.239532736615194 74.055
11.26193956033512 71.8037
11.284364294577085 70.1877
11.306789462371718 68.3727
11.329197585398376 67.1795
11.351623622610898 66.9643
11.37403261614354 65.9128
11.396459526308487 65.8292
11.418869393879497 65.3106
11.441297180532617 65.1342
11.463725406927658 64.686
11.486136592353875 64.3528
11.508565700543707 65.2523
11.530977768845315 67.3386
11.553407762368774 68.0873
11.575838200059769 67.3726
11.598251599479612 65.4826
11.620682927815501 63.9521
11.64309721895548 63.5932
11.665529441478206 63.1429
11.687962112597958 62.7235
11.710377748130886 62.8399
11.732811318753434 62.9386
11.755227854859067 62.8421
11.777662328529495 62.7118
11.800079768750786 62.5517
11.822515149015453 62.4338
11.844950984084935 62.791000000000004
11.867369787303163 62.5237
11.889806534289491 62.2399
11.912226250487029 62.496
11.934663912939751 62.5331
11.9571020346363 62.8209
11.979523127133968 62.7626
12.001962169624331 63.465
12.024384183972964 64.3517
12.046824150809913 67.3448
12.069264581333726 72.3672
12.091687985297767 78.893
12.11412934550045 87.9316
12.136553680195208 103.198
12.158995973632788 126.00299999999999
12.181438735204349 153.422
12.20386447284199 185.774
12.226308172985636 208.11
12.24873485024193 201.915
12.271179492516982 164.21900000000002
12.293607112949127 124.454
12.316052700916226 92.6296
12.338498763250042 77.6364
12.360927805303868 69.9475
12.383374818673879 66.1428
12.405804812803074 64.4359
12.428252780773262 63.8244
12.45070122756722 63.8021
12.473132656675375 63.9392
12.49558206341869 64.1492
12.518014453510101 64.1782
12.540464823770117 64.3546
12.562915677315177 64.5436
12.58534951575545 65.3198
12.607801338171472 67.4522
12.630236146511358 72.7678
12.652688941369085 77.7929
12.675124723177234 77.9795
12.697578494048786 74.4646
12.720032754458185 69.7649
12.742470003354093 67.9275
12.764925245138771 67.4908
12.787363476431278 67.6387
12.809819703166806 68.0879
12.83227642391173 68.7416
12.854716135692716 69.4878
12.877173846755147 70.8939
12.899614549869717 70.9868
12.9220732548287 71.8264
12.94453245827299 72.2657
12.966974655289818 72.9426
12.989434858002571 73.8683
13.011878055298721 74.5566
13.034339260862497 75.8172
13.056800969391883 76.80199999999999
13.079245674017244 78.8493
13.101708390774869 80.8863
13.12415410463411 86.9419
13.146617833206086 98.8711
13.169064559883248 111.304
13.191529303857127 125.897
13.213994557076367 148.741
13.236442809902437 184.507
13.258909083908291 240.167
13.28135835851934 308.681
13.30382565690295 382.46
13.326293469022952 438.407
13.348744283242008 430.721
13.371213125129904 355.69300000000004
13.39366497011003 255.708
13.416134845360597 167.628
13.438605238843131 120.14
13.46105863690397 103.59700000000001
13.483530069144786 104.311
13.505984506951902 109.887
13.528456981549432 119.785
13.550929978879088 134.825
13.573385983253365 157.717
13.595860028340867 195.986
13.618317081455832 249.493
13.64079217790333 307.22
13.663250283359057 357.806
13.685726434770173 376.908
13.708203115221277 334.80300000000005
13.730662806148091 257.687
13.75314054697177 177.50799999999998
13.775601299246777 122.678
13.798080104050406 94.7654
13.820559442405358 84.6482
13.843021793671388 81.1859
13.865502201420897 79.6669
13.887965623051947 79.0289
13.910447103807167 78.0883
13.932929122629764 76.5366
13.955394156785959 76.3889
13.977877254034569 75.6362
14.000343367582113 74.7959
14.022827546871707 74.1822
14.045294743423524 73.2845
14.06778000837062 72.9692
14.090265817715476 72.7664
14.112734645763819 72.4088
14.13522154619454 72.2242
14.157691466286913 72.1528
14.180179461423874 72.2285
14.202668005486178 71.5265
14.22513957064374 70.9069
14.247629214846473 70.2544
14.270101881097517 70.0509
14.29259262906496 70.5444
14.315083930490205 71.1763
14.337558255389705 71.3139
14.360050666019726 71.0565
14.382526101071944 70.2405
14.405019624534942 69.1281
14.427513705993134 68.7466
14.449990813291825 68.5326
14.47248601302899 68.5474
14.49496423954951 68.7221
14.517460561197822 68.4564
14.539939910570322 68.0783
14.562437357763558 68.691
14.58493536931253 70.137
14.607416409993311 70.9643
14.62991555254159 71.763
14.652397725157423 71.5947
14.674898002342799 70.8929
14.697398848433282 70.1871
14.719882725991326 70.915
14.74238471217934 71.3409
14.764869730765593 74.2644
14.787372860692983 77.8075
14.809876564079925 82.678
14.83236330125751 88.27799999999999
14.854868153850365 96.7827
14.877356041159485 109.819
14.899862046604186 128.404
14.922351087688757 154.582
14.944858249632887 184.747
14.967365991421232 211.65200000000002
14.989856770231246 226.75900000000001
15.012365673994204 218.581
15.03485761569738 185.06099999999998
15.05736768508665 144.15
15.07987833888692 110.221
15.102372032001655 87.9596
15.124883856909658 76.135
15.14737872204565 71.9734
15.169891721717274 70.4104
15.192405310371893 70.1121
15.214901940621196 70.757
15.237416709527137 71.0137
15.259914520936249 71.2878
15.282430473753607 70.1109
15.304947020131227 68.803
15.327446610371178 67.9184
15.349964346154254 66.9421
15.372465126703139 66.6849
15.394984055556009 66.374
15.417486030076159 65.9319
15.44000615566487 66.0327
15.462526881230803 65.9338
15.485030653812652 66.1295
15.507552581617434 66.2051
15.530057557334603 66.2584
15.55258069104857 66.3755
15.575104429329837 66.1902
15.597611216864632 65.4239
15.620136166564563 65.8297
15.6426441664095 66.3919
15.665170331202765 68.2973
15.687697105158826 71.6807
15.710206930593545 75.2953
15.732734925158933 79.3804
15.755245972089478 85.292
15.77777519094324 94.2186
15.800287463046663 107.46600000000001
15.822817909869592 126.34299999999999
15.84534897229804 147.888
15.867863089299354 172.862
15.890395385222186 191.669
15.912910736597423 195.519
15.935444269699861 182.15400000000002
15.957978423016485 154.194
15.980495633101265 121.99799999999999
16.003031029129367 94.64200000000001
16.02554948280019 75.3977
16.048086125229432 67.0785
16.070623392487107 65.0289
16.09314371869582 64.2996
16.11568223789321 63.4766
16.13820381691126 62.6145
16.160743591742527 61.4311
16.183283996022084 60.542
16.205807461423195 59.4186
16.228349126881973 58.8445
16.25087385432698 58.8886
16.27341678466365 58.2715
16.29594277784926 58.1818
16.31848697676433 58.5823
16.341031811604868 58.9562
16.36355971058487 59.1159
16.3861058195587 58.733000000000004
16.40863499352978 57.6165
16.431182380342005 56.8014
16.453730407713202 56.0931
16.476261501364792 55.6755
16.498810812136167 55.3179
16.52134319004079 55.4281
16.54389378792203 55.2591
16.566445031001553 55.0523
16.588979342490088 55.0317
16.61153187824822 55.1043
16.634067483263312 54.7363
16.656621315414416 54.8627
16.679175797408888 54.3154
16.701713349928728 54.3782
16.72426913389191 54.6332
16.74680798922351 54.8129
16.76936507887444 54.9458
16.791905240734874 54.8836
16.814463639794468 54.8407
16.837022695210294 54.6011
16.859564824093756 55.0542
16.882125194503903 55.8625
16.904668639217885 56.6432
16.927230328348003 56.6712
16.949792678493612 56.6227
16.972338104193863 56.2383
16.994901778652235 55.6283
17.017448529496576 55.7111
17.040013531998152 55.721000000000004
17.06257920018044 56.1202
17.0851279459922 56.7714
17.107694947817667 57.716
17.130245028099072 58.5958
17.15281336730298 59.8492
17.17536478578733 61.5712
17.19793446610687 63.7516
17.220504818648422 66.54899999999999
17.243058251703697 69.7343
17.265629950971032 74.5271
17.288184731571736 79.3335
17.310757781306908 83.7347
17.33333150794385 84.3431
17.355888317140174 82.3691
17.37846339986244 77.1374
17.401021565958885 70.5284
17.42359800851343 64.9685
17.44617513265564 61.6056
17.468735341390783 59.9508
17.491261035594565 59.0373
17.51396340099364 58.9621
17.536490463869136 59.0605
17.559018209820174 58.8529
17.58154663977963 59.1284
17.604251766089718 59.2933
17.626781572227713 59.4198
17.64931206518155 59.6914
17.671843245885103 60.3135
17.69455114821572 60.4932
17.717083712612634 60.8571
17.739616967569667 60.9312
17.762150914021706 61.1378
17.78486160749854 61.1662
17.807396945166804 61.818999999999996
17.829932977143503 62.6738
17.85246970436452 64.0324
17.875183204129467 65.8761
17.897721330097664 68.0147
17.920260154126645 70.5762
17.942799677153296 73.4668
17.9655159983646 76.9947
17.988056927677544 82.292
18.010598558807683 89.9135
18.033140892692916 99.8942
18.05586005052525 111.631
18.07840379824407 123.874
18.10094825154059 135.27
18.12366954819864 142.365
18.146215420998306 142.159
18.16876200220057 130.891
18.191309292745153 115.896
18.214033452627167 101.735
18.236582170236648 90.6766
18.259131600016456 85.6846
18.281681742907335 86.1113
18.304408781233683 90.6577
18.32696035875955 96.0915
18.349512652227624 100.943
18.372065662579683 106.00200000000001
18.394795594587553 106.211
18.41735004715306 103.31299999999999
18.43990521943684 96.1428
18.46246111238171 86.1377
18.485193953325208 76.2745
18.507751296070428 69.3042
18.530309362314178 65.4524
18.552868153000343 63.2082
18.57560391815056 61.989
18.59816416623245 61.723
18.620725141597372 61.0567
18.643286845190268 60.5961
18.666025549835414 60.0572
18.688588718427933 59.6439
18.711152618092243 59.4181
18.73389353884365 59.0286
18.75645890921984 58.7226
18.77902501351406 58.4168
18.801591852673102 58.57
18.824335739722738 57.9319
18.846904057212626 57.8582
18.8694731124168 57.6526
18.89204290628315 57.4653
18.914789774966803 57.4049
18.937361054791623 57.1354
18.959933076131318 57.0765
18.982505839934877 57.012
19.00525570560582 56.9376
19.027829963004184 56.8346
19.05040496572238 56.9356
19.072980714710468 56.867
19.095733592739563 56.9462
19.11831084296757 57.291000000000004
19.140888842324735 57.9276
19.16346759176222 58.1962
19.18622349753803 58.5565
19.208803755869358 59.4686
19.231384767143577 60.3818
19.253966532312948 61.8988
19.276725481241822 64.13600000000001
19.29930876296784 66.9622
19.3218928014549 70.0688
19.34465404436217 73.578
19.36723960516257 76.3682
19.389825925592426 77.0785
19.412413006605938 75.7629
19.43517731967805 71.8676
19.457765930683355 66.9155
19.48035530514408 62.5533
19.50294544401556 58.938
19.525712842708348 56.2887
19.54830451925909 54.8707
19.570896963095727 54.1345
19.593490175174704 53.7529
19.616260674962184 53.806000000000004
19.638855432416964 53.4115
19.661450960992624 53.6123
19.68404726164677 53.3045
19.706820878021247 53.1495
19.729418731756834 53.5782
19.752017360452857 53.2185
19.77461676506804 53.4535
19.797393513540218 53.4654
19.819994478951667 53.7533
19.84259622316767 54.3841
19.8651987471481 54.6792
19.887978643247177 54.9247
19.91058273574792 55.4549
19.933187610901943 56.126000000000005
19.955969879466828 57.3047
19.97857632894404 58.7433
20.00118356396599 60.2259
20.023791585494575 62.3051
20.046577028914875 65.1776
20.069186632506966 67.6507
20.091797025500632 69.3896
20.114408208858933 69.8827
20.137196842715273 69.6264
20.159809615886765 67.7967
20.18242318232135 65.0254
20.20503754298326 62.8557
20.227829382875154 61.7356
20.250445341109344 61.8529
20.27306209647285 62.7829
20.29567964993108 64.0827
20.31847471147704 65.1226
20.34109387027612 65.6481
20.363713830075454 65.357
20.386334591841646 63.6029
20.409132890679302 60.8517
20.431755265564437 57.8375
20.454378445325528 55.0922
20.477002430930366 53.2578
20.499803982716553 52.1155
20.522429589228004 51.5109
20.54505600449589 50.9084
20.567683229489194 50.9481
20.590488049900088 50.4061
20.61311690359731 50.231
20.63574656993626 49.9317
20.658553853717297 49.602
20.681185154618298 49.5649
20.703817271080066 49.3061
20.72645020407368 49.091
20.749260783967177 48.8456
20.771895359337133 48.9934
20.794530754161617 48.88399999999999
20.817166969412938 48.8133
20.83998086114876 48.729
20.86261872660049 48.5784
20.885257415405402 48.3991
20.90789692853701 48.4628
20.930714147864748 48.5133
20.953355319030678 48.6235
20.97599731745334 48.6722
20.99864014410749 48.4943
21.021460706796564 48.5938
21.044105199328826 48.7748
21.06675052302631 49.0482
21.089396678865015 49.0591
21.112220600704806 49.2758
21.134868430275347 49.6912
21.15751709492456 50.0947
21.180166595629693 50.474
21.202993892429635 50.7062
21.22564507473034 51.1113
21.24829709602816 51.3294
21.27112693608965 51.1869
21.293780644891275 51.3685
21.316435195634053 50.476000000000006
21.339090589297417 49.6978
21.361923832041875 49.2882
21.384580921090404 48.8313
21.407238856007325 48.2659
21.429897637773326 48.22
21.45273429906592 48.2193
21.475394784108598 48.3414
21.498056118951983 48.0454
21.520718304578022 48.2997
21.543558400304388 48.5906
21.566222297108816 48.7443
21.58888704765135 48.7978
21.61155265291521 49.2188
21.63439619898156 49.5779
21.657063523335786 49.7933
21.67973170537063 50.2275
21.7024007460706 50.7786
21.72524775840385 51.5647
21.747918526116475 52.5152
21.770590155457388 53.6608
21.79326264741238 55.1385
21.816113141960237 57.1672
21.838787368860547 59.2878
21.861462461341976 61.0821
21.884315579735777 63.0365
21.90699241312273 64.2474
21.92967011506078 64.7753
21.95234868653799 64.3943
21.9752053151131 62.957
21.997885635446785 60.9626
22.020566828293532 59.1285
22.04324889464272 57.532
22.066109049404666 56.3496
22.088792872571794 56.0908
22.111477572219204 56.0565
22.1341631493376 56.3144
22.157026846313123 55.9286
22.179714188221507 55.1486
22.202402410582668 53.9569
22.22509151438863 52.5861
22.24795876962584 51.2894
22.270649646204486 50.3424
22.293341407213727 49.8238
22.316034053646906 49.188
22.338904883215342 48.7766
22.36159931041458 49.007
22.38429462602756 49.0078
22.40699083104897 48.705
22.429865251039757 48.8146
22.452563244831367 48.8278
22.47526213102522 48.856
22.49813925616515 48.5701
22.520839937143307 48.4227
22.543541513520587 48.5938
22.56624398629403 48.4607
22.589124730075895 48.3731
22.611829005656723 48.5057
22.63453418063466 48.6282
22.657240256008077 48.9628
22.680124634582935 48.9393
22.70283252079775 49.169
22.725541310413075 49.3819
22.74825100442868 49.613
22.771139033969575 50.093
22.79385054687155 50.4072
22.81656296718292 51.1262
22.83927629590484 51.8903
22.862167992606945 53.0638
22.88488314827121 54.1485
22.907599215359284 55.0549
22.93031619487366 56.3287
22.953211574954405 57.2151
22.975930389478226 58.1163
22.998650119445763 58.1973
23.02137076586092 57.4657
23.044269845560063 56.003
23.06699233506288 54.2687
23.089715744034912 52.4364
23.112617610931565 50.8569
23.135342869061212 49.7113
23.158069049684816 49.1854
23.1807961538087 48.6965
23.20370174880544 48.6298
23.226430710184808 48.7917
23.249160598093425 48.6921
23.271891413539002 48.8015
23.294800752937697 48.714
23.31753343374794 49.0594
23.340267045128353 49.0276
23.36300158808808 49.3007
23.38591468821339 49.4968
23.408651104658304 50.0211
23.431388455719986 50.6213
23.454126742409 51.4407
23.4770436196085 52.5304
23.499783787914662 53.9833
23.522524894889884 54.9035
23.54526694154616 55.9978
23.56818761219047 57.3718
23.59093154860734 58.1724
23.613676427751283 58.2743
23.636422250635754 57.1153
23.659346731118656 55.278999999999996
23.68209445191868 53.2815
23.704843119509587 51.2025
23.72759273490623 49.4254
23.750521041644767 47.9446
23.77327256312355 46.988
23.796025035462787 46.478
23.818956224555475 45.9814
23.841710609113413 45.8368
23.86446594758979 45.658
23.887222241002014 45.5243
23.910157285144578 45.1016
23.932915498962537 45.1242
23.955674670778713 44.927
23.978434801611975 44.8522
24.001373717286125 44.7574
24.024135776723917 44.5117
24.046898798245582 44.4135
24.06966278287146 44.3913
24.092605586582614 44.2938
24.115371508023642 44.1822
24.1381383956401 43.8704
24.16090625045381 43.9476
24.183852958731244 43.8654
24.206622758582608 43.9285
24.229393528706886 43.6163
24.252165270127392 43.6155
24.27511589952438 43.583999999999996
24.297889594216997 43.3695
24.32066426328598 43.1652
24.34343990775613 43.2129
24.36639447485003 43.1902
24.38917208083877 43.2569
24.41195066531332 43.0142
24.43490819850244 42.8956
24.457688750692377 42.8892
24.48047028445616 42.7202
24.503252800821233 43.0103
24.526214300784112 43.1901
24.548998793132213 42.9737
24.57178427117417 42.7977
24.59457073593893 42.8579
24.617536219319863 42.8832
24.64032466834748 42.7769
24.663114107195035 42.6479
24.685904536893013 42.5132
24.708874020360852 42.527
24.731666442613744 42.3957
24.754459858818787 42.3826
24.777254270007962 42.2628
24.80022777025625 42.2357
24.82302418230472 42.2163
24.845821592443674 42.1487
24.86862000170663 42.106
24.891597535453727 42.0269
24.914397953892728 42.1597
24.93719937456671 42.0998
24.96000179851076 42.3478
24.98298338249997 42.5394
25.00578782394922 42.6071
25.028593271784167 42.7836
25.05157790644186 43.023
25.07438537804115 43.2673
25.097193859145293 43.5426
25.120003350792075 43.809
25.142992065061257 43.9768
25.165803588823465 44.3185
25.18861612625217 44.6922
25.211429678386736 44.5339
25.234422489079968 44.5741
25.257238081693636 44.5906
25.280054692141732 44.7813
25.3028723214652 44.8267
25.325869245420463 44.9681
25.348688923599397 44.9496
25.371509623787006 44.8487
25.394331347025812 44.5894
25.41733240110666 44.093
25.440156181590016 43.3381
25.46298098826268 43.0187
25.48580682216873 42.2591
25.50881202326435 41.7888
25.53163992281684 41.3412
25.55446885274561 41.0889
25.577298814096377 40.9345
25.600308179121807 40.8526
25.623140214533745 40.8964
25.64597328451537 40.6008
25.66898578564376 40.5198
25.691820936010206 40.5779
25.714657124097695 40.4294
25.737494350954734 40.6129
25.760511045684957 40.4822
25.783350361364224 40.4939
25.806190718969255 40.4034
25.82903211955018 40.6753
25.852053024868923 40.6041
25.874896522722523 40.5547
25.897741066713106 40.4985
25.920586657892454 40.6281
25.943611790812668 40.8209
25.966459487728237 40.9563
25.989308234998564 40.9679
26.01215803367705 41.2627
26.03518741123814 41.4512
26.05803932412957 41.6847
26.080892291600094 41.5208
26.10374631470478 41.5846
26.12677995397268 41.635
26.14963609978026 41.6676
26.172493304397875 41.3634
26.19535156888223 41.1466
26.218389486949604 40.7856
26.241249882640123 40.4272
26.26411134137826 40.2724
26.28715248187403 40.1963
26.31001607820869 40.0484
26.3328807407756 39.9512
26.35574647063438 40.0451
26.37879191991473 40.0447
26.401659795896734 40.0304
26.424528742360263 40.231
26.447398760366614 40.426
26.470448535598294 40.4785
26.49332070826805 40.7191
26.516193955675355 41.1053
26.53906827888316 41.2893
26.562122397260108 41.4528
26.584998883685063 41.6924
26.607876449110325 41.9456
26.63075509460056 42.0425
26.65381357334404 42.141999999999996
26.67669439061878 42.2444
26.699576291163382 42.105
26.722459276044212 42.015
26.745522132402975 41.6059
26.768407297649354 41.3959
26.791293550442003 40.9936
26.814180891848974 40.8814
26.837248143099337 40.5262
26.860137673466657 40.275999999999996
26.88302829566349 40.0855
26.90592001075963 39.8855
26.92899167420566 39.7724
26.951885586870763 39.4509
26.974780595655517 39.0933
26.99785558178161 39.0552
27.020752794605112 39.0494
27.043651106772522 38.911
27.06655051935668 38.825
27.089629948036183 38.5924
27.112531573292053 38.4982
27.135434302194138 38.7605
27.158338135817015 38.571
27.181422024430987 38.5605
27.204328079372566 38.474000000000004
27.22723524226965 38.4517
27.250143514198573 38.4847
27.273231880156334 38.4528
27.296142382065014 38.4203
27.319053996245536 38.292
27.341966723775965 38.3963
27.365059584515222 38.3174
27.38797455070062 38.5065
27.410890633481237 38.5079
27.433807833936918 38.3479
27.456905206923906 38.5523
27.47982465472398 38.5155
27.502745223449743 38.4967
27.525666914182825 38.6214
27.548768816912457 38.5559
27.571692763693633 38.4584
27.59461783573812 38.3465
27.617723149491244 38.0658
27.640650484125285 38.0535
27.66357894728264 37.9439
27.686508540048052 38.0176
27.709618414237887 37.9492
27.732550278321757 37.8125
27.755483275279115 37.8364
27.778417406196485 37.8342
27.801531858397514 37.806999999999995
27.824468269376716 37.825
27.847405817586786 37.7561
27.870344504116094 37.9853
27.893463551932008 38.0846
27.916404527281053 38.2637
27.93934664422563 38.3399
27.962289903855886 38.4664
27.98541356491974 38.6121
28.00835912214229 38.7181
28.03130582533231 39.0531
28.054253675581805 39.1057
28.077381967556104 39.0829
28.100332124185126 38.9574
28.123283431160893 38.9315
28.146235889577238 38.8426
28.169368830154156 38.6715
28.192323603752033 38.439
28.215279532083304 38.1863
28.238415973016764 37.8744
28.261374223145094 37.8692
28.284333631303806 37.6079
28.307294198589954 37.4222
28.330435319167677 37.1649
28.353398217078915 36.9958
28.376362277420153 36.6586
28.39932750129032 36.4681
28.422473319286713 36.2247
28.44544088262495 36.3275
28.468409612800283 36.2025
28.491379510913497 35.9675
28.51453004413313 35.9665
28.53750229057244 35.9859
28.56047570826344 35.8535
28.583450298308804 35.9216
28.606605564586562 35.5958
28.629582511831156 35.6257
28.65256063474956 35.5584
28.675539934446338 35.657
28.698699951647605 35.4905
28.72168161743193 35.3812
28.74466446331978 35.5003
28.767648490417624 35.5037
28.790813276438353 35.5297
28.813799678527303 35.3696
28.836787265157085 35.3662
28.859955641890075 35.4996
28.882945610203045 35.5216
28.905936766392035 35.3555
28.928929111566863 35.2386
28.952102288520145 35.1579
28.975097024308607 35.2745
28.998092952423807 35.0332
29.021090073977508 34.8513
29.04426806913204 34.8186
29.067267590245258 34.6738
29.090268308143695 34.6119
29.11327022394099 34.455
29.13645305530891 34.3558
29.159457379627167 34.2921
29.18246290519685 34.2976
29.20546963313352 34.2446
29.22865731875826 34.3726
29.25166646419296 34.4028
29.27467681535305 34.1385
29.29768837335608 34.2267
29.320880931312562 34.1877
29.34389491580634 34.3372
29.366910110507334 34.2347
29.38992651653503 34.3216
29.41312396492981 34.3498
29.436142806456754 34.1955
29.45916286268059 34.0106
29.48236399319994 33.8754
29.50538649169417 33.78
29.528410208259935 33.7274
29.55143514402014 33.5143
29.574641196749695 33.3372
29.597668583816574 33.2976
29.6206971934585 33.2117
29.64372702680042 33.2787
29.666938019934474 33.0321
29.689970313635285 32.91
29.713003834422636 32.9342
29.73603858342347 33.016999999999996
29.759254535188578 32.7494
29.78229175361658 32.8429
29.80533020365064 32.838
29.82836988641968 32.8417
29.85159081507472 32.8062
29.874632976355343 32.6951
29.89767637376955 32.7349
29.920721008448314 32.6598
29.9439469322847 32.6015
29.96699405457564 32.5214
29.9900424175358 32.5744
30.013092022298157 32.4699
30.03632295963995 32.4793
30.059375061131373 32.5201
30.08242840783577 32.4863
30.105483000888153 32.2209
30.128718970092244 32.277
30.151776069006917 32.3861
30.17483441768648 32.4252
30.198074175317235 32.3973
30.221135036724256 32.4455
30.24419715131772 32.3561
30.267260520236203 32.3026
30.290505341942243 32.4038
30.313571232750228 32.3623
30.336638381310948 32.256
30.35970678876503 32.1736
30.38295669299435 32.0094
30.40602763151657 32.0996
30.429099832366074 32.0462
30.452173296685572 32.0508
30.47542830191959 32.0166
30.498504306502497 31.9807
30.521581577995562 32.1517
30.544660117543582 32.163000000000004
30.56792024229725 32.1738
30.59100133132069 32.0505
30.614083691845494 32.0289
30.637167325018545 32.2668
30.660432587840603 32.3259
30.683518779717886 32.1149
30.70660624769615 32.2403
30.729694992924372 32.2289
30.75296541239743 32.2309
30.77605672557558 32.1297
30.799149319462742 32.0774
30.8224236211637 32.0237
30.845518789950724 31.8542
30.868615242910597 31.8363
30.891712981195973 31.6459
30.91499247215866 31.5786
30.938092794619365 31.5775
30.96119440587579 31.4723
30.984297307082752 31.2859
31.00758200598383 31.2545
31.030687500658694 31.2049
31.053794288760695 31.0622
31.076902371446767 30.9908
31.100192296997445 30.9988
31.12330298246119 31.0206
31.14641496599209 30.8948
31.169528248749216 30.930999999999997
31.19282341969534 30.9411
31.215939314557186 30.9035
31.239056512134788 30.9374
31.262175013589378 30.8432
31.28547544871168 30.8724
31.30859657161541 30.7775
31.331719001892175 30.8289
31.35484274070538 30.8874
31.378148458819545 30.8858
31.401274828443725 30.9138
31.424402510106933 30.7871
31.447712205419993 30.9546
31.470842524931633 30.84
31.493974159989783 30.7447
31.51710711176168 30.6804
31.54042212308802 30.7905
31.563557722100917 30.8738
31.586694641341655 30.695999999999998
31.609832881979628 30.4647
31.63315322823208 30.3934
31.656294125521327 30.4406
31.679436347728515 30.2513
31.70257989602529 30.1922
31.725905596152327 30.1858
31.74905181052835 30.0958
31.772199354521323 30.1928
31.79534822930507 30.2701
31.818679302290967 30.2239
31.84183085259981 30.1718
31.864983737233473 30.2164
31.88813795736804 30.1552
31.911474422233013 29.9701
31.934631327356435 30.0932
31.9577895715215 30.0484
31.980949155906522 30.0668
32.004291031706956 30.0576
32.027453310562606 29.9592
32.05061693318573 29.8071
32.07396288236386 29.8217
32.09712920658542 29.7267
32.12029687812702 29.6471
32.14346589817093 29.4631
32.166817291729984 29.5488
32.18998902288583 29.5041
32.21316210610336 29.3531
32.23633654256711 29.3033
32.259693399663725 29.191999999999997
32.282870556771144 29.0867
32.30604907069099 29.1262
32.329228942610065 29.0561
32.35259128243769 28.8841
32.375773884550505 28.8796
32.398957848235646 28.877
32.422143174682176 28.8176
32.445511016471215 28.7101
32.468699082679954 28.6933
32.49188851523011 28.7376
32.51507931531304 28.6001
32.538452678331 28.714000000000002
32.56164622776311 28.5549
32.58484114831493 28.4704
32.60803744118015 28.4935
32.631416344731896 28.4613
32.654615396551876 28.5184
32.67781582427913 28.397
32.701198898634416 28.2737
32.72440209253756 28.2799
32.747606665947124 28.3277
32.77081262006088 28.1114
32.79420126883317 28.0578
32.81740999876112 28.1745
32.840620112999424 28.1065
32.86383161274818 27.9712
32.88722585534586 27.9725
32.91044014056596 27.9987
32.933655814909734 27.9199
32.95687287957963 27.9646
32.98027273544904 27.9671
33.00349259526636 27.9032
33.026713849030116 27.8797
33.04993649794511 27.8438
33.073341986570746 27.7733
33.09656744032826 27.8106
33.11979429286444 27.846
33.14302254538647 27.7758
33.166433686291185 27.6708
33.18966475336992 27.721
33.212897224069096 27.6396
33.23613109959831 27.58
33.259547912343415 27.5459
33.2827846121627 27.4824
33.306022720453775 27.5783
33.32926223842861 27.3819
33.352684742614166 27.419
33.37592709463173 27.3639
33.399170859982064 27.3198
33.422597648419426 27.2576
33.44584425514446 27.1868
33.46909227885668 27.1701
33.4923417207723 26.9737
33.51577423505344 27.0576
33.539026528130385 26.9284
33.56228024307245 26.8371
33.585535381098246 26.7687
33.60897364093058 26.7243
33.63223163992385 26.7345
33.6554910656699 26.6296
33.678751919389796 26.6858
33.702195944520106 26.5605
33.72545966903325 26.5516
33.74872482519663 26.5458
33.771991414233746 26.4927
33.79544122444841 26.4952
33.81871069412428 26.3507
33.84198160035767 26.3623
33.86525394437455 26.3623
33.88870955949969 26.3224
33.911984794020626 26.3306
33.93526147001624 26.3011
33.958539588715006 26.1656
33.98200102861669 26.1323
34.0052820477047 26.0429
34.02856451319451 26.0997
34.05203033759056 25.9945
34.07531571090147 26.0484
34.09860253431845 25.9424
34.121890809074316 25.901999999999997
34.145362493118924 25.7999
34.16865368561615 25.7887
34.191946333164054 25.7949
34.21524043699793 25.6981
34.23871800066799 25.7075
34.26201503218366 25.6273
34.28531352370466 25.6871
34.30861347646881 25.5267
34.33209693978188 25.5521
34.3553998301885 25.5346
34.378704185565205 25.4642
34.402010007152356 25.4215
34.42549939016683 25.3952
34.44880815937748 25.3145
34.472118398533134 25.2942
34.49543010887669 25.2831
34.51892543169198 25.1223
34.54224009966052 25.1589
34.56555624255917 25.1044
34.58887386163339 25.0405
34.61237514439016 25.0036
34.6356957311114 24.9775
34.65901779775809 24.9421
34.68252356662995 24.9571
34.705848608458616 24.9121
34.72917513396849 24.8206
34.75250314440949 24.8162
34.77601490857862 24.7954
34.799345904259795 24.6095
34.82267838863559 24.7054
34.846012362958525 24.6975
34.869530142679984 24.6007
34.89286711232212 24.5705
34.91620557568269 24.5199
34.93954553401677 24.5613
34.9630693495876 24.4926
34.986412313340814 24.5071
35.00975677584668 24.5442
35.033102738362956 24.4689
35.05663261012228 24.345
35.0799815881786 24.3773
35.10333207003229 24.2524
35.12668405694369 24.2496
35.150220005273056 24.2763
35.17357501786656 24.2343
35.19693153931268 24.1936
35.220289570874385 24.1128
35.24383161619786 24.0864
35.267192683604904 24.1457
35.290555264930376 24.0976
35.314101899412165 24.114
35.33746752422433 23.9236
35.36083466676374 24.0369
35.38420332829803 24.0169
35.407756095629054 23.9754
35.43112781085063 23.9465
35.45450104888391 23.9422
35.477875810999194 23.9286
35.50143473172161 23.8796
35.52481255774625 23.9674
35.54819191167777 23.7758
35.57157279478914 23.7331
35.595137889488406 23.5969
35.61852184675279 23.7209
35.641907337029984 23.7052
35.665294361595684 23.6244
35.68886565090076 23.6282
35.7122557598848 23.5292
35.73564740699838 23.4782
35.759040593519934 23.4493
35.78261809810353 23.42
35.80601437933051 23.3284
35.829412203814705 23.2633
35.85281157283719 23.2602
35.876395313415884 23.2968
35.8997977874528 23.2028
35.92320180988546 23.1832
35.946790244133936 23.1649
35.97019737933222 23.1536
35.993606066789866 23.1072
36.01701630779276 23.0274
36.04061101440684 23.0755
36.06402437852291 23.0271
36.08743930005611 22.9762
36.1108557802951 22.8735
36.13445678011326 22.9221
36.15787639383515 22.8477
36.18129757014299 22.8188
36.20472031032821 22.7823
36.22832762423364 22.7578
36.25175350829375 22.726
36.275180960119776 22.6848
36.298609981005924 22.7587
36.32222362992669 22.6498
36.34565580510207 22.5458
36.36908955323448 22.5183
36.39252487562093 22.4372
36.416144880530226 22.4281
36.43958336764275 22.3809
36.463023432914625 22.4285
36.486465077645676 22.3468
36.51009145956204 22.4004
36.53353627947859 22.3447
36.55698268276811 22.3235
36.58043067073321 22.2995
36.60406345072071 22.1893
36.62751462435344 22.2192
36.65096738658405 22.1645
36.67460498210655 22.1837
36.69806093788647 22.1386
36.72151848619297 21.986
36.744977628333636 21.9905
36.76862165890998 21.9412
36.79208400512205 21.9235
36.81554794910557 21.9314
36.83901349217101 21.842
36.862663978991606 21.8359
36.88613273667352 21.697
36.90960309738324 21.8398
36.933075062434064 21.6961
36.95673202673572 21.7189
36.98020721697122 21.6595
37.003684015502365 21.6039
37.027162423645365 21.5622
37.050825886711465 21.5515
37.07430753063053 21.5404
37.09779078812467 21.5644
37.121275660513014 21.5042
37.144945643673694 21.4294
37.16843376245278 21.4162
37.19192350009803 21.3603
37.215414857931435 21.3556
37.239091382563885 21.2022
37.262585997426164 21.1757
37.28608223645736 21.2376
37.309763684451696 21.1989
37.33326318851098 21.1981
37.356764320726555 21.1101
37.380267082425526 21.089000000000002
37.40395510942588 21.1141
37.42746114683234 20.9557
37.45096881771841 20.9681
37.474478123414166 20.9866
37.49817275092816 20.9353
37.52168534303452 20.9483
37.54519957395567 20.816
37.568715445024665 20.8566
37.592416694607714 20.8234
37.61593586281424 20.8108
37.63945667518264 20.8223
37.66297913304891 20.7237
37.68668702630454 20.7586
37.710212792059274 20.6466
37.733740207334854 20.5922
37.757269273470364 20.4778
37.780983832050374 20.4979
37.80451621684926 20.5688
37.82805025654007 20.4447
37.851585952464795 20.4346
37.8753071980695 20.3547
37.89884622345676 20.3363
37.92238690911902 20.2681
37.94611318753442 20.3312
37.969657210779765 20.2979
37.99320289834801 20.2055
38.016750251586465 20.1601
38.04048325513017 20.1469
38.06403395679343 20.1078
38.087586328183946 20.0433
38.11114037065203 20.1319
38.13488012115898 20.104
38.1584375229181 20.021
38.181996599821 19.9715
38.205557353221124 19.9727
38.229303872575656 19.9145
38.2528679961576 19.9365
38.27643380031219 19.8562
38.30000128639589 19.7833
38.32375459653193 19.8198
38.34732546371299 19.74
38.37089801690786 19.675
38.39447225747609 19.6667
38.418232380377425 19.6463
38.441810012983396 19.6199
38.46538933705673 19.6487
38.488970353960084 19.5664
38.51273731166058 19.58
38.536321731567014 19.4837
38.55990784840681 19.4611
38.58367995004091 19.3963
38.60726947812959 19.3464
38.63086070726198 19.4127
38.654453638806274 19.4389
38.678232613930824 19.3637
38.70182896773327 19.2158
38.72542702806741 19.26
38.7490267963045 19.239
38.77281266709232 19.2045
38.79641586862214 19.1542
38.8200207821842 19.1263
38.843627409152944 19.1244
38.86742019782782 19.0605
38.891030269149255 19.0264
38.914642058016156 19.0646
38.938255565806124 19.012999999999998
38.96205529464307 18.9804
38.98567225787121 18.9691
39.00929094417078 18.883
39.03291135492255 18.8379
39.05671804624804 18.8448
39.080341923549106 18.7994
39.103967529460334 18.7511
39.127594865365744 18.6732
39.15140854155791 18.7216
39.17503935514948 18.7284
39.19867190290282 18.680999999999997
39.22249083587951 18.6778
39.24612686969409 18.6313
39.269764641845306 18.663
39.293404153722804 18.6115
39.317230110864074 18.5434
39.34087311998506 18.506
39.36451787301696 18.4676
39.388164371352595 18.3922
39.41199737518003 18.3332
39.43564738196752 18.4355
39.45929913825317 18.2644
39.48295264543308 18.2452
39.506792718520884 18.2085
39.530449745387216 18.2408
39.55410852735203 18.2222
39.57776906581474 18.2092
39.60161623079 18.1554
39.625280300200025 18.1658
39.64894613032202 18.1082
39.67261372255866 18.1639
39.6964680021016 18.1302
39.72013913657293 18.1015
39.74381203738292 17.9902
39.76748670593756 18.035
39.79134812278169 18.0237
39.81502634488497 18.0246
39.83870633896685 17.9216
39.862388106436654 17.8829
39.88625668336918 17.8501
39.90994201572829 17.8293
39.933629125719285 17.7362
39.957503091207826 17.7012
39.9811937746168 17.7347
40.00488623990914 17.6224
40.02858048850006 17.6215
40.05246165409549 17.6073
40.076159487492085 17.5795
40.099859108448875 17.6144
40.123560518384345 17.5877
40.1474489070226 17.5726
40.171153913178564 17.5181
40.194860712584955 17.4215
40.2185693066637 17.4353
40.242464941335314 17.435
40.26617714307655 17.3712
40.289891143772046 17.3359
40.3136069448471 17.3508
40.33750984859743 17.3426
40.3612292688043 17.2558
40.3849504936829 17.2062
40.40867352466194 17.2521
40.43258372059144 17.2172
40.45631038219906 17.1597
40.48003885420956 17.1191
40.503769138055105 17.0773
40.52768664931955 17.0792
40.55142057531802 17.0962
40.57515631746428 17.0587
40.599079334038514 16.997
40.62281872700477 16.9295
40.64655994043941 16.9199
40.67030297578061 16.9141
40.69423334835778 16.8733
40.71798004609188 16.8486
40.74172857006355 16.8239
40.76547892171441 16.8301
40.7894166736039 16.7633
40.813170699248566 16.7173
40.83692655691388 16.7347
40.86068424804498 16.7555
40.884629402612525 16.6209
40.908390779366385 16.6678
40.932153993938 16.6644
40.95591904777605 16.6033
40.979871628443995 16.6347
41.003640379561936 16.5558
41.02741097430883 16.5322
41.05118341413683 16.5161
41.075143444384416 16.4639
41.098919593177826 16.4555
41.1226975914255 16.4388
41.14647744058318 16.3267
41.170444943946755 16.3707
41.19422851378379 16.3367
41.218013938914645 16.2898
41.24198706625173 16.2538
41.26577622087193 16.2467
41.289567235177785 16.2733
41.31336011063129 16.2012
41.337340752422875 16.2008
41.361137369129835 16.1327
41.38493585138705 16.1793
41.40873620066004 16.0956
41.43272438060107 16.0835
41.45652848292052 16.0518
41.48033445666918 15.9944
41.50414230331616 15.9111
41.528138045159764 15.9171
41.551949656675205 15.9044
41.575763145513235 15.9231
41.59957851314666 15.812000000000001
41.62358184070442 15.7815
41.64740098505737 15.777000000000001
41.6712220126409 15.7982
41.69504492493139 15.7713
41.71905586207357 15.7371
41.74288256296395 15.6422
41.766711153007456 15.6818
41.79054163368412 15.6237
41.814560204340054 15.6534
41.838394485526365 15.6517
41.86223066180303 15.5895
41.88625497706819 15.5508
41.910094962812 15.5653
41.93393684811168 15.512
41.95778063445365 15.4105
41.981812625263366 15.3804
42.00566023303407 15.4447
42.029509746323676 15.3804
42.05336116662236 15.373
42.077400857069705 15.425
42.10125611078846 15.345
42.12511327600405 15.3054
42.14897235421036 15.2613
42.173019768448455 15.1961
42.19688269209613 15.2138
42.22074753323349 15.2094
42.24461429335818 15.1474
42.268669455600495 15.1391
42.292540073217886 15.1245
42.31641261433284 15.0871
42.34028708044675 15.0442
42.36435001496739 15.0214
42.38822835065557 15.0227
42.41210861586426 15.001
42.4359908120986 15.0096
42.46006154323262 14.9085
42.48394762115317 14.8833
42.507835634632315 14.8935
42.531912233047436 14.8828
42.55580413732265 14.8436
42.579697981698 14.7962
42.60359376768525 14.7853
42.62767820545945 14.7813
42.65157789440821 14.7669
42.67547952952185 14.7036
42.699383112316 14.7037
42.72347541395347 14.67
42.74738291190531 14.6182
42.771292362102166 14.6048
42.795203766063516 14.6138
42.819303956130405 14.5712
42.843219287476536 14.5137
42.86713657716324 14.5506
42.89105582671383 14.5067
42.91516392983864 14.4751
42.939087119032166 14.3806
42.963012272677304 14.4059
42.98693939230129 14.3514
43.01105543317513 14.3558
43.034986504731386 14.3609
43.05891954686589 14.3319
43.08285456110972 14.3183
43.10697856448665 14.2485
43.130917542983475 14.2317
43.15485849820081 14.2145
43.17880143167367 14.1738
43.20293342237094 14.1517
43.226880332449 14.0742
43.25082922540554 14.1035
43.27496722682525 14.091
43.29892010567796 14.036
43.32287497204102 14.0284
43.34683182745632 14.0176
43.370977859791836 13.993
43.39493871351105 13.9371
43.41890156092628 13.9647
43.44286640358341 13.8924
43.46702049182749 13.9044
43.49098934522816 13.8852
43.51496019852649 13.8341
43.5389330532723 13.8656
43.56309522248204 13.7751
43.58707210044314 13.81
43.61105098451946 13.7392
43.63503187626491 13.7408
43.659202151562134 13.7235
43.68318707902681 13.7444
43.70717401884041 13.7258
43.731162972560874 13.6406
43.75534137913236 13.5888
43.779334381108384 13.5971
43.803329401683186 13.609000000000002
43.82732644241872 13.5711
43.8515130055166 13.5526
43.87551410707659 13.5018
43.89951723350145 13.5322
43.923709934595614 13.4854
43.94771713129917 13.4388
43.97172635758096 13.4257
43.99573761501002 13.4034
44.0199385169922 13.3478
44.04395385732619 13.305
44.067971233533086 13.3108
44.09199064718605 13.2593
44.11619977548961 13.2951
44.14022328470671 13.1946
44.16424883610785 13.2734
44.18827643127035 13.2261
44.21249381139513 13.1336
44.236525514814076 13.0999
44.26055926674478 13.12
44.28459506876863 13.1142
44.3088207262813 13.0819
44.33286064928722 13.064
44.35690262714919 13.0468
44.38094666145278 13.0248
44.4051806219871 13.0108
44.42922879003185 12.9675
44.45327901929361 12.9321
44.477331311362136 12.9596
44.501573600619416 12.8836
44.525630039221795 12.9023
44.54968854541895 12.8521
44.573937102200176 12.814
44.5979997645541 12.8384
44.622064499300315 12.8065
44.64613130803592 12.7964
44.67038823869318 12.776
44.69445921643748 12.7102
44.718532272981385 12.7327
44.742607409926194 12.6695
44.76687274034801 12.6691
44.79095205918753 12.6147
44.81503346325094 12.6236
44.839116954143876 12.5678
44.86339071028742 12.55
44.88747839599524 12.5388
44.91156817336837 12.4953
44.93566004401666 12.5177
44.959942251908146 12.5089
44.984038330325966 12.4855
45.00813650686762 12.3775
45.03223678314731 12.3965
45.05652746888232 12.421
45.08063196592069 12.3936
45.104738567558705 12.3473
45.128847275414856 12.324000000000002
45.15314646515866 12.3028
45.17725940679741 12.251
45.20137445952892 12.2305
45.22568004865265 12.2374
45.24979934496396 12.2226
45.27392075725247 12.203
45.29804428714431 12.1904
45.322358426247604 12.1762
45.346486212804315 12.1394
45.370616121861914 12.1563
45.39474815505086 12.1108
45.41907087049246 12.0343
45.4432071734666 12.0551
45.46734560548283 12.0287
45.49148616817604 12.0434
45.51581748638564 11.9383
45.5399623320197 11.9408
45.56410931325473 11.9285
45.58825843173002 11.9131
45.61259837920865 11.9071
45.636751793816 11.895
45.66090735060093 11.8828
45.68506505120716 11.8409
45.7094136545275 11.819
45.73357566449271 11.7322
45.75773982322992 11.7368
45.78190613238733 11.7591
45.806263418194064 11.7513
45.83043404997326 11.7214
45.85460683713677 11.6977
45.87897065658495 11.6721
45.90314777634752 11.6174
45.92732705646868 11.6029
45.9515084986045 11.588
45.97588104735473 11.6019
46.00006683541565 11.5616
46.02425479047904 11.511
46.04844491420549 11.5374
46.0728262191024 11.5227
46.09702070211635 11.4911
46.12121735879483 11.4667
46.14541619080294 11.4557
46.169806278764455 11.408
46.194009483459034 11.456
46.21821486849841 11.3725
46.24242243555223 11.3282
46.266821333570014 11.315999999999999
46.29103328674601 11.3117
46.31524742696538 11.3181
46.33946375590237 11.2828
46.36387149104216 11.2343
46.38809221957392 11.2108
46.41231514186606 11.2104
46.436540259597464 11.2345
46.460956858999374 11.1576
46.48518638983522 11.1568
46.509418121166966 11.1536
46.533652054678114 11.1673
46.55807754555709 11.0742
46.58231590571962 11.0918
46.60655647313217 11.0694
46.630988654873654 11.0202
46.655233659129024 11.0265
46.67948087571551 11.027999999999999
46.70373030632484 11.0016
46.72817142736393 10.9794
46.752425308428684 10.937000000000001
46.77668140861147 10.8831
46.80093972960865 10.8805
46.82538981736788 10.8576
46.849652602470904 10.8706
46.87391761349769 10.8567
46.8981848521493 10.8089
46.9226439341274 10.788
46.946915650573224 10.775
46.97118959976749 10.7709
46.99546578341598 10.7266
47.019933887188216 10.7068
47.04421456235744 10.6753
47.06849747711879 10.6881
47.09278263318286 10.6618
47.11725978640143 10.6349
47.14154944775105 10.5958
47.165841355555656 10.5942
47.1901355115306 10.5763
47.214621741924994 10.5485
47.23892041698887 10.5765
47.26322134538975 10.4787
47.28771440635075 10.4693
47.31201986422527 10.467
47.33632758061436 10.4423
47.360637557241866 10.4431
47.38513974410611 10.4303
47.40945426407847 10.3925
47.43377104948137 10.3928
47.45809010204344 10.3641
47.48260144275502 10.3523
47.506925052572285 10.300999999999998
47.53125093475548 10.273
47.55557909103813 10.2882
47.58009961361992 10.2416
47.60443234110732 10.2384
47.62876734791564 10.2066
47.65310463578333 10.2092
47.6776343683373 10.1438
47.7019762413987 10.1629
47.72632040075572 10.1417
47.75066684815169 10.0916
47.77520581885936 10.0936
47.799556865477655 10.0682
47.823910205386 10.078
47.84826584033272 10.0619
47.87281407745551 10.0176
47.89717432569297 9.98691
47.92153687423484 9.98747
47.94609208429692 9.98294
47.97045925671401 9.977689999999999
47.99482873471275 9.98981
48.01920052005013 9.97459
48.04376504619224 9.90002
48.068141469543484 9.90426
48.09252020552573 9.88336
48.11690125590099 9.84143
48.1414751266064 9.845460000000001
48.16586082917454 9.82589
48.19024885144316 9.795760000000001
48.2146391951793 9.781130000000001
48.239222439012764 9.75752
48.26361744916137 9.7421
48.28801478610016 9.71823
48.31241445160131 9.72986
48.337007097209366 9.70546
48.36141144338331 9.69639
48.38581812345755 9.675419999999999
48.41022713920929 9.65018
48.434829215320704 9.634910000000001
48.45924292604658 9.62151
48.48365897780325 9.64302
48.50807737237308 9.554089999999999
48.532688907799276 9.59191
48.55711201168574 9.507019999999999
48.581537463754074 9.5123
48.60615611725119 9.551210000000001
48.63058628942721 9.49778
48.65501881516546 9.4788
48.6794536962573 9.48415
48.70408185970339 9.455969999999999
48.72852147531801 9.4399
48.75296345168211 9.39568
48.77740779059232 9.34888
48.80204549302823 9.38747
48.82649458091802 9.36664
48.85094603676547 9.35907
48.87539986237231 9.29814
48.90004713292306 9.28753
48.92450572200832 9.27285
48.94896668628025 9.275730000000001
48.97343002754588 9.269730000000001
48.99808689542115 9.24766
49.02255501470614 9.22898
49.04702551642794 9.19835
49.0714984023988 9.18018
49.096164896893235 9.16047
49.120642575466796 9.1353
49.145122643748394 9.13534
49.16960510355558 9.11582
49.19428125404938 9.13085
49.2187685210852 9.0823
49.243258185121555 9.05391
49.26794160167084 9.031239999999999
49.2924360839405 8.99895
49.31693296869764 9.02145
49.34143225776915 8.96418
49.36612538195438 8.96716
49.39062950396021 8.99291
49.41513603578346 8.93394
49.4396449792564 8.92802
49.46434784069503 8.93235
49.488861631846454 8.88762
49.513377840166804 8.91517
49.537896467493745 8.859639999999999
49.56260909589029 8.78059
49.587132585683285 8.82959
49.611658500018365 8.809239999999999
49.636186840738596 8.79646
49.66090926588511 8.78098
49.685442483902584 8.75313
49.70997813385706 8.72943
49.734516217597076 8.74198
49.75924846937352 8.7259
49.7837914452858 8.70555
49.80833686055187 8.6477
49.83288471702571 8.64702
49.85762682540054 8.6373
49.882179588965734 8.589839999999999
49.9067347993235 8.58736
49.93129245833333 8.59682
49.95604445336378 8.57812
49.98060703442832 8.5253
50.005172069746266 8.51342
50.02993150438364 8.54473
50.05450147301533 8.53404
50.07907390151433 8.53178
50.10364879174981 8.46805
50.12841816587289 8.47057
50.1529980044635 8.4559
50.17758031042124 8.42427
50.20216508562089 8.4114
50.22694442953363 8.364419999999999
50.25153416817468 8.34436
50.27612638170508 8.340710000000001
50.300721072005196 8.35425
50.325510416102105 8.32816
50.350110084975064 8.32693
50.37471223628208 8.31607
50.39931687190919 8.27422
50.424116246675766 8.26095
50.44872587605249 8.25208
50.47333799543065 8.207139999999999
50.49795260670191 8.18707
50.52276204271512 8.17963
50.54738166295838 8.1871
50.57200378079314 8.18168
50.596628398116835 8.13433
50.62144792604559 8.11619
50.646077567609396 8.106539999999999
50.670709714377715 8.10524
50.69553683636198 8.08425
50.72017401885922 8.084660000000001
50.7448137122895 8.03784
50.76945591856022 8.046
50.79429318636823 8.04355
50.818940443716784 8.029060000000001
50.84359021965163 8.00024
50.868242516085964 7.983439999999999
50.893089960641895 7.953239999999999
50.917747323549435 7.92802
50.94240721271973 7.9266
50.96706963007175 7.932589999999999
50.99192728239342 7.8973
51.01659478166073 7.878660000000001
51.04126481489051 7.8840699999999995
51.06593738400761 7.8878
51.090805275207074 7.817310000000001
51.11548294172845 7.79825
51.14016314993547 7.8027
51.164845901758845 7.7933
51.18972406304274 7.77267
51.21441192780656 7.740189999999999
51.23910234200271 7.763439999999999
51.2637953075678 7.73071
51.288683770237945 7.67485
51.31338186432707 7.70027
51.33808251561888 7.65848
51.362978729967345 7.6775899999999995
51.387684521509755 7.6753
51.41239287610203 7.62197
51.437103795691165 7.62137
51.46201036644977 7.584810000000001
51.486726441956634 7.52681
51.51144508832545 7.54953
51.536166307509156 7.5707699999999996
51.56108326624387 7.561210000000001
51.58580965706056 7.509119999999999
51.61053862657523 7.50407
51.635270176746864 7.48073
51.66019755512065 7.4563
51.68493429268881 7.46687
51.70967361681515 7.47549
51.73441552946465 7.42588
51.759353359237934 7.396730000000001
51.7841004750961 7.42333
51.80885018539685 7.40917
51.833602492111254 7.37303
51.8585508051424 7.36447
51.883308330926425 7.36245
51.90806845906181 7.306589999999999
51.932831191525715 7.272480000000001
51.95779001977161 7.25599
51.98255798721516 7.26455
52.00732856494335 7.2803
52.03229530577543 7.245089999999999
52.057071130455945 7.24132
52.081849571391054 7.225569999999999
52.106630630568695 7.193569999999999
52.13160794279417 7.2145399999999995
52.15639426492067 7.156619999999999
52.18118321127822 7.147360000000001
52.205974783860896 7.1329899999999995
52.23096269971011 7.11994
52.255759551287994 7.14187
52.280559035098186 7.11145
52.30536115314103 7.10415
52.33035970494467 7.09801
52.35516711807904 7.09738
52.37997717147198 7.04438
52.40478986713005 7.02628
52.42979908731974 7.01749
52.454617094216 6.98575
52.47943774942214 6.9708
52.50426105495102 6.964689999999999
52.529280976059844 6.95679
52.554109609024096 6.94044
52.57894089837482 6.94101
52.60377484613117 6.93155
52.62880550079408 6.91775
52.65364479223379 6.91252
52.67848674816189 6.85332
52.70352547971946 6.8122
52.72837279155837 6.852119999999999
52.753222773982785 6.8368199999999995
52.778075429022984 6.82238
52.80312495150885 6.81383
52.827982978797436 6.76668
52.85284368481815 6.75656
52.87770707160767 6.776660000000001
52.90276741793998 6.762560000000001
52.92763619336701 6.722510000000001
52.952507655698504 6.6849300000000005
52.977381806977576 6.707889999999999
53.00245301017842 6.663410000000001
53.02733256653592 6.657960000000001
53.052214817996074 6.62229
53.077099766608484 6.629589999999999
53.102181859804446 6.6439
53.127072229988265 6.65215
53.15196530349892 6.58708
53.17686108239249 6.5849899999999995
53.20195409881522 6.5591
53.22685531582556 6.571219999999999
53.25175924441303 6.53106
53.27666588664027 6.5089999999999995
53.30176985962693 6.5065599999999995
53.3266819565689 6.48405
53.35159677336455 6.50054
53.376514312083096 6.43651
53.40162927507703 6.48298
53.42655228516116 6.45671
53.45147802340193 6.43773
53.47660125628886 6.3890400000000005
53.50153247842639 6.40632
53.52646643496923 6.37933
53.55140312799818 6.38136
53.576537409691696 6.34819
53.60147960336152 6.37143
53.626424539786164 6.3261199999999995
53.65137222105307 6.32521
53.67651758529126 6.30518
53.70147078399681 6.27113
53.72642673383343 6.304130000000001
53.75138543689533 6.30428
53.776541917524526 6.27369
53.801506154876755 6.26537
53.826473151763246 6.23085
53.851442910284916 6.2352300000000005
53.87661054126026 6.23046
53.9015858509782 6.16545
53.92656392866066 6.16092
53.95154477641532 6.16148
53.976723591801296 6.15221
54.00171000771266 6.11634
54.02669920004598 6.13532
54.051691170915745 6.09236
54.076881204886796 6.07337
54.101878760928514 6.05379
54.12687910187696 6.03447
54.152077577768296 6.05582
54.1770835166946 6.00089
54.20209224691339 5.9964900000000005
54.22710377055121 6.00911
54.25231352511594 6.00402
54.27733066384342 5.9808699999999995
54.30235060239643 5.95904
54.32737334290836 5.9667
54.35259441062629 5.92026
54.377622783395324 5.88185
54.40265396455061 5.92572
54.42768795623251 5.85225
54.45292037169559 5.86181
54.477960012857906 5.85342
54.50300247099511 5.843
54.52804774825457 5.8176
54.55329154616743 5.791930000000001
54.57834249018678 5.75579
54.6033962597977 5.7209699999999994
54.6284528571545 5.718319999999999
54.653708072335164 5.68644
54.67877035378786 5.69476
54.70383546947698 5.66165
54.72890342156389 5.64326
54.7541700889442 5.6268400000000005
54.77924374251975 5.57515
54.8043202390049 5.62115
54.82959552413022 5.554069999999999
54.8546777351945 5.505269999999999
54.87976279569621 5.49749
54.90485070780914 5.50668
54.930137506558005 5.451630000000001
54.95523115074295 5.51432
54.98032765308844 5.45887
55.005427015775496 5.4364
55.03072536339621 5.45078
55.05583047570572 5.34485
55.080938454927676 5.33577
55.10604930325027 5.38203
55.131359235107396 5.34206
55.15647585066083 5.2534
55.181595341907496 5.31875
55.20671771104285 5.32069
55.232039262617704 5.26105
55.25716741665048 5.22163
55.28229845518636 5.22064
55.30743238042802 5.18601
55.33276558731939 5.15268
55.357905315183636 5.14407
55.383047936390035 5.15385
55.40819345314859 5.1321
55.433538351073295 5.11268
55.458689688238415 5.09069
55.483843927614096 5.00477
55.509197623043605 5.02002
55.53435769621134 4.9759400000000005
55.55952067826466 4.93064
55.5846865714265 4.91549
55.61005202069737 4.90961
55.63522376553902 4.95244
55.66039842818645 4.897819999999999
55.68557601087004 4.84981
55.7109532500271 4.761340000000001
55.73613670233794 4.8006400000000005
