TT I
1.2716486653135266 35.7985
1.2939594142134223 37.2324
1.3162702121660406 36.2673
1.3385810600174564 36.023
1.3608919586137629 35.2936
1.383202908801069 34.1302
1.405513911425503 31.8587
1.4278249673332093 32.5979
1.4501343378461518 32.2819
1.4724455028545926 30.6974
1.4947567236847858 30.6296
1.517068001182951 30.8534
1.5393793361953272 29.8269
1.5616907295681737 29.4124
1.5840021821477681 28.8685
1.60631369478041 28.2725
1.6286252683124185 28.6013
1.6509369035901333 28.5172
1.6732468618895553 27.3218
1.695558623192809 26.9158
1.7178704487808514 26.6465
1.7401823395001077 26.688000000000002
1.7625012545597203 26.2282
1.7848028405262486 26.1663
1.8071218901122095 25.704
1.8294236121921872 25.5599
1.8517427996910911 26.2802
1.8740620574440425 25.7209
1.8963639900671978 25.7817
1.9186833908139995 25.3841
1.9409854680117449 25.5989
1.9633050151394713 25.2161
1.9856246367570705 25.1989
2.0079269371922672 25.6424
2.03024671027244 25.1416
2.0525491637446027 24.9686
2.074869091674931 25.5706
2.097171701569106 25.6098
2.1194917877373847 25.9181
2.141811954326636 26.4344
2.164114805233074 25.9952
2.186435135143035 26.1777
2.208738150935709 26.5377
2.231058647554722 26.8283
2.2533792288321184 27.1301
2.275682498336085 26.8293
2.298003251406138 27.559
2.3203066942619714 26.8706
2.3426276225136022 26.2547
2.3649486396617507 26.1315
2.387252348930071 26.374000000000002
2.4095735463442893 26.3681
2.4318774374315884 26.5981
2.4541988185014043 26.3766
2.476502894794693 25.6629
2.498824462909887 26.3898
2.521146125856138 26.4173
2.5434504863470337 26.2846
2.5657723414244717 27.0306
2.588076895590662 27.9455
2.610398946189713 28.1367
2.6327210958598384 28.2639
2.6550259469304716 28.7829
2.6773482972090137 28.8144
2.6996533504259 30.0894
2.7219759047039602 30.8444
2.744298562293959 31.5323
2.7666039251246595 32.5254
2.7889267918020164 34.0757
2.8112323652516555 34.9454
2.833555444408179 35.9507
2.8558786311183852 37.3076
2.8781845268938557 39.2462
2.9005079311721484 42.409
2.9228140460410397 44.3482
2.9451376712799635 47.3196
2.967444008632326 50.2715
2.9897678582247247 53.7242
3.0120918213106695 58.6214
3.0343984987899373 62.0692
3.0567226913198637 66.2817
3.079029599759726 71.384
3.101354025127254 76.57600000000001
3.123678568232338 80.5728
3.145985829517914 83.2045
3.16831061055229 85.4955
3.1906181112775593 85.4833
3.212943133635653 83.9218
3.2352682779763207 80.1955
3.2575761442691227 75.2527
3.2799015350264273 69.5007
3.302209649240067 64.1758
3.3245352898092655 58.6619
3.3468436553365257 54.3222
3.369169549113219 50.4303
3.3914955708171384 47.2004
3.413804319727358 44.0491
3.4361305997334863 42.3592
3.4584396084414553 41.082
3.4807661501462652 40.4629
3.503092824025881 40.0168
3.5254022288463154 39.2478
3.5477291695206588 38.9928
3.5700388426251948 39.3175
3.5923660534916446 39.4996
3.6146934007816114 39.4092
3.637003482731501 40.1216
3.6593311053109985 40.9325
3.681641464033634 40.8217
3.7039693653009733 41.4551
3.726297407241705 42.0835
3.7486081875460804 41.4249
3.7709365132734978 41.1956
3.793247578841633 41.2617
3.8155761917550093 41.2716
3.8378875459837216 41.1927
3.8602164494827234 41.2499
3.882545499606844 41.316
3.9048572932539183 41.5714
3.9271866390645718 42.3295
3.9494987298666713 42.9648
3.971828374764527 43.7759
3.9941581705403255 44.576
4.016470713506008 45.5318
4.038800813471445 47.0922
4.061113662089144 48.407
4.0834440696459176 50.3802
4.105774632334751 51.768
4.128087945865126 54.233000000000004
4.150418821249301 56.3144
4.172732448931298 59.691
4.195063640413578 62.9105
4.2173775856475215 66.536
4.239709096631102 69.9319
4.262040768704612 73.476
4.284355196706267 76.3873
4.306687193387355 77.9577
4.329001947444346 79.982
4.35133427213731 79.2034
4.373666762177566 78.2981
4.395982011761091 76.0124
4.418314834921175 73.2347
4.44063041906622 71.0609
4.4629635787515625 69.2433
4.4852969080429785 67.2687
4.5076130004776225 64.8815
4.529946671403969 62.8962
4.552263106909177 60.9234
4.574597122877047 58.9957
4.596931312711224 57.0343
4.619248269273446 56.0457
4.6415828092605835 54.7139
4.663900117405352 53.6703
4.686235010953232 54.1946
4.708552674085913 53.3316
4.730887924602802 53.6853
4.753223354952695 54.181999999999995
4.775541557023902 55.0186
4.797877349456786 56.0451
4.820195915032126 57.9913
4.842532072957498 58.9747
4.864868414979744 61.0844
4.88718753227192 63.2797
4.909524244902505 65.7793
4.931843734218147 68.7465
4.954180820867835 72.3604
4.976518095879839 77.1835
4.998838149695359 81.9024
5.021175803844231 90.1514
5.043496238205739 101.814
5.065834274903528 113.85600000000001
5.088172504230693 124.374
5.1104935158799565 135.67700000000002
5.132832132875765 151.39700000000002
5.155153533596801 173.485
5.1774925416746225 204.915
5.199814334878411 256.85
5.2221537374521505 351.17900000000003
5.244493338631803 503.915
5.266815727034316 720.3389999999999
5.289155727832427 1041.46
5.311478517248165 1686.4
5.333818921080011 2772.16
5.356159527788849 4069.13
5.3784829252032536 4010.84
5.400823940070432 2761.42
5.423147747031976 1401.48
5.445489173474152 684.6039999999999
5.467830807066149 409.043
5.490155234831516 292.39099999999996
5.512497285125229 226.157
5.534822130975162 188.40400000000002
5.557164601388673 161.972
5.579489868738879 142.125
5.601832762690846 128.39600000000002
5.6241758697774475 118.884
5.646501775867269 113.185
5.668845311622074 108.955
5.691171647754637 106.06200000000001
5.713515615597765 103.178
5.735859800852677 100.322
5.758186788542988 97.6494
5.780531411018185 96.6173
5.802858837297399 95.2262
5.825203900414495 95.2911
5.8475491852224 97.0788
5.869877275883075 99.4037
5.892223006467101 104.285
5.914551544266608 108.619
5.936897724049891 115.53399999999999
5.959244129804903 124.948
5.981573344815301 140.032
6.0039202049061 162.303
6.026249875609095 197.268
6.04859719346037 248.06900000000002
6.070927323278297 318.845
6.093275102315365 418.88699999999994
6.115623113320588 532.987
6.137953938319995 722.033
6.160302415650845 1037.34
6.182633708324452 1269.1
6.2049826554078376 1205.5
6.227331838745022 861.41
6.249663839443684 539.753
6.27201349767565 350.13
6.294345974611799 246.047
6.316696111167083 178.87400000000002
6.339046488263839 138.422
6.361379686074702 113.734
6.383730546639482 98.0966
6.406064229255215 86.5483
6.428415576718203 79.3519
6.450749747566656 73.5641
6.47310158535871 69.1173
6.495453669698332 65.5043
6.517788579421056 62.1884
6.540141159237969 59.6761
6.562476565766648 57.9398
6.5848296444934045 56.8434
6.607182974060425 55.9175
6.6295191323281015 55.0149
6.651872965955752 54.1383
6.6742096296068985 54.0485
6.6965639707294615 54.2094
6.71891856698715 53.7955
6.741255995248479 53.4407
6.763611104154477 53.2619
6.785949046381137 53.1306
6.808304671371482 52.4746
6.8306605557940046 52.2052
6.852999275508618 51.4775
6.875355681171544 50.8764
6.897694923437771 50.4094
6.92005185377892 49.3508
6.9423916220322655 48.538000000000004
6.964749080490181 47.8212
6.987106804399774 48.2213
7.009447368180821 47.8793
7.031805625367033 47.9786
7.054146723727803 48.3919
7.076505517631004 48.4892
7.098864581288365 48.8444
7.121206488070854 49.13
7.143566093607822 49.937
7.165908543567245 51.4828
7.188268694426048 52.6836
7.2106291193438095 53.4036
7.232972390625943 55.0735
7.255333366030969 57.0296
7.277677189091925 59.1885
7.300038718428332 63.2765
7.322400526130865 66.5143
7.344745183422596 69.6627
7.367107550224791 71.3607
7.389452767901992 71.0683
7.411815697249891 69.2272
7.434161478756298 66.5367
7.456524974096713 64.1381
7.478888753837185 62.5508
7.501235387657368 62.0897
7.523599738562711 63.5045
7.545946944825532 71.4753
7.568311870344528 94.624
7.5906770845765665 137.395
7.613025156078678 166.093
7.635390950099687 140.63299999999998
7.657739602662809 94.0998
7.680105979923558 63.3755
7.702472650212829 50.9559
7.724822180948224 45.9402
7.747189439655568 44.0029
7.769539560075357 42.2593
7.791907410653562 41.4809
7.81425812420825 40.7477
7.836626570110925 40.0912
7.858995315087906 40.211999999999996
7.881346924933401 39.4944
7.903716270417482 39.3765
7.926068482028405 39.5678
7.948438431475253 39.186
7.9708086843180235 39.3309
7.993161805171116 39.6713
8.015532667162402 39.8169
8.037886398416653 39.9621
8.060257873014221 39.9814
8.082629655331942 40.1356
8.104984308787587 40.6531
8.127356708900503 41.3174
8.149711981398308 41.7143
8.172085002766314 42.2664
8.194458336181368 42.9818
8.216814543847752 43.7145
8.23918850371002 44.451
8.26154533906492 45.0587
8.283919928836452 46.4678
8.306277395339652 46.687
8.328652618483376 47.8703
8.351028159736202 49.5232
8.373386579575245 51.4385
8.395762759396959 53.3049
8.418121819038275 55.6444
8.440498640894003 58.6469
8.462875785192262 62.353
8.485235811156207 67.0846
8.507613602688501 73.22399999999999
8.529974277114228 82.9176
8.552352719347912 95.0941
8.574731488360351 116.134
8.59709314210385 145.82
8.619472567021075 175.49900000000002
8.64183487789147 201.55200000000002
8.664214962183097 242.24400000000003
8.686577933647762 324.908
8.708958680784317 474.708
8.731339760774953 664.716
8.753703729764451 805.4860000000001
8.77608547780821 732.602
8.798450116065078 531.9490000000001
8.820832535634787 342.00800000000004
8.843215292401656 220.15599999999998
8.865580941199045 155.56
8.887964374703538 121.446
8.910330701447199 101.94
8.932714815164482 88.8695
8.955099270424924 80.0013
8.977466620733543 74.5576
8.999851761421976 70.8339
9.022219798361645 67.1676
9.04460562795561 65.0657
9.066991803441677 62.883
9.089360876979615 61.2064
9.111747746589993 60.115
9.13411751544971 58.9932
9.156505082664324 58.97
9.178875550323522 59.5581
9.20126381862328 61.242
9.223652438908596 65.5297
9.246023961427412 77.0077
9.26841328802173 109.26899999999999
9.290785518039224 173.757
9.313175554425882 246.87099999999998
9.335565947154315 255.99900000000002
9.357939245086508 187.613
9.380330352834827 116.024
9.40270436697103 76.5152
9.425096193225055 61.7862
9.447488380180165 56.6022
9.469863475295412 54.0736
9.492256385987508 52.3934
9.514632206018318 51.4681
9.537025843935714 50.6116
9.559402392368193 49.9661
9.581796761000229 50.1848
9.604191496441521 50.2843
9.626569144158516 50.4567
9.648964615551032 50.4865
9.671343000390081 50.9051
9.693739211225699 51.8415
9.716135793237463 51.6506
9.738515290448102 51.9591
9.760912617143402 52.7443
9.783292860202891 53.7541
9.805690935076182 54.648999999999994
9.828089385495742 55.5318
9.850470754023561 56.6684
9.872869957865444 58.3067
9.89525208097539 60.2319
9.917652041736662 62.6005
9.940052382417589 65.2713
9.962435644102392 68.9813
9.984836746950979 73.7786
10.007220771957746 80.4767
10.029622640473708 90.2162
10.052007432299963 106.59299999999999
10.074410069984072 125.666
10.096813093716005 150.03799999999998
10.119199042482517 171.45
10.141602840636468 189.905
10.163989564971628 218.49599999999998
10.186394141051062 283.532
10.208799107559706 403.353
10.231187001965623 577.4590000000001
10.253592751657669 767.88
10.275981430388155 819.743
10.298387966769793 676.878
10.320794897965431 479.695
10.343184759907361 308.829
10.36559248305461 203.014
10.387983138083852 147.326
10.410391656691655 117.555
10.432800574501677 100.102
10.455192425893369 88.9608
10.47760214443012 83.6728
10.499994797678786 81.6399
10.522405320453982 82.9366
10.54479877906917 86.6807
10.567210109595656 89.2504
10.5896218454736 90.9621
10.612016518879773 95.751
10.634429067781074 106.78399999999999
10.656824555333241 132.33100000000002
10.679237920773568 178.364
10.701651695961992 243.715
10.724048411481384 294.535
10.746463008485165 293.703
10.768860546937125 248.361
10.791275969274796 178.668
10.81369180576079 120.788
10.836090585366925 85.1521
10.858507252467449 66.2938
10.88090686379991 57.1794
10.903324365036394 52.3076
10.925724811614439 49.1245
10.948143150509463 47.4033
10.970561909719066 45.8221
10.992963615930844 44.92100000000001
11.015383218085756 43.9341
11.037785768347074 43.2793
11.06020621697282 42.9802
11.082627090322113 42.2469
11.105030913430326 41.8387
11.12745263854165 41.5592
11.149857314510728 41.1161
11.172279894912576 41.3399
11.194702904450653 40.7877
11.217108866490921 40.5722
11.239532736615194 40.6619
11.26193956033512 40.3508
11.284364294577085 40.4469
11.306789462371718 40.1979
11.329197585398376 40.0504
11.351623622610898 40.2466
11.37403261614354 39.6217
11.396459526308487 39.3937
11.418869393879497 39.2188
11.441297180532617 39.0863
11.463725406927658 38.4571
11.486136592353875 38.2318
11.508565700543707 37.8499
11.530977768845315 37.9977
11.553407762368774 37.8123
11.575838200059769 37.7433
11.598251599479612 37.5944
11.620682927815501 37.7736
11.64309721895548 37.5055
11.665529441478206 37.6071
11.687962112597958 37.4021
11.710377748130886 37.3738
11.732811318753434 37.1881
11.755227854859067 37.2086
11.777662328529495 36.9776
11.800079768750786 37.1825
11.822515149015453 37.2274
11.844950984084935 37.5068
11.867369787303163 37.6678
11.889806534289491 38.2217
11.912226250487029 39.5233
11.934663912939751 40.9943
11.9571020346363 44.3423
11.979523127133968 52.3084
12.001962169624331 67.4191
12.024384183972964 84.3798
12.046824150809913 95.5054
12.069264581333726 89.01299999999999
12.091687985297767 71.2833
12.11412934550045 56.1499
12.136553680195208 48.4212
12.158995973632788 46.578
12.181438735204349 46.3547
12.20386447284199 47.0903
12.226308172985636 48.3005
12.24873485024193 49.763000000000005
12.271179492516982 52.61600000000001
12.293607112949127 57.339
12.316052700916226 65.2744
12.338498763250042 76.5736
12.360927805303868 88.9047
12.383374818673879 97.6103
12.405804812803074 96.8681
12.428252780773262 86.8345
12.45070122756722 73.1272
12.473132656675375 62.0391
12.49558206341869 54.2655
12.518014453510101 49.1282
12.540464823770117 45.8937
12.562915677315177 43.8
12.58534951575545 42.2894
12.607801338171472 40.9185
12.630236146511358 40.215
12.652688941369085 40.0353
12.675124723177234 39.8166
12.697578494048786 39.684
12.720032754458185 39.7849
12.742470003354093 39.8519
12.764925245138771 39.9302
12.787363476431278 39.8345
12.809819703166806 40.0104
12.83227642391173 39.7279
12.854716135692716 39.7111
12.877173846755147 39.8807
12.899614549869717 39.5619
12.9220732548287 39.6195
12.94453245827299 39.5767
12.966974655289818 39.6987
12.989434858002571 39.6552
13.011878055298721 39.7539
13.034339260862497 40.2576
13.056800969391883 40.7749
13.079245674017244 41.792
13.101708390774869 42.8464
13.12415410463411 44.5534
13.146617833206086 48.618
13.169064559883248 54.2576
13.191529303857127 59.1777
13.213994557076367 61.9516
13.236442809902437 61.8321
13.258909083908291 61.8421
13.28135835851934 63.5727
13.30382565690295 66.1526
13.326293469022952 68.5961
13.348744283242008 70.9619
13.371213125129904 76.1347
13.39366497011003 85.4175
13.416134845360597 100.669
13.438605238843131 126.335
13.46105863690397 163.595
13.483530069144786 205.197
13.505984506951902 229.327
13.528456981549432 221.90400000000002
13.550929978879088 186.88299999999998
13.573385983253365 148.888
13.595860028340867 117.81299999999999
13.618317081455832 99.4499
13.64079217790333 89.32600000000001
13.663250283359057 83.7503
13.685726434770173 80.268
13.708203115221277 79.8639
13.730662806148091 82.7742
13.75314054697177 90.5447
13.775601299246777 107.068
13.798080104050406 135.404
13.820559442405358 175.44799999999998
13.843021793671388 208.58900000000003
13.865502201420897 216.50099999999998
13.887965623051947 192.41
13.910447103807167 149.194
13.932929122629764 109.85700000000001
13.955394156785959 84.4589
13.977877254034569 68.0634
14.000343367582113 58.2886
14.022827546871707 53.0174
14.045294743423524 49.3389
14.06778000837062 46.5279
14.090265817715476 45.2998
14.112734645763819 44.5001
14.13522154619454 44.4447
14.157691466286913 45.7671
14.180179461423874 50.5643
14.202668005486178 60.1241
14.22513957064374 73.2044
14.247629214846473 86.1638
14.270101881097517 90.1445
14.29259262906496 79.4641
14.315083930490205 63.5035
14.337558255389705 50.8402
14.360050666019726 43.9601
14.382526101071944 40.5465
14.405019624534942 39.0963
14.427513705993134 38.3836
14.449990813291825 37.6909
14.47248601302899 37.2635
14.49496423954951 37.098
14.517460561197822 37.0516
14.539939910570322 36.6693
14.562437357763558 36.541
14.58493536931253 36.654
14.607416409993311 36.4081
14.62991555254159 36.4184
14.652397725157423 36.3835
14.674898002342799 36.5658
14.697398848433282 36.5877
14.719882725991326 37.0044
14.74238471217934 37.2799
14.764869730765593 37.5749
14.787372860692983 37.6604
14.809876564079925 38.2203
14.83236330125751 38.9923
14.854868153850365 39.7545
14.877356041159485 41.0912
14.899862046604186 42.8054
14.922351087688757 45.0211
14.944858249632887 46.9959
14.967365991421232 48.0958
14.989856770231246 48.9172
15.012365673994204 50.0227
15.03485761569738 52.4988
15.05736768508665 56.2305
15.07987833888692 62.0384
15.102372032001655 72.0177
15.124883856909658 86.8191
15.14737872204565 107.126
15.169891721717274 124.895
15.192405310371893 133.475
15.214901940621196 127.176
15.237416709527137 108.281
15.259914520936249 88.0802
15.282430473753607 71.6974
15.304947020131227 60.0579
15.327446610371178 52.2977
15.349964346154254 47.2999
15.372465126703139 44.4738
15.394984055556009 42.5994
15.417486030076159 41.25899999999999
15.44000615566487 40.01
15.462526881230803 39.1883
15.485030653812652 38.9198
15.507552581617434 38.3342
15.530057557334603 38.0097
15.55258069104857 37.7995
15.575104429329837 37.7618
15.597611216864632 37.6347
15.620136166564563 37.5254
15.6426441664095 37.3565
15.665170331202765 37.3077
15.687697105158826 37.4845
15.710206930593545 37.9859
15.732734925158933 38.4035
15.755245972089478 38.6639
15.77777519094324 39.8457
15.800287463046663 41.0841
15.822817909869592 42.9246
15.84534897229804 44.5179
15.867863089299354 46.151
15.890395385222186 47.1725
15.912910736597423 47.4782
15.935444269699861 48.7604
15.957978423016485 51.38399999999999
15.980495633101265 54.7373
16.003031029129367 60.9478
16.02554948280019 70.9651
16.048086125229432 85.6097
16.070623392487107 103.98200000000001
16.09314371869582 121.801
16.11568223789321 132.369
16.13820381691126 130.989
16.160743591742527 119.03200000000001
16.183283996022084 101.663
16.205807461423195 83.5864
16.228349126881973 67.4975
16.25087385432698 55.9679
16.27341678466365 48.0452
16.29594277784926 43.6099
16.31848697676433 40.4604
16.341031811604868 38.1347
16.36355971058487 37.0625
16.3861058195587 36.0646
16.40863499352978 35.0286
16.431182380342005 34.3219
16.453730407713202 33.8113
16.476261501364792 33.5031
16.498810812136167 33.1553
16.52134319004079 32.8575
16.54389378792203 32.635
16.566445031001553 32.4135
16.588979342490088 32.2228
16.61153187824822 31.8542
16.634067483263312 31.5728
16.656621315414416 31.5387
16.679175797408888 31.2231
16.701713349928728 31.2249
16.72426913389191 31.2631
16.74680798922351 31.112
16.76936507887444 31.0969
16.791905240734874 31.0142
16.814463639794468 30.9067
16.837022695210294 30.9134
16.859564824093756 31.0718
16.882125194503903 31.1482
16.904668639217885 31.3835
16.927230328348003 31.4678
16.949792678493612 31.8821
16.972338104193863 32.711999999999996
16.994901778652235 34.3579
17.017448529496576 36.6503
17.040013531998152 39.0345
17.06257920018044 40.1439
17.0851279459922 39.5807
17.107694947817667 37.451
17.130245028099072 35.1553
17.15281336730298 33.5184
17.17536478578733 32.8037
17.19793446610687 32.5729
17.220504818648422 32.5597
17.243058251703697 32.695
17.265629950971032 33.1606
17.288184731571736 33.615
17.310757781306908 33.8189
17.33333150794385 33.8487
17.355888317140174 33.903
17.37846339986244 34.2862
17.401021565958885 35.1367
17.42359800851343 36.265
17.44617513265564 37.8517
17.468735341390783 40.2572
17.491261035594565 43.753
17.51396340099364 47.9179
17.536490463869136 51.4216
17.559018209820174 52.373000000000005
17.58154663977963 50.8534
17.604251766089718 47.1272
17.626781572227713 43.1506
17.64931206518155 39.7422
17.671843245885103 37.3131
17.69455114821572 35.6494
17.717083712612634 34.8659
17.739616967569667 34.4712
17.762150914021706 34.3348
17.78486160749854 34.4459
17.807396945166804 35.2608
17.829932977143503 36.3655
17.85246970436452 38.4874
17.875183204129467 40.1631
17.897721330097664 41.9118
17.920260154126645 42.0152
17.942799677153296 40.8914
17.9655159983646 39.0381
17.988056927677544 38.2134
18.010598558807683 38.5341
18.033140892692916 39.3217
18.05586005052525 40.3218
18.07840379824407 41.1206
18.10094825154059 41.9612
18.12366954819864 42.1655
18.146215420998306 42.3822
18.16876200220057 43.5745
18.191309292745153 45.2372
18.214033452627167 48.1724
18.236582170236648 51.9934
18.259131600016456 58.6422
18.281681742907335 67.6957
18.304408781233683 80.9745
18.32696035875955 94.6488
18.349512652227624 104.678
18.372065662579683 107.583
18.394795594587553 100.333
18.41735004715306 87.5919
18.43990521943684 74.7863
18.46246111238171 65.1034
18.485193953325208 58.9074
18.507751296070428 56.5673
18.530309362314178 57.5928
18.552868153000343 61.0588
18.57560391815056 66.6042
18.59816416623245 73.5858
18.620725141597372 77.6002
18.643286845190268 77.3511
18.666025549835414 72.7812
18.688588718427933 65.554
18.711152618092243 58.1351
18.73389353884365 51.2195
18.75645890921984 45.4973
18.77902501351406 41.483999999999995
18.801591852673102 39.172
18.824335739722738 37.1608
18.846904057212626 36.106
18.8694731124168 35.2543
18.89204290628315 34.7452
18.914789774966803 34.3706
18.937361054791623 33.7961
18.959933076131318 33.3735
18.982505839934877 33.2644
19.00525570560582 33.0211
19.027829963004184 32.7336
19.05040496572238 32.7042
19.072980714710468 32.5585
19.095733592739563 32.6003
19.11831084296757 32.37
19.140888842324735 32.316
19.16346759176222 32.3073
19.18622349753803 32.4027
19.208803755869358 32.5627
19.231384767143577 32.7773
19.253966532312948 33.1844
19.276725481241822 33.5628
19.29930876296784 33.955
19.3218928014549 34.4828
19.34465404436217 35.2224
19.36723960516257 36.3487
19.389825925592426 37.8707
19.412413006605938 40.671
19.43517731967805 44.1863
19.457765930683355 47.18899999999999
19.48035530514408 48.597
19.50294544401556 48.2903
19.525712842708348 46.6677
19.54830451925909 45.506
19.570896963095727 45.6759
19.593490175174704 47.3969
19.616260674962184 49.4584
19.638855432416964 50.1679
19.661450960992624 49.6195
19.68404726164677 46.6241
19.706820878021247 43.2162
19.729418731756834 40.1666
19.752017360452857 37.2931
19.77461676506804 35.5334
19.797393513540218 34.3174
19.819994478951667 33.2771
19.84259622316767 32.7119
19.8651987471481 32.1472
19.887978643247177 31.5227
19.91058273574792 31.2751
19.933187610901943 31.2764
19.955969879466828 31.2418
19.97857632894404 31.3767
20.00118356396599 31.4233
20.023791585494575 31.5604
20.046577028914875 31.8142
20.069186632506966 31.9278
20.091797025500632 31.873
20.114408208858933 31.9831
20.137196842715273 32.1097
20.159809615886765 32.4413
20.18242318232135 32.62
20.20503754298326 33.2336
20.227829382875154 34.4252
20.250445341109344 35.9704
20.27306209647285 37.6542
20.29567964993108 40.1845
20.31847471147704 43.1126
20.34109387027612 45.8857
20.363713830075454 47.7967
20.386334591841646 48.2904
20.409132890679302 46.9036
20.431755265564437 44.1787
20.454378445325528 41.527
20.477002430930366 39.6872
20.499803982716553 39.1636
20.522429589228004 39.6423
20.54505600449589 41.3156
20.567683229489194 43.5235
20.590488049900088 45.3293
20.61311690359731 45.9446
20.63574656993626 44.8347
20.658553853717297 42.0672
20.681185154618298 38.8437
20.703817271080066 36.1952
20.72645020407368 33.7235
20.749260783967177 32.4992
20.771895359337133 31.5488
20.794530754161617 31.1181
20.817166969412938 30.8786
20.83998086114876 31.2077
20.86261872660049 31.8316
20.885257415405402 32.6634
20.90789692853701 33.4756
20.930714147864748 33.9234
20.953355319030678 33.5812
20.97599731745334 32.6299
20.99864014410749 30.9822
21.021460706796564 29.888
21.044105199328826 29.0714
21.06675052302631 28.6304
21.089396678865015 28.4101
21.112220600704806 28.2841
21.134868430275347 28.2976
21.15751709492456 27.9429
21.180166595629693 27.9371
21.202993892429635 27.9054
21.22564507473034 27.905
21.24829709602816 27.8906
21.27112693608965 27.943
21.293780644891275 28.2051
21.316435195634053 28.0797
21.339090589297417 27.9595
21.361923832041875 28.1803
21.384580921090404 28.358
21.407238856007325 28.3849
21.429897637773326 29.0549
21.45273429906592 29.5676
21.475394784108598 30.4746
21.498056118951983 31.2885
21.520718304578022 32.1883
21.543558400304388 32.5501
21.566222297108816 32.6442
21.58888704765135 32.1125
21.61155265291521 31.4341
21.63439619898156 30.7952
21.657063523335786 30.1551
21.67973170537063 29.5994
21.7024007460706 29.2541
21.72524775840385 29.0121
21.747918526116475 29.0514
21.770590155457388 29.1233
21.79326264741238 29.3568
21.816113141960237 29.5786
21.838787368860547 29.8869
21.861462461341976 30.0959
21.884315579735777 30.3594
21.90699241312273 30.4608
21.92967011506078 30.6051
21.95234868653799 30.7592
21.9752053151131 31.2675
21.997885635446785 31.8831
22.020566828293532 32.6587
22.04324889464272 33.6621
22.066109049404666 34.7358
22.088792872571794 36.4044
22.111477572219204 38.8102
22.1341631493376 41.5678
22.157026846313123 44.836999999999996
22.179714188221507 47.9814
22.202402410582668 50.456
22.22509151438863 50.9132
22.24795876962584 50.122
22.270649646204486 48.3076
22.293341407213727 46.0101
22.316034053646906 44.0665
22.338904883215342 42.236999999999995
22.36159931041458 41.1393
22.38429462602756 40.6634
22.40699083104897 40.3013
22.429865251039757 39.8563
22.452563244831367 39.0386
22.47526213102522 37.5563
22.49813925616515 35.6249
22.520839937143307 33.9217
22.543541513520587 32.6223
22.56624398629403 31.5596
22.589124730075895 30.8379
22.611829005656723 30.4113
22.63453418063466 30.0652
22.657240256008077 29.7331
22.680124634582935 29.4378
22.70283252079775 29.4194
22.725541310413075 29.2351
22.74825100442868 29.2538
22.771139033969575 29.3605
22.79385054687155 29.2055
22.81656296718292 29.3529
22.83927629590484 29.6143
22.862167992606945 30.1286
22.88488314827121 30.6108
22.907599215359284 31.3586
22.93031619487366 31.765
22.953211574954405 31.9789
22.975930389478226 31.8768
22.998650119445763 31.6607
23.02137076586092 31.2909
23.044269845560063 30.9302
23.06699233506288 30.7697
23.089715744034912 31.0468
23.112617610931565 31.6152
23.135342869061212 32.2363
23.158069049684816 33.2789
23.1807961538087 34.8911
23.20370174880544 36.9729
23.226430710184808 39.4945
23.249160598093425 42.0105
23.271891413539002 43.7335
23.294800752937697 44.1198
23.31753343374794 42.9988
23.340267045128353 40.5742
23.36300158808808 38.1571
23.38591468821339 35.7202
23.408651104658304 34.0233
23.431388455719986 32.9568
23.454126742409 32.3174
23.4770436196085 32.3766
23.499783787914662 32.7845
23.522524894889884 33.2755
23.54526694154616 33.824
23.56818761219047 34.5902
23.59093154860734 34.7262
23.613676427751283 34.5911
23.636422250635754 33.9263
23.659346731118656 33.2029
23.68209445191868 32.7131
23.704843119509587 32.4465
23.72759273490623 32.5723
23.750521041644767 33.2548
23.77327256312355 34.1646
23.796025035462787 35.6821
23.818956224555475 37.7375
23.841710609113413 40.4732
23.86446594758979 43.1596
23.887222241002014 45.354
23.910157285144578 46.2876
23.932915498962537 45.6324
23.955674670778713 43.4072
23.978434801611975 40.1337
24.001373717286125 36.9188
24.024135776723917 34.3854
24.046898798245582 32.3781
24.06966278287146 31.0207
24.092605586582614 29.9783
24.115371508023642 29.6504
24.1381383956401 29.2092
24.16090625045381 28.9663
24.183852958731244 28.7227
24.206622758582608 28.5635
24.229393528706886 28.253
24.252165270127392 28.048000000000002
24.27511589952438 27.5784
24.297889594216997 27.2663
24.32066426328598 26.7389
24.34343990775613 26.6174
24.36639447485003 26.3635
24.38917208083877 26.2915
24.41195066531332 26.2369
24.43490819850244 26.1812
24.457688750692377 26.0666
24.48047028445616 25.9111
24.503252800821233 26.0082
24.526214300784112 25.984
24.548998793132213 25.9388
24.57178427117417 25.7621
24.59457073593893 25.9454
24.617536219319863 25.9363
24.64032466834748 25.8153
24.663114107195035 25.963
24.685904536893013 25.9613
24.708874020360852 26.0687
24.731666442613744 26.3203
24.754459858818787 26.7756
24.777254270007962 27.1212
24.80022777025625 27.5181
24.82302418230472 27.7566
24.845821592443674 27.6496
24.86862000170663 27.5074
24.891597535453727 27.1595
24.914397953892728 26.9297
24.93719937456671 26.5134
24.96000179851076 26.2799
24.98298338249997 26.2216
25.00578782394922 26.0731
25.028593271784167 25.8983
25.05157790644186 25.861
25.07438537804115 25.7876
25.097193859145293 25.733
25.120003350792075 25.651999999999997
25.142992065061257 25.6324
25.165803588823465 25.8274
25.18861612625217 25.7617
25.211429678386736 25.8095
25.234422489079968 25.9864
25.257238081693636 26.1755
25.280054692141732 26.3793
25.3028723214652 26.5461
25.325869245420463 26.8652
25.348688923599397 27.2441
25.371509623787006 27.6477
25.394331347025812 28.1528
25.41733240110666 28.8368
25.440156181590016 29.3919
25.46298098826268 29.9332
25.48580682216873 30.3207
25.50881202326435 30.5652
25.53163992281684 30.5342
25.55446885274561 30.5567
25.577298814096377 30.4968
25.600308179121807 30.6468
25.623140214533745 31.36
25.64597328451537 32.025999999999996
25.66898578564376 32.5028
25.691820936010206 32.8415
25.714657124097695 32.5088
25.737494350954734 31.699
25.760511045684957 30.4304
25.783350361364224 29.3242
25.806190718969255 28.2367
25.82903211955018 27.4549
25.852053024868923 26.9366
25.874896522722523 26.6772
25.897741066713106 26.4167
25.920586657892454 26.5464
25.943611790812668 26.6728
25.966459487728237 26.6233
25.989308234998564 26.6225
26.01215803367705 26.6315
26.03518741123814 26.4648
26.05803932412957 26.1609
26.080892291600094 25.6503
26.10374631470478 25.4893
26.12677995397268 25.375
26.14963609978026 25.3018
26.172493304397875 25.1656
26.19535156888223 25.2394
26.218389486949604 25.2627
26.241249882640123 25.4798
26.26411134137826 25.4762
26.28715248187403 25.7841
26.31001607820869 25.8666
26.3328807407756 26.3473
26.35574647063438 26.8577
26.37879191991473 27.4258
26.401659795896734 28.1287
26.424528742360263 28.8175
26.447398760366614 29.0521
26.470448535598294 29.0469
26.49332070826805 28.7399
26.516193955675355 28.2962
26.53906827888316 27.6669
26.562122397260108 27.0008
26.584998883685063 26.6904
26.607876449110325 26.3207
26.63075509460056 26.0315
26.65381357334404 25.8847
26.67669439061878 25.6232
26.699576291163382 25.6027
26.722459276044212 25.686999999999998
26.745522132402975 25.6884
26.768407297649354 25.8638
26.791293550442003 26.0143
26.814180891848974 26.1834
26.837248143099337 26.368000000000002
26.860137673466657 26.8826
26.88302829566349 27.2575
26.90592001075963 27.9306
26.92899167420566 28.8058
26.951885586870763 29.7451
26.974780595655517 30.6162
26.99785558178161 31.3674
27.020752794605112 31.7882
27.043651106772522 31.7716
27.06655051935668 31.5576
27.089629948036183 31.0694
27.112531573292053 30.6869
27.135434302194138 30.3533
27.158338135817015 29.7567
27.181422024430987 29.2259
27.204328079372566 28.4868
27.22723524226965 27.837
27.250143514198573 27.1569
27.273231880156334 26.4303
27.296142382065014 25.8069
27.319053996245536 25.3842
27.341966723775965 25.186
27.365059584515222 24.9644
27.38797455070062 24.7871
27.410890633481237 24.5432
27.433807833936918 24.4843
27.456905206923906 24.4624
27.47982465472398 24.2939
27.502745223449743 24.3132
27.525666914182825 24.3194
27.548768816912457 24.2473
27.571692763693633 24.146
27.59461783573812 24.3024
27.617723149491244 24.2849
27.640650484125285 24.1946
27.66357894728264 24.346999999999998
27.686508540048052 24.494
27.709618414237887 24.4799
27.732550278321757 24.3925
27.755483275279115 24.4667
27.778417406196485 24.5386
27.801531858397514 24.6668
27.824468269376716 24.9501
27.847405817586786 25.1046
27.870344504116094 25.4757
27.893463551932008 25.7711
27.916404527281053 25.7917
27.93934664422563 25.7867
27.962289903855886 25.4977
27.98541356491974 25.3313
28.00835912214229 25.1632
28.03130582533231 24.8462
28.054253675581805 24.7845
28.077381967556104 24.7924
28.100332124185126 24.8751
28.123283431160893 25.1584
28.146235889577238 25.4757
28.169368830154156 25.6573
28.192323603752033 25.9885
28.215279532083304 26.0644
28.238415973016764 26.0245
28.261374223145094 26.0303
28.284333631303806 26.0121
28.307294198589954 26.2765
28.330435319167677 26.6004
28.353398217078915 27.1927
28.376362277420153 27.9711
28.39932750129032 28.7593
28.422473319286713 29.3555
28.44544088262495 29.5958
28.468409612800283 29.3804
28.491379510913497 28.8157
28.51453004413313 28.4301
28.53750229057244 27.9104
28.56047570826344 27.7598
28.583450298308804 27.5772
28.606605564586562 27.25
28.629582511831156 27.0859
28.65256063474956 26.7606
28.675539934446338 26.2639
28.698699951647605 25.7224
28.72168161743193 25.1727
28.74466446331978 24.8158
28.767648490417624 24.3422
28.790813276438353 24.0203
28.813799678527303 23.5594
28.836787265157085 23.205
28.859955641890075 23.0997
28.882945610203045 22.9554
28.905936766392035 22.6598
28.928929111566863 22.7291
28.952102288520145 22.6965
28.975097024308607 22.5114
28.998092952423807 22.549
29.021090073977508 22.5221
29.04426806913204 22.4062
29.067267590245258 22.3516
29.090268308143695 22.419
29.11327022394099 22.4222
29.13645305530891 22.4582
29.159457379627167 22.6123
29.18246290519685 22.6653
29.20546963313352 22.9239
29.22865731875826 23.1555
29.25166646419296 23.2188
29.27467681535305 23.3044
29.29768837335608 23.3319
29.320880931312562 23.2534
29.34389491580634 23.0734
29.366910110507334 22.7809
29.38992651653503 22.526999999999997
29.41312396492981 22.2541
29.436142806456754 22.0785
29.45916286268059 21.9244
29.48236399319994 21.7746
29.50538649169417 21.7344
29.528410208259935 21.7851
29.55143514402014 21.7135
29.574641196749695 21.7954
29.597668583816574 21.7207
29.6206971934585 21.7623
29.64372702680042 21.8838
29.666938019934474 22.0266
29.689970313635285 22.1492
29.713003834422636 22.4048
29.73603858342347 22.581
29.759254535188578 22.7593
29.78229175361658 22.8528
29.80533020365064 22.926
29.82836988641968 22.8039
29.85159081507472 22.601
29.874632976355343 22.2842
29.89767637376955 22.093000000000004
29.920721008448314 21.7648
29.9439469322847 21.5269
29.96699405457564 21.3225
29.9900424175358 21.261999999999997
30.013092022298157 21.0908
30.03632295963995 21.0535
30.059375061131373 21.0915
30.08242840783577 21.0576
30.105483000888153 21.0481
30.128718970092244 21.0496
30.151776069006917 21.0882
30.17483441768648 21.124000000000002
30.198074175317235 21.3379
30.221135036724256 21.4272
30.24419715131772 21.4302
30.267260520236203 21.3544
30.290505341942243 21.396
30.313571232750228 21.3069
30.336638381310948 21.1679
30.35970678876503 20.9766
30.38295669299435 20.8436
30.40602763151657 20.8887
30.429099832366074 20.8678
30.452173296685572 20.7594
30.47542830191959 20.8484
30.498504306502497 20.903000000000002
30.521581577995562 21.0342
30.544660117543582 21.1836
30.56792024229725 21.3575
30.59100133132069 21.4251
30.614083691845494 21.5057
30.637167325018545 21.5317
30.660432587840603 21.5512
30.683518779717886 21.3809
30.70660624769615 21.3422
30.729694992924372 21.2416
30.75296541239743 21.0586
30.77605672557558 21.0667
30.799149319462742 20.9559
30.8224236211637 20.8869
30.845518789950724 20.9639
30.868615242910597 20.9741
30.891712981195973 20.9437
30.91499247215866 21.073
30.938092794619365 21.1788
30.96119440587579 21.3784
30.984297307082752 21.5285
31.00758200598383 21.8069
31.030687500658694 22.1508
31.053794288760695 22.6056
31.076902371446767 22.7965
31.100192296997445 23.1746
31.12330298246119 23.3557
31.14641496599209 23.3494
31.169528248749216 23.2294
31.19282341969534 23.1402
31.215939314557186 23.0543
31.239056512134788 22.8373
31.262175013589378 22.552
31.28547544871168 22.2842
31.30859657161541 21.9849
31.331719001892175 21.8327
31.35484274070538 21.5435
31.378148458819545 21.2564
31.401274828443725 21.0187
31.424402510106933 20.8454
31.447712205419993 20.7087
31.470842524931633 20.5644
31.493974159989783 20.5395
31.51710711176168 20.4774
31.54042212308802 20.44
31.563557722100917 20.5301
31.586694641341655 20.4526
31.609832881979628 20.3277
31.63315322823208 20.417
31.656294125521327 20.5145
31.679436347728515 20.4777
31.70257989602529 20.6738
31.725905596152327 20.7674
31.74905181052835 20.7984
31.772199354521323 20.906
31.79534822930507 21.0427
31.818679302290967 21.2411
31.84183085259981 21.3369
31.864983737233473 21.5913
31.88813795736804 21.7742
31.911474422233013 21.7839
31.934631327356435 21.815
31.9577895715215 21.6073
31.980949155906522 21.3777
32.004291031706956 21.0105
32.027453310562606 20.8228
32.05061693318573 20.5763
32.07396288236386 20.4933
32.09712920658542 20.3963
32.12029687812702 20.3593
32.14346589817093 20.2994
32.166817291729984 20.326
32.18998902288583 20.3262
32.21316210610336 20.4669
32.23633654256711 20.4607
32.259693399663725 20.5618
32.282870556771144 20.7335
32.30604907069099 20.9102
32.329228942610065 21.0216
32.35259128243769 21.1685
32.375773884550505 21.1872
32.398957848235646 21.3136
32.422143174682176 21.1762
32.445511016471215 20.9865
32.468699082679954 20.768
32.49188851523011 20.5392
32.51507931531304 20.3849
32.538452678331 20.2944
32.56164622776311 20.128
32.58484114831493 19.9485
32.60803744118015 19.8716
32.631416344731896 19.7495
32.654615396551876 19.5508
32.67781582427913 19.4801
32.701198898634416 19.352
32.72440209253756 19.2257
32.747606665947124 19.1316
32.77081262006088 18.9353
32.79420126883317 18.8739
32.81740999876112 18.8708
32.840620112999424 18.793
32.86383161274818 18.7313
32.88722585534586 18.7363
32.91044014056596 18.7436
32.933655814909734 18.7732
32.95687287957963 18.8034
32.98027273544904 18.6991
33.00349259526636 18.6136
33.026713849030116 18.691
33.04993649794511 18.823
33.073341986570746 18.7942
33.09656744032826 18.8061
33.11979429286444 18.8316
33.14302254538647 18.8663
33.166433686291185 18.8645
33.18966475336992 18.6743
33.212897224069096 18.5297
33.23613109959831 18.5985
33.259547912343415 18.5103
33.2827846121627 18.4636
33.306022720453775 18.404
33.32926223842861 18.3244
33.352684742614166 18.3444
33.37592709463173 18.3788
33.399170859982064 18.3884
33.422597648419426 18.4044
33.44584425514446 18.4278
33.46909227885668 18.5486
33.4923417207723 18.5677
33.51577423505344 18.7727
33.539026528130385 18.8668
33.56228024307245 19.0124
33.585535381098246 19.0002
33.60897364093058 19.1055
33.63223163992385 19.2272
33.6554910656699 19.2723
33.678751919389796 19.2402
33.702195944520106 19.1919
33.72545966903325 19.2977
33.74872482519663 19.1888
33.771991414233746 19.1757
33.79544122444841 19.0435
33.81871069412428 18.8057
33.84198160035767 18.5932
33.86525394437455 18.3615
33.88870955949969 18.2199
33.911984794020626 18.1846
33.93526147001624 17.9804
33.958539588715006 17.8149
33.98200102861669 17.8279
34.0052820477047 17.7721
34.02856451319451 17.7808
34.05203033759056 17.6646
34.07531571090147 17.7209
34.09860253431845 17.7055
34.121890809074316 17.6404
34.145362493118924 17.5529
34.16865368561615 17.497
34.191946333164054 17.5969
34.21524043699793 17.5496
34.23871800066799 17.6097
34.26201503218366 17.6494
34.28531352370466 17.7059
34.30861347646881 17.6503
34.33209693978188 17.7649
34.3553998301885 17.7085
34.378704185565205 17.6702
34.402010007152356 17.5694
34.42549939016683 17.4457
34.44880815937748 17.3147
34.472118398533134 17.2808
34.49543010887669 17.1918
34.51892543169198 17.0706
34.54224009966052 17.1429
34.56555624255917 17.1039
34.58887386163339 17.0083
34.61237514439016 16.9836
34.6356957311114 17.019000000000002
34.65901779775809 17.0034
34.68252356662995 16.9776
34.705848608458616 17.0354
34.72917513396849 17.0041
34.75250314440949 17.1186
34.77601490857862 17.1651
34.799345904259795 17.0508
34.82267838863559 17.0438
34.846012362958525 16.9944
34.869530142679984 16.9504
34.89286711232212 16.8746
34.91620557568269 16.7601
34.93954553401677 16.711
34.9630693495876 16.6142
34.986412313340814 16.6353
35.00975677584668 16.6078
35.033102738362956 16.4894
35.05663261012228 16.4513
35.0799815881786 16.3969
35.10333207003229 16.4286
35.12668405694369 16.3257
35.150220005273056 16.247
35.17357501786656 16.2003
35.19693153931268 16.2154
35.220289570874385 16.3009
35.24383161619786 16.3522
35.267192683604904 16.2952
35.290555264930376 16.2818
35.314101899412165 16.2522
35.33746752422433 16.2747
35.36083466676374 16.2494
35.38420332829803 16.248
35.407756095629054 16.2927
35.43112781085063 16.3434
35.45450104888391 16.2653
35.477875810999194 16.2569
35.50143473172161 16.2665
35.52481255774625 16.3221
35.54819191167777 16.219
35.57157279478914 16.1956
35.595137889488406 16.180999999999997
35.61852184675279 16.2618
35.641907337029984 16.2976
35.665294361595684 16.3324
35.68886565090076 16.2899
35.7122557598848 16.4319
35.73564740699838 16.4169
35.759040593519934 16.4699
35.78261809810353 16.5512
35.80601437933051 16.6263
35.829412203814705 16.6833
35.85281157283719 16.7382
35.876395313415884 16.9506
35.8997977874528 16.9446
35.92320180988546 16.9688
35.946790244133936 16.9452
35.97019737933222 17.0581
35.993606066789866 16.9687
36.01701630779276 16.8233
36.04061101440684 16.6069
36.06402437852291 16.5858
36.08743930005611 16.4724
36.1108557802951 16.2928
36.13445678011326 16.1987
36.15787639383515 16.1067
36.18129757014299 16.1305
36.20472031032821 15.9424
36.22832762423364 15.9118
36.25175350829375 15.8347
36.275180960119776 15.6988
36.298609981005924 15.7669
36.32222362992669 15.7027
36.34565580510207 15.6328
36.36908955323448 15.6571
36.39252487562093 15.5456
36.416144880530226 15.5359
36.43958336764275 15.5265
36.463023432914625 15.5549
36.486465077645676 15.5564
36.51009145956204 15.6658
36.53353627947859 15.6822
36.55698268276811 15.7032
36.58043067073321 15.6879
36.60406345072071 15.6797
36.62751462435344 15.708
36.65096738658405 15.7619
36.67460498210655 15.7163
36.69806093788647 15.6865
36.72151848619297 15.575
36.744977628333636 15.5303
36.76862165890998 15.4192
36.79208400512205 15.3909
36.81554794910557 15.2987
36.83901349217101 15.2596
36.862663978991606 15.277000000000001
36.88613273667352 15.282
36.90960309738324 15.2587
36.933075062434064 15.2596
36.95673202673572 15.2734
36.98020721697122 15.3398
37.003684015502365 15.3314
37.027162423645365 15.3256
37.050825886711465 15.3571
37.07430753063053 15.3231
37.09779078812467 15.3324
37.121275660513014 15.3303
37.144945643673694 15.2357
37.16843376245278 15.2289
37.19192350009803 15.2167
37.215414857931435 15.1274
37.239091382563885 14.9848
37.262585997426164 14.9254
37.28608223645736 14.9089
37.309763684451696 14.8218
37.33326318851098 14.7464
37.356764320726555 14.7003
37.380267082425526 14.6711
37.40395510942588 14.6873
37.42746114683234 14.6292
37.45096881771841 14.6407
37.474478123414166 14.6453
37.49817275092816 14.6138
37.52168534303452 14.5557
37.54519957395567 14.4846
37.568715445024665 14.4635
37.592416694607714 14.4645
37.61593586281424 14.4336
37.63945667518264 14.43
37.66297913304891 14.4155
37.68668702630454 14.4521
37.710212792059274 14.3429
37.733740207334854 14.3527
37.757269273470364 14.2796
37.780983832050374 14.2723
37.80451621684926 14.2321
37.82805025654007 14.2147
37.851585952464795 14.2154
37.8753071980695 14.1562
37.89884622345676 14.1454
37.92238690911902 14.1101
37.94611318753442 14.1608
37.969657210779765 14.1001
37.99320289834801 14.1038
38.016750251586465 14.0504
38.04048325513017 14.0118
38.06403395679343 14.0817
38.087586328183946 14.0992
38.11114037065203 14.0978
38.13488012115898 14.1092
38.1584375229181 14.0409
38.181996599821 14.0269
38.205557353221124 14.0561
38.229303872575656 13.9987
38.2528679961576 14.0359
38.27643380031219 13.9412
38.30000128639589 13.9311
38.32375459653193 13.9173
38.34732546371299 13.8383
38.37089801690786 13.7732
38.39447225747609 13.7222
38.418232380377425 13.6788
38.441810012983396 13.6498
38.46538933705673 13.6183
38.488970353960084 13.6219
38.51273731166058 13.5853
38.536321731567014 13.5475
38.55990784840681 13.5501
38.58367995004091 13.5441
38.60726947812959 13.4837
38.63086070726198 13.4709
38.654453638806274 13.5267
38.678232613930824 13.4884
38.70182896773327 13.4554
38.72542702806741 13.4479
38.7490267963045 13.4602
38.77281266709232 13.5525
38.79641586862214 13.5899
38.8200207821842 13.4371
38.843627409152944 13.4749
38.86742019782782 13.454
38.891030269149255 13.395
38.914642058016156 13.3824
38.938255565806124 13.3391
38.96205529464307 13.2941
38.98567225787121 13.2421
39.00929094417078 13.2115
39.03291135492255 13.2716
39.05671804624804 13.2314
39.080341923549106 13.2228
39.103967529460334 13.2778
39.127594865365744 13.2244
39.15140854155791 13.2291
39.17503935514948 13.2788
39.19867190290282 13.253
39.22249083587951 13.2433
39.24612686969409 13.2709
39.269764641845306 13.1697
39.293404153722804 13.082
39.317230110864074 13.0064
39.34087311998506 12.9589
39.36451787301696 12.9347
39.388164371352595 12.9071
39.41199737518003 12.8195
39.43564738196752 12.7806
39.45929913825317 12.7697
39.48295264543308 12.8097
39.506792718520884 12.7687
39.530449745387216 12.7481
39.55410852735203 12.7
39.57776906581474 12.7025
39.60161623079 12.6314
39.625280300200025 12.593
39.64894613032202 12.6226
39.67261372255866 12.6072
39.6964680021016 12.5678
39.72013913657293 12.6238
39.74381203738292 12.5968
39.76748670593756 12.5391
39.79134812278169 12.56
39.81502634488497 12.5733
39.83870633896685 12.5571
39.862388106436654 12.4946
39.88625668336918 12.4745
39.90994201572829 12.4595
39.933629125719285 12.4201
39.957503091207826 12.4101
39.9811937746168 12.4383
40.00488623990914 12.3887
40.02858048850006 12.4351
40.05246165409549 12.3377
40.076159487492085 12.3182
40.099859108448875 12.3012
40.123560518384345 12.2999
40.1474489070226 12.3647
40.171153913178564 12.3512
40.194860712584955 12.3382
40.2185693066637 12.3061
40.242464941335314 12.2812
40.26617714307655 12.3283
40.289891143772046 12.3588
40.3136069448471 12.3238
40.33750984859743 12.3262
40.3612292688043 12.3145
40.3849504936829 12.2862
40.40867352466194 12.2578
40.43258372059144 12.2443
40.45631038219906 12.2083
40.48003885420956 12.171
40.503769138055105 12.1778
40.52768664931955 12.2074
40.55142057531802 12.1052
40.57515631746428 12.0268
40.599079334038514 12.0091
40.62281872700477 11.9923
40.64655994043941 12.0474
40.67030297578061 11.9983
40.69423334835778 11.9498
40.71798004609188 11.937999999999999
40.74172857006355 11.9333
40.76547892171441 11.8801
40.7894166736039 11.8992
40.813170699248566 11.8804
40.83692655691388 11.8658
40.86068424804498 11.8639
40.884629402612525 11.8567
40.908390779366385 11.8538
40.932153993938 11.7893
40.95591904777605 11.7922
40.979871628443995 11.8089
41.003640379561936 11.732999999999999
41.02741097430883 11.7389
41.05118341413683 11.763
41.075143444384416 11.7063
41.098919593177826 11.707
41.1226975914255 11.659
41.14647744058318 11.705
41.170444943946755 11.6701
41.19422851378379 11.7048
41.218013938914645 11.6587
41.24198706625173 11.6372
41.26577622087193 11.6515
41.289567235177785 11.6621
41.31336011063129 11.6541
41.337340752422875 11.626
41.361137369129835 11.640999999999998
41.38493585138705 11.587
41.40873620066004 11.5206
41.43272438060107 11.4845
41.45652848292052 11.4429
41.48033445666918 11.4517
41.50414230331616 11.3945
41.528138045159764 11.307
41.551949656675205 11.2641
41.575763145513235 11.2891
41.59957851314666 11.2526
41.62358184070442 11.2498
41.64740098505737 11.2449
41.6712220126409 11.2186
41.69504492493139 11.205
41.71905586207357 11.1841
41.74288256296395 11.1421
41.766711153007456 11.1544
41.79054163368412 11.128
41.814560204340054 11.1096
41.838394485526365 11.0941
41.86223066180303 11.0838
41.88625497706819 11.0619
41.910094962812 11.0606
41.93393684811168 11.0167
41.95778063445365 10.9619
41.981812625263366 10.9911
42.00566023303407 10.9382
42.029509746323676 10.9418
42.05336116662236 10.9552
42.077400857069705 10.9789
42.10125611078846 10.975999999999999
42.12511327600405 10.8988
42.14897235421036 10.911
42.173019768448455 10.9118
42.19688269209613 10.9625
42.22074753323349 10.9549
42.24461429335818 10.8987
42.268669455600495 10.9696
42.292540073217886 10.9203
42.31641261433284 10.8769
42.34028708044675 10.8525
42.36435001496739 10.8427
42.38822835065557 10.7929
42.41210861586426 10.8052
42.4359908120986 10.7536
42.46006154323262 10.7064
42.48394762115317 10.7028
42.507835634632315 10.6766
42.531912233047436 10.6083
42.55580413732265 10.545
42.579697981698 10.5863
42.60359376768525 10.5569
42.62767820545945 10.5206
42.65157789440821 10.4946
42.67547952952185 10.5096
42.699383112316 10.4602
42.72347541395347 10.4008
42.74738291190531 10.4172
42.771292362102166 10.4383
42.795203766063516 10.3332
42.819303956130405 10.3643
42.843219287476536 10.3586
42.86713657716324 10.3518
42.89105582671383 10.3118
42.91516392983864 10.3366
42.939087119032166 10.3152
42.963012272677304 10.2417
42.98693939230129 10.2378
43.01105543317513 10.2272
43.034986504731386 10.1889
43.05891954686589 10.1817
43.08285456110972 10.1827
43.10697856448665 10.1575
43.130917542983475 10.1163
43.15485849820081 10.1189
43.17880143167367 10.1094
43.20293342237094 10.0839
43.226880332449 10.0632
43.25082922540554 10.075
43.27496722682525 10.0132
43.29892010567796 9.97648
43.32287497204102 9.942969999999999
43.34683182745632 9.95008
43.370977859791836 9.956610000000001
43.39493871351105 9.94568
43.41890156092628 9.92738
43.44286640358341 9.89598
43.46702049182749 9.8678
43.49098934522816 9.85268
43.51496019852649 9.86547
43.5389330532723 9.84972
43.56309522248204 9.79135
43.58707210044314 9.80964
43.61105098451946 9.76958
43.63503187626491 9.747580000000001
43.659202151562134 9.75586
43.68318707902681 9.752880000000001
43.70717401884041 9.713610000000001
43.731162972560874 9.6978
43.75534137913236 9.64819
43.779334381108384 9.68173
43.803329401683186 9.63283
43.82732644241872 9.64201
43.8515130055166 9.62711
43.87551410707659 9.60075
43.89951723350145 9.60886
43.923709934595614 9.56691
43.94771713129917 9.564639999999999
43.97172635758096 9.61037
43.99573761501002 9.59469
44.0199385169922 9.55954
44.04395385732619 9.52091
44.067971233533086 9.531880000000001
44.09199064718605 9.52774
44.11619977548961 9.514339999999999
44.14022328470671 9.4745
44.16424883610785 9.47449
44.18827643127035 9.46879
44.21249381139513 9.49484
44.236525514814076 9.47101
44.26055926674478 9.46827
44.28459506876863 9.46096
44.3088207262813 9.40349
44.33286064928722 9.3675
44.35690262714919 9.3675
44.38094666145278 9.34857
44.4051806219871 9.34026
44.42922879003185 9.29929
44.45327901929361 9.23754
44.477331311362136 9.26561
44.501573600619416 9.22072
44.525630039221795 9.24151
44.54968854541895 9.2255
44.573937102200176 9.17587
44.5979997645541 9.17658
44.622064499300315 9.135060000000001
44.64613130803592 9.16822
44.67038823869318 9.16912
44.69445921643748 9.10934
44.718532272981385 9.07344
44.742607409926194 9.11598
44.76687274034801 9.0925
44.79095205918753 9.08351
44.81503346325094 9.08504
44.839116954143876 9.05199
44.86339071028742 9.02511
44.88747839599524 9.0028
44.91156817336837 9.002239999999999
44.93566004401666 9.01823
44.959942251908146 9.03102
44.984038330325966 8.992289999999999
45.00813650686762 8.94468
45.03223678314731 8.95015
45.05652746888232 8.91894
45.08063196592069 8.9167
45.104738567558705 8.89167
45.128847275414856 8.91452
45.15314646515866 8.88757
45.17725940679741 8.880939999999999
45.20137445952892 8.88826
45.22568004865265 8.84655
45.24979934496396 8.85095
45.27392075725247 8.82964
45.29804428714431 8.796289999999999
45.322358426247604 8.71707
45.346486212804315 8.71044
45.370616121861914 8.762
45.39474815505086 8.714139999999999
45.41907087049246 8.649939999999999
45.4432071734666 8.69073
45.46734560548283 8.68332
45.49148616817604 8.654639999999999
45.51581748638564 8.62691
45.5399623320197 8.60107
45.56410931325473 8.60847
45.58825843173002 8.60078
45.61259837920865 8.58363
45.636751793816 8.59252
45.66090735060093 8.56414
45.68506505120716 8.506680000000001
45.7094136545275 8.45604
45.73357566449271 8.47772
45.75773982322992 8.50917
45.78190613238733 8.45518
45.806263418194064 8.44175
45.83043404997326 8.46697
45.85460683713677 8.45585
45.87897065658495 8.42502
45.90314777634752 8.396460000000001
45.92732705646868 8.40902
45.9515084986045 8.38212
45.97588104735473 8.34494
46.00006683541565 8.30822
46.02425479047904 8.32841
46.04844491420549 8.334060000000001
46.0728262191024 8.30545
46.09702070211635 8.29599
46.12121735879483 8.3156
46.14541619080294 8.30233
46.169806278764455 8.28984
46.194009483459034 8.276639999999999
46.21821486849841 8.2457
46.24242243555223 8.211889999999999
46.266821333570014 8.20655
46.29103328674601 8.155710000000001
46.31524742696538 8.172039999999999
46.33946375590237 8.16682
46.36387149104216 8.127
46.38809221957392 8.112860000000001
46.41231514186606 8.11412
46.436540259597464 8.09096
46.460956858999374 8.073960000000001
46.48518638983522 8.047260000000001
46.509418121166966 8.06908
46.533652054678114 8.04769
46.55807754555709 8.03063
46.58231590571962 7.97122
46.60655647313217 7.99565
46.630988654873654 7.970210000000001
46.655233659129024 7.95215
46.67948087571551 7.975210000000001
46.70373030632484 7.99177
46.72817142736393 7.94681
46.752425308428684 7.9367399999999995
46.77668140861147 7.89041
46.80093972960865 7.87677
46.82538981736788 7.82565
46.849652602470904 7.85885
46.87391761349769 7.80843
46.8981848521493 7.8274300000000006
46.9226439341274 7.83398
46.946915650573224 7.822989999999999
46.97118959976749 7.8147899999999995
46.99546578341598 7.770110000000001
47.019933887188216 7.75743
47.04421456235744 7.73159
47.06849747711879 7.70603
47.09278263318286 7.734260000000001
47.11725978640143 7.711110000000001
47.14154944775105 7.6661600000000005
47.165841355555656 7.660819999999999
47.1901355115306 7.67552
47.214621741924994 7.66147
47.23892041698887 7.6302
47.26322134538975 7.587089999999999
47.28771440635075 7.5735399999999995
47.31201986422527 7.62178
47.33632758061436 7.57868
47.360637557241866 7.53102
47.38513974410611 7.54473
47.40945426407847 7.545889999999999
47.43377104948137 7.51167
47.45809010204344 7.50668
47.48260144275502 7.46098
47.506925052572285 7.46249
47.53125093475548 7.46393
47.55557909103813 7.4595
47.58009961361992 7.44143
47.60443234110732 7.42615
47.62876734791564 7.42432
47.65310463578333 7.40976
47.6776343683373 7.36805
47.7019762413987 7.35778
47.72632040075572 7.354019999999999
47.75066684815169 7.32154
47.77520581885936 7.33082
47.799556865477655 7.31844
47.823910205386 7.31195
47.84826584033272 7.26693
47.87281407745551 7.278560000000001
47.89717432569297 7.28644
47.92153687423484 7.2813300000000005
47.94609208429692 7.2476899999999995
47.97045925671401 7.2507
47.99482873471275 7.20557
48.01920052005013 7.24246
48.04376504619224 7.200310000000001
48.068141469543484 7.204739999999999
48.09252020552573 7.1644
48.11690125590099 7.14641
48.1414751266064 7.144839999999999
48.16586082917454 7.1334800000000005
48.19024885144316 7.092280000000001
48.2146391951793 7.10625
48.239222439012764 7.1085199999999995
48.26361744916137 7.07339
48.28801478610016 7.06278
48.31241445160131 7.066160000000001
48.337007097209366 7.02337
48.36141144338331 7.01275
48.38581812345755 6.9954600000000005
48.41022713920929 7.0170699999999995
48.434829215320704 6.98465
48.45924292604658 6.972989999999999
48.48365897780325 6.9871
48.50807737237308 6.9269300000000005
48.532688907799276 6.96616
48.55711201168574 6.921889999999999
48.581537463754074 6.88735
48.60615611725119 6.88658
48.63058628942721 6.904389999999999
48.65501881516546 6.89072
48.6794536962573 6.8744
48.70408185970339 6.8387899999999995
48.72852147531801 6.85549
48.75296345168211 6.80553
48.77740779059232 6.825419999999999
48.80204549302823 6.817189999999999
48.82649458091802 6.8025
48.85094603676547 6.77769
48.87539986237231 6.776260000000001
48.90004713292306 6.75755
48.92450572200832 6.73718
48.94896668628025 6.725239999999999
48.97343002754588 6.73261
48.99808689542115 6.707319999999999
49.02255501470614 6.70072
49.04702551642794 6.69372
49.0714984023988 6.66834
49.096164896893235 6.66149
49.120642575466796 6.63247
49.145122643748394 6.62665
49.16960510355558 6.6241
49.19428125404938 6.61983
49.2187685210852 6.61782
49.243258185121555 6.59778
49.26794160167084 6.59306
49.2924360839405 6.532369999999999
49.31693296869764 6.53383
49.34143225776915 6.5372699999999995
49.36612538195438 6.5035300000000005
49.39062950396021 6.49022
49.41513603578346 6.51621
49.4396449792564 6.50704
49.46434784069503 6.468430000000001
49.488861631846454 6.46488
49.513377840166804 6.46819
49.537896467493745 6.45604
49.56260909589029 6.41892
49.587132585683285 6.44374
49.611658500018365 6.411580000000001
49.636186840738596 6.37977
49.66090926588511 6.38057
49.685442483902584 6.409009999999999
49.70997813385706 6.36648
49.734516217597076 6.33776
49.75924846937352 6.3522099999999995
49.7837914452858 6.37038
49.80833686055187 6.35656
49.83288471702571 6.3199
49.85762682540054 6.33346
49.882179588965734 6.29438
49.9067347993235 6.29237
49.93129245833333 6.29933
49.95604445336378 6.2668800000000005
49.98060703442832 6.25638
50.005172069746266 6.231669999999999
50.02993150438364 6.23533
50.05450147301533 6.22415
50.07907390151433 6.20182
50.10364879174981 6.1876
50.12841816587289 6.16599
50.1529980044635 6.18709
50.17758031042124 6.17347
50.20216508562089 6.161490000000001
50.22694442953363 6.1339999999999995
50.25153416817468 6.13034
50.27612638170508 6.1226400000000005
50.300721072005196 6.110040000000001
50.325510416102105 6.113659999999999
50.350110084975064 6.07085
50.37471223628208 6.0838
50.39931687190919 6.09793
50.424116246675766 6.08863
50.44872587605249 6.0461
50.47333799543065 6.04019
50.49795260670191 6.0224
50.52276204271512 5.9966
50.54738166295838 6.00584
50.57200378079314 6.00985
50.596628398116835 5.94024
50.62144792604559 5.9745099999999995
50.646077567609396 5.999619999999999
50.670709714377715 5.94448
50.69553683636198 5.94877
50.72017401885922 5.88836
50.7448137122895 5.89947
50.76945591856022 5.902880000000001
50.79429318636823 5.8968
50.818940443716784 5.88408
50.84359021965163 5.85926
50.868242516085964 5.87245
50.893089960641895 5.85961
50.917747323549435 5.82702
50.94240721271973 5.85217
50.96706963007175 5.814430000000001
50.99192728239342 5.8082199999999995
51.01659478166073 5.80075
51.04126481489051 5.78862
51.06593738400761 5.78665
51.090805275207074 5.80357
51.11548294172845 5.7445
51.14016314993547 5.7456
51.164845901758845 5.7409099999999995
51.18972406304274 5.68225
51.21441192780656 5.7012599999999996
51.23910234200271 5.70334
51.2637953075678 5.70944
51.288683770237945 5.665780000000001
51.31338186432707 5.63793
51.33808251561888 5.64665
51.362978729967345 5.64014
51.387684521509755 5.64029
51.41239287610203 5.63863
51.437103795691165 5.6262
51.46201036644977 5.5765199999999995
51.486726441956634 5.58151
51.51144508832545 5.5989
51.536166307509156 5.574
51.56108326624387 5.5429
51.58580965706056 5.53134
51.61053862657523 5.5343599999999995
51.635270176746864 5.54548
51.66019755512065 5.51585
51.68493429268881 5.502330000000001
51.70967361681515 5.45421
51.73441552946465 5.48292
51.759353359237934 5.45258
51.7841004750961 5.43231
51.80885018539685 5.44075
51.833602492111254 5.4363
51.8585508051424 5.40316
51.883308330926425 5.40188
51.90806845906181 5.42523
51.932831191525715 5.3849599999999995
51.95779001977161 5.38765
51.98255798721516 5.36269
52.00732856494335 5.35186
52.03229530577543 5.32851
52.057071130455945 5.278
52.081849571391054 5.30956
52.106630630568695 5.32121
52.13160794279417 5.28902
52.15639426492067 5.3238199999999996
52.18118321127822 5.30888
52.205974783860896 5.25173
52.23096269971011 5.27926
52.255759551287994 5.27276
52.280559035098186 5.21515
52.30536115314103 5.22003
52.33035970494467 5.23736
52.35516711807904 5.24447
52.37997717147198 5.20811
52.40478986713005 5.17408
52.42979908731974 5.1735
52.454617094216 5.14685
52.47943774942214 5.13546
52.50426105495102 5.12712
52.529280976059844 5.12115
52.554109609024096 5.14201
52.57894089837482 5.1323
52.60377484613117 5.11296
52.62880550079408 5.06015
52.65364479223379 5.08172
52.67848674816189 5.05354
52.70352547971946 5.05618
52.72837279155837 5.053059999999999
52.753222773982785 5.01887
52.778075429022984 5.0185900000000006
52.80312495150885 5.04566
52.827982978797436 5.033180000000001
52.85284368481815 5.03425
52.87770707160767 4.993130000000001
52.90276741793998 4.99066
52.92763619336701 5.007
52.952507655698504 4.99189
52.977381806977576 4.9674
53.00245301017842 4.9673099999999994
53.02733256653592 4.95925
53.052214817996074 4.91418
53.077099766608484 4.94024
53.102181859804446 4.91869
53.127072229988265 4.92111
53.15196530349892 4.905469999999999
53.17686108239249 4.87814
53.20195409881522 4.81639
53.22685531582556 4.85915
53.25175924441303 4.83969
53.27666588664027 4.8627
53.30176985962693 4.80658
53.3266819565689 4.83004
53.35159677336455 4.78437
53.376514312083096 4.78867
53.40162927507703 4.77252
53.42655228516116 4.7626599999999994
53.45147802340193 4.76411
53.47660125628886 4.74277
53.50153247842639 4.74097
53.52646643496923 4.74204
53.55140312799818 4.75275
53.576537409691696 4.73874
53.60147960336152 4.7199
53.626424539786164 4.70881
53.65137222105307 4.67167
53.67651758529126 4.6574800000000005
53.70147078399681 4.65198
53.72642673383343 4.6354
53.75138543689533 4.6447
53.776541917524526 4.64853
53.801506154876755 4.63986
53.826473151763246 4.65099
53.851442910284916 4.5910400000000005
53.87661054126026 4.59957
53.9015858509782 4.57757
53.92656392866066 4.59791
53.95154477641532 4.57872
53.976723591801296 4.54496
54.00171000771266 4.51251
54.02669920004598 4.48575
54.051691170915745 4.52926
54.076881204886796 4.49526
54.101878760928514 4.511430000000001
54.12687910187696 4.47489
54.152077577768296 4.46432
54.1770835166946 4.4476
54.20209224691339 4.43814
54.22710377055121 4.40495
54.25231352511594 4.380319999999999
54.27733066384342 4.40956
54.30235060239643 4.37662
54.32737334290836 4.4013800000000005
54.35259441062629 4.3644
54.377622783395324 4.34326
54.40265396455061 4.33853
54.42768795623251 4.33788
54.45292037169559 4.312119999999999
54.477960012857906 4.27555
54.50300247099511 4.2971699999999995
54.52804774825457 4.2643699999999995
54.55329154616743 4.22815
54.57834249018678 4.19762
54.6033962597977 4.18941
54.6284528571545 4.21093
54.653708072335164 4.19528
54.67877035378786 4.1668400000000005
54.70383546947698 4.13267
54.72890342156389 4.108140000000001
54.7541700889442 4.10259
54.77924374251975 4.13322
54.8043202390049 4.07022
54.82959552413022 4.06895
54.8546777351945 4.0313099999999995
54.87976279569621 4.014469999999999
54.90485070780914 4.05754
54.930137506558005 4.00094
54.95523115074295 4.01615
54.98032765308844 3.9647099999999997
55.005427015775496 3.9643800000000002
55.03072536339621 3.9745
55.05583047570572 3.96486
55.080938454927676 3.92648
55.10604930325027 3.93837
55.131359235107396 3.9077599999999997
55.15647585066083 3.90668
55.181595341907496 3.8341800000000004
55.20671771104285 3.8328699999999998
55.232039262617704 3.7867800000000003
55.25716741665048 3.77905
55.28229845518636 3.78936
55.30743238042802 3.7248900000000003
55.33276558731939 3.70134
55.357905315183636 3.7164900000000003
55.383047936390035 3.6493599999999997
55.40819345314859 3.6215300000000004
55.433538351073295 3.6712800000000003
55.458689688238415 3.69331
55.483843927614096 3.65414
55.509197623043605 3.6195800000000005
55.53435769621134 3.57135
55.55952067826466 3.5683300000000004
55.5846865714265 3.52581
55.61005202069737 3.58525
55.63522376553902 3.5924099999999997
55.66039842818645 3.5870800000000003
55.68557601087004 3.52314
55.7109532500271 3.4757599999999997
55.73613670233794 3.4992099999999997
