TT I
1.2716486653135266 7.123939999999999
1.2939594142134223 6.97633
1.3162702121660406 6.22238
1.3385810600174564 6.06895
1.3608919586137629 6.28827
1.383202908801069 5.82301
1.405513911425503 5.78027
1.4278249673332093 6.6440600000000005
1.4501343378461518 6.32861
1.4724455028545926 5.49961
1.4947567236847858 5.46863
1.517068001182951 5.3811
1.5393793361953272 5.866569999999999
1.5616907295681737 5.66219
1.5840021821477681 5.29868
1.60631369478041 4.69468
1.6286252683124185 4.78305
1.6509369035901333 4.5647400000000005
1.6732468618895553 5.20823
1.695558623192809 5.11907
1.7178704487808514 4.84586
1.7401823395001077 4.64375
1.7625012545597203 4.71068
1.7848028405262486 4.33282
1.8071218901122095 4.11923
1.8294236121921872 4.57419
1.8517427996910911 4.6733400000000005
1.8740620574440425 5.0785599999999995
1.8963639900671978 5.0622
1.9186833908139995 4.64761
1.9409854680117449 4.56203
1.9633050151394713 5.01315
1.9856246367570705 5.04536
2.0079269371922672 4.59007
2.03024671027244 4.63402
2.0525491637446027 4.8338
2.074869091674931 5.122319999999999
2.097171701569106 4.76575
2.1194917877373847 4.72144
2.141811954326636 5.07616
2.164114805233074 4.97462
2.186435135143035 5.37774
2.208738150935709 7.374460000000001
2.231058647554722 11.1374
2.2533792288321184 9.4583
2.275682498336085 6.21859
2.298003251406138 5.0663800000000005
2.3203066942619714 4.86841
2.3426276225136022 5.62884
2.3649486396617507 5.66064
2.387252348930071 5.64096
2.4095735463442893 5.943630000000001
2.4318774374315884 6.701630000000001
2.4541988185014043 6.99494
2.476502894794693 7.166910000000001
2.498824462909887 7.087160000000001
2.521146125856138 6.52958
2.5434504863470337 7.06216
2.5657723414244717 7.896380000000001
2.588076895590662 8.555710000000001
2.610398946189713 8.29481
2.6327210958598384 8.37447
2.6550259469304716 8.04449
2.6773482972090137 8.15001
2.6996533504259 8.41438
2.7219759047039602 8.96849
2.744298562293959 8.43657
2.7666039251246595 8.151580000000001
2.7889267918020164 8.03678
2.8112323652516555 8.7119
2.833555444408179 8.46027
2.8558786311183852 8.534360000000001
2.8781845268938557 8.99343
2.9005079311721484 9.34714
2.9228140460410397 9.34262
2.9451376712799635 9.29294
2.967444008632326 9.801839999999999
2.9897678582247247 10.2415
3.0120918213106695 10.7633
3.0343984987899373 10.8743
3.0567226913198637 11.0975
3.079029599759726 11.9898
3.101354025127254 12.6862
3.123678568232338 12.9437
3.145985829517914 12.9301
3.16831061055229 13.9875
3.1906181112775593 14.6884
3.212943133635653 14.9778
3.2352682779763207 15.2271
3.2575761442691227 15.0392
3.2799015350264273 15.8982
3.302209649240067 16.2491
3.3245352898092655 16.395
3.3468436553365257 17.1712
3.369169549113219 17.2523
3.3914955708171384 17.8676
3.413804319727358 18.3628
3.4361305997334863 18.5142
3.4584396084414553 19.3255
3.4807661501462652 19.8821
3.503092824025881 20.5171
3.5254022288463154 20.5574
3.5477291695206588 21.3431
3.5700388426251948 21.9256
3.5923660534916446 23.1181
3.6146934007816114 27.3413
3.637003482731501 40.9998
3.6593311053109985 43.2742
3.681641464033634 32.648
3.7039693653009733 26.0753
3.726297407241705 24.9055
3.7486081875460804 24.8693
3.7709365132734978 25.7776
3.793247578841633 26.031
3.8155761917550093 26.621
3.8378875459837216 26.375999999999998
3.8602164494827234 26.8944
3.882545499606844 28.085
3.9048572932539183 28.5628
3.9271866390645718 28.9059
3.9494987298666713 29.2909
3.971828374764527 29.459
3.9941581705403255 30.2976
4.016470713506008 30.7606
4.038800813471445 31.4776
4.061113662089144 32.0306
4.0834440696459176 32.9361
4.105774632334751 32.8733
4.128087945865126 33.9729
4.150418821249301 34.505
4.172732448931298 35.461
4.195063640413578 36.7414
4.2173775856475215 38.3335
4.239709096631102 48.7413
4.262040768704612 95.6224
4.284355196706267 115.92
4.306687193387355 84.3668
4.329001947444346 52.2357
4.35133427213731 43.4734
4.373666762177566 42.5226
4.395982011761091 43.0942
4.418314834921175 43.9125
4.44063041906622 47.6895
4.4629635787515625 50.5668
4.4852969080429785 51.5321
4.5076130004776225 52.52
4.529946671403969 59.6985
4.552263106909177 65.0609
4.574597122877047 60.1052
4.596931312711224 54.8719
4.619248269273446 53.2061
4.6415828092605835 53.3564
4.663900117405352 55.0035
4.686235010953232 56.1793
4.708552674085913 57.9936
4.730887924602802 59.2861
4.753223354952695 61.2086
4.775541557023902 65.6287
4.797877349456786 69.3777
4.820195915032126 69.2711
4.842532072957498 67.9536
4.864868414979744 70.7606
4.88718753227192 76.2035
4.909524244902505 77.8158
4.931843734218147 76.4766
4.954180820867835 77.2915
4.976518095879839 80.1823
4.998838149695359 83.1172
5.021175803844231 85.584
5.043496238205739 89.1732
5.065834274903528 93.4314
5.088172504230693 98.4744
5.1104935158799565 105.199
5.132832132875765 124.15799999999999
5.155153533596801 152.999
5.1774925416746225 189.801
5.199814334878411 371.61199999999997
5.2221537374521505 948.415
5.244493338631803 2789.37
5.266815727034316 8118.87
5.289155727832427 13535.5
5.311478517248165 8863.18
5.333818921080011 2691.33
5.356159527788849 507.066
5.3784829252032536 198.429
5.400823940070432 157.25
5.423147747031976 130.563
5.445489173474152 119.706
5.467830807066149 121.236
5.490155234831516 122.655
5.512497285125229 114.083
5.534822130975162 105.758
5.557164601388673 100.883
5.579489868738879 97.9317
5.601832762690846 96.5229
5.6241758697774475 95.7505
5.646501775867269 94.8664
5.668845311622074 94.072
5.691171647754637 93.8598
5.713515615597765 92.43799999999999
5.735859800852677 91.876
5.758186788542988 94.8431
5.780531411018185 100.139
5.802858837297399 100.405
5.825203900414495 100.101
5.8475491852224 105.118
5.869877275883075 103.89299999999999
5.892223006467101 97.3851
5.914551544266608 94.219
5.936897724049891 95.6969
5.959244129804903 102.713
5.981573344815301 128.638
6.0039202049061 227.93099999999998
6.026249875609095 444.39
6.04859719346037 905.9839999999999
6.070927323278297 2230.04
6.093275102315365 4642.74
6.115623113320588 5200.04
6.137953938319995 2994.49
6.160302415650845 824.565
6.182633708324452 194.102
6.2049826554078376 103.90700000000001
6.227331838745022 87.5645
6.249663839443684 81.5674
6.27201349767565 78.5254
6.294345974611799 78.7626
6.316696111167083 80.1142
6.339046488263839 77.7339
6.361379686074702 72.6226
6.383730546639482 69.7287
6.406064229255215 69.8761
6.428415576718203 71.7885
6.450749747566656 70.1365
6.47310158535871 66.9025
6.495453669698332 64.6688
6.517788579421056 63.5414
6.540141159237969 62.6664
6.562476565766648 62.178000000000004
6.5848296444934045 62.2298
6.607182974060425 62.8401
6.6295191323281015 62.6519
6.651872965955752 62.1894
6.6742096296068985 68.767
6.6965639707294615 80.9165
6.71891856698715 79.9606
6.741255995248479 67.7603
6.763611104154477 60.1811
6.785949046381137 58.1927
6.808304671371482 59.3553
6.8306605557940046 61.6577
6.852999275508618 60.5353
6.875355681171544 57.8401
6.897694923437771 55.9337
6.92005185377892 55.5462
6.9423916220322655 55.3535
6.964749080490181 54.6701
6.987106804399774 55.0201
7.009447368180821 55.8892
7.031805625367033 55.4681
7.054146723727803 54.633
7.076505517631004 54.2552
7.098864581288365 53.9616
7.121206488070854 54.0706
7.143566093607822 54.5871
7.165908543567245 55.925
7.188268694426048 56.5111
7.2106291193438095 55.343999999999994
7.232972390625943 54.2723
7.255333366030969 58.215
7.277677189091925 73.2923
7.300038718428332 86.0596
7.322400526130865 77.5577
7.344745183422596 63.1493
7.367107550224791 55.431000000000004
7.389452767901992 53.9674
7.411815697249891 53.3929
7.434161478756298 52.9098
7.456524974096713 53.1211
7.478888753837185 52.8619
7.501235387657368 53.4549
7.523599738562711 53.5652
7.545946944825532 53.6487
7.568311870344528 54.0207
7.5906770845765665 53.8434
7.613025156078678 54.7202
7.635390950099687 55.345
7.657739602662809 55.1054
7.680105979923558 55.5064
7.702472650212829 56.9508
7.724822180948224 56.7023
7.747189439655568 55.8808
7.769539560075357 55.4581
7.791907410653562 55.754
7.81425812420825 55.2826
7.836626570110925 55.945
7.858995315087906 56.7412
7.881346924933401 56.5942
7.903716270417482 57.4611
7.926068482028405 57.8093
7.948438431475253 58.0576
7.9708086843180235 58.7698
7.993161805171116 59.6026
8.015532667162402 60.2992
8.037886398416653 61.3694
8.060257873014221 61.9847
8.082629655331942 62.7143
8.104984308787587 63.5484
8.127356708900503 66.0497
8.149711981398308 70.1211
8.172085002766314 72.5351
8.194458336181368 70.0714
8.216814543847752 68.3347
8.23918850371002 68.4561
8.26154533906492 69.2051
8.283919928836452 70.8021
8.306277395339652 71.8951
8.328652618483376 73.0673
8.351028159736202 75.0419
8.373386579575245 77.4377
8.395762759396959 79.2227
8.418121819038275 82.12299999999999
8.440498640894003 88.2904
8.462875785192262 98.7186
8.485235811156207 122.15700000000001
8.507613602688501 170.59799999999998
8.529974277114228 244.47099999999998
8.552352719347912 364.945
8.574731488360351 626.77
8.59709314210385 1207.1
8.619472567021075 1946.11
8.64183487789147 2214.77
8.664214962183097 1686.42
8.686577933647762 825.4019999999999
8.708958680784317 294.849
8.731339760774953 139.781
8.753703729764451 104.34899999999999
8.77608547780821 95.8507
8.798450116065078 92.9552
8.820832535634787 91.25399999999999
8.843215292401656 92.3948
8.865580941199045 92.7512
8.887964374703538 92.5185
8.910330701447199 92.9243
8.932714815164482 91.9324
8.955099270424924 89.0111
8.977466620733543 86.4338
8.999851761421976 84.3742
9.022219798361645 83.0657
9.04460562795561 83.0943
9.066991803441677 83.0107
9.089360876979615 83.8427
9.111747746589993 83.5887
9.13411751544971 82.3592
9.156505082664324 81.2911
9.178875550323522 81.3134
9.20126381862328 81.307
9.223652438908596 81.2204
9.246023961427412 81.587
9.26841328802173 81.4363
9.290785518039224 82.5108
9.313175554425882 84.6669
9.335565947154315 86.99
9.357939245086508 87.5599
9.380330352834827 86.4753
9.40270436697103 86.4381
9.425096193225055 85.1614
9.447488380180165 85.0623
9.469863475295412 83.9157
9.492256385987508 83.7714
9.514632206018318 84.4667
9.537025843935714 84.8505
9.559402392368193 86.2656
9.581796761000229 89.0086
9.604191496441521 92.1268
9.626569144158516 94.7717
9.648964615551032 95.9859
9.671343000390081 94.5012
9.693739211225699 92.2557
9.716135793237463 91.5388
9.738515290448102 92.4845
9.760912617143402 93.9686
9.783292860202891 96.9922
9.805690935076182 99.7576
9.828089385495742 100.75
9.850470754023561 101.29799999999999
9.872869957865444 103.306
9.89525208097539 108.334
9.917652041736662 114.709
9.940052382417589 123.01899999999999
9.962435644102392 147.796
9.984836746950979 185.024
10.007220771957746 239.025
10.029622640473708 330.80699999999996
10.052007432299963 510.418
10.074410069984072 830.538
10.096813093716005 1314.11
10.119199042482517 1848.79
10.141602840636468 1991.36
10.163989564971628 1465.91
10.186394141051062 760.863
10.208799107559706 328.931
10.231187001965623 162.654
10.253592751657669 118.214
10.275981430388155 109.42200000000001
10.298387966769793 106.935
10.320794897965431 106.87299999999999
10.343184759907361 105.387
10.36559248305461 103.31200000000001
10.387983138083852 103.465
10.410391656691655 109.339
10.432800574501677 119.806
10.455192425893369 132.89700000000002
10.47760214443012 157.901
10.499994797678786 204.317
10.522405320453982 289.847
10.54479877906917 413.43199999999996
10.567210109595656 548.813
10.5896218454736 585.4
10.612016518879773 479.583
10.634429067781074 310.824
10.656824555333241 174.528
10.679237920773568 112.031
10.701651695961992 92.4524
10.724048411481384 87.259
10.746463008485165 84.9769
10.768860546937125 83.4874
10.791275969274796 82.00200000000001
10.81369180576079 81.0356
10.836090585366925 80.0341
10.858507252467449 78.6707
10.88090686379991 77.7935
10.903324365036394 77.5998
10.925724811614439 77.0019
10.948143150509463 77.39
10.970561909719066 77.0981
10.992963615930844 76.6404
11.015383218085756 74.8961
11.037785768347074 72.9821
11.06020621697282 71.9933
11.082627090322113 71.0388
11.105030913430326 70.3876
11.12745263854165 69.7936
11.149857314510728 70.1913
11.172279894912576 72.2472
11.194702904450653 71.624
11.217108866490921 69.7577
11.239532736615194 68.1789
11.26193956033512 67.8593
11.284364294577085 67.0246
11.306789462371718 66.1799
11.329197585398376 65.8981
11.351623622610898 65.9747
11.37403261614354 65.2266
11.396459526308487 65.0209
11.418869393879497 64.4166
11.441297180532617 64.05199999999999
11.463725406927658 63.9518
11.486136592353875 63.1968
11.508565700543707 63.428999999999995
11.530977768845315 64.086
11.553407762368774 63.9435
11.575838200059769 63.897
11.598251599479612 63.1526
11.620682927815501 62.4047
11.64309721895548 62.5824
11.665529441478206 62.216
11.687962112597958 61.8755
11.710377748130886 61.9472
11.732811318753434 62.126999999999995
11.755227854859067 61.7413
11.777662328529495 61.5851
11.800079768750786 61.833999999999996
11.822515149015453 61.9447
11.844950984084935 62.3387
11.867369787303163 61.8296
11.889806534289491 61.5088
11.912226250487029 61.6696
11.934663912939751 61.827
11.9571020346363 62.0321
11.979523127133968 62.373000000000005
12.001962169624331 63.6258
12.024384183972964 65.0184
12.046824150809913 67.7032
12.069264581333726 71.3167
12.091687985297767 76.9941
12.11412934550045 86.0439
12.136553680195208 102.38
12.158995973632788 127.304
12.181438735204349 160.877
12.20386447284199 191.407
12.226308172985636 209.157
12.24873485024193 201.69099999999997
12.271179492516982 153.752
12.293607112949127 112.335
12.316052700916226 84.5336
12.338498763250042 69.9862
12.360927805303868 65.1058
12.383374818673879 63.7438
12.405804812803074 62.7713
12.428252780773262 63.0332
12.45070122756722 63.1478
12.473132656675375 63.3911
12.49558206341869 64.1475
12.518014453510101 64.344
12.540464823770117 64.2597
12.562915677315177 63.9238
12.58534951575545 64.4012
12.607801338171472 64.7901
12.630236146511358 66.1561
12.652688941369085 68.12100000000001
12.675124723177234 68.3383
12.697578494048786 67.8133
12.720032754458185 66.5917
12.742470003354093 66.4412
12.764925245138771 66.6391
12.787363476431278 67.3845
12.809819703166806 67.747
12.83227642391173 68.1501
12.854716135692716 68.9632
12.877173846755147 70.3032
12.899614549869717 70.422
12.9220732548287 71.6636
12.94453245827299 72.2788
12.966974655289818 73.2146
12.989434858002571 73.7331
13.011878055298721 74.1466
13.034339260862497 75.2924
13.056800969391883 76.4304
13.079245674017244 79.3351
13.101708390774869 83.4202
13.12415410463411 91.225
13.146617833206086 99.8327
13.169064559883248 109.01
13.191529303857127 122.859
13.213994557076367 146.374
13.236442809902437 185.608
13.258909083908291 247.582
13.28135835851934 318.67
13.30382565690295 392.278
13.326293469022952 445.259
13.348744283242008 418.376
13.371213125129904 333.495
13.39366497011003 227.391
13.416134845360597 151.268
13.438605238843131 113.876
13.46105863690397 103.321
13.483530069144786 103.87799999999999
13.505984506951902 108.13600000000001
13.528456981549432 118.04
13.550929978879088 133.047
13.573385983253365 158.6
13.595860028340867 201.602
13.618317081455832 260.43
13.64079217790333 322.73
13.663250283359057 369.465
13.685726434770173 377.786
13.708203115221277 321.225
13.730662806148091 239.752
13.75314054697177 164.079
13.775601299246777 114.476
13.798080104050406 91.1987
13.820559442405358 83.101
13.843021793671388 80.0937
13.865502201420897 78.8614
13.887965623051947 78.2558
13.910447103807167 77.6677
13.932929122629764 76.1187
13.955394156785959 75.743
13.977877254034569 74.722
14.000343367582113 73.6782
14.022827546871707 73.2844
14.045294743423524 72.6714
14.06778000837062 71.8754
14.090265817715476 71.7894
14.112734645763819 71.2112
14.13522154619454 70.7376
14.157691466286913 70.533
14.180179461423874 70.7447
14.202668005486178 70.3618
14.22513957064374 69.7858
14.247629214846473 69.3057
14.270101881097517 68.9868
14.29259262906496 68.7913
14.315083930490205 68.9438
14.337558255389705 68.8659
14.360050666019726 68.9659
14.382526101071944 68.595
14.405019624534942 68.1795
14.427513705993134 68.0902
14.449990813291825 68.0105
14.47248601302899 67.9998
14.49496423954951 67.8718
14.517460561197822 67.652
14.539939910570322 67.5489
14.562437357763558 67.9858
14.58493536931253 68.5787
14.607416409993311 68.7015
14.62991555254159 69.1023
14.652397725157423 69.3411
14.674898002342799 69.2679
14.697398848433282 69.669
14.719882725991326 71.2474
14.74238471217934 72.8216
14.764869730765593 75.9793
14.787372860692983 78.297
14.809876564079925 81.7698
14.83236330125751 87.2606
14.854868153850365 96.0145
14.877356041159485 111.09700000000001
14.899862046604186 131.467
14.922351087688757 160.046
14.944858249632887 193.635
14.967365991421232 220.47
14.989856770231246 230.328
15.012365673994204 213.41
15.03485761569738 176.067
15.05736768508665 135.43200000000002
15.07987833888692 102.788
15.102372032001655 83.6237
15.124883856909658 73.8266
15.14737872204565 70.7205
15.169891721717274 69.3576
15.192405310371893 69.0508
15.214901940621196 68.5614
15.237416709527137 68.1492
15.259914520936249 67.936
15.282430473753607 67.1599
15.304947020131227 66.6976
15.327446610371178 66.1721
15.349964346154254 65.9277
15.372465126703139 65.7031
15.394984055556009 65.4557
15.417486030076159 65.4711
15.44000615566487 64.9848
15.462526881230803 64.9035
15.485030653812652 64.8885
15.507552581617434 64.6612
15.530057557334603 64.6291
15.55258069104857 64.8145
15.575104429329837 65.04
15.597611216864632 65.0254
15.620136166564563 65.5278
15.6426441664095 67.1479
15.665170331202765 69.2195
15.687697105158826 71.521
15.710206930593545 74.4849
15.732734925158933 78.6815
15.755245972089478 84.7422
15.77777519094324 94.4499
15.800287463046663 107.99799999999999
15.822817909869592 128.75799999999998
15.84534897229804 153.745
15.867863089299354 179.05599999999998
15.890395385222186 197.005
15.912910736597423 196.541
15.935444269699861 176.94299999999998
15.957978423016485 143.71200000000002
15.980495633101265 111.086
16.003031029129367 86.65299999999999
16.02554948280019 71.2249
16.048086125229432 64.5796
16.070623392487107 62.3704
16.09314371869582 61.6869
16.11568223789321 60.7328
16.13820381691126 60.2459
16.160743591742527 59.63
16.183283996022084 59.2262
16.205807461423195 58.3705
16.228349126881973 57.8232
16.25087385432698 57.7932
16.27341678466365 56.9932
16.29594277784926 56.9338
16.31848697676433 56.843999999999994
16.341031811604868 56.3946
16.36355971058487 56.4393
16.3861058195587 56.2183
16.40863499352978 55.5201
16.431182380342005 55.1175
16.453730407713202 54.9744
16.476261501364792 54.6612
16.498810812136167 54.4041
16.52134319004079 54.6016
16.54389378792203 54.4632
16.566445031001553 54.3507
16.588979342490088 54.0804
16.61153187824822 54.0768
16.634067483263312 53.9306
16.656621315414416 53.9278
16.679175797408888 53.6046
16.701713349928728 53.6235
16.72426913389191 53.7862
16.74680798922351 53.7008
16.76936507887444 53.6142
16.791905240734874 53.6606
16.814463639794468 53.6009
16.837022695210294 53.8146
16.859564824093756 54.0647
16.882125194503903 54.2234
16.904668639217885 54.5296
16.927230328348003 54.2899
16.949792678493612 54.555
16.972338104193863 54.5364
16.994901778652235 54.2916
17.017448529496576 54.8484
17.040013531998152 55.243
17.06257920018044 55.681999999999995
17.0851279459922 56.221000000000004
17.107694947817667 57.0562
17.130245028099072 57.6511
17.15281336730298 58.8343
17.17536478578733 60.6969
17.19793446610687 63.1073
17.220504818648422 66.408
17.243058251703697 70.1866
17.265629950971032 75.2847
17.288184731571736 80.4739
17.310757781306908 83.2046
17.33333150794385 83.5047
17.355888317140174 80.0577
17.37846339986244 74.0047
17.401021565958885 67.5706
17.42359800851343 63.0402
17.44617513265564 60.2969
17.468735341390783 59.0727
17.491261035594565 58.4412
17.51396340099364 58.0778
17.536490463869136 58.3322
17.559018209820174 58.3174
17.58154663977963 58.2447
17.604251766089718 58.4058
17.626781572227713 58.8531
17.64931206518155 58.9524
17.671843245885103 59.3535
17.69455114821572 59.407
17.717083712612634 59.4195
17.739616967569667 59.9291
17.762150914021706 60.4931
17.78486160749854 60.5758
17.807396945166804 61.5585
17.829932977143503 62.7604
17.85246970436452 64.0944
17.875183204129467 65.6636
17.897721330097664 67.2948
17.920260154126645 69.4074
17.942799677153296 72.1837
17.9655159983646 76.2677
17.988056927677544 82.2218
18.010598558807683 90.5766
18.033140892692916 101.721
18.05586005052525 113.904
18.07840379824407 127.006
18.10094825154059 136.656
18.12366954819864 140.961
18.146215420998306 135.97299999999998
18.16876200220057 125.212
18.191309292745153 110.148
18.214033452627167 96.7796
18.236582170236648 87.2767
18.259131600016456 83.7859
18.281681742907335 85.9309
18.304408781233683 90.8842
18.32696035875955 96.573
18.349512652227624 101.66
18.372065662579683 106.01
18.394795594587553 104.787
18.41735004715306 98.7722
18.43990521943684 90.7087
18.46246111238171 81.0123
18.485193953325208 72.7566
18.507751296070428 66.9526
18.530309362314178 63.74
18.552868153000343 62.1605
18.57560391815056 60.9719
18.59816416623245 60.754
18.620725141597372 60.1119
18.643286845190268 59.6607
18.666025549835414 59.3654
18.688588718427933 58.683
18.711152618092243 58.5692
18.73389353884365 58.3475
18.75645890921984 57.9994
18.77902501351406 57.728
18.801591852673102 57.775
18.824335739722738 57.0237
18.846904057212626 57.0258
18.8694731124168 56.8357
18.89204290628315 56.9417
18.914789774966803 56.6875
18.937361054791623 56.5146
18.959933076131318 56.0252
18.982505839934877 55.8633
19.00525570560582 55.9086
19.027829963004184 55.8368
19.05040496572238 56.0936
19.072980714710468 56.1697
19.095733592739563 56.0277
19.11831084296757 56.1932
19.140888842324735 56.4432
19.16346759176222 56.6224
19.18622349753803 57.0932
19.208803755869358 58.0937
19.231384767143577 59.5273
19.253966532312948 61.2074
19.276725481241822 63.6184
19.29930876296784 66.3151
19.3218928014549 69.2493
19.34465404436217 72.3544
19.36723960516257 74.6516
19.389825925592426 74.9077
19.412413006605938 72.8106
19.43517731967805 69.1769
19.457765930683355 64.6366
19.48035530514408 60.2584
19.50294544401556 56.8692
19.525712842708348 54.7981
19.54830451925909 53.8093
19.570896963095727 52.9849
19.593490175174704 52.8984
19.616260674962184 53.0158
19.638855432416964 52.8961
19.661450960992624 52.867
19.68404726164677 52.6461
19.706820878021247 52.2727
19.729418731756834 52.7982
19.752017360452857 52.4584
19.77461676506804 52.6674
19.797393513540218 52.8042
19.819994478951667 52.9818
19.84259622316767 53.5124
19.8651987471481 53.8869
19.887978643247177 54.0903
19.91058273574792 54.4054
19.933187610901943 55.3476
19.955969879466828 56.4786
19.97857632894404 58.251000000000005
20.00118356396599 60.1218
20.023791585494575 62.7276
20.046577028914875 65.4576
20.069186632506966 67.5682
20.091797025500632 69.1319
20.114408208858933 69.3585
20.137196842715273 68.0209
20.159809615886765 66.3917
20.18242318232135 63.6263
20.20503754298326 61.6061
20.227829382875154 61.1305
20.250445341109344 61.5244
20.27306209647285 62.7351
20.29567964993108 64.1714
20.31847471147704 65.3191
20.34109387027612 65.2751
20.363713830075454 64.3805
20.386334591841646 62.428999999999995
20.409132890679302 59.341
20.431755265564437 56.0095
20.454378445325528 53.4538
20.477002430930366 51.7463
20.499803982716553 50.5838
20.522429589228004 50.1549
20.54505600449589 49.6877
20.567683229489194 49.703
20.590488049900088 49.4842
20.61311690359731 49.1093
20.63574656993626 49.1623
20.658553853717297 48.8953
20.681185154618298 48.8136
20.703817271080066 48.5681
20.72645020407368 48.3871
20.749260783967177 48.1797
20.771895359337133 48.1919
20.794530754161617 48.0499
20.817166969412938 48.0558
20.83998086114876 48.1704
20.86261872660049 47.9884
20.885257415405402 47.9467
20.90789692853701 47.6895
20.930714147864748 47.757
20.953355319030678 47.8401
20.97599731745334 48.0348
20.99864014410749 47.8681
21.021460706796564 47.7482
21.044105199328826 48.0733
21.06675052302631 48.1651
21.089396678865015 48.3448
21.112220600704806 48.6647
21.134868430275347 48.9605
21.15751709492456 49.2946
21.180166595629693 49.6773
21.202993892429635 50.3058
21.22564507473034 50.5708
21.24829709602816 50.8046
21.27112693608965 50.5988
21.293780644891275 50.5473
21.316435195634053 49.7836
21.339090589297417 49.0196
21.361923832041875 48.6696
21.384580921090404 48.0309
21.407238856007325 47.5251
21.429897637773326 47.6634
21.45273429906592 47.6595
21.475394784108598 47.6608
21.498056118951983 47.6237
21.520718304578022 47.678999999999995
21.543558400304388 47.9107
21.566222297108816 48.2075
21.58888704765135 48.411
21.61155265291521 48.5793
21.63439619898156 48.8645
21.657063523335786 49.1469
21.67973170537063 49.5423
21.7024007460706 50.1056
21.72524775840385 50.9588
21.747918526116475 52.01
21.770590155457388 53.1687
21.79326264741238 55.0634
21.816113141960237 57.075
21.838787368860547 58.8987
21.861462461341976 61.0489
21.884315579735777 63.2221
21.90699241312273 64.1858
21.92967011506078 64.0826
21.95234868653799 62.8958
21.9752053151131 61.0249
21.997885635446785 59.0949
22.020566828293532 57.4234
22.04324889464272 56.3023
22.066109049404666 55.3963
22.088792872571794 55.4036
22.111477572219204 55.5197
22.1341631493376 55.582
22.157026846313123 55.0041
22.179714188221507 54.1252
22.202402410582668 52.5781
22.22509151438863 51.3108
22.24795876962584 50.1147
22.270649646204486 49.3922
22.293341407213727 48.7003
22.316034053646906 48.3288
22.338904883215342 48.1997
22.36159931041458 48.1808
22.38429462602756 47.8552
22.40699083104897 47.6256
22.429865251039757 47.6796
22.452563244831367 47.8045
22.47526213102522 47.7434
22.49813925616515 47.8024
22.520839937143307 47.6282
22.543541513520587 47.6429
22.56624398629403 47.6697
22.589124730075895 47.7744
22.611829005656723 47.9854
22.63453418063466 47.8316
22.657240256008077 48.0424
22.680124634582935 48.1796
22.70283252079775 48.3531
22.725541310413075 48.6222
22.74825100442868 48.8151
22.771139033969575 49.4099
22.79385054687155 49.5923
22.81656296718292 50.2533
22.83927629590484 51.3525
22.862167992606945 52.4928
22.88488314827121 53.6673
22.907599215359284 54.7146
22.93031619487366 55.9798
22.953211574954405 56.8052
22.975930389478226 57.3449
22.998650119445763 57.2389
23.02137076586092 55.8776
23.044269845560063 54.287
23.06699233506288 52.6996
23.089715744034912 51.0377
23.112617610931565 49.7597
23.135342869061212 48.7781
23.158069049684816 48.0655
23.1807961538087 48.0864
23.20370174880544 47.8964
23.226430710184808 48.0442
23.249160598093425 47.9249
23.271891413539002 47.9774
23.294800752937697 48.0902
23.31753343374794 48.2122
23.340267045128353 48.3077
23.36300158808808 48.6711
23.38591468821339 49.0171
23.408651104658304 49.3725
23.431388455719986 50.077
23.454126742409 51.0424
23.4770436196085 52.1026
23.499783787914662 53.468999999999994
23.522524894889884 54.7994
23.54526694154616 55.8892
23.56818761219047 57.0845
23.59093154860734 57.3128
23.613676427751283 57.1693
23.636422250635754 55.8485
23.659346731118656 53.7662
23.68209445191868 51.9721
23.704843119509587 49.8228
23.72759273490623 48.1979
23.750521041644767 46.9375
23.77327256312355 46.1326
23.796025035462787 45.7074
23.818956224555475 45.0212
23.841710609113413 45.2821
23.86446594758979 44.8982
23.887222241002014 44.7347
23.910157285144578 44.3244
23.932915498962537 44.3296
23.955674670778713 44.2449
23.978434801611975 44.0635
24.001373717286125 43.8635
24.024135776723917 43.8281
24.046898798245582 43.7173
24.06966278287146 43.5246
24.092605586582614 43.3151
24.115371508023642 43.3869
24.1381383956401 43.199
24.16090625045381 43.2745
24.183852958731244 43.0937
24.206622758582608 42.8663
24.229393528706886 42.6954
24.252165270127392 42.9048
24.27511589952438 43.1139
24.297889594216997 42.7093
24.32066426328598 42.5169
24.34343990775613 42.4535
24.36639447485003 42.4082
24.38917208083877 42.3004
24.41195066531332 42.2759
24.43490819850244 42.4048
24.457688750692377 42.2732
24.48047028445616 42.1931
24.503252800821233 42.3615
24.526214300784112 42.4637
24.548998793132213 42.4367
24.57178427117417 42.2948
24.59457073593893 42.4031
24.617536219319863 42.2743
24.64032466834748 42.2262
24.663114107195035 42.1852
24.685904536893013 41.8644
24.708874020360852 41.73
24.731666442613744 41.6016
24.754459858818787 41.7481
24.777254270007962 41.5235
24.80022777025625 41.4314
24.82302418230472 41.5499
24.845821592443674 41.5336
24.86862000170663 41.3875
24.891597535453727 41.4515
24.914397953892728 41.6396
24.93719937456671 41.4928
24.96000179851076 41.6403
24.98298338249997 41.7813
25.00578782394922 41.9828
25.028593271784167 42.1944
25.05157790644186 42.3895
25.07438537804115 42.633
25.097193859145293 42.9415
25.120003350792075 43.3074
25.142992065061257 43.5017
25.165803588823465 43.7842
25.18861612625217 43.9689
25.211429678386736 43.9526
25.234422489079968 44.0512
25.257238081693636 44.22
25.280054692141732 44.1772
25.3028723214652 44.1681
25.325869245420463 44.3071
25.348688923599397 44.4131
25.371509623787006 44.2616
25.394331347025812 43.7028
25.41733240110666 43.1154
25.440156181590016 42.3814
25.46298098826268 41.9479
25.48580682216873 41.4254
25.50881202326435 40.8658
25.53163992281684 40.5574
25.55446885274561 40.3701
25.577298814096377 40.1817
25.600308179121807 40.1039
25.623140214533745 40.214
25.64597328451537 40.0778
25.66898578564376 39.8865
25.691820936010206 39.8753
25.714657124097695 39.8488
25.737494350954734 39.7652
25.760511045684957 39.668
25.783350361364224 39.7881
25.806190718969255 39.6472
25.82903211955018 39.8265
25.852053024868923 39.9109
25.874896522722523 39.8602
25.897741066713106 39.9854
25.920586657892454 39.983000000000004
25.943611790812668 40.3086
25.966459487728237 40.4955
25.989308234998564 40.4793
26.01215803367705 40.9538
26.03518741123814 40.9703
26.05803932412957 40.9973
26.080892291600094 41.0624
26.10374631470478 41.0358
26.12677995397268 41.0631
26.14963609978026 40.8728
26.172493304397875 40.4414
26.19535156888223 40.2553
26.218389486949604 39.9327
26.241249882640123 39.7989
26.26411134137826 39.43
26.28715248187403 39.5533
26.31001607820869 39.4093
26.3328807407756 39.1912
26.35574647063438 39.4803
26.37879191991473 39.335
26.401659795896734 39.3319
26.424528742360263 39.6041
26.447398760366614 39.7445
26.470448535598294 39.846
26.49332070826805 39.9603
26.516193955675355 40.3898
26.53906827888316 40.7231
26.562122397260108 40.7787
26.584998883685063 41.1848
26.607876449110325 41.4483
26.63075509460056 41.611999999999995
26.65381357334404 41.5736
26.67669439061878 41.515
26.699576291163382 41.4029
26.722459276044212 41.0497
26.745522132402975 40.9651
26.768407297649354 40.671
26.791293550442003 40.2611
26.814180891848974 40.1252
26.837248143099337 39.8498
26.860137673466657 39.8697
26.88302829566349 39.5299
26.90592001075963 39.2488
26.92899167420566 39.0923
26.951885586870763 38.7362
26.974780595655517 38.6104
26.99785558178161 38.4798
27.020752794605112 38.3656
27.043651106772522 38.1359
27.06655051935668 38.2283
27.089629948036183 38.0739
27.112531573292053 38.0643
27.135434302194138 38.1042
27.158338135817015 37.9041
27.181422024430987 37.9644
27.204328079372566 37.861999999999995
27.22723524226965 37.9833
27.250143514198573 38.0291
27.273231880156334 37.8474
27.296142382065014 37.7523
27.319053996245536 37.7474
27.341966723775965 37.6513
27.365059584515222 37.7915
27.38797455070062 37.8287
27.410890633481237 37.7886
27.433807833936918 37.8366
27.456905206923906 37.995
27.47982465472398 38.0202
27.502745223449743 38.0189
27.525666914182825 38.0651
27.548768816912457 38.0638
27.571692763693633 37.9098
27.59461783573812 37.6922
27.617723149491244 37.4476
27.640650484125285 37.4652
27.66357894728264 37.4282
27.686508540048052 37.4334
27.709618414237887 37.2564
27.732550278321757 37.1913
27.755483275279115 37.2167
27.778417406196485 37.1328
27.801531858397514 37.1727
27.824468269376716 37.0947
27.847405817586786 37.1966
27.870344504116094 37.2565
27.893463551932008 37.5097
27.916404527281053 37.7794
27.93934664422563 37.9029
27.962289903855886 37.9719
27.98541356491974 38.0127
28.00835912214229 38.2702
28.03130582533231 38.5149
28.054253675581805 38.6082
28.077381967556104 38.3841
28.100332124185126 38.3287
28.123283431160893 38.2581
28.146235889577238 38.0716
28.169368830154156 38.0446
28.192323603752033 37.7995
28.215279532083304 37.5032
28.238415973016764 37.3003
28.261374223145094 37.1956
28.284333631303806 36.9862
28.307294198589954 36.8343
28.330435319167677 36.4662
28.353398217078915 36.2098
28.376362277420153 36.021
28.39932750129032 35.9186
28.422473319286713 35.6818
28.44544088262495 35.8071
28.468409612800283 35.7216
28.491379510913497 35.4345
28.51453004413313 35.4037
28.53750229057244 35.3627
28.56047570826344 35.2061
28.583450298308804 35.2757
28.606605564586562 35.0392
28.629582511831156 35.1177
28.65256063474956 35.1033
28.675539934446338 35.0216
28.698699951647605 35.0153
28.72168161743193 34.8844
28.74466446331978 34.9134
28.767648490417624 34.8922
28.790813276438353 34.8297
28.813799678527303 34.756
28.836787265157085 34.8345
28.859955641890075 34.8542
28.882945610203045 34.8446
28.905936766392035 34.7838
28.928929111566863 34.7607
28.952102288520145 34.6615
28.975097024308607 34.6307
28.998092952423807 34.2424
29.021090073977508 34.2493
29.04426806913204 34.2721
29.067267590245258 34.1442
29.090268308143695 33.9867
29.11327022394099 33.9814
29.13645305530891 33.8847
29.159457379627167 33.879
29.18246290519685 33.763000000000005
29.20546963313352 33.7505
29.22865731875826 33.7829
29.25166646419296 33.7305
29.27467681535305 33.6284
29.29768837335608 33.6624
29.320880931312562 33.622
29.34389491580634 33.6681
29.366910110507334 33.6474
29.38992651653503 33.6533
29.41312396492981 33.6547
29.436142806456754 33.6404
29.45916286268059 33.4601
29.48236399319994 33.4011
29.50538649169417 33.2047
29.528410208259935 33.0772
29.55143514402014 32.9319
29.574641196749695 32.7436
29.597668583816574 32.6589
29.6206971934585 32.4983
29.64372702680042 32.609
29.666938019934474 32.5307
29.689970313635285 32.406
29.713003834422636 32.4156
29.73603858342347 32.3173
29.759254535188578 32.294000000000004
29.78229175361658 32.3177
29.80533020365064 32.445
29.82836988641968 32.3326
29.85159081507472 32.2416
29.874632976355343 32.3089
29.89767637376955 32.1315
29.920721008448314 32.0176
29.9439469322847 32.1293
29.96699405457564 31.9492
29.9900424175358 32.041
30.013092022298157 31.9768
30.03632295963995 31.9396
30.059375061131373 32.1207
30.08242840783577 32.038000000000004
30.105483000888153 31.9157
30.128718970092244 31.8446
30.151776069006917 31.8513
30.17483441768648 31.9411
30.198074175317235 31.8977
30.221135036724256 31.9642
30.24419715131772 31.9016
30.267260520236203 31.6528
30.290505341942243 31.8102
30.313571232750228 31.8666
30.336638381310948 31.8098
30.35970678876503 31.7248
30.38295669299435 31.6665
30.40602763151657 31.5437
30.429099832366074 31.5309
30.452173296685572 31.4912
30.47542830191959 31.5096
30.498504306502497 31.524
30.521581577995562 31.5915
30.544660117543582 31.6222
30.56792024229725 31.6185
30.59100133132069 31.5915
30.614083691845494 31.6165
30.637167325018545 31.7255
30.660432587840603 31.6849
30.683518779717886 31.695999999999998
30.70660624769615 31.6912
30.729694992924372 31.6943
30.75296541239743 31.7581
30.77605672557558 31.5993
30.799149319462742 31.5912
30.8224236211637 31.4618
30.845518789950724 31.3971
30.868615242910597 31.2591
30.891712981195973 31.1148
30.91499247215866 31.0379
30.938092794619365 31.086
30.96119440587579 30.9465
30.984297307082752 30.9201
31.00758200598383 30.732
31.030687500658694 30.6688
31.053794288760695 30.6451
31.076902371446767 30.5569
31.100192296997445 30.5904
31.12330298246119 30.5587
31.14641496599209 30.3591
31.169528248749216 30.421
31.19282341969534 30.5567
31.215939314557186 30.5868
31.239056512134788 30.4355
31.262175013589378 30.441
31.28547544871168 30.3888
31.30859657161541 30.3206
31.331719001892175 30.4087
31.35484274070538 30.4442
31.378148458819545 30.4173
31.401274828443725 30.3786
31.424402510106933 30.4067
31.447712205419993 30.5197
31.470842524931633 30.3144
31.493974159989783 30.3204
31.51710711176168 30.2858
31.54042212308802 30.3525
31.563557722100917 30.2456
31.586694641341655 30.0447
31.609832881979628 29.9685
31.63315322823208 29.9894
31.656294125521327 29.881
31.679436347728515 29.8409
31.70257989602529 29.7399
31.725905596152327 29.6593
31.74905181052835 29.6338
31.772199354521323 29.8063
31.79534822930507 29.6721
31.818679302290967 29.6652
31.84183085259981 29.6734
31.864983737233473 29.6198
31.88813795736804 29.776999999999997
31.911474422233013 29.6041
31.934631327356435 29.5775
31.9577895715215 29.5905
31.980949155906522 29.543000000000003
32.004291031706956 29.6301
32.027453310562606 29.4802
32.05061693318573 29.2701
32.07396288236386 29.359
32.09712920658542 29.2416
32.12029687812702 29.1821
32.14346589817093 29.0881
32.166817291729984 28.9746
32.18998902288583 28.9545
32.21316210610336 28.8037
32.23633654256711 28.8293
32.259693399663725 28.7399
32.282870556771144 28.6111
32.30604907069099 28.6457
32.329228942610065 28.6536
32.35259128243769 28.4732
32.375773884550505 28.4636
32.398957848235646 28.4902
32.422143174682176 28.3159
32.445511016471215 28.3229
32.468699082679954 28.2722
32.49188851523011 28.2232
32.51507931531304 28.1823
32.538452678331 28.1897
32.56164622776311 28.0983
32.58484114831493 28.1128
32.60803744118015 28.0937
32.631416344731896 28.0852
32.654615396551876 28.0339
32.67781582427913 27.9601
32.701198898634416 27.8064
32.72440209253756 27.7964
32.747606665947124 27.8395
32.77081262006088 27.6656
32.79420126883317 27.639
32.81740999876112 27.705
32.840620112999424 27.5241
32.86383161274818 27.4766
32.88722585534586 27.5847
32.91044014056596 27.6394
32.933655814909734 27.5177
32.95687287957963 27.5291
32.98027273544904 27.4496
33.00349259526636 27.4448
33.026713849030116 27.4875
33.04993649794511 27.4506
33.073341986570746 27.3005
33.09656744032826 27.3199
33.11979429286444 27.348000000000003
33.14302254538647 27.3223
33.166433686291185 27.2567
33.18966475336992 27.2371
33.212897224069096 27.2322
33.23613109959831 27.2224
33.259547912343415 27.0868
33.2827846121627 27.0912
33.306022720453775 26.9727
33.32926223842861 26.945999999999998
33.352684742614166 26.9184
33.37592709463173 26.8944
33.399170859982064 26.8711
33.422597648419426 26.7459
33.44584425514446 26.6474
33.46909227885668 26.6078
33.4923417207723 26.5288
33.51577423505344 26.6311
33.539026528130385 26.4365
33.56228024307245 26.3763
33.585535381098246 26.3589
33.60897364093058 26.2583
33.63223163992385 26.3404
33.6554910656699 26.2462
33.678751919389796 26.1536
33.702195944520106 26.1259
33.72545966903325 26.1138
33.74872482519663 26.1131
33.771991414233746 26.1154
33.79544122444841 26.0962
33.81871069412428 25.976
33.84198160035767 25.929000000000002
33.86525394437455 25.9153
33.88870955949969 25.921
33.911984794020626 25.8422
33.93526147001624 25.8466
33.958539588715006 25.7754
33.98200102861669 25.6384
34.0052820477047 25.5912
34.02856451319451 25.5953
34.05203033759056 25.554000000000002
34.07531571090147 25.5065
34.09860253431845 25.5422
34.121890809074316 25.4378
34.145362493118924 25.4454
34.16865368561615 25.4138
34.191946333164054 25.4136
34.21524043699793 25.3715
34.23871800066799 25.375
34.26201503218366 25.199
34.28531352370466 25.191
34.30861347646881 25.1374
34.33209693978188 25.131999999999998
34.3553998301885 25.0918
34.378704185565205 25.0406
34.402010007152356 24.945999999999998
34.42549939016683 24.9772
34.44880815937748 24.8791
34.472118398533134 24.7933
34.49543010887669 24.8568
34.51892543169198 24.6665
34.54224009966052 24.7366
34.56555624255917 24.7579
34.58887386163339 24.6958
34.61237514439016 24.5622
34.6356957311114 24.5564
34.65901779775809 24.5793
34.68252356662995 24.4728
34.705848608458616 24.546
34.72917513396849 24.4996
34.75250314440949 24.4027
34.77601490857862 24.3106
34.799345904259795 24.2355
34.82267838863559 24.296
34.846012362958525 24.2275
34.869530142679984 24.2467
34.89286711232212 24.2173
34.91620557568269 24.1674
34.93954553401677 24.131999999999998
34.9630693495876 24.1001
34.986412313340814 24.0982
35.00975677584668 24.1238
35.033102738362956 24.0647
35.05663261012228 23.9586
35.0799815881786 23.9876
35.10333207003229 23.8942
35.12668405694369 23.9106
35.150220005273056 23.908
35.17357501786656 23.8929
35.19693153931268 23.7784
35.220289570874385 23.8351
35.24383161619786 23.8196
35.267192683604904 23.7965
35.290555264930376 23.7358
35.314101899412165 23.6774
35.33746752422433 23.6974
35.36083466676374 23.6905
35.38420332829803 23.5926
35.407756095629054 23.6353
35.43112781085063 23.612
35.45450104888391 23.6111
35.477875810999194 23.6147
35.50143473172161 23.5127
35.52481255774625 23.5371
35.54819191167777 23.4027
35.57157279478914 23.3571
35.595137889488406 23.3194
35.61852184675279 23.226999999999997
35.641907337029984 23.2829
35.665294361595684 23.1821
35.68886565090076 23.1159
35.7122557598848 23.1414
35.73564740699838 23.1394
35.759040593519934 23.0458
35.78261809810353 23.05
35.80601437933051 22.9697
35.829412203814705 22.9625
35.85281157283719 22.8892
35.876395313415884 22.9167
35.8997977874528 22.8392
35.92320180988546 22.8105
35.946790244133936 22.7297
35.97019737933222 22.7501
35.993606066789866 22.6516
36.01701630779276 22.6871
36.04061101440684 22.6307
36.06402437852291 22.5778
36.08743930005611 22.6366
36.1108557802951 22.4737
36.13445678011326 22.4764
36.15787639383515 22.4927
36.18129757014299 22.4693
36.20472031032821 22.3826
36.22832762423364 22.3084
36.25175350829375 22.3231
36.275180960119776 22.2814
36.298609981005924 22.2094
36.32222362992669 22.3089
36.34565580510207 22.3142
36.36908955323448 22.2369
36.39252487562093 22.1119
36.416144880530226 22.0872
36.43958336764275 22.0484
36.463023432914625 22.0907
36.486465077645676 22.0148
36.51009145956204 22.0366
36.53353627947859 22.0078
36.55698268276811 21.9859
36.58043067073321 21.9066
36.60406345072071 21.8077
36.62751462435344 21.829
36.65096738658405 21.7454
36.67460498210655 21.7646
36.69806093788647 21.7864
36.72151848619297 21.7021
36.744977628333636 21.730999999999998
36.76862165890998 21.6251
36.79208400512205 21.5843
36.81554794910557 21.6426
36.83901349217101 21.5135
36.862663978991606 21.4869
36.88613273667352 21.4936
36.90960309738324 21.4187
36.933075062434064 21.4087
36.95673202673572 21.3307
36.98020721697122 21.2578
37.003684015502365 21.2212
37.027162423645365 21.2695
37.050825886711465 21.2049
37.07430753063053 21.0834
37.09779078812467 21.1514
37.121275660513014 21.1216
37.144945643673694 21.0975
37.16843376245278 21.0499
37.19192350009803 21.0306
37.215414857931435 20.9583
37.239091382563885 20.8684
37.262585997426164 20.9109
37.28608223645736 20.8815
37.309763684451696 20.8255
37.33326318851098 20.8392
37.356764320726555 20.7886
37.380267082425526 20.8165
37.40395510942588 20.7967
37.42746114683234 20.6572
37.45096881771841 20.6304
37.474478123414166 20.6627
37.49817275092816 20.6072
37.52168534303452 20.6241
37.54519957395567 20.5216
37.568715445024665 20.53
37.592416694607714 20.462
37.61593586281424 20.477
37.63945667518264 20.5129
37.66297913304891 20.4424
37.68668702630454 20.3563
37.710212792059274 20.3092
37.733740207334854 20.2858
37.757269273470364 20.2916
37.780983832050374 20.2151
37.80451621684926 20.2272
37.82805025654007 20.1399
37.851585952464795 20.0587
37.8753071980695 19.9983
37.89884622345676 20.0443
37.92238690911902 20.0079
37.94611318753442 19.9702
37.969657210779765 19.9424
37.99320289834801 19.8781
38.016750251586465 19.8072
38.04048325513017 19.7964
38.06403395679343 19.8257
38.087586328183946 19.7178
38.11114037065203 19.7001
38.13488012115898 19.7605
38.1584375229181 19.704
38.181996599821 19.5859
38.205557353221124 19.6028
38.229303872575656 19.5013
38.2528679961576 19.5575
38.27643380031219 19.5521
38.30000128639589 19.4771
38.32375459653193 19.5451
38.34732546371299 19.4718
38.37089801690786 19.3751
38.39447225747609 19.35
38.418232380377425 19.3499
38.441810012983396 19.3639
38.46538933705673 19.3262
38.488970353960084 19.2801
38.51273731166058 19.2701
38.536321731567014 19.2248
38.55990784840681 19.1752
38.58367995004091 19.1221
38.60726947812959 19.0647
38.63086070726198 19.065
38.654453638806274 19.0868
38.678232613930824 19.0287
38.70182896773327 19.0192
38.72542702806741 19.007
38.7490267963045 18.9134
38.77281266709232 18.8804
38.79641586862214 18.9405
38.8200207821842 18.8437
38.843627409152944 18.8744
38.86742019782782 18.7674
38.891030269149255 18.7843
38.914642058016156 18.7344
38.938255565806124 18.7198
38.96205529464307 18.6586
38.98567225787121 18.6808
39.00929094417078 18.582
39.03291135492255 18.5461
39.05671804624804 18.5217
39.080341923549106 18.53
39.103967529460334 18.5258
39.127594865365744 18.4733
39.15140854155791 18.4038
39.17503935514948 18.4047
39.19867190290282 18.4012
39.22249083587951 18.3226
39.24612686969409 18.3128
39.269764641845306 18.3096
39.293404153722804 18.3148
39.317230110864074 18.2416
39.34087311998506 18.1842
39.36451787301696 18.2055
39.388164371352595 18.0772
39.41199737518003 18.0845
39.43564738196752 18.0586
39.45929913825317 18.0819
39.48295264543308 18.0335
39.506792718520884 17.9693
39.530449745387216 17.9226
39.55410852735203 17.8783
39.57776906581474 17.9351
39.60161623079 17.878
39.625280300200025 17.8813
39.64894613032202 17.7659
39.67261372255866 17.7854
39.6964680021016 17.7563
39.72013913657293 17.7545
39.74381203738292 17.6987
39.76748670593756 17.6687
39.79134812278169 17.6862
39.81502634488497 17.6473
39.83870633896685 17.6055
39.862388106436654 17.5061
39.88625668336918 17.5551
39.90994201572829 17.5259
39.933629125719285 17.4528
39.957503091207826 17.3898
39.9811937746168 17.4286
40.00488623990914 17.3735
40.02858048850006 17.3588
40.05246165409549 17.3563
40.076159487492085 17.2917
40.099859108448875 17.2717
40.123560518384345 17.2611
40.1474489070226 17.299
40.171153913178564 17.2084
40.194860712584955 17.2076
40.2185693066637 17.1668
40.242464941335314 17.1117
40.26617714307655 17.0614
40.289891143772046 17.0448
40.3136069448471 17.0201
40.33750984859743 17.0049
40.3612292688043 17.0072
40.3849504936829 16.9365
40.40867352466194 16.9189
40.43258372059144 16.8825
40.45631038219906 16.8997
40.48003885420956 16.7862
40.503769138055105 16.8435
40.52768664931955 16.8285
40.55142057531802 16.8048
40.57515631746428 16.7396
40.599079334038514 16.7477
40.62281872700477 16.6633
40.64655994043941 16.6167
40.67030297578061 16.6112
40.69423334835778 16.5862
40.71798004609188 16.5281
40.74172857006355 16.5346
40.76547892171441 16.5618
40.7894166736039 16.5552
40.813170699248566 16.4183
40.83692655691388 16.4359
40.86068424804498 16.4766
40.884629402612525 16.4325
40.908390779366385 16.3807
40.932153993938 16.3375
40.95591904777605 16.2972
40.979871628443995 16.3318
41.003640379561936 16.3136
41.02741097430883 16.253
41.05118341413683 16.1987
41.075143444384416 16.2198
41.098919593177826 16.2435
41.1226975914255 16.1645
41.14647744058318 16.1272
41.170444943946755 16.0675
41.19422851378379 16.0681
41.218013938914645 16.017
41.24198706625173 15.9988
41.26577622087193 15.9794
41.289567235177785 15.9763
41.31336011063129 15.9195
41.337340752422875 15.8774
41.361137369129835 15.9194
41.38493585138705 15.8218
41.40873620066004 15.7844
41.43272438060107 15.7661
41.45652848292052 15.7324
41.48033445666918 15.7775
41.50414230331616 15.7025
41.528138045159764 15.6638
41.551949656675205 15.6728
41.575763145513235 15.6417
41.59957851314666 15.5999
41.62358184070442 15.5918
41.64740098505737 15.5743
41.6712220126409 15.4889
41.69504492493139 15.4477
41.71905586207357 15.4403
41.74288256296395 15.4393
41.766711153007456 15.4088
41.79054163368412 15.3889
41.814560204340054 15.4152
41.838394485526365 15.3967
41.86223066180303 15.3579
41.88625497706819 15.287
41.910094962812 15.2842
41.93393684811168 15.2162
41.95778063445365 15.19
41.981812625263366 15.149000000000001
42.00566023303407 15.1708
42.029509746323676 15.1967
42.05336116662236 15.1091
42.077400857069705 15.1169
42.10125611078846 15.1271
42.12511327600405 15.008
42.14897235421036 15.0195
42.173019768448455 15.0101
42.19688269209613 15.0054
42.22074753323349 14.9757
42.24461429335818 14.9005
42.268669455600495 14.9079
42.292540073217886 14.9223
42.31641261433284 14.8896
42.34028708044675 14.7883
42.36435001496739 14.7581
42.38822835065557 14.7836
42.41210861586426 14.7924
42.4359908120986 14.7462
42.46006154323262 14.6974
42.48394762115317 14.7107
42.507835634632315 14.6906
42.531912233047436 14.6623
42.55580413732265 14.6369
42.579697981698 14.6136
42.60359376768525 14.5537
42.62767820545945 14.5327
42.65157789440821 14.507
42.67547952952185 14.5222
42.699383112316 14.4846
42.72347541395347 14.397
42.74738291190531 14.3517
42.771292362102166 14.3239
42.795203766063516 14.3161
42.819303956130405 14.3274
42.843219287476536 14.2222
42.86713657716324 14.2392
42.89105582671383 14.3087
42.91516392983864 14.2407
42.939087119032166 14.1958
42.963012272677304 14.218
42.98693939230129 14.127
43.01105543317513 14.0642
43.034986504731386 14.1186
43.05891954686589 14.0554
43.08285456110972 14.0982
43.10697856448665 14.0215
43.130917542983475 13.9923
43.15485849820081 13.9735
43.17880143167367 13.9297
43.20293342237094 13.991
43.226880332449 13.9382
43.25082922540554 13.9114
43.27496722682525 13.87
43.29892010567796 13.8359
43.32287497204102 13.8492
43.34683182745632 13.802999999999999
43.370977859791836 13.7024
43.39493871351105 13.7312
43.41890156092628 13.7102
43.44286640358341 13.6862
43.46702049182749 13.642000000000001
43.49098934522816 13.6387
43.51496019852649 13.6353
43.5389330532723 13.5879
43.56309522248204 13.6021
43.58707210044314 13.5648
43.61105098451946 13.5138
43.63503187626491 13.4967
43.659202151562134 13.498
43.68318707902681 13.4702
43.70717401884041 13.4612
43.731162972560874 13.4413
43.75534137913236 13.3966
43.779334381108384 13.3519
43.803329401683186 13.3491
43.82732644241872 13.2832
43.8515130055166 13.3044
43.87551410707659 13.227
43.89951723350145 13.2338
43.923709934595614 13.2265
43.94771713129917 13.2394
43.97172635758096 13.2088
43.99573761501002 13.1688
44.0199385169922 13.1606
44.04395385732619 13.1081
44.067971233533086 13.1401
44.09199064718605 13.134
44.11619977548961 13.0529
44.14022328470671 13.011
44.16424883610785 13.0151
44.18827643127035 12.9954
44.21249381139513 12.954
44.236525514814076 12.9593
44.26055926674478 12.9493
44.28459506876863 12.908
44.3088207262813 12.8775
44.33286064928722 12.8548
44.35690262714919 12.8202
44.38094666145278 12.773
44.4051806219871 12.8131
44.42922879003185 12.714
44.45327901929361 12.6688
44.477331311362136 12.718
44.501573600619416 12.6185
44.525630039221795 12.6799
44.54968854541895 12.7162
44.573937102200176 12.6746
44.5979997645541 12.6388
44.622064499300315 12.5815
44.64613130803592 12.5223
44.67038823869318 12.5176
44.69445921643748 12.5034
44.718532272981385 12.4671
44.742607409926194 12.487
44.76687274034801 12.4269
44.79095205918753 12.421
44.81503346325094 12.4387
44.839116954143876 12.3585
44.86339071028742 12.3636
44.88747839599524 12.3765
44.91156817336837 12.3416
44.93566004401666 12.3201
44.959942251908146 12.2769
44.984038330325966 12.2279
45.00813650686762 12.1956
45.03223678314731 12.1518
45.05652746888232 12.1801
45.08063196592069 12.1471
45.104738567558705 12.1611
45.128847275414856 12.1223
45.15314646515866 12.0536
45.17725940679741 12.0783
45.20137445952892 12.0216
45.22568004865265 12.0441
45.24979934496396 11.9936
45.27392075725247 11.9813
45.29804428714431 11.9537
45.322358426247604 11.9391
45.346486212804315 11.937999999999999
45.370616121861914 11.8799
45.39474815505086 11.8839
45.41907087049246 11.8767
45.4432071734666 11.8245
45.46734560548283 11.8344
45.49148616817604 11.856
45.51581748638564 11.7923
45.5399623320197 11.7621
45.56410931325473 11.7265
45.58825843173002 11.6923
45.61259837920865 11.6948
45.636751793816 11.7129
45.66090735060093 11.6563
45.68506505120716 11.6377
45.7094136545275 11.5584
45.73357566449271 11.552
45.75773982322992 11.6323
45.78190613238733 11.6084
45.806263418194064 11.5076
45.83043404997326 11.5171
45.85460683713677 11.5322
45.87897065658495 11.4571
45.90314777634752 11.4308
45.92732705646868 11.4683
45.9515084986045 11.4245
45.97588104735473 11.4093
46.00006683541565 11.3557
46.02425479047904 11.3378
46.04844491420549 11.3503
46.0728262191024 11.3203
46.09702070211635 11.3056
46.12121735879483 11.2841
46.14541619080294 11.2679
46.169806278764455 11.2585
46.194009483459034 11.2222
46.21821486849841 11.2155
46.24242243555223 11.1728
46.266821333570014 11.1084
46.29103328674601 11.0945
46.31524742696538 11.1142
46.33946375590237 11.0673
46.36387149104216 11.0661
46.38809221957392 11.0187
46.41231514186606 10.9929
46.436540259597464 11.0162
46.460956858999374 10.9739
46.48518638983522 10.9911
46.509418121166966 10.9517
46.533652054678114 10.9206
46.55807754555709 10.9134
46.58231590571962 10.8981
46.60655647313217 10.8423
46.630988654873654 10.8492
46.655233659129024 10.7842
46.67948087571551 10.8018
46.70373030632484 10.7728
46.72817142736393 10.7689
46.752425308428684 10.7478
46.77668140861147 10.7446
46.80093972960865 10.6661
46.82538981736788 10.659
46.849652602470904 10.6328
46.87391761349769 10.6379
46.8981848521493 10.5917
46.9226439341274 10.6356
46.946915650573224 10.6005
46.97118959976749 10.5694
46.99546578341598 10.5775
47.019933887188216 10.54
47.04421456235744 10.482000000000001
47.06849747711879 10.4689
47.09278263318286 10.4763
47.11725978640143 10.4608
47.14154944775105 10.4265
47.165841355555656 10.3946
47.1901355115306 10.3948
47.214621741924994 10.384
47.23892041698887 10.3697
47.26322134538975 10.3005
47.28771440635075 10.2678
47.31201986422527 10.2773
47.33632758061436 10.2494
47.360637557241866 10.2279
47.38513974410611 10.224
47.40945426407847 10.2238
47.43377104948137 10.183
47.45809010204344 10.1726
47.48260144275502 10.1816
47.506925052572285 10.1238
47.53125093475548 10.0705
47.55557909103813 10.118
47.58009961361992 10.1129
47.60443234110732 10.0686
47.62876734791564 10.0172
47.65310463578333 10.0208
47.6776343683373 10.0148
47.7019762413987 10.0203
47.72632040075572 9.988389999999999
47.75066684815169 9.97582
47.77520581885936 9.93183
47.799556865477655 9.9436
47.823910205386 9.896519999999999
47.84826584033272 9.86319
47.87281407745551 9.8594
47.89717432569297 9.84571
47.92153687423484 9.8681
47.94609208429692 9.83453
47.97045925671401 9.79867
47.99482873471275 9.749130000000001
48.01920052005013 9.76352
48.04376504619224 9.77835
48.068141469543484 9.77725
48.09252020552573 9.71394
48.11690125590099 9.65284
48.1414751266064 9.67433
48.16586082917454 9.66356
48.19024885144316 9.62168
48.2146391951793 9.61101
48.239222439012764 9.59869
48.26361744916137 9.59645
48.28801478610016 9.61588
48.31241445160131 9.56935
48.337007097209366 9.49667
48.36141144338331 9.55795
48.38581812345755 9.49998
48.41022713920929 9.47455
48.434829215320704 9.48548
48.45924292604658 9.47451
48.48365897780325 9.46295
48.50807737237308 9.42432
48.532688907799276 9.38716
48.55711201168574 9.377469999999999
48.581537463754074 9.34815
48.60615611725119 9.36374
48.63058628942721 9.351189999999999
48.65501881516546 9.32267
48.6794536962573 9.27657
48.70408185970339 9.24796
48.72852147531801 9.243
48.75296345168211 9.17564
48.77740779059232 9.234580000000001
48.80204549302823 9.231580000000001
48.82649458091802 9.23259
48.85094603676547 9.18257
48.87539986237231 9.19643
48.90004713292306 9.1535
48.92450572200832 9.12757
48.94896668628025 9.11974
48.97343002754588 9.07499
48.99808689542115 9.12474
49.02255501470614 9.09561
49.04702551642794 9.03926
49.0714984023988 8.98333
49.096164896893235 9.020769999999999
49.120642575466796 8.989189999999999
49.145122643748394 9.00388
49.16960510355558 8.9333
49.19428125404938 8.96204
49.2187685210852 8.964030000000001
49.243258185121555 8.89754
49.26794160167084 8.89756
49.2924360839405 8.86772
49.31693296869764 8.85159
49.34143225776915 8.832510000000001
49.36612538195438 8.82579
49.39062950396021 8.80971
49.41513603578346 8.75207
49.4396449792564 8.747530000000001
49.46434784069503 8.737630000000001
49.488861631846454 8.716569999999999
49.513377840166804 8.70107
49.537896467493745 8.70018
49.56260909589029 8.6819
49.587132585683285 8.69105
49.611658500018365 8.61899
49.636186840738596 8.631039999999999
49.66090926588511 8.5906
49.685442483902584 8.58324
49.70997813385706 8.55211
49.734516217597076 8.53675
49.75924846937352 8.523719999999999
49.7837914452858 8.49869
49.80833686055187 8.48307
49.83288471702571 8.50102
49.85762682540054 8.48782
49.882179588965734 8.47742
49.9067347993235 8.4393
49.93129245833333 8.417069999999999
49.95604445336378 8.41986
49.98060703442832 8.41184
50.005172069746266 8.36208
50.02993150438364 8.329989999999999
50.05450147301533 8.326080000000001
50.07907390151433 8.32057
50.10364879174981 8.29981
50.12841816587289 8.306000000000001
50.1529980044635 8.32387
50.17758031042124 8.25751
50.20216508562089 8.27019
50.22694442953363 8.215
50.25153416817468 8.23121
50.27612638170508 8.24083
50.300721072005196 8.20048
50.325510416102105 8.17694
50.350110084975064 8.15555
50.37471223628208 8.15958
50.39931687190919 8.13912
50.424116246675766 8.126380000000001
50.44872587605249 8.09483
50.47333799543065 8.07071
50.49795260670191 8.09332
50.52276204271512 8.03355
50.54738166295838 8.0227
50.57200378079314 8.02523
50.596628398116835 8.00409
50.62144792604559 7.99573
50.646077567609396 7.955439999999999
50.670709714377715 7.948110000000001
50.69553683636198 7.9496899999999995
50.72017401885922 7.933439999999999
50.7448137122895 7.9259699999999995
50.76945591856022 7.88725
50.79429318636823 7.8605100000000006
50.818940443716784 7.890960000000001
50.84359021965163 7.839339999999999
50.868242516085964 7.834510000000001
50.893089960641895 7.822
50.917747323549435 7.78647
50.94240721271973 7.780710000000001
50.96706963007175 7.80059
50.99192728239342 7.77632
51.01659478166073 7.77265
51.04126481489051 7.759119999999999
51.06593738400761 7.68808
51.090805275207074 7.67841
51.11548294172845 7.65972
51.14016314993547 7.69273
51.164845901758845 7.66045
51.18972406304274 7.65412
51.21441192780656 7.6386
51.23910234200271 7.62305
51.2637953075678 7.58984
51.288683770237945 7.5437899999999996
51.31338186432707 7.521160000000001
51.33808251561888 7.53855
51.362978729967345 7.517410000000001
51.387684521509755 7.53025
51.41239287610203 7.526730000000001
51.437103795691165 7.47853
51.46201036644977 7.453539999999999
51.486726441956634 7.4203399999999995
51.51144508832545 7.4670000000000005
51.536166307509156 7.43582
51.56108326624387 7.38157
51.58580965706056 7.40908
51.61053862657523 7.37742
51.635270176746864 7.3676699999999995
51.66019755512065 7.35082
51.68493429268881 7.314610000000001
51.70967361681515 7.325810000000001
51.73441552946465 7.28245
51.759353359237934 7.30375
51.7841004750961 7.28866
51.80885018539685 7.273439999999999
51.833602492111254 7.2346699999999995
51.8585508051424 7.21385
51.883308330926425 7.2047
51.90806845906181 7.20194
51.932831191525715 7.1740699999999995
51.95779001977161 7.155889999999999
51.98255798721516 7.1448100000000005
52.00732856494335 7.1136800000000004
52.03229530577543 7.14582
52.057071130455945 7.0982899999999995
52.081849571391054 7.11372
52.106630630568695 7.076160000000001
52.13160794279417 7.0265699999999995
52.15639426492067 7.050680000000001
52.18118321127822 7.05962
52.205974783860896 7.02165
52.23096269971011 6.96605
52.255759551287994 6.98993
52.280559035098186 6.9624
52.30536115314103 6.96448
52.33035970494467 6.929819999999999
52.35516711807904 6.94867
52.37997717147198 6.9146399999999995
52.40478986713005 6.888730000000001
52.42979908731974 6.85987
52.454617094216 6.87725
52.47943774942214 6.83765
52.50426105495102 6.82645
52.529280976059844 6.8190100000000005
52.554109609024096 6.79782
52.57894089837482 6.8064800000000005
52.60377484613117 6.819839999999999
52.62880550079408 6.797160000000001
52.65364479223379 6.73488
52.67848674816189 6.73837
52.70352547971946 6.703110000000001
52.72837279155837 6.69734
52.753222773982785 6.68297
52.778075429022984 6.71335
52.80312495150885 6.675210000000001
52.827982978797436 6.656510000000001
52.85284368481815 6.6457
52.87770707160767 6.6266300000000005
52.90276741793998 6.62908
52.92763619336701 6.58483
52.952507655698504 6.5889
52.977381806977576 6.6043
53.00245301017842 6.5859
53.02733256653592 6.57675
53.052214817996074 6.56285
53.077099766608484 6.526
53.102181859804446 6.48457
53.127072229988265 6.48067
53.15196530349892 6.46702
53.17686108239249 6.48278
53.20195409881522 6.48762
53.22685531582556 6.49354
53.25175924441303 6.426769999999999
53.27666588664027 6.45349
53.30176985962693 6.412999999999999
53.3266819565689 6.39896
53.35159677336455 6.35905
53.376514312083096 6.399859999999999
53.40162927507703 6.41223
53.42655228516116 6.33853
53.45147802340193 6.29473
53.47660125628886 6.2628900000000005
53.50153247842639 6.27555
53.52646643496923 6.3083800000000005
53.55140312799818 6.31677
53.576537409691696 6.28492
53.60147960336152 6.27303
53.626424539786164 6.23631
53.65137222105307 6.23191
53.67651758529126 6.23139
53.70147078399681 6.18159
53.72642673383343 6.19168
53.75138543689533 6.15361
53.776541917524526 6.130330000000001
53.801506154876755 6.1149
53.826473151763246 6.07227
53.851442910284916 6.08465
53.87661054126026 6.07565
53.9015858509782 6.08699
53.92656392866066 6.09491
53.95154477641532 6.0965
53.976723591801296 6.07014
54.00171000771266 6.0292900000000005
54.02669920004598 6.04365
54.051691170915745 6.01818
54.076881204886796 6.004230000000001
54.101878760928514 5.99175
54.12687910187696 5.91413
54.152077577768296 5.92641
54.1770835166946 5.90078
54.20209224691339 5.9160699999999995
54.22710377055121 5.8976
54.25231352511594 5.883319999999999
54.27733066384342 5.8665199999999995
54.30235060239643 5.8487800000000005
54.32737334290836 5.8352
54.35259441062629 5.80966
54.377622783395324 5.81405
54.40265396455061 5.8255300000000005
54.42768795623251 5.781969999999999
54.45292037169559 5.76243
54.477960012857906 5.72665
54.50300247099511 5.70721
54.52804774825457 5.70392
54.55329154616743 5.68516
54.57834249018678 5.68467
54.6033962597977 5.63661
54.6284528571545 5.6389
54.653708072335164 5.57544
54.67877035378786 5.57649
54.70383546947698 5.53601
54.72890342156389 5.576169999999999
54.7541700889442 5.54845
54.77924374251975 5.55224
54.8043202390049 5.47152
54.82959552413022 5.48205
54.8546777351945 5.45116
54.87976279569621 5.406540000000001
54.90485070780914 5.4363
54.930137506558005 5.410880000000001
54.95523115074295 5.38438
54.98032765308844 5.33944
55.005427015775496 5.37709
55.03072536339621 5.3329699999999995
55.05583047570572 5.26636
55.080938454927676 5.27383
55.10604930325027 5.2685
55.131359235107396 5.21286
55.15647585066083 5.19992
55.181595341907496 5.224080000000001
55.20671771104285 5.20185
55.232039262617704 5.16194
55.25716741665048 5.152769999999999
55.28229845518636 5.13351
55.30743238042802 5.0826400000000005
55.33276558731939 5.08549
55.357905315183636 5.050669999999999
55.383047936390035 5.00437
55.40819345314859 4.97722
55.433538351073295 5.01291
55.458689688238415 4.97055
55.483843927614096 4.91432
55.509197623043605 4.8842099999999995
55.53435769621134 4.92079
55.55952067826466 4.88425
55.5846865714265 4.83282
55.61005202069737 4.84525
55.63522376553902 4.8274300000000006
55.66039842818645 4.71517
55.68557601087004 4.81139
55.7109532500271 4.7279599999999995
55.73613670233794 4.72464
