TT I
1.2716486653135266 8.40485
1.2939594142134223 7.75931
1.3162702121660406 7.48445
1.3385810600174564 7.12835
1.3608919586137629 6.742839999999999
1.383202908801069 6.728460000000001
1.405513911425503 6.566089999999999
1.4278249673332093 6.38912
1.4501343378461518 6.457730000000001
1.4724455028545926 5.74999
1.4947567236847858 6.490559999999999
1.517068001182951 6.867560000000001
1.5393793361953272 6.01049
1.5616907295681737 5.946680000000001
1.5840021821477681 6.16122
1.60631369478041 5.85992
1.6286252683124185 5.270519999999999
1.6509369035901333 5.0114
1.6732468618895553 5.20004
1.695558623192809 4.846419999999999
1.7178704487808514 5.10661
1.7401823395001077 5.03261
1.7625012545597203 5.06506
1.7848028405262486 5.05277
1.8071218901122095 5.11901
1.8294236121921872 4.91819
1.8517427996910911 4.8346599999999995
1.8740620574440425 5.37478
1.8963639900671978 4.473
1.9186833908139995 5.14775
1.9409854680117449 5.19907
1.9633050151394713 4.81144
1.9856246367570705 4.9736400000000005
2.0079269371922672 4.60366
2.03024671027244 4.56621
2.0525491637446027 4.3705
2.074869091674931 4.4423
2.097171701569106 4.79131
2.1194917877373847 5.07775
2.141811954326636 4.88535
2.164114805233074 4.9989099999999995
2.186435135143035 4.92746
2.208738150935709 4.98225
2.231058647554722 4.249709999999999
2.2533792288321184 4.32866
2.275682498336085 4.38
2.298003251406138 4.21906
2.3203066942619714 4.825740000000001
2.3426276225136022 4.06522
2.3649486396617507 4.33415
2.387252348930071 5.495
2.4095735463442893 4.37608
2.4318774374315884 4.85278
2.4541988185014043 5.07412
2.476502894794693 4.89963
2.498824462909887 4.92413
2.521146125856138 5.32158
2.5434504863470337 5.6681099999999995
2.5657723414244717 5.25939
2.588076895590662 5.7668
2.610398946189713 6.31755
2.6327210958598384 5.95514
2.6550259469304716 5.95629
2.6773482972090137 6.5526
2.6996533504259 6.739610000000001
2.7219759047039602 6.5770800000000005
2.744298562293959 6.1736
2.7666039251246595 6.615639999999999
2.7889267918020164 7.3444
2.8112323652516555 7.40688
2.833555444408179 7.37662
2.8558786311183852 7.48192
2.8781845268938557 8.233189999999999
2.9005079311721484 8.856539999999999
2.9228140460410397 8.74475
2.9451376712799635 8.7424
2.967444008632326 9.4794
2.9897678582247247 10.0274
3.0120918213106695 10.1722
3.0343984987899373 10.6351
3.0567226913198637 11.1459
3.079029599759726 11.9112
3.101354025127254 12.1103
3.123678568232338 12.1986
3.145985829517914 12.8132
3.16831061055229 13.4762
3.1906181112775593 13.8512
3.212943133635653 15.107000000000001
3.2352682779763207 15.1107
3.2575761442691227 15.562999999999999
3.2799015350264273 15.7932
3.302209649240067 16.5439
3.3245352898092655 16.9535
3.3468436553365257 17.3653
3.369169549113219 17.6964
3.3914955708171384 18.6995
3.413804319727358 19.0219
3.4361305997334863 19.0633
3.4584396084414553 19.8303
3.4807661501462652 20.4392
3.503092824025881 20.6966
3.5254022288463154 21.2635
3.5477291695206588 21.3842
3.5700388426251948 21.9924
3.5923660534916446 22.3951
3.6146934007816114 23.0874
3.637003482731501 23.6354
3.6593311053109985 23.7364
3.681641464033634 23.7159
3.7039693653009733 24.2296
3.726297407241705 24.9677
3.7486081875460804 25.0993
3.7709365132734978 26.028000000000002
3.793247578841633 26.3888
3.8155761917550093 26.5891
3.8378875459837216 26.9607
3.8602164494827234 27.6409
3.882545499606844 28.6484
3.9048572932539183 29.0716
3.9271866390645718 29.7195
3.9494987298666713 30.4384
3.971828374764527 30.7577
3.9941581705403255 31.1059
4.016470713506008 31.9085
4.038800813471445 32.5785
4.061113662089144 33.1223
4.0834440696459176 33.7893
4.105774632334751 33.7126
4.128087945865126 34.6573
4.150418821249301 35.5543
4.172732448931298 36.2811
4.195063640413578 36.906
4.2173775856475215 37.9632
4.239709096631102 38.5705
4.262040768704612 39.0916
4.284355196706267 39.9113
4.306687193387355 40.3621
4.329001947444346 42.4063
4.35133427213731 43.0724
4.373666762177566 44.0411
4.395982011761091 44.9677
4.418314834921175 45.1155
4.44063041906622 46.4317
4.4629635787515625 47.1813
4.4852969080429785 48.3641
4.5076130004776225 50.7597
4.529946671403969 53.2291
4.552263106909177 54.2621
4.574597122877047 54.4267
4.596931312711224 54.9497
4.619248269273446 55.5427
4.6415828092605835 56.8631
4.663900117405352 58.0098
4.686235010953232 59.4492
4.708552674085913 61.2953
4.730887924602802 62.715
4.753223354952695 64.4904
4.775541557023902 66.8462
4.797877349456786 68.59
4.820195915032126 69.6189
4.842532072957498 71.5723
4.864868414979744 73.7142
4.88718753227192 77.0701
4.909524244902505 79.3742
4.931843734218147 81.5685
4.954180820867835 84.2686
4.976518095879839 87.7188
4.998838149695359 91.4927
5.021175803844231 96.2085
5.043496238205739 100.87899999999999
5.065834274903528 106.78
5.088172504230693 114.044
5.1104935158799565 123.09200000000001
5.132832132875765 139.866
5.155153533596801 168.65
5.1774925416746225 288.155
5.199814334878411 894.2760000000001
5.2221537374521505 2197.17
5.244493338631803 3968.24
5.266815727034316 6961.79
5.289155727832427 10556.3
5.311478517248165 9284.41
5.333818921080011 4020.11
5.356159527788849 922.3860000000001
5.3784829252032536 265.65
5.400823940070432 180.935
5.423147747031976 151.515
5.445489173474152 136.707
5.467830807066149 129.109
5.490155234831516 123.829
5.512497285125229 117.852
5.534822130975162 114.54899999999999
5.557164601388673 111.632
5.579489868738879 108.38799999999999
5.601832762690846 106.229
5.6241758697774475 104.76700000000001
5.646501775867269 104.12899999999999
5.668845311622074 103.596
5.691171647754637 102.896
5.713515615597765 101.24600000000001
5.735859800852677 100.93700000000001
5.758186788542988 100.8
5.780531411018185 101.76899999999999
5.802858837297399 101.34100000000001
5.825203900414495 102.59700000000001
5.8475491852224 104.038
5.869877275883075 104.4
5.892223006467101 106.39299999999999
5.914551544266608 109.67399999999999
5.936897724049891 116.831
5.959244129804903 132.468
5.981573344815301 198.91099999999997
6.0039202049061 447.49800000000005
6.026249875609095 886.696
6.04859719346037 1426.57
6.070927323278297 2245.8
6.093275102315365 3733.58
6.115623113320588 4581.46
6.137953938319995 3635.4
6.160302415650845 1364.29
6.182633708324452 344.541
6.2049826554078376 143.892
6.227331838745022 108.04700000000001
6.249663839443684 95.6432
6.27201349767565 88.3122
6.294345974611799 84.4917
6.316696111167083 80.7272
6.339046488263839 78.2934
6.361379686074702 75.9651
6.383730546639482 74.5327
6.406064229255215 72.5288
6.428415576718203 72.6982
6.450749747566656 70.9603
6.47310158535871 69.2011
6.495453669698332 68.6168
6.517788579421056 67.6496
6.540141159237969 66.205
6.562476565766648 65.6712
6.5848296444934045 64.9817
6.607182974060425 64.6383
6.6295191323281015 64.1356
6.651872965955752 62.9508
6.6742096296068985 62.5069
6.6965639707294615 62.4383
6.71891856698715 61.8751
6.741255995248479 60.8085
6.763611104154477 60.4106
6.785949046381137 60.2555
6.808304671371482 60.075
6.8306605557940046 60.3929
6.852999275508618 59.6085
6.875355681171544 58.6978
6.897694923437771 58.6036
6.92005185377892 58.2298
6.9423916220322655 58.2911
6.964749080490181 57.5289
6.987106804399774 57.5811
7.009447368180821 57.6089
7.031805625367033 57.0007
7.054146723727803 56.9779
7.076505517631004 56.6547
7.098864581288365 56.7253
7.121206488070854 56.2269
7.143566093607822 56.2906
7.165908543567245 56.6057
7.188268694426048 56.5408
7.2106291193438095 56.1233
7.232972390625943 56.0873
7.255333366030969 55.5182
7.277677189091925 55.4326
7.300038718428332 55.9717
7.322400526130865 55.5592
7.344745183422596 55.5728
7.367107550224791 55.4368
7.389452767901992 56.0153
7.411815697249891 55.6021
7.434161478756298 55.3095
7.456524974096713 55.3063
7.478888753837185 55.5561
7.501235387657368 56.0685
7.523599738562711 55.9058
7.545946944825532 56.3292
7.568311870344528 57.1546
7.5906770845765665 57.0328
7.613025156078678 57.065
7.635390950099687 57.6234
7.657739602662809 57.4573
7.680105979923558 57.6979
7.702472650212829 57.9958
7.724822180948224 58.1408
7.747189439655568 58.0938
7.769539560075357 58.4767
7.791907410653562 58.68899999999999
7.81425812420825 58.6291
7.836626570110925 59.0986
7.858995315087906 59.8864
7.881346924933401 60.364
7.903716270417482 61.1135
7.926068482028405 61.4196
7.948438431475253 61.9966
7.9708086843180235 62.5078
7.993161805171116 63.41
8.015532667162402 63.7422
8.037886398416653 64.7792
8.060257873014221 65.1181
8.082629655331942 65.8206
8.104984308787587 66.8443
8.127356708900503 67.829
8.149711981398308 69.2557
8.172085002766314 70.0301
8.194458336181368 70.6346
8.216814543847752 71.3543
8.23918850371002 72.9803
8.26154533906492 74.2851
8.283919928836452 76.4184
8.306277395339652 77.2963
8.328652618483376 79.1759
8.351028159736202 81.3064
8.373386579575245 84.2005
8.395762759396959 86.8235
8.418121819038275 90.4951
8.440498640894003 96.4033
8.462875785192262 111.649
8.485235811156207 167.196
8.507613602688501 292.445
8.529974277114228 445.852
8.552352719347912 579.344
8.574731488360351 760.05
8.59709314210385 1084.36
8.619472567021075 1552.73
8.64183487789147 2008.88
8.664214962183097 1902.25
8.686577933647762 1167.16
8.708958680784317 523.504
8.731339760774953 214.899
8.753703729764451 128.513
8.77608547780821 109.92399999999999
8.798450116065078 104.029
8.820832535634787 100.088
8.843215292401656 97.902
8.865580941199045 96.2137
8.887964374703538 94.6188
8.910330701447199 93.4902
8.932714815164482 92.4599
8.955099270424924 90.8162
8.977466620733543 89.5708
8.999851761421976 89.1772
9.022219798361645 88.3593
9.04460562795561 88.3783
9.066991803441677 87.8343
9.089360876979615 87.9938
9.111747746589993 87.6955
9.13411751544971 87.2282
9.156505082664324 86.6199
9.178875550323522 86.2609
9.20126381862328 85.9014
9.223652438908596 86.5826
9.246023961427412 86.6269
9.26841328802173 86.7093
9.290785518039224 86.902
9.313175554425882 87.9114
9.335565947154315 87.9858
9.357939245086508 88.6021
9.380330352834827 88.4309
9.40270436697103 88.3474
9.425096193225055 88.2932
9.447488380180165 89.12299999999999
9.469863475295412 89.0628
9.492256385987508 89.6431
9.514632206018318 90.0876
9.537025843935714 90.5292
9.559402392368193 91.165
9.581796761000229 92.7941
9.604191496441521 93.5952
9.626569144158516 94.5691
9.648964615551032 95.2033
9.671343000390081 95.7537
9.693739211225699 96.5321
9.716135793237463 97.5776
9.738515290448102 98.6144
9.760912617143402 99.9569
9.783292860202891 101.944
9.805690935076182 102.84899999999999
9.828089385495742 104.21700000000001
9.850470754023561 106.67299999999999
9.872869957865444 109.235
9.89525208097539 112.149
9.917652041736662 118.13600000000001
9.940052382417589 138.224
9.962435644102392 203.308
9.984836746950979 304.941
10.007220771957746 412.592
10.029622640473708 512.701
10.052007432299963 638.987
10.074410069984072 808.8610000000001
10.096813093716005 1090.82
10.119199042482517 1472.78
10.141602840636468 1788.57
10.163989564971628 1698.05
10.186394141051062 1143.34
10.208799107559706 532.437
10.231187001965623 246.012
10.253592751657669 146.765
10.275981430388155 123.507
10.298387966769793 117.352
10.320794897965431 114.37700000000001
10.343184759907361 112.48899999999999
10.36559248305461 110.99799999999999
10.387983138083852 115.12799999999999
10.410391656691655 132.155
10.432800574501677 158.866
10.455192425893369 186.204
10.47760214443012 210.62099999999998
10.499994797678786 238.75900000000001
10.522405320453982 285.157
10.54479877906917 359.983
10.567210109595656 451.895
10.5896218454736 533.621
10.612016518879773 537.1469999999999
10.634429067781074 406.06800000000004
10.656824555333241 246.208
10.679237920773568 148.613
10.701651695961992 106.715
10.724048411481384 95.6865
10.746463008485165 92.2673
10.768860546937125 90.2418
10.791275969274796 87.9144
10.81369180576079 86.4595
10.836090585366925 85.303
10.858507252467449 83.7026
10.88090686379991 83.1177
10.903324365036394 81.9428
10.925724811614439 80.7771
10.948143150509463 80.4985
10.970561909719066 79.4361
10.992963615930844 78.7766
11.015383218085756 77.5649
11.037785768347074 76.4318
11.06020621697282 75.9868
11.082627090322113 75.2329
11.105030913430326 74.5309
11.12745263854165 74.0572
11.149857314510728 73.1003
11.172279894912576 72.9839
11.194702904450653 72.041
11.217108866490921 71.2526
11.239532736615194 71.2002
11.26193956033512 70.9277
11.284364294577085 70.6457
11.306789462371718 70.2437
11.329197585398376 69.98899999999999
11.351623622610898 69.9844
11.37403261614354 69.0919
11.396459526308487 68.8873
11.418869393879497 68.3015
11.441297180532617 68.0962
11.463725406927658 67.7664
11.486136592353875 67.176
11.508565700543707 66.8452
11.530977768845315 67.2614
11.553407762368774 66.4236
11.575838200059769 66.178
11.598251599479612 66.1643
11.620682927815501 66.1146
11.64309721895548 66.1169
11.665529441478206 66.0716
11.687962112597958 65.6448
11.710377748130886 65.8169
11.732811318753434 65.8155
11.755227854859067 65.7628
11.777662328529495 65.5168
11.800079768750786 65.2747
11.822515149015453 65.0505
11.844950984084935 65.5284
11.867369787303163 65.3647
11.889806534289491 65.3073
11.912226250487029 65.8999
11.934663912939751 65.9951
11.9571020346363 66.0694
11.979523127133968 66.5563
12.001962169624331 68.5965
12.024384183972964 72.9279
12.046824150809913 80.1099
12.069264581333726 87.57700000000001
12.091687985297767 93.7282
12.11412934550045 100.32
12.136553680195208 109.781
12.158995973632788 123.719
12.181438735204349 141.914
12.20386447284199 165.584
12.226308172985636 194.03400000000002
12.24873485024193 206.188
12.271179492516982 181.8
12.293607112949127 143.319
12.316052700916226 101.619
12.338498763250042 78.0653
12.360927805303868 69.77600000000001
12.383374818673879 67.6874
12.405804812803074 67.0322
12.428252780773262 67.0885
12.45070122756722 66.90899999999999
12.473132656675375 67.0158
12.49558206341869 67.0177
12.518014453510101 67.1318
12.540464823770117 67.2376
12.562915677315177 67.3289
12.58534951575545 67.6617
12.607801338171472 67.7519
12.630236146511358 68.2384
12.652688941369085 68.5833
12.675124723177234 68.874
12.697578494048786 69.3652
12.720032754458185 69.4136
12.742470003354093 70.2645
12.764925245138771 70.6162
12.787363476431278 71.1517
12.809819703166806 71.7249
12.83227642391173 72.4095
12.854716135692716 73.0149
12.877173846755147 74.2714
12.899614549869717 74.6418
12.9220732548287 75.7698
12.94453245827299 76.315
12.966974655289818 77.5631
12.989434858002571 78.3924
13.011878055298721 79.0839
13.034339260862497 80.7042
13.056800969391883 82.5771
13.079245674017244 86.6557
13.101708390774869 95.0439
13.12415410463411 111.331
13.146617833206086 130.415
13.169064559883248 145.843
13.191529303857127 159.119
13.213994557076367 174.78099999999998
13.236442809902437 198.322
13.258909083908291 232.144
13.28135835851934 272.443
13.30382565690295 327.724
13.326293469022952 388.577
13.348744283242008 423.856
13.371213125129904 389.10400000000004
13.39366497011003 303.128
13.416134845360597 207.235
13.438605238843131 147.546
13.46105863690397 129.347
13.483530069144786 133.263
13.505984506951902 142.265
13.528456981549432 152.042
13.550929978879088 161.373
13.573385983253365 175.468
13.595860028340867 198.265
13.618317081455832 228.775
13.64079217790333 269.281
13.663250283359057 316.194
13.685726434770173 355.26099999999997
13.708203115221277 360.256
13.730662806148091 302.262
13.75314054697177 222.357
13.775601299246777 151.911
13.798080104050406 109.039
13.820559442405358 91.9542
13.843021793671388 86.7369
13.865502201420897 84.7106
13.887965623051947 83.8567
13.910447103807167 82.8389
13.932929122629764 81.1354
13.955394156785959 80.9514
13.977877254034569 79.8575
14.000343367582113 78.9119
14.022827546871707 77.9915
14.045294743423524 77.375
14.06778000837062 76.8792
14.090265817715476 76.7653
14.112734645763819 75.9137
14.13522154619454 75.2138
14.157691466286913 75.1874
14.180179461423874 74.9681
14.202668005486178 74.4514
14.22513957064374 74.2068
14.247629214846473 73.8508
14.270101881097517 73.5692
14.29259262906496 73.3776
14.315083930490205 73.3128
14.337558255389705 72.9006
14.360050666019726 72.8694
14.382526101071944 72.5896
14.405019624534942 72.4143
14.427513705993134 72.1568
14.449990813291825 72.3458
14.47248601302899 72.3159
14.49496423954951 72.3246
14.517460561197822 72.4142
14.539939910570322 72.0039
14.562437357763558 72.2819
14.58493536931253 72.5694
14.607416409993311 72.5866
14.62991555254159 73.2857
14.652397725157423 73.2978
14.674898002342799 73.9138
14.697398848433282 74.7311
14.719882725991326 77.1475
14.74238471217934 81.5374
14.764869730765593 88.6897
14.787372860692983 94.9969
14.809876564079925 100.809
14.83236330125751 105.911
14.854868153850365 111.587
14.877356041159485 120.213
14.899862046604186 131.184
14.922351087688757 146.548
14.944858249632887 166.334
14.967365991421232 189.43099999999998
14.989856770231246 210.795
15.012365673994204 221.791
15.03485761569738 203.997
15.05736768508665 167.372
15.07987833888692 129.217
15.102372032001655 99.9563
15.124883856909658 83.1542
15.14737872204565 76.8297
15.169891721717274 74.2073
15.192405310371893 73.4201
15.214901940621196 72.917
15.237416709527137 72.1668
15.259914520936249 72.0219
15.282430473753607 71.5722
15.304947020131227 70.7371
15.327446610371178 70.3974
15.349964346154254 70.1856
15.372465126703139 69.971
15.394984055556009 69.98
15.417486030076159 69.8577
15.44000615566487 69.3251
15.462526881230803 69.3505
15.485030653812652 69.0487
15.507552581617434 69.0294
15.530057557334603 69.0854
15.55258069104857 69.3574
15.575104429329837 69.8337
15.597611216864632 69.6943
15.620136166564563 71.20100000000001
15.6426441664095 75.3914
15.665170331202765 80.7182
15.687697105158826 86.0758
15.710206930593545 90.49700000000001
15.732734925158933 94.2229
15.755245972089478 97.9369
15.77777519094324 103.91799999999999
15.800287463046663 112.1
15.822817909869592 122.73100000000001
15.84534897229804 136.24
15.867863089299354 153.389
15.890395385222186 173.40400000000002
15.912910736597423 190.58
15.935444269699861 192.217
15.957978423016485 170.81400000000002
15.980495633101265 139.70600000000002
16.003031029129367 109.29700000000001
16.02554948280019 84.2872
16.048086125229432 72.084
16.070623392487107 67.3425
16.09314371869582 65.5188
16.11568223789321 64.343
16.13820381691126 63.7593
16.160743591742527 63.455
16.183283996022084 62.9959
16.205807461423195 62.0177
16.228349126881973 61.6046
16.25087385432698 61.4753
16.27341678466365 60.9598
16.29594277784926 60.5005
16.31848697676433 60.1481
16.341031811604868 59.3656
16.36355971058487 59.4054
16.3861058195587 59.2129
16.40863499352978 58.5806
16.431182380342005 58.5307
16.453730407713202 58.3662
16.476261501364792 58.207
16.498810812136167 57.9634
16.52134319004079 57.8199
16.54389378792203 57.746
16.566445031001553 57.5385
16.588979342490088 57.4324
16.61153187824822 57.5161
16.634067483263312 57.2656
16.656621315414416 57.1308
16.679175797408888 56.792
16.701713349928728 56.9807
16.72426913389191 57.2615
16.74680798922351 57.0932
16.76936507887444 57.1887
16.791905240734874 57.2138
16.814463639794468 56.975
16.837022695210294 57.0632
16.859564824093756 57.4363
16.882125194503903 57.3365
16.904668639217885 57.5937
16.927230328348003 57.5579
16.949792678493612 57.7113
16.972338104193863 57.7543
16.994901778652235 57.9113
17.017448529496576 58.2551
17.040013531998152 59.1817
17.06257920018044 60.3581
17.0851279459922 61.5471
17.107694947817667 62.8783
17.130245028099072 63.5521
17.15281336730298 64.5098
17.17536478578733 65.6533
17.19793446610687 67.2706
17.220504818648422 69.0084
17.243058251703697 70.9953
17.265629950971032 74.3002
17.288184731571736 77.9772
17.310757781306908 82.5445
17.33333150794385 85.0081
17.355888317140174 85.1294
17.37846339986244 82.6338
17.401021565958885 76.7643
17.42359800851343 70.7967
17.44617513265564 66.4249
17.468735341390783 63.7668
17.491261035594565 62.3507
17.51396340099364 61.823
17.536490463869136 61.9132
17.559018209820174 61.9476
17.58154663977963 62.1116
17.604251766089718 62.1869
17.626781572227713 62.6044
17.64931206518155 62.6769
17.671843245885103 62.919
17.69455114821572 63.0345
17.717083712612634 63.3118
17.739616967569667 63.9307
17.762150914021706 64.2937
17.78486160749854 65.0491
17.807396945166804 66.4521
17.829932977143503 69.0923
17.85246970436452 72.1211
17.875183204129467 75.1124
17.897721330097664 78.0254
17.920260154126645 80.3531
17.942799677153296 82.4163
17.9655159983646 84.9283
17.988056927677544 88.3409
18.010598558807683 93.3045
18.033140892692916 99.4863
18.05586005052525 106.712
18.07840379824407 116.15700000000001
18.10094825154059 128.047
18.12366954819864 139.547
18.146215420998306 145.376
18.16876200220057 143.143
18.191309292745153 131.909
18.214033452627167 116.65799999999999
18.236582170236648 102.285
18.259131600016456 93.3092
18.281681742907335 89.4315
18.304408781233683 90.2899
18.32696035875955 92.9127
18.349512652227624 97.2345
18.372065662579683 102.82700000000001
18.394795594587553 106.65700000000001
18.41735004715306 106.334
18.43990521943684 100.946
18.46246111238171 93.1714
18.485193953325208 82.8361
18.507751296070428 74.5485
18.530309362314178 69.5589
18.552868153000343 66.7993
18.57560391815056 65.2106
18.59816416623245 64.7095
18.620725141597372 64.2472
18.643286845190268 63.6497
18.666025549835414 63.3642
18.688588718427933 62.715
18.711152618092243 62.4729
18.73389353884365 62.1241
18.75645890921984 61.6409
18.77902501351406 61.4926
18.801591852673102 61.3924
18.824335739722738 60.5669
18.846904057212626 60.7524
18.8694731124168 60.4782
18.89204290628315 60.4917
18.914789774966803 60.235
18.937361054791623 59.8126
18.959933076131318 59.7584
18.982505839934877 59.692
19.00525570560582 59.8442
19.027829963004184 59.7596
19.05040496572238 59.8405
19.072980714710468 60.3084
19.095733592739563 60.7784
19.11831084296757 61.2599
19.140888842324735 61.6244
19.16346759176222 61.801
19.18622349753803 62.1251
19.208803755869358 62.8355
19.231384767143577 63.6356
19.253966532312948 64.6601
19.276725481241822 65.8936
19.29930876296784 67.0396
19.3218928014549 69.1764
19.34465404436217 71.4796
19.36723960516257 74.2198
19.389825925592426 76.7143
19.412413006605938 77.5138
19.43517731967805 75.7565
19.457765930683355 72.416
19.48035530514408 68.0675
19.50294544401556 63.4157
19.525712842708348 59.9194
19.54830451925909 58.2096
19.570896963095727 56.7904
19.593490175174704 56.4562
19.616260674962184 56.2507
19.638855432416964 56.1288
19.661450960992624 56.2766
19.68404726164677 56.3133
19.706820878021247 55.9998
19.729418731756834 56.1429
19.752017360452857 55.8692
19.77461676506804 56.5588
19.797393513540218 57.0157
19.819994478951667 57.4572
19.84259622316767 58.0084
19.8651987471481 58.5058
19.887978643247177 58.8303
19.91058273574792 58.9397
19.933187610901943 59.3793
19.955969879466828 60.3575
19.97857632894404 61.2885
20.00118356396599 62.5023
20.023791585494575 64.2672
20.046577028914875 66.3449
20.069186632506966 68.4887
20.091797025500632 70.867
20.114408208858933 72.6699
20.137196842715273 73.3499
20.159809615886765 72.7838
20.18242318232135 70.2842
20.20503754298326 67.6448
20.227829382875154 65.6347
20.250445341109344 64.2524
20.27306209647285 63.8062
20.29567964993108 64.5668
20.31847471147704 65.6303
20.34109387027612 66.7612
20.363713830075454 67.6882
20.386334591841646 67.2322
20.409132890679302 65.1175
20.431755265564437 62.1373
20.454378445325528 58.8512
20.477002430930366 56.3698
20.499803982716553 54.5941
20.522429589228004 53.4838
20.54505600449589 52.8622
20.567683229489194 52.9193
20.590488049900088 52.6633
20.61311690359731 52.6054
20.63574656993626 52.3936
20.658553853717297 51.8305
20.681185154618298 51.8803
20.703817271080066 51.7999
20.72645020407368 51.3437
20.749260783967177 51.3526
20.771895359337133 51.2858
20.794530754161617 51.2095
20.817166969412938 50.9629
20.83998086114876 51.2151
20.86261872660049 51.0366
20.885257415405402 51.0198
20.90789692853701 51.0528
20.930714147864748 51.0533
20.953355319030678 51.2028
20.97599731745334 51.3296
20.99864014410749 51.0074
21.021460706796564 51.1027
21.044105199328826 51.3471
21.06675052302631 51.4995
21.089396678865015 51.4803
21.112220600704806 51.7563
21.134868430275347 51.9391
21.15751709492456 51.9657
21.180166595629693 52.1264
21.202993892429635 52.5365
21.22564507473034 53.1245
21.24829709602816 53.2746
21.27112693608965 53.7018
21.293780644891275 53.8446
21.316435195634053 53.2886
21.339090589297417 52.6935
21.361923832041875 52.2446
21.384580921090404 51.5489
21.407238856007325 50.9683
21.429897637773326 50.8874
21.45273429906592 50.8067
21.475394784108598 50.7284
21.498056118951983 50.6023
21.520718304578022 51.0979
21.543558400304388 51.3723
21.566222297108816 51.7474
21.58888704765135 52.0307
21.61155265291521 52.6302
21.63439619898156 53.2731
21.657063523335786 53.3468
21.67973170537063 53.7607
21.7024007460706 54.2851
21.72524775840385 54.7217
21.747918526116475 55.5146
21.770590155457388 56.4299
21.79326264741238 57.7528
21.816113141960237 58.8649
21.838787368860547 60.2344
21.861462461341976 61.8127
21.884315579735777 63.6864
21.90699241312273 65.3773
21.92967011506078 66.7292
21.95234868653799 67.4825
21.9752053151131 67.0268
21.997885635446785 65.3136
22.020566828293532 63.2124
22.04324889464272 60.6509
22.066109049404666 58.5733
22.088792872571794 57.6841
22.111477572219204 57.6303
22.1341631493376 58.0753
22.157026846313123 58.3263
22.179714188221507 58.0477
22.202402410582668 57.2934
22.22509151438863 55.6935
22.24795876962584 54.3441
22.270649646204486 53.2716
22.293341407213727 52.3866
22.316034053646906 51.6403
22.338904883215342 51.383
22.36159931041458 51.2023
22.38429462602756 50.9463
22.40699083104897 50.9071
22.429865251039757 50.8324
22.452563244831367 50.7589
22.47526213102522 50.7671
22.49813925616515 50.7704
22.520839937143307 50.8745
22.543541513520587 50.9895
22.56624398629403 50.8123
22.589124730075895 51.0011
22.611829005656723 51.4094
22.63453418063466 51.5602
22.657240256008077 51.7423
22.680124634582935 52.0401
22.70283252079775 52.2666
22.725541310413075 52.5306
22.74825100442868 52.606
22.771139033969575 52.9197
22.79385054687155 53.048
22.81656296718292 53.6681
22.83927629590484 54.2156
22.862167992606945 54.9311
22.88488314827121 55.316
22.907599215359284 56.1378
22.93031619487366 57.0317
22.953211574954405 57.9942
22.975930389478226 59.1293
22.998650119445763 59.9064
23.02137076586092 59.9843
23.044269845560063 59.1085
23.06699233506288 57.7461
23.089715744034912 56.1527
23.112617610931565 54.1324
23.135342869061212 52.773999999999994
23.158069049684816 51.9685
23.1807961538087 51.3972
23.20370174880544 51.4594
23.226430710184808 51.4807
23.249160598093425 51.7467
23.271891413539002 51.7436
23.294800752937697 51.9518
23.31753343374794 52.0849
23.340267045128353 52.2009
23.36300158808808 52.2682
23.38591468821339 52.5055
23.408651104658304 52.6961
23.431388455719986 53.071000000000005
23.454126742409 53.5032
23.4770436196085 54.1241
23.499783787914662 54.9688
23.522524894889884 55.5569
23.54526694154616 56.3704
23.56818761219047 57.5615
23.59093154860734 58.6164
23.613676427751283 59.7255
23.636422250635754 59.5724
23.659346731118656 58.4502
23.68209445191868 57.0224
23.704843119509587 54.8728
23.72759273490623 52.7647
23.750521041644767 50.9208
23.77327256312355 49.7784
23.796025035462787 48.8941
23.818956224555475 48.2422
23.841710609113413 48.2861
23.86446594758979 47.8067
23.887222241002014 47.6951
23.910157285144578 47.2303
23.932915498962537 47.2552
23.955674670778713 47.0155
23.978434801611975 46.7194
24.001373717286125 46.7272
24.024135776723917 46.68600000000001
24.046898798245582 46.6229
24.06966278287146 46.5954
24.092605586582614 46.3343
24.115371508023642 46.0097
24.1381383956401 46.0889
24.16090625045381 45.9712
24.183852958731244 45.7995
24.206622758582608 45.6536
24.229393528706886 45.5847
24.252165270127392 45.6401
24.27511589952438 45.6339
24.297889594216997 45.3703
24.32066426328598 45.1593
24.34343990775613 45.2483
24.36639447485003 45.1157
24.38917208083877 45.0916
24.41195066531332 45.00899999999999
24.43490819850244 44.9912
24.457688750692377 44.9446
24.48047028445616 44.7823
24.503252800821233 44.7522
24.526214300784112 44.8754
24.548998793132213 44.9338
24.57178427117417 44.7239
24.59457073593893 44.7067
24.617536219319863 44.8592
24.64032466834748 44.8811
24.663114107195035 44.7418
24.685904536893013 44.4884
24.708874020360852 44.46
24.731666442613744 44.4114
24.754459858818787 44.3026
24.777254270007962 44.1538
24.80022777025625 44.2619
24.82302418230472 44.1594
24.845821592443674 44.3218
24.86862000170663 44.2566
24.891597535453727 44.1578
24.914397953892728 44.4431
24.93719937456671 44.2907
24.96000179851076 44.4854
24.98298338249997 44.6366
25.00578782394922 45.0318
25.028593271784167 44.9462
25.05157790644186 45.1937
25.07438537804115 45.1966
25.097193859145293 45.4667
25.120003350792075 45.5776
25.142992065061257 45.952
25.165803588823465 46.3836
25.18861612625217 46.5533
25.211429678386736 46.4644
25.234422489079968 46.5035
25.257238081693636 46.3355
25.280054692141732 46.38399999999999
25.3028723214652 46.4261
25.325869245420463 46.5689
25.348688923599397 46.4966
25.371509623787006 46.6216
25.394331347025812 46.6241
25.41733240110666 46.5574
25.440156181590016 45.7834
25.46298098826268 45.2282
25.48580682216873 44.4643
25.50881202326435 43.8119
25.53163992281684 43.4767
25.55446885274561 43.0328
25.577298814096377 42.8667
25.600308179121807 42.7243
25.623140214533745 42.7928
25.64597328451537 42.6377
25.66898578564376 42.3811
25.691820936010206 42.4091
25.714657124097695 42.5314
25.737494350954734 42.4645
25.760511045684957 42.479
25.783350361364224 42.3451
25.806190718969255 42.3717
25.82903211955018 42.4408
25.852053024868923 42.4044
25.874896522722523 42.5096
25.897741066713106 42.3573
25.920586657892454 42.4226
25.943611790812668 42.5373
25.966459487728237 42.5798
25.989308234998564 42.6394
26.01215803367705 43.0088
26.03518741123814 43.0135
26.05803932412957 42.9745
26.080892291600094 43.1339
26.10374631470478 43.3285
26.12677995397268 43.5074
26.14963609978026 43.6485
26.172493304397875 43.2253
26.19535156888223 43.1396
26.218389486949604 42.8197
26.241249882640123 42.6213
26.26411134137826 42.3964
26.28715248187403 42.2522
26.31001607820869 41.9924
26.3328807407756 41.8569
26.35574647063438 42.1342
26.37879191991473 42.0246
26.401659795896734 42.0703
26.424528742360263 42.2262
26.447398760366614 42.3137
26.470448535598294 42.3759
26.49332070826805 42.4174
26.516193955675355 42.8731
26.53906827888316 42.8228
26.562122397260108 42.8582
26.584998883685063 43.2148
26.607876449110325 43.428999999999995
26.63075509460056 43.56
26.65381357334404 43.8755
26.67669439061878 43.851000000000006
26.699576291163382 43.9462
26.722459276044212 43.8988
26.745522132402975 43.6862
26.768407297649354 43.3826
26.791293550442003 42.8775
26.814180891848974 42.5964
26.837248143099337 42.2781
26.860137673466657 42.2071
26.88302829566349 41.8807
26.90592001075963 41.8863
26.92899167420566 41.8232
26.951885586870763 41.3969
26.974780595655517 41.2957
26.99785558178161 41.0717
27.020752794605112 40.8347
27.043651106772522 40.6974
27.06655051935668 40.655
27.089629948036183 40.5218
27.112531573292053 40.4526
27.135434302194138 40.4089
27.158338135817015 40.345
27.181422024430987 40.3451
27.204328079372566 40.11
27.22723524226965 40.1979
27.250143514198573 40.3473
27.273231880156334 40.3794
27.296142382065014 40.1687
27.319053996245536 40.1472
27.341966723775965 40.0742
27.365059584515222 40.1975
27.38797455070062 40.1718
27.410890633481237 40.0613
27.433807833936918 40.0607
27.456905206923906 40.1376
27.47982465472398 40.0716
27.502745223449743 40.2195
27.525666914182825 40.236
27.548768816912457 40.2412
27.571692763693633 40.3709
27.59461783573812 40.1431
27.617723149491244 40.1071
27.640650484125285 39.9883
27.66357894728264 39.965
27.686508540048052 39.9634
27.709618414237887 39.8907
27.732550278321757 39.5801
27.755483275279115 39.5925
27.778417406196485 39.6002
27.801531858397514 39.5515
27.824468269376716 39.5539
27.847405817586786 39.5359
27.870344504116094 39.67
27.893463551932008 39.6472
27.916404527281053 39.8853
27.93934664422563 39.8878
27.962289903855886 39.938
27.98541356491974 40.1498
28.00835912214229 40.3093
28.03130582533231 40.4654
28.054253675581805 40.669000000000004
28.077381967556104 40.6307
28.100332124185126 40.5594
28.123283431160893 40.4469
28.146235889577238 40.468
28.169368830154156 40.3134
28.192323603752033 40.3164
28.215279532083304 39.8473
28.238415973016764 39.4929
28.261374223145094 39.4234
28.284333631303806 39.3364
28.307294198589954 39.0796
28.330435319167677 38.8112
28.353398217078915 38.6939
28.376362277420153 38.6047
28.39932750129032 38.2542
28.422473319286713 38.0743
28.44544088262495 37.9277
28.468409612800283 37.868
28.491379510913497 37.7413
28.51453004413313 37.471
28.53750229057244 37.4106
28.56047570826344 37.3491
28.583450298308804 37.4344
28.606605564586562 37.1741
28.629582511831156 37.3119
28.65256063474956 37.1825
28.675539934446338 37.2064
28.698699951647605 37.1755
28.72168161743193 36.961999999999996
28.74466446331978 37.0191
28.767648490417624 36.9815
28.790813276438353 36.7978
28.813799678527303 36.8641
28.836787265157085 36.7618
28.859955641890075 36.8008
28.882945610203045 36.8056
28.905936766392035 36.7419
28.928929111566863 36.7692
28.952102288520145 36.8736
28.975097024308607 36.7176
28.998092952423807 36.481
29.021090073977508 36.4667
29.04426806913204 36.352
29.067267590245258 36.2299
29.090268308143695 36.1175
29.11327022394099 36.1716
29.13645305530891 36.0466
29.159457379627167 35.9189
29.18246290519685 35.8572
29.20546963313352 35.7711
29.22865731875826 35.8485
29.25166646419296 35.6532
29.27467681535305 35.689
29.29768837335608 35.7152
29.320880931312562 35.6578
29.34389491580634 35.6335
29.366910110507334 35.5055
29.38992651653503 35.6443
29.41312396492981 35.6367
29.436142806456754 35.6428
29.45916286268059 35.4915
29.48236399319994 35.4115
29.50538649169417 35.344
29.528410208259935 35.2677
29.55143514402014 35.0695
29.574641196749695 34.874
29.597668583816574 34.8267
29.6206971934585 34.6123
29.64372702680042 34.6137
29.666938019934474 34.5097
29.689970313635285 34.5005
29.713003834422636 34.4323
29.73603858342347 34.2863
29.759254535188578 34.3603
29.78229175361658 34.3748
29.80533020365064 34.2774
29.82836988641968 34.3205
29.85159081507472 34.1342
29.874632976355343 34.1843
29.89767637376955 34.2632
29.920721008448314 34.0387
29.9439469322847 34.1435
29.96699405457564 34.0201
29.9900424175358 34.0022
30.013092022298157 33.8326
30.03632295963995 33.8038
30.059375061131373 33.9483
30.08242840783577 33.9259
30.105483000888153 33.8368
30.128718970092244 33.7765
30.151776069006917 33.7817
30.17483441768648 33.8163
30.198074175317235 33.8261
30.221135036724256 33.7255
30.24419715131772 33.7586
30.267260520236203 33.6941
30.290505341942243 33.7717
30.313571232750228 33.8887
30.336638381310948 33.7327
30.35970678876503 33.7161
30.38295669299435 33.6283
30.40602763151657 33.6143
30.429099832366074 33.5761
30.452173296685572 33.4932
30.47542830191959 33.4541
30.498504306502497 33.4518
30.521581577995562 33.4421
30.544660117543582 33.5981
30.56792024229725 33.5908
30.59100133132069 33.4016
30.614083691845494 33.4443
30.637167325018545 33.3722
30.660432587840603 33.5719
30.683518779717886 33.475
30.70660624769615 33.5944
30.729694992924372 33.6062
30.75296541239743 33.6198
30.77605672557558 33.5757
30.799149319462742 33.3355
30.8224236211637 33.3445
30.845518789950724 33.3192
30.868615242910597 33.2557
30.891712981195973 33.1591
30.91499247215866 33.0127
30.938092794619365 32.9426
30.96119440587579 32.965
30.984297307082752 32.8663
31.00758200598383 32.7336
31.030687500658694 32.5722
31.053794288760695 32.4522
31.076902371446767 32.4384
31.100192296997445 32.5944
31.12330298246119 32.4533
31.14641496599209 32.3374
31.169528248749216 32.3468
31.19282341969534 32.2877
31.215939314557186 32.3599
31.239056512134788 32.257
31.262175013589378 32.2557
31.28547544871168 32.2089
31.30859657161541 32.1753
31.331719001892175 32.2038
31.35484274070538 32.1896
31.378148458819545 32.176
31.401274828443725 32.2026
31.424402510106933 32.1802
31.447712205419993 32.2616
31.470842524931633 32.0558
31.493974159989783 32.0944
31.51710711176168 32.1171
31.54042212308802 32.196999999999996
31.563557722100917 32.2093
31.586694641341655 32.0419
31.609832881979628 31.8673
31.63315322823208 31.918000000000003
31.656294125521327 31.7927
31.679436347728515 31.6977
31.70257989602529 31.5852
31.725905596152327 31.5782
31.74905181052835 31.5447
31.772199354521323 31.406999999999996
31.79534822930507 31.4847
31.818679302290967 31.5152
31.84183085259981 31.48
31.864983737233473 31.418000000000003
31.88813795736804 31.3845
31.911474422233013 31.2339
31.934631327356435 31.3979
31.9577895715215 31.3547
31.980949155906522 31.3672
32.004291031706956 31.2477
32.027453310562606 31.1626
32.05061693318573 31.1187
32.07396288236386 31.1194
32.09712920658542 31.0527
32.12029687812702 30.929000000000002
32.14346589817093 30.7741
32.166817291729984 30.7778
32.18998902288583 30.7033
32.21316210610336 30.6977
32.23633654256711 30.5059
32.259693399663725 30.5121
32.282870556771144 30.3446
32.30604907069099 30.3967
32.329228942610065 30.3462
32.35259128243769 30.2416
32.375773884550505 30.2421
32.398957848235646 30.1658
32.422143174682176 30.1084
32.445511016471215 30.0951
32.468699082679954 29.9577
32.49188851523011 29.9919
32.51507931531304 29.9814
32.538452678331 29.8856
32.56164622776311 29.7526
32.58484114831493 29.7244
32.60803744118015 29.7186
32.631416344731896 29.7902
32.654615396551876 29.756
32.67781582427913 29.645
32.701198898634416 29.6673
32.72440209253756 29.581
32.747606665947124 29.5111
32.77081262006088 29.3454
32.79420126883317 29.3358
32.81740999876112 29.433000000000003
32.840620112999424 29.2436
32.86383161274818 29.287
32.88722585534586 29.2959
32.91044014056596 29.2911
32.933655814909734 29.2133
32.95687287957963 29.2415
32.98027273544904 29.1344
33.00349259526636 29.0789
33.026713849030116 29.0691
33.04993649794511 28.9896
33.073341986570746 29.0372
33.09656744032826 28.9608
33.11979429286444 29.0239
33.14302254538647 29.0226
33.166433686291185 28.8585
33.18966475336992 28.8754
33.212897224069096 28.7521
33.23613109959831 28.8004
33.259547912343415 28.686999999999998
33.2827846121627 28.8139
33.306022720453775 28.7544
33.32926223842861 28.6224
33.352684742614166 28.6838
33.37592709463173 28.6227
33.399170859982064 28.5041
33.422597648419426 28.4297
33.44584425514446 28.2707
33.46909227885668 28.2035
33.4923417207723 28.1794
33.51577423505344 28.226999999999997
33.539026528130385 28.0769
33.56228024307245 28.0867
33.585535381098246 27.9293
33.60897364093058 27.9282
33.63223163992385 27.9343
33.6554910656699 27.8181
33.678751919389796 27.8425
33.702195944520106 27.7825
33.72545966903325 27.7473
33.74872482519663 27.6623
33.771991414233746 27.6198
33.79544122444841 27.6738
33.81871069412428 27.6224
33.84198160035767 27.5786
33.86525394437455 27.5467
33.88870955949969 27.421999999999997
33.911984794020626 27.3597
33.93526147001624 27.4098
33.958539588715006 27.3242
33.98200102861669 27.3088
34.0052820477047 27.1698
34.02856451319451 27.2039
34.05203033759056 27.0878
34.07531571090147 27.0985
34.09860253431845 27.1125
34.121890809074316 27.0197
34.145362493118924 26.9944
34.16865368561615 26.9148
34.191946333164054 26.8694
34.21524043699793 26.863000000000003
34.23871800066799 26.7959
34.26201503218366 26.7772
34.28531352370466 26.6959
34.30861347646881 26.6208
34.33209693978188 26.6376
34.3553998301885 26.5914
34.378704185565205 26.528000000000002
34.402010007152356 26.5026
34.42549939016683 26.4476
34.44880815937748 26.3223
34.472118398533134 26.3854
34.49543010887669 26.323
34.51892543169198 26.1666
34.54224009966052 26.2539
34.56555624255917 26.1766
34.58887386163339 26.1277
34.61237514439016 26.0278
34.6356957311114 26.1068
34.65901779775809 26.0992
34.68252356662995 25.8942
34.705848608458616 25.9913
34.72917513396849 25.9629
34.75250314440949 25.8762
34.77601490857862 25.7764
34.799345904259795 25.7254
34.82267838863559 25.8203
34.846012362958525 25.7586
34.869530142679984 25.7196
34.89286711232212 25.6764
34.91620557568269 25.682
34.93954553401677 25.6018
34.9630693495876 25.4606
34.986412313340814 25.5412
35.00975677584668 25.6017
35.033102738362956 25.471
35.05663261012228 25.43
35.0799815881786 25.4091
35.10333207003229 25.3851
35.12668405694369 25.4147
35.150220005273056 25.3865
35.17357501786656 25.3444
35.19693153931268 25.2673
35.220289570874385 25.1995
35.24383161619786 25.2803
35.267192683604904 25.2129
35.290555264930376 25.0345
35.314101899412165 25.0751
35.33746752422433 25.070999999999998
35.36083466676374 25.0413
35.38420332829803 25.0087
35.407756095629054 25.0416
35.43112781085063 24.9791
35.45450104888391 24.9243
35.477875810999194 24.8825
35.50143473172161 24.8959
35.52481255774625 24.8697
35.54819191167777 24.7979
35.57157279478914 24.8018
35.595137889488406 24.8038
35.61852184675279 24.7286
35.641907337029984 24.5861
35.665294361595684 24.555999999999997
35.68886565090076 24.5293
35.7122557598848 24.4847
35.73564740699838 24.566
35.759040593519934 24.5574
35.78261809810353 24.463
35.80601437933051 24.3842
35.829412203814705 24.3662
35.85281157283719 24.1955
35.876395313415884 24.2306
35.8997977874528 24.2585
35.92320180988546 24.1877
35.946790244133936 24.1281
35.97019737933222 24.0552
35.993606066789866 24.0319
36.01701630779276 24.0877
36.04061101440684 23.9651
36.06402437852291 23.9525
36.08743930005611 23.989
36.1108557802951 23.8931
36.13445678011326 23.9069
36.15787639383515 23.914
36.18129757014299 23.8292
36.20472031032821 23.7487
36.22832762423364 23.7174
36.25175350829375 23.6812
36.275180960119776 23.6451
36.298609981005924 23.7078
36.32222362992669 23.6533
36.34565580510207 23.6038
36.36908955323448 23.5687
36.39252487562093 23.4301
36.416144880530226 23.3867
36.43958336764275 23.3875
36.463023432914625 23.3765
36.486465077645676 23.3088
36.51009145956204 23.4074
36.53353627947859 23.3148
36.55698268276811 23.2472
36.58043067073321 23.1971
36.60406345072071 23.1279
36.62751462435344 23.1975
36.65096738658405 23.125
36.67460498210655 23.1048
36.69806093788647 23.0439
36.72151848619297 23.0687
36.744977628333636 22.9614
36.76862165890998 22.8706
36.79208400512205 22.9397
36.81554794910557 22.8968
36.83901349217101 22.8647
36.862663978991606 22.7753
36.88613273667352 22.7271
36.90960309738324 22.7303
36.933075062434064 22.7152
36.95673202673572 22.6606
36.98020721697122 22.5443
37.003684015502365 22.6032
37.027162423645365 22.5779
37.050825886711465 22.5526
37.07430753063053 22.4656
37.09779078812467 22.448
37.121275660513014 22.3876
37.144945643673694 22.3328
37.16843376245278 22.3446
37.19192350009803 22.3772
37.215414857931435 22.2893
37.239091382563885 22.2634
37.262585997426164 22.176
37.28608223645736 22.1399
37.309763684451696 22.1286
37.33326318851098 22.1013
37.356764320726555 22.0876
37.380267082425526 22.0465
37.40395510942588 22.0315
37.42746114683234 21.941
37.45096881771841 21.8806
37.474478123414166 21.8799
37.49817275092816 21.8761
37.52168534303452 21.8517
37.54519957395567 21.794
37.568715445024665 21.6899
37.592416694607714 21.7003
37.61593586281424 21.7573
37.63945667518264 21.7175
37.66297913304891 21.6308
37.68668702630454 21.5342
37.710212792059274 21.5078
37.733740207334854 21.5263
37.757269273470364 21.4773
37.780983832050374 21.469
37.80451621684926 21.3994
37.82805025654007 21.3796
37.851585952464795 21.3888
37.8753071980695 21.3161
37.89884622345676 21.2503
37.92238690911902 21.151999999999997
37.94611318753442 21.1444
37.969657210779765 21.1585
37.99320289834801 21.1383
38.016750251586465 21.0976
38.04048325513017 21.0823
38.06403395679343 21.0353
38.087586328183946 20.9983
38.11114037065203 20.9669
38.13488012115898 20.9531
38.1584375229181 20.8758
38.181996599821 20.8378
38.205557353221124 20.7967
38.229303872575656 20.7837
38.2528679961576 20.7958
38.27643380031219 20.7005
38.30000128639589 20.7358
38.32375459653193 20.764
38.34732546371299 20.648000000000003
38.37089801690786 20.5194
38.39447225747609 20.5409
38.418232380377425 20.5763
38.441810012983396 20.537
38.46538933705673 20.4828
38.488970353960084 20.4258
38.51273731166058 20.4653
38.536321731567014 20.3005
38.55990784840681 20.3317
38.58367995004091 20.2968
38.60726947812959 20.2199
38.63086070726198 20.2787
38.654453638806274 20.254
38.678232613930824 20.1482
38.70182896773327 20.1287
38.72542702806741 20.0814
38.7490267963045 20.1028
38.77281266709232 20.0629
38.79641586862214 19.9607
38.8200207821842 19.934
38.843627409152944 19.918
38.86742019782782 19.8996
38.891030269149255 19.8484
38.914642058016156 19.8976
38.938255565806124 19.8296
38.96205529464307 19.838
38.98567225787121 19.8165
39.00929094417078 19.78
39.03291135492255 19.7315
39.05671804624804 19.7047
39.080341923549106 19.6325
39.103967529460334 19.5769
39.127594865365744 19.5268
39.15140854155791 19.4691
39.17503935514948 19.5337
39.19867190290282 19.4915
39.22249083587951 19.4428
39.24612686969409 19.4021
39.269764641845306 19.4532
39.293404153722804 19.3127
39.317230110864074 19.2922
39.34087311998506 19.2395
39.36451787301696 19.2662
39.388164371352595 19.1642
39.41199737518003 19.1563
39.43564738196752 19.1082
39.45929913825317 19.1186
39.48295264543308 19.0695
39.506792718520884 19.1331
39.530449745387216 19.0531
39.55410852735203 18.9302
39.57776906581474 18.9605
39.60161623079 18.9506
39.625280300200025 18.9125
39.64894613032202 18.8243
39.67261372255866 18.8912
39.6964680021016 18.8596
39.72013913657293 18.802
39.74381203738292 18.7501
39.76748670593756 18.7652
39.79134812278169 18.7343
39.81502634488497 18.7155
39.83870633896685 18.6953
39.862388106436654 18.5981
39.88625668336918 18.6197
39.90994201572829 18.6308
39.933629125719285 18.5413
39.957503091207826 18.4876
39.9811937746168 18.5035
40.00488623990914 18.4527
40.02858048850006 18.3822
40.05246165409549 18.4211
40.076159487492085 18.3375
40.099859108448875 18.3108
40.123560518384345 18.2793
40.1474489070226 18.3267
40.171153913178564 18.2407
40.194860712584955 18.2171
40.2185693066637 18.1948
40.242464941335314 18.1801
40.26617714307655 18.0996
40.289891143772046 18.0741
40.3136069448471 18.0243
40.33750984859743 18.0609
40.3612292688043 18.0312
40.3849504936829 18.0253
40.40867352466194 18.0266
40.43258372059144 17.9389
40.45631038219906 17.9225
40.48003885420956 17.8536
40.503769138055105 17.9152
40.52768664931955 17.9082
40.55142057531802 17.8706
40.57515631746428 17.7814
40.599079334038514 17.7687
40.62281872700477 17.6394
40.64655994043941 17.6648
40.67030297578061 17.6601
40.69423334835778 17.5615
40.71798004609188 17.5697
40.74172857006355 17.5601
40.76547892171441 17.583
40.7894166736039 17.5063
40.813170699248566 17.4828
40.83692655691388 17.4699
40.86068424804498 17.495
40.884629402612525 17.4169
40.908390779366385 17.4085
40.932153993938 17.3542
40.95591904777605 17.3175
40.979871628443995 17.352
41.003640379561936 17.2864
41.02741097430883 17.2486
41.05118341413683 17.2278
41.075143444384416 17.1871
41.098919593177826 17.2129
41.1226975914255 17.1714
41.14647744058318 17.0819
41.170444943946755 17.0334
41.19422851378379 17.0696
41.218013938914645 17.0135
41.24198706625173 16.9155
41.26577622087193 16.939
41.289567235177785 16.9089
41.31336011063129 16.9186
41.337340752422875 16.8517
41.361137369129835 16.8539
41.38493585138705 16.8041
41.40873620066004 16.7544
41.43272438060107 16.7359
41.45652848292052 16.7184
41.48033445666918 16.6564
41.50414230331616 16.6763
41.528138045159764 16.6384
41.551949656675205 16.6086
41.575763145513235 16.5721
41.59957851314666 16.55
41.62358184070442 16.4695
41.64740098505737 16.5485
41.6712220126409 16.5119
41.69504492493139 16.402
41.71905586207357 16.4056
41.74288256296395 16.4157
41.766711153007456 16.3554
41.79054163368412 16.277
41.814560204340054 16.2998
41.838394485526365 16.3273
41.86223066180303 16.2555
41.88625497706819 16.2106
41.910094962812 16.2189
41.93393684811168 16.1359
41.95778063445365 16.1117
41.981812625263366 16.0886
42.00566023303407 16.0833
42.029509746323676 16.0038
42.05336116662236 16.0025
42.077400857069705 16.0064
42.10125611078846 15.9727
42.12511327600405 15.9602
42.14897235421036 15.8981
42.173019768448455 15.8531
42.19688269209613 15.8581
42.22074753323349 15.8289
42.24461429335818 15.8084
42.268669455600495 15.7385
42.292540073217886 15.7515
42.31641261433284 15.7119
42.34028708044675 15.7032
42.36435001496739 15.6867
42.38822835065557 15.6394
42.41210861586426 15.5913
42.4359908120986 15.5808
42.46006154323262 15.5799
42.48394762115317 15.4992
42.507835634632315 15.482000000000001
42.531912233047436 15.5053
42.55580413732265 15.5055
42.579697981698 15.4227
42.60359376768525 15.4034
42.62767820545945 15.3714
42.65157789440821 15.3955
42.67547952952185 15.3386
42.699383112316 15.3076
42.72347541395347 15.2861
42.74738291190531 15.2561
42.771292362102166 15.2876
42.795203766063516 15.204
42.819303956130405 15.1803
42.843219287476536 15.1773
42.86713657716324 15.1306
42.89105582671383 15.1363
42.91516392983864 15.0998
42.939087119032166 15.022
42.963012272677304 15.0213
42.98693939230129 14.9634
43.01105543317513 14.9597
43.034986504731386 14.9767
43.05891954686589 14.960999999999999
43.08285456110972 14.9254
43.10697856448665 14.8769
43.130917542983475 14.8591
43.15485849820081 14.8409
43.17880143167367 14.7904
43.20293342237094 14.7963
43.226880332449 14.7264
43.25082922540554 14.7085
43.27496722682525 14.7041
43.29892010567796 14.6816
43.32287497204102 14.6681
43.34683182745632 14.6287
43.370977859791836 14.5686
43.39493871351105 14.5567
43.41890156092628 14.5442
43.44286640358341 14.5322
43.46702049182749 14.5187
43.49098934522816 14.4711
43.51496019852649 14.4596
43.5389330532723 14.4368
43.56309522248204 14.4069
43.58707210044314 14.3761
43.61105098451946 14.3052
43.63503187626491 14.3057
43.659202151562134 14.2932
43.68318707902681 14.3157
43.70717401884041 14.2474
43.731162972560874 14.2034
43.75534137913236 14.1803
43.779334381108384 14.1501
43.803329401683186 14.1418
43.82732644241872 14.1452
43.8515130055166 14.1082
43.87551410707659 14.0823
43.89951723350145 14.0649
43.923709934595614 14.038
43.94771713129917 13.9868
43.97172635758096 13.9993
43.99573761501002 13.9915
44.0199385169922 13.9314
44.04395385732619 13.9078
44.067971233533086 13.9121
44.09199064718605 13.8745
44.11619977548961 13.8447
44.14022328470671 13.8017
44.16424883610785 13.7795
44.18827643127035 13.7639
44.21249381139513 13.7198
44.236525514814076 13.7163
44.26055926674478 13.6678
44.28459506876863 13.7399
44.3088207262813 13.6169
44.33286064928722 13.6025
44.35690262714919 13.5776
44.38094666145278 13.5348
44.4051806219871 13.5405
44.42922879003185 13.5073
44.45327901929361 13.4661
44.477331311362136 13.4896
44.501573600619416 13.4081
44.525630039221795 13.4111
44.54968854541895 13.3852
44.573937102200176 13.3659
44.5979997645541 13.363
44.622064499300315 13.2768
44.64613130803592 13.3057
44.67038823869318 13.3541
44.69445921643748 13.2554
44.718532272981385 13.2339
44.742607409926194 13.1915
44.76687274034801 13.1809
44.79095205918753 13.1482
44.81503346325094 13.1408
44.839116954143876 13.149000000000001
44.86339071028742 13.1198
44.88747839599524 13.0509
44.91156817336837 13.0598
44.93566004401666 13.0607
44.959942251908146 12.992
44.984038330325966 12.9742
45.00813650686762 12.8836
45.03223678314731 12.8884
45.05652746888232 12.8946
45.08063196592069 12.8583
45.104738567558705 12.8661
45.128847275414856 12.8518
45.15314646515866 12.7652
45.17725940679741 12.8039
45.20137445952892 12.7655
45.22568004865265 12.7475
45.24979934496396 12.772
45.27392075725247 12.7085
45.29804428714431 12.7102
45.322358426247604 12.7015
45.346486212804315 12.6552
45.370616121861914 12.5674
45.39474815505086 12.5592
45.41907087049246 12.5155
45.4432071734666 12.5336
45.46734560548283 12.5522
45.49148616817604 12.5161
45.51581748638564 12.4475
45.5399623320197 12.4122
45.56410931325473 12.435
45.58825843173002 12.4214
45.61259837920865 12.3826
45.636751793816 12.3824
45.66090735060093 12.3141
45.68506505120716 12.3157
45.7094136545275 12.2835
45.73357566449271 12.2484
45.75773982322992 12.2578
45.78190613238733 12.218
45.806263418194064 12.1787
45.83043404997326 12.1865
45.85460683713677 12.1682
45.87897065658495 12.152000000000001
45.90314777634752 12.0892
45.92732705646868 12.0524
45.9515084986045 12.0519
45.97588104735473 12.0581
46.00006683541565 12.0397
46.02425479047904 12.0125
46.04844491420549 12.0082
46.0728262191024 12.0292
46.09702070211635 11.9486
46.12121735879483 11.9506
46.14541619080294 11.8914
46.169806278764455 11.905
46.194009483459034 11.8829
46.21821486849841 11.8594
46.24242243555223 11.8016
46.266821333570014 11.7885
46.29103328674601 11.783
46.31524742696538 11.7543
46.33946375590237 11.7277
46.36387149104216 11.7252
46.38809221957392 11.6983
46.41231514186606 11.7029
46.436540259597464 11.7052
46.460956858999374 11.6558
46.48518638983522 11.6287
46.509418121166966 11.6001
46.533652054678114 11.5553
46.55807754555709 11.5616
46.58231590571962 11.5792
46.60655647313217 11.5246
46.630988654873654 11.5013
46.655233659129024 11.4811
46.67948087571551 11.4183
46.70373030632484 11.4387
46.72817142736393 11.3462
46.752425308428684 11.392999999999999
46.77668140861147 11.3449
46.80093972960865 11.3209
46.82538981736788 11.2754
46.849652602470904 11.2743
46.87391761349769 11.2641
46.8981848521493 11.232999999999999
46.9226439341274 11.2179
46.946915650573224 11.217
46.97118959976749 11.1861
46.99546578341598 11.1865
47.019933887188216 11.1461
47.04421456235744 11.1551
47.06849747711879 11.1175
47.09278263318286 11.0536
47.11725978640143 11.0754
47.14154944775105 11.0463
47.165841355555656 11.0335
47.1901355115306 11.0266
47.214621741924994 10.9676
47.23892041698887 10.9452
47.26322134538975 10.9232
47.28771440635075 10.8985
47.31201986422527 10.9201
47.33632758061436 10.8873
47.360637557241866 10.8505
47.38513974410611 10.8419
47.40945426407847 10.8002
47.43377104948137 10.8215
47.45809010204344 10.7701
47.48260144275502 10.7573
47.506925052572285 10.7557
47.53125093475548 10.7064
47.55557909103813 10.716
47.58009961361992 10.67
47.60443234110732 10.5956
47.62876734791564 10.6068
47.65310463578333 10.6186
47.6776343683373 10.6133
47.7019762413987 10.5728
47.72632040075572 10.5162
47.75066684815169 10.5613
47.77520581885936 10.5042
47.799556865477655 10.4933
47.823910205386 10.4727
47.84826584033272 10.4772
47.87281407745551 10.4221
47.89717432569297 10.4337
47.92153687423484 10.4125
47.94609208429692 10.4059
47.97045925671401 10.385
47.99482873471275 10.3314
48.01920052005013 10.3382
48.04376504619224 10.3163
48.068141469543484 10.3427
48.09252020552573 10.2746
48.11690125590099 10.2662
48.1414751266064 10.2359
48.16586082917454 10.2595
48.19024885144316 10.2025
48.2146391951793 10.1789
48.239222439012764 10.2123
48.26361744916137 10.1518
48.28801478610016 10.1598
48.31241445160131 10.1044
48.337007097209366 10.0798
48.36141144338331 10.0514
48.38581812345755 10.0644
48.41022713920929 10.0863
48.434829215320704 10.0366
48.45924292604658 10.0019
48.48365897780325 10.0262
48.50807737237308 9.99174
48.532688907799276 9.95239
48.55711201168574 9.93351
48.581537463754074 9.90726
48.60615611725119 9.95394
48.63058628942721 9.8986
48.65501881516546 9.88397
48.6794536962573 9.871260000000001
48.70408185970339 9.84807
48.72852147531801 9.78668
48.75296345168211 9.79075
48.77740779059232 9.7689
48.80204549302823 9.82667
48.82649458091802 9.78158
48.85094603676547 9.726230000000001
48.87539986237231 9.658999999999999
48.90004713292306 9.67035
48.92450572200832 9.64603
48.94896668628025 9.60025
48.97343002754588 9.62518
48.99808689542115 9.63596
49.02255501470614 9.595080000000001
49.04702551642794 9.54941
49.0714984023988 9.543239999999999
49.096164896893235 9.556410000000001
49.120642575466796 9.48247
49.145122643748394 9.483239999999999
49.16960510355558 9.48681
49.19428125404938 9.45607
49.2187685210852 9.46065
49.243258185121555 9.42067
49.26794160167084 9.42935
49.2924360839405 9.41442
49.31693296869764 9.39687
49.34143225776915 9.33694
49.36612538195438 9.30206
49.39062950396021 9.28945
49.41513603578346 9.28915
49.4396449792564 9.29805
49.46434784069503 9.26136
49.488861631846454 9.22943
49.513377840166804 9.21757
49.537896467493745 9.19421
49.56260909589029 9.16902
49.587132585683285 9.164819999999999
49.611658500018365 9.1531
49.636186840738596 9.12648
49.66090926588511 9.109739999999999
49.685442483902584 9.09003
49.70997813385706 9.0745
49.734516217597076 9.03118
49.75924846937352 9.03608
49.7837914452858 9.04036
49.80833686055187 9.003860000000001
49.83288471702571 8.9999
49.85762682540054 8.99211
49.882179588965734 8.95053
49.9067347993235 8.95353
49.93129245833333 8.962769999999999
49.95604445336378 8.92897
49.98060703442832 8.87289
50.005172069746266 8.87942
50.02993150438364 8.86847
50.05450147301533 8.851410000000001
50.07907390151433 8.79383
50.10364879174981 8.80286
50.12841816587289 8.79773
50.1529980044635 8.75608
50.17758031042124 8.75126
50.20216508562089 8.73018
50.22694442953363 8.71067
50.25153416817468 8.703610000000001
50.27612638170508 8.686689999999999
50.300721072005196 8.62629
50.325510416102105 8.59603
50.350110084975064 8.61975
50.37471223628208 8.62074
50.39931687190919 8.62222
50.424116246675766 8.60618
50.44872587605249 8.573080000000001
50.47333799543065 8.5301
50.49795260670191 8.51591
50.52276204271512 8.48162
50.54738166295838 8.47937
50.57200378079314 8.50565
50.596628398116835 8.46798
50.62144792604559 8.45063
50.646077567609396 8.44718
50.670709714377715 8.4623
50.69553683636198 8.39685
50.72017401885922 8.38141
50.7448137122895 8.33571
50.76945591856022 8.34075
50.79429318636823 8.35427
50.818940443716784 8.324869999999999
50.84359021965163 8.3153
50.868242516085964 8.267489999999999
50.893089960641895 8.23967
50.917747323549435 8.2449
50.94240721271973 8.242980000000001
50.96706963007175 8.200619999999999
50.99192728239342 8.189210000000001
51.01659478166073 8.23173
51.04126481489051 8.18225
51.06593738400761 8.16612
51.090805275207074 8.1593
51.11548294172845 8.12149
51.14016314993547 8.13082
51.164845901758845 8.07514
51.18972406304274 8.03721
51.21441192780656 8.05809
51.23910234200271 8.029819999999999
51.2637953075678 8.01881
51.288683770237945 8.01953
51.31338186432707 7.98084
51.33808251561888 7.97778
51.362978729967345 7.964580000000001
51.387684521509755 7.9348399999999994
51.41239287610203 7.92042
51.437103795691165 7.919339999999999
51.46201036644977 7.89135
51.486726441956634 7.85783
51.51144508832545 7.876589999999999
51.536166307509156 7.8167100000000005
51.56108326624387 7.82383
51.58580965706056 7.855339999999999
51.61053862657523 7.78525
51.635270176746864 7.76151
51.66019755512065 7.79253
51.68493429268881 7.76059
51.70967361681515 7.77113
51.73441552946465 7.7648600000000005
51.759353359237934 7.7412600000000005
51.7841004750961 7.70298
51.80885018539685 7.65945
51.833602492111254 7.65424
51.8585508051424 7.676410000000001
51.883308330926425 7.64023
51.90806845906181 7.629
51.932831191525715 7.5662899999999995
51.95779001977161 7.5486
51.98255798721516 7.55162
52.00732856494335 7.5206
52.03229530577543 7.50542
52.057071130455945 7.5251
52.081849571391054 7.51231
52.106630630568695 7.49246
52.13160794279417 7.434019999999999
52.15639426492067 7.454560000000001
52.18118321127822 7.43013
52.205974783860896 7.415089999999999
52.23096269971011 7.4527600000000005
52.255759551287994 7.3924199999999995
52.280559035098186 7.36543
52.30536115314103 7.3848199999999995
52.33035970494467 7.363519999999999
52.35516711807904 7.365139999999999
52.37997717147198 7.3201
52.40478986713005 7.296889999999999
52.42979908731974 7.27469
52.454617094216 7.23005
52.47943774942214 7.22491
52.50426105495102 7.2373899999999995
52.529280976059844 7.2236199999999995
52.554109609024096 7.21468
52.57894089837482 7.2054
52.60377484613117 7.18226
52.62880550079408 7.14415
52.65364479223379 7.11303
52.67848674816189 7.10525
52.70352547971946 7.12493
52.72837279155837 7.11724
52.753222773982785 7.0984300000000005
52.778075429022984 7.087160000000001
52.80312495150885 7.06205
52.827982978797436 7.061610000000001
52.85284368481815 7.03942
52.87770707160767 6.9957199999999995
52.90276741793998 7.02244
52.92763619336701 7.0329
52.952507655698504 6.95056
52.977381806977576 6.95855
53.00245301017842 6.9623800000000005
53.02733256653592 6.94793
53.052214817996074 6.919560000000001
53.077099766608484 6.8947199999999995
53.102181859804446 6.852189999999999
53.127072229988265 6.896660000000001
53.15196530349892 6.85668
53.17686108239249 6.820289999999999
53.20195409881522 6.77416
53.22685531582556 6.79277
53.25175924441303 6.77884
53.27666588664027 6.807060000000001
53.30176985962693 6.74247
53.3266819565689 6.71208
53.35159677336455 6.73842
53.376514312083096 6.71564
53.40162927507703 6.72485
53.42655228516116 6.7144
53.45147802340193 6.66787
53.47660125628886 6.67392
53.50153247842639 6.6402
53.52646643496923 6.60768
53.55140312799818 6.62493
53.576537409691696 6.63479
53.60147960336152 6.59127
53.626424539786164 6.5873800000000005
53.65137222105307 6.5634
53.67651758529126 6.5551699999999995
53.70147078399681 6.50601
53.72642673383343 6.49684
53.75138543689533 6.49682
53.776541917524526 6.48567
53.801506154876755 6.47879
53.826473151763246 6.42857
53.851442910284916 6.4217
53.87661054126026 6.42376
53.9015858509782 6.4502
53.92656392866066 6.43075
53.95154477641532 6.4038699999999995
53.976723591801296 6.3666599999999995
54.00171000771266 6.40281
54.02669920004598 6.3668
54.051691170915745 6.3485
54.076881204886796 6.32584
54.101878760928514 6.30885
54.12687910187696 6.29842
54.152077577768296 6.28386
54.1770835166946 6.31495
54.20209224691339 6.28102
54.22710377055121 6.23921
54.25231352511594 6.21099
54.27733066384342 6.18876
54.30235060239643 6.1448599999999995
54.32737334290836 6.17235
54.35259441062629 6.11301
54.377622783395324 6.12206
54.40265396455061 6.10986
54.42768795623251 6.1243
54.45292037169559 6.06816
54.477960012857906 6.0854800000000004
54.50300247099511 6.05826
54.52804774825457 6.02297
54.55329154616743 5.96499
54.57834249018678 5.95849
54.6033962597977 5.91361
54.6284528571545 5.93241
54.653708072335164 5.94833
54.67877035378786 5.89966
54.70383546947698 5.86066
54.72890342156389 5.81498
54.7541700889442 5.80037
54.77924374251975 5.80619
54.8043202390049 5.76656
54.82959552413022 5.68783
54.8546777351945 5.72166
54.87976279569621 5.72234
54.90485070780914 5.75114
54.930137506558005 5.6673
54.95523115074295 5.65002
54.98032765308844 5.61613
55.005427015775496 5.61715
55.03072536339621 5.62784
55.05583047570572 5.56722
55.080938454927676 5.58526
55.10604930325027 5.56998
55.131359235107396 5.55429
55.15647585066083 5.450419999999999
55.181595341907496 5.45113
55.20671771104285 5.403519999999999
55.232039262617704 5.40205
55.25716741665048 5.41275
55.28229845518636 5.43257
55.30743238042802 5.34955
55.33276558731939 5.30398
55.357905315183636 5.28683
55.383047936390035 5.2297400000000005
55.40819345314859 5.208080000000001
55.433538351073295 5.18277
55.458689688238415 5.18352
55.483843927614096 5.1382699999999994
55.509197623043605 5.10993
55.53435769621134 5.13408
55.55952067826466 5.08496
55.5846865714265 5.04747
55.61005202069737 5.06574
55.63522376553902 5.04637
55.66039842818645 4.9734300000000005
55.68557601087004 4.98646
55.7109532500271 4.958559999999999
55.73613670233794 4.98065
