TT I
1.2716486653135266 7.941339999999999
1.2939594142134223 7.92271
1.3162702121660406 7.28407
1.3385810600174564 8.10755
1.3608919586137629 7.566319999999999
1.383202908801069 7.09428
1.405513911425503 7.083889999999999
1.4278249673332093 6.806939999999999
1.4501343378461518 6.19815
1.4724455028545926 6.776389999999999
1.4947567236847858 6.734
1.517068001182951 6.693989999999999
1.5393793361953272 6.24017
1.5616907295681737 5.4826
1.5840021821477681 5.7952699999999995
1.60631369478041 6.20582
1.6286252683124185 5.44595
1.6509369035901333 4.96152
1.6732468618895553 5.77334
1.695558623192809 5.44541
1.7178704487808514 5.59426
1.7401823395001077 5.43487
1.7625012545597203 5.05204
1.7848028405262486 6.08098
1.8071218901122095 5.0524
1.8294236121921872 5.17582
1.8517427996910911 5.6215
1.8740620574440425 5.4984
1.8963639900671978 5.09115
1.9186833908139995 5.2695
1.9409854680117449 5.23501
1.9633050151394713 5.57625
1.9856246367570705 5.7339400000000005
2.0079269371922672 5.4831900000000005
2.03024671027244 4.798369999999999
2.0525491637446027 4.997240000000001
2.074869091674931 4.589930000000001
2.097171701569106 4.72359
2.1194917877373847 5.33153
2.141811954326636 4.38028
2.164114805233074 4.47166
2.186435135143035 4.27578
2.208738150935709 4.5544199999999995
2.231058647554722 4.0639400000000006
2.2533792288321184 4.06088
2.275682498336085 4.29622
2.298003251406138 4.64762
2.3203066942619714 4.2834900000000005
2.3426276225136022 4.54587
2.3649486396617507 4.77908
2.387252348930071 4.78028
2.4095735463442893 4.53659
2.4318774374315884 4.9802800000000005
2.4541988185014043 5.31888
2.476502894794693 5.37062
2.498824462909887 4.826569999999999
2.521146125856138 4.51966
2.5434504863470337 4.90497
2.5657723414244717 4.83268
2.588076895590662 5.46244
2.610398946189713 5.22403
2.6327210958598384 5.21314
2.6550259469304716 5.80353
2.6773482972090137 6.0027
2.6996533504259 5.66453
2.7219759047039602 6.9452
2.744298562293959 6.54585
2.7666039251246595 6.80607
2.7889267918020164 6.9981
2.8112323652516555 6.8223199999999995
2.833555444408179 7.6763699999999995
2.8558786311183852 7.575539999999999
2.8781845268938557 7.5904
2.9005079311721484 8.34375
2.9228140460410397 8.8216
2.9451376712799635 9.42607
2.967444008632326 10.0429
2.9897678582247247 9.8424
3.0120918213106695 9.97154
3.0343984987899373 10.3437
3.0567226913198637 10.5115
3.079029599759726 11.581
3.101354025127254 11.949000000000002
3.123678568232338 12.4892
3.145985829517914 13.3056
3.16831061055229 13.7948
3.1906181112775593 13.8927
3.212943133635653 14.8347
3.2352682779763207 15.505999999999998
3.2575761442691227 15.4586
3.2799015350264273 16.0685
3.302209649240067 16.7567
3.3245352898092655 16.7051
3.3468436553365257 17.3202
3.369169549113219 17.7261
3.3914955708171384 18.3257
3.413804319727358 18.9499
3.4361305997334863 19.1636
3.4584396084414553 19.6527
3.4807661501462652 20.4173
3.503092824025881 21.1489
3.5254022288463154 21.1226
3.5477291695206588 21.2844
3.5700388426251948 21.6763
3.5923660534916446 22.5466
3.6146934007816114 23.0355
3.637003482731501 23.2724
3.6593311053109985 23.5913
3.681641464033634 24.1767
3.7039693653009733 24.6717
3.726297407241705 25.3095
3.7486081875460804 25.7723
3.7709365132734978 25.9651
3.793247578841633 26.5578
3.8155761917550093 27.0947
3.8378875459837216 27.2715
3.8602164494827234 28.0224
3.882545499606844 28.3055
3.9048572932539183 28.7737
3.9271866390645718 29.4254
3.9494987298666713 30.0221
3.971828374764527 30.636999999999997
3.9941581705403255 30.8847
4.016470713506008 31.8024
4.038800813471445 33.0508
4.061113662089144 33.2529
4.0834440696459176 33.2573
4.105774632334751 34.0643
4.128087945865126 35.3227
4.150418821249301 35.1849
4.172732448931298 36.2102
4.195063640413578 37.1955
4.2173775856475215 38.2661
4.239709096631102 39.0069
4.262040768704612 39.0121
4.284355196706267 39.8026
4.306687193387355 40.7695
4.329001947444346 41.8461
4.35133427213731 42.8273
4.373666762177566 43.9564
4.395982011761091 44.5055
4.418314834921175 45.2816
4.44063041906622 46.4356
4.4629635787515625 47.2819
4.4852969080429785 48.395
4.5076130004776225 50.1551
4.529946671403969 52.4256
4.552263106909177 53.3766
4.574597122877047 53.9507
4.596931312711224 54.9278
4.619248269273446 55.6191
4.6415828092605835 57.0329
4.663900117405352 57.9518
4.686235010953232 60.0357
4.708552674085913 61.6483
4.730887924602802 62.6837
4.753223354952695 64.2939
4.775541557023902 66.1918
4.797877349456786 67.8992
4.820195915032126 70.4173
4.842532072957498 71.9566
4.864868414979744 74.2189
4.88718753227192 76.6973
4.909524244902505 79.406
4.931843734218147 81.6722
4.954180820867835 85.0714
4.976518095879839 88.8137
4.998838149695359 92.4956
5.021175803844231 96.4129
5.043496238205739 101.135
5.065834274903528 107.67200000000001
5.088172504230693 115.515
5.1104935158799565 124.62299999999999
5.132832132875765 140.72299999999998
5.155153533596801 169.521
5.1774925416746225 285.884
5.199814334878411 892.921
5.2221537374521505 2218.11
5.244493338631803 3973.92
5.266815727034316 6665.46
5.289155727832427 10576.4
5.311478517248165 9332.11
5.333818921080011 4282.98
5.356159527788849 1009.34
5.3784829252032536 275.45
5.400823940070432 184.12099999999998
5.423147747031976 153.895
5.445489173474152 138.088
5.467830807066149 129.866
5.490155234831516 123.96600000000001
5.512497285125229 118.45
5.534822130975162 115.80799999999999
5.557164601388673 112.485
5.579489868738879 109.065
5.601832762690846 107.185
5.6241758697774475 105.60799999999999
5.646501775867269 104.824
5.668845311622074 103.99600000000001
5.691171647754637 103.291
5.713515615597765 102.109
5.735859800852677 101.605
5.758186788542988 101.352
5.780531411018185 101.93299999999999
5.802858837297399 101.992
5.825203900414495 102.40299999999999
5.8475491852224 104.204
5.869877275883075 105.12200000000001
5.892223006467101 107.719
5.914551544266608 110.845
5.936897724049891 117.895
5.959244129804903 133.529
5.981573344815301 197.291
6.0039202049061 448.92699999999996
6.026249875609095 903.913
6.04859719346037 1421.45
6.070927323278297 2214.6
6.093275102315365 3592.52
6.115623113320588 4598.28
6.137953938319995 3676.09
6.160302415650845 1462.92
6.182633708324452 384.412
6.2049826554078376 151.933
6.227331838745022 110.73700000000001
6.249663839443684 96.8791
6.27201349767565 89.8811
6.294345974611799 85.3684
6.316696111167083 81.1536
6.339046488263839 78.7816
6.361379686074702 76.3241
6.383730546639482 74.8347
6.406064229255215 72.9521
6.428415576718203 72.7558
6.450749747566656 71.1288
6.47310158535871 69.4601
6.495453669698332 68.7812
6.517788579421056 67.8913
6.540141159237969 66.7408
6.562476565766648 66.3608
6.5848296444934045 65.3043
6.607182974060425 64.9464
6.6295191323281015 64.3831
6.651872965955752 63.6244
6.6742096296068985 62.5287
6.6965639707294615 62.4628
6.71891856698715 61.9802
6.741255995248479 61.4709
6.763611104154477 60.8048
6.785949046381137 60.3729
6.808304671371482 60.2055
6.8306605557940046 60.3274
6.852999275508618 59.4749
6.875355681171544 58.9068
6.897694923437771 58.787
6.92005185377892 58.8116
6.9423916220322655 58.4945
6.964749080490181 57.7091
6.987106804399774 57.6428
7.009447368180821 57.5604
7.031805625367033 57.1676
7.054146723727803 57.1017
7.076505517631004 56.6049
7.098864581288365 56.8283
7.121206488070854 56.471000000000004
7.143566093607822 56.2746
7.165908543567245 56.2375
7.188268694426048 56.2033
7.2106291193438095 55.7587
7.232972390625943 55.6094
7.255333366030969 55.4375
7.277677189091925 55.4369
7.300038718428332 55.7423
7.322400526130865 55.6009
7.344745183422596 55.8016
7.367107550224791 55.8423
7.389452767901992 55.8839
7.411815697249891 56.0415
7.434161478756298 55.3082
7.456524974096713 55.537
7.478888753837185 55.7491
7.501235387657368 56.004
7.523599738562711 56.1342
7.545946944825532 57.0815
7.568311870344528 57.2008
7.5906770845765665 57.3029
7.613025156078678 57.1514
7.635390950099687 57.2564
7.657739602662809 57.2859
7.680105979923558 57.3499
7.702472650212829 58.2142
7.724822180948224 58.028
7.747189439655568 58.3556
7.769539560075357 58.7972
7.791907410653562 59.3706
7.81425812420825 59.1951
7.836626570110925 59.5345
7.858995315087906 60.2696
7.881346924933401 60.4902
7.903716270417482 61.1173
7.926068482028405 61.2359
7.948438431475253 62.0043
7.9708086843180235 62.0116
7.993161805171116 63.1493
8.015532667162402 63.705
8.037886398416653 65.1367
8.060257873014221 65.684
8.082629655331942 66.3671
8.104984308787587 66.7082
8.127356708900503 67.7385
8.149711981398308 69.2063
8.172085002766314 70.1764
8.194458336181368 70.8188
8.216814543847752 71.9379
8.23918850371002 72.9297
8.26154533906492 74.3847
8.283919928836452 76.4556
8.306277395339652 77.378
8.328652618483376 79.1957
8.351028159736202 81.7159
8.373386579575245 84.6992
8.395762759396959 86.7958
8.418121819038275 90.7126
8.440498640894003 96.6758
8.462875785192262 110.479
8.485235811156207 162.471
8.507613602688501 291.801
8.529974277114228 454.994
8.552352719347912 587.722
8.574731488360351 751.4910000000001
8.59709314210385 1056.95
8.619472567021075 1522.1
8.64183487789147 1958.87
8.664214962183097 1963.59
8.686577933647762 1228.91
8.708958680784317 535.961
8.731339760774953 223.67700000000002
8.753703729764451 132.955
8.77608547780821 111.397
8.798450116065078 105.118
8.820832535634787 100.666
8.843215292401656 98.2049
8.865580941199045 95.9655
8.887964374703538 94.3035
8.910330701447199 93.45
8.932714815164482 92.4367
8.955099270424924 90.7281
8.977466620733543 89.6422
8.999851761421976 89.4064
9.022219798361645 88.5083
9.04460562795561 88.4472
9.066991803441677 88.0491
9.089360876979615 88.0835
9.111747746589993 87.8111
9.13411751544971 87.2882
9.156505082664324 86.8698
9.178875550323522 87.2381
9.20126381862328 86.8126
9.223652438908596 87.2576
9.246023961427412 87.8959
9.26841328802173 87.6835
9.290785518039224 87.7672
9.313175554425882 88.3963
9.335565947154315 88.1877
9.357939245086508 88.2217
9.380330352834827 88.3065
9.40270436697103 88.4201
9.425096193225055 88.4215
9.447488380180165 89.2321
9.469863475295412 89.3324
9.492256385987508 89.8153
9.514632206018318 90.4177
9.537025843935714 91.1843
9.559402392368193 91.8035
9.581796761000229 92.7792
9.604191496441521 93.4268
9.626569144158516 94.3936
9.648964615551032 94.9084
9.671343000390081 95.5282
9.693739211225699 97.0884
9.716135793237463 97.6061
9.738515290448102 98.6525
9.760912617143402 100.286
9.783292860202891 101.806
9.805690935076182 103.387
9.828089385495742 104.711
9.850470754023561 107.25299999999999
9.872869957865444 109.725
9.89525208097539 112.866
9.917652041736662 118.455
9.940052382417589 136.28799999999998
9.962435644102392 199.08900000000003
9.984836746950979 303.685
10.007220771957746 420.55199999999996
10.029622640473708 522.232
10.052007432299963 631.735
10.074410069984072 797.331
10.096813093716005 1062.41
10.119199042482517 1450.31
10.141602840636468 1792.67
10.163989564971628 1731.61
10.186394141051062 1179.03
10.208799107559706 568.368
10.231187001965623 257.047
10.253592751657669 150.975
10.275981430388155 124.89200000000001
10.298387966769793 117.868
10.320794897965431 115.70299999999999
10.343184759907361 113.382
10.36559248305461 112.256
10.387983138083852 115.264
10.410391656691655 131.429
10.432800574501677 159.766
10.455192425893369 188.438
10.47760214443012 212.915
10.499994797678786 237.822
10.522405320453982 280.243
10.54479877906917 349.53
10.567210109595656 435.704
10.5896218454736 534.413
10.612016518879773 534.81
10.634429067781074 422.333
10.656824555333241 254.50599999999997
10.679237920773568 152.459
10.701651695961992 108.24799999999999
10.724048411481384 96.3638
10.746463008485165 92.7454
10.768860546937125 90.4985
10.791275969274796 88.1479
10.81369180576079 86.7477
10.836090585366925 85.65
10.858507252467449 84.3826
10.88090686379991 83.3582
10.903324365036394 82.3595
10.925724811614439 81.207
10.948143150509463 80.6644
10.970561909719066 79.7846
10.992963615930844 78.7258
11.015383218085756 77.9422
11.037785768347074 76.7514
11.06020621697282 76.4016
11.082627090322113 75.8417
11.105030913430326 75.3803
11.12745263854165 74.8683
11.149857314510728 73.6878
11.172279894912576 73.3192
11.194702904450653 72.5299
11.217108866490921 71.70100000000001
11.239532736615194 71.2428
11.26193956033512 71.0839
11.284364294577085 70.9406
11.306789462371718 70.1559
11.329197585398376 70.0481
11.351623622610898 70.0846
11.37403261614354 69.1586
11.396459526308487 68.9779
11.418869393879497 68.6862
11.441297180532617 68.2348
11.463725406927658 67.9367
11.486136592353875 67.6187
11.508565700543707 67.2834
11.530977768845315 67.2955
11.553407762368774 66.7775
11.575838200059769 66.5787
11.598251599479612 66.5415
11.620682927815501 66.4046
11.64309721895548 66.6069
11.665529441478206 66.3758
11.687962112597958 65.708
11.710377748130886 65.8906
11.732811318753434 65.7138
11.755227854859067 65.579
11.777662328529495 65.73
11.800079768750786 65.5334
11.822515149015453 65.6865
11.844950984084935 66.063
11.867369787303163 65.3962
11.889806534289491 65.5566
11.912226250487029 65.9447
11.934663912939751 66.1592
11.9571020346363 66.3793
11.979523127133968 66.8453
12.001962169624331 68.8321
12.024384183972964 72.4238
12.046824150809913 79.8577
12.069264581333726 88.3811
12.091687985297767 94.5751
12.11412934550045 99.9937
12.136553680195208 109.141
12.158995973632788 121.741
12.181438735204349 140.01
12.20386447284199 164.636
12.226308172985636 191.97799999999998
12.24873485024193 208.39
12.271179492516982 187.949
12.293607112949127 144.65
12.316052700916226 103.758
12.338498763250042 79.559
12.360927805303868 70.4213
12.383374818673879 68.0722
12.405804812803074 67.3855
12.428252780773262 67.4222
12.45070122756722 67.3635
12.473132656675375 66.9907
12.49558206341869 67.3259
12.518014453510101 67.5938
12.540464823770117 67.4901
12.562915677315177 67.7126
12.58534951575545 67.8466
12.607801338171472 67.5383
12.630236146511358 68.6615
12.652688941369085 68.8653
12.675124723177234 69.0002
12.697578494048786 69.702
12.720032754458185 69.7084
12.742470003354093 70.3714
12.764925245138771 71.0449
12.787363476431278 71.4804
12.809819703166806 71.7843
12.83227642391173 72.6144
12.854716135692716 73.3165
12.877173846755147 74.4391
12.899614549869717 75.014
12.9220732548287 75.847
12.94453245827299 76.4721
12.966974655289818 77.501
12.989434858002571 78.4864
13.011878055298721 79.6347
13.034339260862497 80.8031
13.056800969391883 82.7746
13.079245674017244 86.6828
13.101708390774869 93.6027
13.12415410463411 110.62700000000001
13.146617833206086 131.7
13.169064559883248 148.327
13.191529303857127 161.459
13.213994557076367 174.958
13.236442809902437 196.248
13.258909083908291 227.653
13.28135835851934 266.72700000000003
13.30382565690295 318.317
13.326293469022952 381.49199999999996
13.348744283242008 418.283
13.371213125129904 393.57099999999997
13.39366497011003 311.161
13.416134845360597 211.62900000000002
13.438605238843131 149.967
13.46105863690397 129.667
13.483530069144786 134.054
13.505984506951902 144.165
13.528456981549432 154.07399999999998
13.550929978879088 162.065
13.573385983253365 174.44299999999998
13.595860028340867 195.46
13.618317081455832 224.56900000000002
13.64079217790333 260.566
13.663250283359057 307.933
13.685726434770173 349.87
13.708203115221277 357.287
13.730662806148091 306.814
13.75314054697177 231.11599999999999
13.775601299246777 158.286
13.798080104050406 112.51
13.820559442405358 93.4882
13.843021793671388 87.6406
13.865502201420897 85.3742
13.887965623051947 84.2703
13.910447103807167 83.0934
13.932929122629764 81.3954
13.955394156785959 81.1649
13.977877254034569 79.8482
14.000343367582113 79.0385
14.022827546871707 78.4157
14.045294743423524 78.0297
14.06778000837062 77.2922
14.090265817715476 77.0684
14.112734645763819 76.2571
14.13522154619454 75.6724
14.157691466286913 75.5706
14.180179461423874 75.2526
14.202668005486178 74.6532
14.22513957064374 74.5109
14.247629214846473 74.3535
14.270101881097517 73.9276
14.29259262906496 73.4178
14.315083930490205 73.6643
14.337558255389705 73.2971
14.360050666019726 73.406
14.382526101071944 72.9824
14.405019624534942 72.7516
14.427513705993134 72.6032
14.449990813291825 72.8482
14.47248601302899 72.3909
14.49496423954951 72.619
14.517460561197822 72.7791
14.539939910570322 72.5271
14.562437357763558 72.667
14.58493536931253 73.2244
14.607416409993311 73.0214
14.62991555254159 73.4604
14.652397725157423 73.6418
14.674898002342799 74.0809
14.697398848433282 74.7765
14.719882725991326 77.0622
14.74238471217934 81.0856
14.764869730765593 88.7652
14.787372860692983 95.8587
14.809876564079925 102.259
14.83236330125751 107.209
14.854868153850365 111.79799999999999
14.877356041159485 119.398
14.899862046604186 129.761
14.922351087688757 144.638
14.944858249632887 162.58100000000002
14.967365991421232 185.252
14.989856770231246 207.63
15.012365673994204 222.708
15.03485761569738 208.24400000000003
15.05736768508665 173.024
15.07987833888692 134.15
15.102372032001655 103.16
15.124883856909658 84.5002
15.14737872204565 77.3117
15.169891721717274 74.6477
15.192405310371893 73.8121
15.214901940621196 73.4397
15.237416709527137 72.7024
15.259914520936249 72.2319
15.282430473753607 71.3545
15.304947020131227 70.9203
15.327446610371178 70.7065
15.349964346154254 70.3568
15.372465126703139 70.3457
15.394984055556009 70.2264
15.417486030076159 69.9586
15.44000615566487 69.6948
15.462526881230803 69.5483
15.485030653812652 69.5114
15.507552581617434 69.3275
15.530057557334603 69.4788
15.55258069104857 69.4986
15.575104429329837 69.8734
15.597611216864632 70.0116
15.620136166564563 71.4918
15.6426441664095 74.9727
15.665170331202765 80.8816
15.687697105158826 86.6314
15.710206930593545 91.8455
15.732734925158933 95.4841
15.755245972089478 98.5063
15.77777519094324 103.42299999999999
15.800287463046663 111.14399999999999
15.822817909869592 121.988
15.84534897229804 134.829
15.867863089299354 151.892
15.890395385222186 171.21900000000002
15.912910736597423 189.145
15.935444269699861 194.28099999999998
15.957978423016485 178.013
15.980495633101265 147.376
16.003031029129367 114.69200000000001
16.02554948280019 87.6478
16.048086125229432 73.7057
16.070623392487107 68.1469
16.09314371869582 65.9731
16.11568223789321 64.6754
16.13820381691126 64.0533
16.160743591742527 63.6515
16.183283996022084 63.1124
16.205807461423195 62.343999999999994
16.228349126881973 61.7591
16.25087385432698 61.7042
16.27341678466365 60.8655
16.29594277784926 60.9066
16.31848697676433 60.478
16.341031811604868 59.7562
16.36355971058487 59.722
16.3861058195587 59.5613
16.40863499352978 58.8166
16.431182380342005 58.7167
16.453730407713202 58.5613
16.476261501364792 58.3861
16.498810812136167 57.9922
16.52134319004079 58.0153
16.54389378792203 58.0721
16.566445031001553 57.894
16.588979342490088 57.7102
16.61153187824822 57.688
16.634067483263312 57.8333
16.656621315414416 57.5335
16.679175797408888 57.106
16.701713349928728 57.1635
16.72426913389191 57.2663
16.74680798922351 57.3035
16.76936507887444 57.3071
16.791905240734874 57.3278
16.814463639794468 57.1027
16.837022695210294 57.2798
16.859564824093756 57.6425
16.882125194503903 57.6099
16.904668639217885 57.5924
16.927230328348003 57.3979
16.949792678493612 57.8706
16.972338104193863 58.1338
16.994901778652235 58.1462
17.017448529496576 58.5816
17.040013531998152 59.2953
17.06257920018044 60.4604
17.0851279459922 62.0414
17.107694947817667 63.0221
17.130245028099072 63.966
17.15281336730298 64.84899999999999
17.17536478578733 65.6502
17.19793446610687 67.0512
17.220504818648422 68.8985
17.243058251703697 70.817
17.265629950971032 73.9999
17.288184731571736 77.2535
17.310757781306908 81.7632
17.33333150794385 84.9289
17.355888317140174 85.8702
17.37846339986244 83.0256
17.401021565958885 77.6143
17.42359800851343 71.471
17.44617513265564 67.0658
17.468735341390783 64.0067
17.491261035594565 62.6566
17.51396340099364 61.9998
17.536490463869136 61.9956
17.559018209820174 62.0847
17.58154663977963 62.2425
17.604251766089718 62.2885
17.626781572227713 62.7085
17.64931206518155 62.8368
17.671843245885103 63.2411
17.69455114821572 63.53
17.717083712612634 63.7233
17.739616967569667 64.077
17.762150914021706 64.7876
17.78486160749854 65.1689
17.807396945166804 66.3498
17.829932977143503 68.7978
17.85246970436452 72.4711
17.875183204129467 75.3897
17.897721330097664 78.6186
17.920260154126645 80.9512
17.942799677153296 82.8072
17.9655159983646 84.9956
17.988056927677544 88.354
18.010598558807683 93.2152
18.033140892692916 99.056
18.05586005052525 105.819
18.07840379824407 114.681
18.10094825154059 126.494
18.12366954819864 139.287
18.146215420998306 146.018
18.16876200220057 145.357
18.191309292745153 133.835
18.214033452627167 119.304
18.236582170236648 103.904
18.259131600016456 93.9261
18.281681742907335 89.6769
18.304408781233683 90.3046
18.32696035875955 93.0498
18.349512652227624 96.8721
18.372065662579683 102.62
18.394795594587553 106.60700000000001
18.41735004715306 107.243
18.43990521943684 103.03
18.46246111238171 95.0153
18.485193953325208 84.1918
18.507751296070428 76.0174
18.530309362314178 70.5327
18.552868153000343 67.3988
18.57560391815056 65.6836
18.59816416623245 65.1092
18.620725141597372 64.5024
18.643286845190268 64.0815
18.666025549835414 63.4752
18.688588718427933 62.8162
18.711152618092243 62.8577
18.73389353884365 62.663999999999994
18.75645890921984 62.1656
18.77902501351406 61.7025
18.801591852673102 61.6372
18.824335739722738 61.0922
18.846904057212626 60.9868
18.8694731124168 60.7198
18.89204290628315 60.5868
18.914789774966803 60.5156
18.937361054791623 60.2578
18.959933076131318 60.0319
18.982505839934877 59.858999999999995
19.00525570560582 59.9274
19.027829963004184 59.7655
19.05040496572238 59.9042
19.072980714710468 60.4689
19.095733592739563 61.0119
19.11831084296757 61.4443
19.140888842324735 62.0833
19.16346759176222 62.2025
19.18622349753803 62.373999999999995
19.208803755869358 62.9443
19.231384767143577 63.8362
19.253966532312948 64.8034
19.276725481241822 65.8807
19.29930876296784 67.4161
19.3218928014549 68.9694
19.34465404436217 71.3068
19.36723960516257 73.8674
19.389825925592426 76.3746
19.412413006605938 77.5112
19.43517731967805 76.3183
19.457765930683355 73.2592
19.48035530514408 68.5994
19.50294544401556 64.2669
19.525712842708348 60.6356
19.54830451925909 58.4117
19.570896963095727 57.125
19.593490175174704 56.8255
19.616260674962184 56.6775
19.638855432416964 56.4162
19.661450960992624 56.5836
19.68404726164677 56.3625
19.706820878021247 55.9613
19.729418731756834 56.3457
19.752017360452857 56.1975
19.77461676506804 56.6298
19.797393513540218 57.2109
19.819994478951667 57.7646
19.84259622316767 58.3578
19.8651987471481 58.693000000000005
19.887978643247177 58.8365
19.91058273574792 59.0326
19.933187610901943 59.6183
19.955969879466828 60.3898
19.97857632894404 61.4001
20.00118356396599 62.4938
20.023791585494575 64.0212
20.046577028914875 66.1983
20.069186632506966 68.2962
20.091797025500632 70.8075
20.114408208858933 72.5083
20.137196842715273 73.688
20.159809615886765 73.1246
20.18242318232135 70.7056
20.20503754298326 68.0854
20.227829382875154 65.9746
20.250445341109344 64.4649
20.27306209647285 64.0687
20.29567964993108 64.5345
20.31847471147704 65.4561
20.34109387027612 66.7796
20.363713830075454 67.7778
20.386334591841646 67.684
20.409132890679302 65.4801
20.431755265564437 62.8294
20.454378445325528 59.5855
20.477002430930366 57.1034
20.499803982716553 55.1305
20.522429589228004 53.9545
20.54505600449589 53.0438
20.567683229489194 53.0325
20.590488049900088 52.8636
20.61311690359731 52.6108
20.63574656993626 52.5237
20.658553853717297 52.1592
20.681185154618298 52.2428
20.703817271080066 51.8985
20.72645020407368 51.4412
20.749260783967177 51.5362
20.771895359337133 51.5286
20.794530754161617 51.4407
20.817166969412938 51.2636
20.83998086114876 51.422
20.86261872660049 51.1738
20.885257415405402 51.2732
20.90789692853701 51.0961
20.930714147864748 51.2517
20.953355319030678 51.4621
20.97599731745334 51.5905
20.99864014410749 51.3507
21.021460706796564 51.1119
21.044105199328826 51.5283
21.06675052302631 51.4866
21.089396678865015 51.7332
21.112220600704806 51.8262
21.134868430275347 52.0863
21.15751709492456 52.2483
21.180166595629693 52.3386
21.202993892429635 52.7404
21.22564507473034 53.11600000000001
21.24829709602816 53.3747
21.27112693608965 53.6785
21.293780644891275 54.0271
21.316435195634053 53.6167
21.339090589297417 52.7951
21.361923832041875 52.3552
21.384580921090404 51.7821
21.407238856007325 51.1213
21.429897637773326 51.0263
21.45273429906592 51.0121
21.475394784108598 50.9901
21.498056118951983 50.9517
21.520718304578022 51.2882
21.543558400304388 51.5521
21.566222297108816 51.8351
21.58888704765135 52.2069
21.61155265291521 52.7165
21.63439619898156 53.4381
21.657063523335786 53.6707
21.67973170537063 54.1335
21.7024007460706 54.3843
21.72524775840385 54.8158
21.747918526116475 55.5209
21.770590155457388 56.3213
21.79326264741238 57.4715
21.816113141960237 58.9491
21.838787368860547 60.1258
21.861462461341976 61.5959
21.884315579735777 63.4417
21.90699241312273 65.2809
21.92967011506078 66.7011
21.95234868653799 67.4415
21.9752053151131 67.0647
21.997885635446785 65.6469
22.020566828293532 63.3764
22.04324889464272 61.01
22.066109049404666 58.9076
22.088792872571794 57.8668
22.111477572219204 57.8384
22.1341631493376 58.1683
22.157026846313123 58.4264
22.179714188221507 58.3772
22.202402410582668 57.4923
22.22509151438863 56.1358
22.24795876962584 54.6884
22.270649646204486 53.615
22.293341407213727 52.6472
22.316034053646906 52.0359
22.338904883215342 51.6398
22.36159931041458 51.3431
22.38429462602756 51.2527
22.40699083104897 50.9958
22.429865251039757 51.0758
22.452563244831367 51.0364
22.47526213102522 51.0394
22.49813925616515 51.0113
22.520839937143307 51.0547
22.543541513520587 51.1825
22.56624398629403 51.0812
22.589124730075895 50.9958
22.611829005656723 51.2694
22.63453418063466 51.5263
22.657240256008077 52.0281
22.680124634582935 52.1737
22.70283252079775 52.6368
22.725541310413075 52.75899999999999
22.74825100442868 52.8038
22.771139033969575 53.2313
22.79385054687155 53.3741
22.81656296718292 53.6532
22.83927629590484 54.2906
22.862167992606945 54.8874
22.88488314827121 55.5246
22.907599215359284 56.0526
22.93031619487366 57.0686
22.953211574954405 58.0061
22.975930389478226 59.2545
22.998650119445763 60.1568
23.02137076586092 60.1154
23.044269845560063 59.5547
23.06699233506288 58.2457
23.089715744034912 56.5579
23.112617610931565 54.8008
23.135342869061212 53.1473
23.158069049684816 51.9948
23.1807961538087 51.4951
23.20370174880544 51.3395
23.226430710184808 51.7112
23.249160598093425 51.9719
23.271891413539002 52.0757
23.294800752937697 52.1874
23.31753343374794 52.5196
23.340267045128353 52.4686
23.36300158808808 52.7417
23.38591468821339 52.7791
23.408651104658304 52.8833
23.431388455719986 53.2237
23.454126742409 53.7582
23.4770436196085 54.4012
23.499783787914662 55.0744
23.522524894889884 55.6424
23.54526694154616 56.4626
23.56818761219047 57.6549
23.59093154860734 58.5472
23.613676427751283 59.6609
23.636422250635754 59.7011
23.659346731118656 59.034
23.68209445191868 57.6022
23.704843119509587 55.5687
23.72759273490623 53.2982
23.750521041644767 51.4456
23.77327256312355 50.0233
23.796025035462787 49.2433
23.818956224555475 48.7061
23.841710609113413 48.3902
23.86446594758979 48.1531
23.887222241002014 47.8967
23.910157285144578 47.4873
23.932915498962537 47.519
23.955674670778713 47.3305
23.978434801611975 47.0711
24.001373717286125 47.0059
24.024135776723917 46.8651
24.046898798245582 46.7691
24.06966278287146 46.6199
24.092605586582614 46.4599
24.115371508023642 46.0762
24.1381383956401 46.1601
24.16090625045381 46.1457
24.183852958731244 46.0772
24.206622758582608 45.8811
24.229393528706886 45.6692
24.252165270127392 45.8204
24.27511589952438 45.70399999999999
24.297889594216997 45.6403
24.32066426328598 45.483999999999995
24.34343990775613 45.416000000000004
24.36639447485003 45.3245
24.38917208083877 45.218
24.41195066531332 45.0361
24.43490819850244 45.1818
24.457688750692377 44.946000000000005
24.48047028445616 45.0541
24.503252800821233 45.1963
24.526214300784112 45.2274
24.548998793132213 45.0902
24.57178427117417 45.0691
24.59457073593893 45.0154
24.617536219319863 45.0862
24.64032466834748 45.0531
24.663114107195035 45.0868
24.685904536893013 44.7134
24.708874020360852 44.6751
24.731666442613744 44.6127
24.754459858818787 44.5763
24.777254270007962 44.5685
24.80022777025625 44.4988
24.82302418230472 44.2803
24.845821592443674 44.4482
24.86862000170663 44.4424
24.891597535453727 44.3427
24.914397953892728 44.5632
24.93719937456671 44.5893
24.96000179851076 44.7047
24.98298338249997 44.7985
25.00578782394922 45.0656
25.028593271784167 45.0929
25.05157790644186 45.4227
25.07438537804115 45.4037
25.097193859145293 45.4295
25.120003350792075 45.589
25.142992065061257 45.8684
25.165803588823465 46.1419
25.18861612625217 46.4251
25.211429678386736 46.5881
25.234422489079968 46.7489
25.257238081693636 46.7914
25.280054692141732 46.7615
25.3028723214652 46.6051
25.325869245420463 46.6121
25.348688923599397 46.7267
25.371509623787006 46.8355
25.394331347025812 46.7449
25.41733240110666 46.5714
25.440156181590016 46.0339
25.46298098826268 45.3578
25.48580682216873 44.8258
25.50881202326435 44.1133
25.53163992281684 43.5915
25.55446885274561 43.2103
25.577298814096377 42.8518
25.600308179121807 42.8573
25.623140214533745 42.9386
25.64597328451537 42.8559
25.66898578564376 42.5564
25.691820936010206 42.7015
25.714657124097695 42.7379
25.737494350954734 42.7524
25.760511045684957 42.4712
25.783350361364224 42.4823
25.806190718969255 42.6076
25.82903211955018 42.5379
25.852053024868923 42.5344
25.874896522722523 42.5976
25.897741066713106 42.4884
25.920586657892454 42.6029
25.943611790812668 42.5953
25.966459487728237 42.7648
25.989308234998564 42.7332
26.01215803367705 43.0643
26.03518741123814 43.2226
26.05803932412957 43.2164
26.080892291600094 43.1941
26.10374631470478 43.4827
26.12677995397268 43.6735
26.14963609978026 43.8714
26.172493304397875 43.6288
26.19535156888223 43.5147
26.218389486949604 43.0993
26.241249882640123 42.897
26.26411134137826 42.5944
26.28715248187403 42.466
26.31001607820869 42.281000000000006
26.3328807407756 42.1495
26.35574647063438 42.1863
26.37879191991473 42.199
26.401659795896734 42.3419
26.424528742360263 42.3383
26.447398760366614 42.4535
26.470448535598294 42.5314
26.49332070826805 42.6357
26.516193955675355 42.8645
26.53906827888316 42.9434
26.562122397260108 42.9929
26.584998883685063 43.2166
26.607876449110325 43.5723
26.63075509460056 43.763999999999996
26.65381357334404 43.8431
26.67669439061878 43.8838
26.699576291163382 44.1652
26.722459276044212 44.1804
26.745522132402975 43.8953
26.768407297649354 43.4307
26.791293550442003 42.9948
26.814180891848974 42.8458
26.837248143099337 42.4736
26.860137673466657 42.3048
26.88302829566349 41.9394
26.90592001075963 41.9345
26.92899167420566 42.0144
26.951885586870763 41.5999
26.974780595655517 41.3938
26.99785558178161 41.1941
27.020752794605112 41.126999999999995
27.043651106772522 40.8344
27.06655051935668 40.84
27.089629948036183 40.6392
27.112531573292053 40.643
27.135434302194138 40.7327
27.158338135817015 40.5439
27.181422024430987 40.5379
27.204328079372566 40.3098
27.22723524226965 40.4448
27.250143514198573 40.4859
27.273231880156334 40.4817
27.296142382065014 40.3239
27.319053996245536 40.291
27.341966723775965 40.3848
27.365059584515222 40.2658
27.38797455070062 40.3503
27.410890633481237 40.3094
27.433807833936918 40.1243
27.456905206923906 40.3605
27.47982465472398 40.2473
27.502745223449743 40.1623
27.525666914182825 40.3486
27.548768816912457 40.4056
27.571692763693633 40.2611
27.59461783573812 40.2606
27.617723149491244 40.1804
27.640650484125285 40.2
27.66357894728264 40.2557
27.686508540048052 40.1337
27.709618414237887 39.9359
27.732550278321757 39.8432
27.755483275279115 39.8679
27.778417406196485 39.9181
27.801531858397514 39.7685
27.824468269376716 39.7452
27.847405817586786 39.73
27.870344504116094 39.8661
27.893463551932008 39.9377
27.916404527281053 39.9812
27.93934664422563 39.9683
27.962289903855886 39.994
27.98541356491974 40.1781
28.00835912214229 40.3272
28.03130582533231 40.5001
28.054253675581805 40.6571
28.077381967556104 40.7609
28.100332124185126 40.6737
28.123283431160893 40.8129
28.146235889577238 40.6626
28.169368830154156 40.5662
28.192323603752033 40.2877
28.215279532083304 39.8735
28.238415973016764 39.6731
28.261374223145094 39.582
28.284333631303806 39.44
28.307294198589954 39.3847
28.330435319167677 39.0782
28.353398217078915 38.8131
28.376362277420153 38.5132
28.39932750129032 38.284
28.422473319286713 38.2045
28.44544088262495 38.2139
28.468409612800283 38.006
28.491379510913497 37.734
28.51453004413313 37.732
28.53750229057244 37.6794
28.56047570826344 37.5732
28.583450298308804 37.6777
28.606605564586562 37.3881
28.629582511831156 37.4387
28.65256063474956 37.2831
28.675539934446338 37.3366
28.698699951647605 37.2093
28.72168161743193 37.1428
28.74466446331978 37.177
28.767648490417624 37.1275
28.790813276438353 37.058
28.813799678527303 37.0977
28.836787265157085 37.0231
28.859955641890075 37.0339
28.882945610203045 37.0099
28.905936766392035 36.8827
28.928929111566863 36.9394
28.952102288520145 36.8897
28.975097024308607 36.7694
28.998092952423807 36.7281
29.021090073977508 36.605
29.04426806913204 36.5211
29.067267590245258 36.3958
29.090268308143695 36.2797
29.11327022394099 36.1983
29.13645305530891 36.1967
29.159457379627167 35.9555
29.18246290519685 35.9828
29.20546963313352 35.9936
29.22865731875826 35.8814
29.25166646419296 35.8647
29.27467681535305 35.7481
29.29768837335608 35.8391
29.320880931312562 35.7971
29.34389491580634 35.78
29.366910110507334 35.7263
29.38992651653503 35.7545
29.41312396492981 35.7202
29.436142806456754 35.8173
29.45916286268059 35.7962
29.48236399319994 35.666
29.50538649169417 35.4785
29.528410208259935 35.449
29.55143514402014 35.1253
29.574641196749695 35.0155
29.597668583816574 34.9492
29.6206971934585 34.7907
29.64372702680042 34.742
29.666938019934474 34.6144
29.689970313635285 34.5517
29.713003834422636 34.599000000000004
29.73603858342347 34.54
29.759254535188578 34.3785
29.78229175361658 34.2934
29.80533020365064 34.3873
29.82836988641968 34.4543
29.85159081507472 34.2801
29.874632976355343 34.3559
29.89767637376955 34.3866
29.920721008448314 34.1495
29.9439469322847 34.1949
29.96699405457564 34.1998
29.9900424175358 34.0557
30.013092022298157 34.0586
30.03632295963995 33.9939
30.059375061131373 34.0446
30.08242840783577 33.9893
30.105483000888153 33.9173
30.128718970092244 33.8654
30.151776069006917 33.8892
30.17483441768648 33.9647
30.198074175317235 33.8595
30.221135036724256 33.9338
30.24419715131772 33.8243
30.267260520236203 33.9357
30.290505341942243 33.863
30.313571232750228 33.9355
30.336638381310948 33.8854
30.35970678876503 33.7494
30.38295669299435 33.808
30.40602763151657 33.7984
30.429099832366074 33.7771
30.452173296685572 33.5929
30.47542830191959 33.718
30.498504306502497 33.6133
30.521581577995562 33.6116
30.544660117543582 33.6875
30.56792024229725 33.6624
30.59100133132069 33.6431
30.614083691845494 33.5375
30.637167325018545 33.6711
30.660432587840603 33.727
30.683518779717886 33.6549
30.70660624769615 33.7386
30.729694992924372 33.7276
30.75296541239743 33.6738
30.77605672557558 33.5381
30.799149319462742 33.6761
30.8224236211637 33.5356
30.845518789950724 33.3778
30.868615242910597 33.3859
30.891712981195973 33.2458
30.91499247215866 33.183
30.938092794619365 33.0839
30.96119440587579 33.076
30.984297307082752 32.9439
31.00758200598383 32.832
31.030687500658694 32.7192
31.053794288760695 32.7629
31.076902371446767 32.6249
31.100192296997445 32.7436
31.12330298246119 32.6234
31.14641496599209 32.3961
31.169528248749216 32.4819
31.19282341969534 32.435
31.215939314557186 32.4823
31.239056512134788 32.4425
31.262175013589378 32.3431
31.28547544871168 32.2915
31.30859657161541 32.1711
31.331719001892175 32.234
31.35484274070538 32.3868
31.378148458819545 32.3309
31.401274828443725 32.2575
31.424402510106933 32.1679
31.447712205419993 32.3784
31.470842524931633 32.2191
31.493974159989783 32.2548
31.51710711176168 32.2284
31.54042212308802 32.1807
31.563557722100917 32.2637
31.586694641341655 32.1128
31.609832881979628 32.0557
31.63315322823208 31.951999999999998
31.656294125521327 31.8658
31.679436347728515 31.8752
31.70257989602529 31.7266
31.725905596152327 31.7137
31.74905181052835 31.6036
31.772199354521323 31.6752
31.79534822930507 31.6307
31.818679302290967 31.6222
31.84183085259981 31.5419
31.864983737233473 31.5582
31.88813795736804 31.5333
31.911474422233013 31.3852
31.934631327356435 31.4473
31.9577895715215 31.4467
31.980949155906522 31.509
32.004291031706956 31.5264
32.027453310562606 31.3271
32.05061693318573 31.2982
32.07396288236386 31.2308
32.09712920658542 31.1199
32.12029687812702 30.9782
32.14346589817093 31.0522
32.166817291729984 30.956
32.18998902288583 30.8514
32.21316210610336 30.8006
32.23633654256711 30.6743
32.259693399663725 30.7227
32.282870556771144 30.6374
32.30604907069099 30.6465
32.329228942610065 30.5005
32.35259128243769 30.4006
32.375773884550505 30.3405
32.398957848235646 30.2873
32.422143174682176 30.246
32.445511016471215 30.1693
32.468699082679954 30.1003
32.49188851523011 30.0898
32.51507931531304 29.993000000000002
32.538452678331 30.0067
32.56164622776311 29.9393
32.58484114831493 29.866
32.60803744118015 29.9614
32.631416344731896 29.9573
32.654615396551876 29.7652
32.67781582427913 29.8503
32.701198898634416 29.7513
32.72440209253756 29.7366
32.747606665947124 29.7196
32.77081262006088 29.5911
32.79420126883317 29.4976
32.81740999876112 29.5054
32.840620112999424 29.4367
32.86383161274818 29.4087
32.88722585534586 29.3916
32.91044014056596 29.3643
32.933655814909734 29.2981
32.95687287957963 29.3124
32.98027273544904 29.2172
33.00349259526636 29.1797
33.026713849030116 29.293000000000003
33.04993649794511 29.1231
33.073341986570746 29.2315
33.09656744032826 29.1434
33.11979429286444 29.0839
33.14302254538647 29.1529
33.166433686291185 29.1397
33.18966475336992 28.9617
33.212897224069096 28.9137
33.23613109959831 28.9521
33.259547912343415 28.8576
33.2827846121627 28.9573
33.306022720453775 28.835
33.32926223842861 28.7145
33.352684742614166 28.7974
33.37592709463173 28.660999999999998
33.399170859982064 28.6057
33.422597648419426 28.5715
33.44584425514446 28.3981
33.46909227885668 28.4226
33.4923417207723 28.2983
33.51577423505344 28.2992
33.539026528130385 28.264
33.56228024307245 28.2364
33.585535381098246 28.0699
33.60897364093058 28.0019
33.63223163992385 28.0163
33.6554910656699 27.9265
33.678751919389796 27.9554
33.702195944520106 27.7922
33.72545966903325 27.8855
33.74872482519663 27.7823
33.771991414233746 27.7498
33.79544122444841 27.7099
33.81871069412428 27.6862
33.84198160035767 27.5833
33.86525394437455 27.6049
33.88870955949969 27.5218
33.911984794020626 27.5565
33.93526147001624 27.6111
33.958539588715006 27.3902
33.98200102861669 27.3296
34.0052820477047 27.2423
34.02856451319451 27.2602
34.05203033759056 27.2356
34.07531571090147 27.2662
34.09860253431845 27.2391
34.121890809074316 27.1116
34.145362493118924 27.0922
34.16865368561615 27.0415
34.191946333164054 26.9388
34.21524043699793 26.9285
34.23871800066799 26.9648
34.26201503218366 26.8893
34.28531352370466 26.9243
34.30861347646881 26.8196
34.33209693978188 26.7714
34.3553998301885 26.7699
34.378704185565205 26.6792
34.402010007152356 26.5619
34.42549939016683 26.5865
34.44880815937748 26.5439
34.472118398533134 26.4861
34.49543010887669 26.4399
34.51892543169198 26.2798
34.54224009966052 26.4177
34.56555624255917 26.32
34.58887386163339 26.2651
34.61237514439016 26.1878
34.6356957311114 26.1598
34.65901779775809 26.1476
34.68252356662995 26.0494
34.705848608458616 26.15
34.72917513396849 26.0308
34.75250314440949 26.0234
34.77601490857862 25.8698
34.799345904259795 25.8573
34.82267838863559 25.9252
34.846012362958525 25.8625
34.869530142679984 25.8197
34.89286711232212 25.7903
34.91620557568269 25.748
34.93954553401677 25.6842
34.9630693495876 25.6154
34.986412313340814 25.6519
35.00975677584668 25.6859
35.033102738362956 25.593000000000004
35.05663261012228 25.5371
35.0799815881786 25.5535
35.10333207003229 25.5045
35.12668405694369 25.4734
35.150220005273056 25.4158
35.17357501786656 25.3775
35.19693153931268 25.3652
35.220289570874385 25.2788
35.24383161619786 25.2734
35.267192683604904 25.2659
35.290555264930376 25.2847
35.314101899412165 25.2821
35.33746752422433 25.1443
35.36083466676374 25.2015
35.38420332829803 25.1082
35.407756095629054 25.09
35.43112781085063 25.0582
35.45450104888391 24.9959
35.477875810999194 25.0141
35.50143473172161 24.9447
35.52481255774625 25.069000000000003
35.54819191167777 24.9791
35.57157279478914 24.921999999999997
35.595137889488406 24.8335
35.61852184675279 24.8838
35.641907337029984 24.8078
35.665294361595684 24.8186
35.68886565090076 24.7046
35.7122557598848 24.5956
35.73564740699838 24.5518
35.759040593519934 24.4897
35.78261809810353 24.5201
35.80601437933051 24.4244
35.829412203814705 24.4226
35.85281157283719 24.3864
35.876395313415884 24.430999999999997
35.8997977874528 24.3546
35.92320180988546 24.2289
35.946790244133936 24.1666
35.97019737933222 24.1916
35.993606066789866 24.1347
36.01701630779276 24.1354
36.04061101440684 24.1096
36.06402437852291 24.031999999999996
36.08743930005611 24.0729
36.1108557802951 23.9442
36.13445678011326 24.0561
36.15787639383515 23.9526
36.18129757014299 23.8983
36.20472031032821 23.8307
36.22832762423364 23.8574
36.25175350829375 23.7815
36.275180960119776 23.6757
36.298609981005924 23.7602
36.32222362992669 23.8072
36.34565580510207 23.6399
36.36908955323448 23.628
36.39252487562093 23.5195
36.416144880530226 23.4855
36.43958336764275 23.4319
36.463023432914625 23.4706
36.486465077645676 23.4262
36.51009145956204 23.4435
36.53353627947859 23.4617
36.55698268276811 23.4624
36.58043067073321 23.3946
36.60406345072071 23.1695
36.62751462435344 23.2065
36.65096738658405 23.2853
36.67460498210655 23.1552
36.69806093788647 23.1082
36.72151848619297 23.0216
36.744977628333636 23.11
36.76862165890998 23.0111
36.79208400512205 22.9836
36.81554794910557 23.0083
36.83901349217101 22.8859
36.862663978991606 22.8221
36.88613273667352 22.8548
36.90960309738324 22.8558
36.933075062434064 22.8027
36.95673202673572 22.7723
36.98020721697122 22.6909
37.003684015502365 22.6542
37.027162423645365 22.6203
37.050825886711465 22.6128
37.07430753063053 22.5111
37.09779078812467 22.5264
37.121275660513014 22.5085
37.144945643673694 22.4334
37.16843376245278 22.4003
37.19192350009803 22.3652
37.215414857931435 22.2994
37.239091382563885 22.2171
37.262585997426164 22.1991
37.28608223645736 22.241999999999997
37.309763684451696 22.2748
37.33326318851098 22.1678
37.356764320726555 22.1115
37.380267082425526 22.13
37.40395510942588 22.0961
37.42746114683234 22.0312
37.45096881771841 21.9546
37.474478123414166 21.8622
37.49817275092816 21.8416
37.52168534303452 21.8934
37.54519957395567 21.825
37.568715445024665 21.798000000000002
37.592416694607714 21.7493
37.61593586281424 21.826999999999998
37.63945667518264 21.8129
37.66297913304891 21.726
37.68668702630454 21.691
37.710212792059274 21.5607
37.733740207334854 21.5953
37.757269273470364 21.5271
37.780983832050374 21.5165
37.80451621684926 21.4836
37.82805025654007 21.4697
37.851585952464795 21.3674
37.8753071980695 21.3542
37.89884622345676 21.2732
37.92238690911902 21.278000000000002
37.94611318753442 21.2056
37.969657210779765 21.2272
37.99320289834801 21.221999999999998
38.016750251586465 21.2233
38.04048325513017 21.1641
38.06403395679343 21.0497
38.087586328183946 21.0746
38.11114037065203 21.0512
38.13488012115898 21.0256
38.1584375229181 21.0264
38.181996599821 20.927
38.205557353221124 20.938000000000002
38.229303872575656 20.8342
38.2528679961576 20.8664
38.27643380031219 20.7964
38.30000128639589 20.6805
38.32375459653193 20.7415
38.34732546371299 20.7962
38.37089801690786 20.6723
38.39447225747609 20.5971
38.418232380377425 20.5246
38.441810012983396 20.5315
38.46538933705673 20.5255
38.488970353960084 20.5223
38.51273731166058 20.5095
38.536321731567014 20.4536
38.55990784840681 20.4168
38.58367995004091 20.3434
38.60726947812959 20.2703
38.63086070726198 20.2854
38.654453638806274 20.2487
38.678232613930824 20.2204
38.70182896773327 20.2192
38.72542702806741 20.1508
38.7490267963045 20.1482
38.77281266709232 20.0973
38.79641586862214 20.0777
38.8200207821842 20.0152
38.843627409152944 19.985
38.86742019782782 19.9497
38.891030269149255 19.9244
38.914642058016156 19.9081
38.938255565806124 19.8739
38.96205529464307 19.863
38.98567225787121 19.8545
39.00929094417078 19.8436
39.03291135492255 19.8128
39.05671804624804 19.8145
39.080341923549106 19.7455
39.103967529460334 19.6553
39.127594865365744 19.5776
39.15140854155791 19.5856
39.17503935514948 19.5996
39.19867190290282 19.5435
39.22249083587951 19.4619
39.24612686969409 19.4665
39.269764641845306 19.4376
39.293404153722804 19.4503
39.317230110864074 19.3652
39.34087311998506 19.281
39.36451787301696 19.3861
39.388164371352595 19.3103
39.41199737518003 19.2187
39.43564738196752 19.2117
39.45929913825317 19.1858
39.48295264543308 19.1735
39.506792718520884 19.1003
39.530449745387216 19.0976
39.55410852735203 19.0192
39.57776906581474 19.0688
39.60161623079 19.0529
39.625280300200025 19.0355
39.64894613032202 19.0214
39.67261372255866 18.8762
39.6964680021016 18.8981
39.72013913657293 18.8721
39.74381203738292 18.8942
39.76748670593756 18.8502
39.79134812278169 18.8265
39.81502634488497 18.8222
39.83870633896685 18.73
39.862388106436654 18.7093
39.88625668336918 18.6444
39.90994201572829 18.6628
39.933629125719285 18.5631
39.957503091207826 18.5604
39.9811937746168 18.5834
40.00488623990914 18.5226
40.02858048850006 18.4405
40.05246165409549 18.436
40.076159487492085 18.3768
40.099859108448875 18.4236
40.123560518384345 18.379
40.1474489070226 18.3701
40.171153913178564 18.2579
40.194860712584955 18.2529
40.2185693066637 18.2983
40.242464941335314 18.2146
40.26617714307655 18.1903
40.289891143772046 18.1663
40.3136069448471 18.1282
40.33750984859743 18.1298
40.3612292688043 18.0918
40.3849504936829 18.1071
40.40867352466194 18.06
40.43258372059144 17.999000000000002
40.45631038219906 17.9967
40.48003885420956 17.9075
40.503769138055105 17.9143
40.52768664931955 17.9321
40.55142057531802 17.8943
40.57515631746428 17.8032
40.599079334038514 17.7777
40.62281872700477 17.8129
40.64655994043941 17.7498
40.67030297578061 17.7246
40.69423334835778 17.6826
40.71798004609188 17.6412
40.74172857006355 17.6555
40.76547892171441 17.6083
40.7894166736039 17.5773
40.813170699248566 17.4684
40.83692655691388 17.5239
40.86068424804498 17.5029
40.884629402612525 17.4335
40.908390779366385 17.4769
40.932153993938 17.4534
40.95591904777605 17.3863
40.979871628443995 17.3799
41.003640379561936 17.3867
41.02741097430883 17.3705
41.05118341413683 17.2841
41.075143444384416 17.2596
41.098919593177826 17.2559
41.1226975914255 17.1921
41.14647744058318 17.1638
41.170444943946755 17.0459
41.19422851378379 17.1304
41.218013938914645 17.0538
41.24198706625173 16.9799
41.26577622087193 17.0148
41.289567235177785 16.9797
41.31336011063129 17.0313
41.337340752422875 16.9244
41.361137369129835 16.8921
41.38493585138705 16.8066
41.40873620066004 16.8957
41.43272438060107 16.7912
41.45652848292052 16.7597
41.48033445666918 16.658
41.50414230331616 16.6793
41.528138045159764 16.6581
41.551949656675205 16.6192
41.575763145513235 16.5537
41.59957851314666 16.5943
41.62358184070442 16.5854
41.64740098505737 16.534000000000002
41.6712220126409 16.4923
41.69504492493139 16.4257
41.71905586207357 16.4906
41.74288256296395 16.4273
41.766711153007456 16.4172
41.79054163368412 16.3842
41.814560204340054 16.379
41.838394485526365 16.3828
41.86223066180303 16.3432
41.88625497706819 16.2991
41.910094962812 16.217
41.93393684811168 16.1785
41.95778063445365 16.1273
41.981812625263366 16.1356
42.00566023303407 16.1467
42.029509746323676 16.1171
42.05336116662236 16.094
42.077400857069705 16.0868
42.10125611078846 16.1296
42.12511327600405 15.968
42.14897235421036 15.9947
42.173019768448455 15.9563
42.19688269209613 15.9104
42.22074753323349 15.8606
42.24461429335818 15.8592
42.268669455600495 15.8231
42.292540073217886 15.8032
42.31641261433284 15.7662
42.34028708044675 15.7294
42.36435001496739 15.7845
42.38822835065557 15.7667
42.41210861586426 15.7046
42.4359908120986 15.6945
42.46006154323262 15.6468
42.48394762115317 15.5983
42.507835634632315 15.5999
42.531912233047436 15.5423
42.55580413732265 15.5584
42.579697981698 15.4882
42.60359376768525 15.4795
42.62767820545945 15.4417
42.65157789440821 15.4412
42.67547952952185 15.3626
42.699383112316 15.3672
42.72347541395347 15.3145
42.74738291190531 15.2439
42.771292362102166 15.3297
42.795203766063516 15.3156
42.819303956130405 15.2792
42.843219287476536 15.2134
42.86713657716324 15.2134
42.89105582671383 15.1838
42.91516392983864 15.1521
42.939087119032166 15.1166
42.963012272677304 15.095
42.98693939230129 14.9943
43.01105543317513 14.965
43.034986504731386 14.9965
43.05891954686589 15.0153
43.08285456110972 14.9731
43.10697856448665 14.9025
43.130917542983475 14.8845
43.15485849820081 14.876
43.17880143167367 14.8386
43.20293342237094 14.7998
43.226880332449 14.8015
43.25082922540554 14.8227
43.27496722682525 14.7622
43.29892010567796 14.6537
43.32287497204102 14.6532
43.34683182745632 14.6375
43.370977859791836 14.6327
43.39493871351105 14.6366
43.41890156092628 14.6289
43.44286640358341 14.5583
43.46702049182749 14.5001
43.49098934522816 14.5427
43.51496019852649 14.5242
43.5389330532723 14.4556
43.56309522248204 14.4498
43.58707210044314 14.44
43.61105098451946 14.3899
43.63503187626491 14.3668
43.659202151562134 14.3267
43.68318707902681 14.3629
43.70717401884041 14.3391
43.731162972560874 14.2631
43.75534137913236 14.2038
43.779334381108384 14.1858
43.803329401683186 14.1987
43.82732644241872 14.1759
43.8515130055166 14.1712
43.87551410707659 14.0938
43.89951723350145 14.0981
43.923709934595614 14.0819
43.94771713129917 14.0304
43.97172635758096 13.9997
43.99573761501002 13.9935
44.0199385169922 13.9431
44.04395385732619 13.9553
44.067971233533086 13.9517
44.09199064718605 13.8551
44.11619977548961 13.9185
44.14022328470671 13.8388
44.16424883610785 13.8077
44.18827643127035 13.8004
44.21249381139513 13.7962
44.236525514814076 13.790999999999999
44.26055926674478 13.7648
44.28459506876863 13.7423
44.3088207262813 13.6893
44.33286064928722 13.6682
44.35690262714919 13.6251
44.38094666145278 13.6205
44.4051806219871 13.5936
44.42922879003185 13.5399
44.45327901929361 13.5937
44.477331311362136 13.5451
44.501573600619416 13.4763
44.525630039221795 13.4539
44.54968854541895 13.4801
44.573937102200176 13.4247
44.5979997645541 13.4107
44.622064499300315 13.3915
44.64613130803592 13.3262
44.67038823869318 13.3858
44.69445921643748 13.2689
44.718532272981385 13.2258
44.742607409926194 13.2581
44.76687274034801 13.2014
44.79095205918753 13.16
44.81503346325094 13.1573
44.839116954143876 13.1372
44.86339071028742 13.1487
44.88747839599524 13.0935
44.91156817336837 13.0768
44.93566004401666 13.0325
44.959942251908146 13.0958
44.984038330325966 13.0643
45.00813650686762 12.9697
45.03223678314731 12.9699
45.05652746888232 12.9246
45.08063196592069 12.8972
45.104738567558705 12.9215
45.128847275414856 12.8833
45.15314646515866 12.8341
45.17725940679741 12.8255
45.20137445952892 12.8031
45.22568004865265 12.8037
45.24979934496396 12.7691
45.27392075725247 12.7889
45.29804428714431 12.7434
45.322358426247604 12.6924
45.346486212804315 12.6516
45.370616121861914 12.6849
45.39474815505086 12.6497
45.41907087049246 12.5944
45.4432071734666 12.5764
45.46734560548283 12.5771
45.49148616817604 12.5828
45.51581748638564 12.5201
45.5399623320197 12.5403
45.56410931325473 12.4558
45.58825843173002 12.4794
45.61259837920865 12.4442
45.636751793816 12.4524
45.66090735060093 12.3922
45.68506505120716 12.345999999999998
45.7094136545275 12.3554
45.73357566449271 12.2923
45.75773982322992 12.2414
45.78190613238733 12.2963
45.806263418194064 12.1996
45.83043404997326 12.2578
45.85460683713677 12.2203
45.87897065658495 12.2109
45.90314777634752 12.1211
45.92732705646868 12.1385
45.9515084986045 12.1416
45.97588104735473 12.09
46.00006683541565 12.0726
46.02425479047904 12.0738
46.04844491420549 12.0793
46.0728262191024 12.0408
46.09702070211635 12.0263
46.12121735879483 11.9981
46.14541619080294 11.9784
46.169806278764455 11.9641
46.194009483459034 11.9357
46.21821486849841 11.8801
46.24242243555223 11.8485
46.266821333570014 11.8783
46.29103328674601 11.8262
46.31524742696538 11.8336
46.33946375590237 11.7936
46.36387149104216 11.7604
46.38809221957392 11.7217
46.41231514186606 11.7238
46.436540259597464 11.7179
46.460956858999374 11.6763
46.48518638983522 11.6864
46.509418121166966 11.6273
46.533652054678114 11.6071
46.55807754555709 11.5834
46.58231590571962 11.5783
46.60655647313217 11.5289
46.630988654873654 11.4784
46.655233659129024 11.4672
46.67948087571551 11.4784
46.70373030632484 11.4897
46.72817142736393 11.4287
46.752425308428684 11.3925
46.77668140861147 11.4152
46.80093972960865 11.3534
46.82538981736788 11.2966
46.849652602470904 11.3176
46.87391761349769 11.3152
46.8981848521493 11.2766
46.9226439341274 11.2404
46.946915650573224 11.2305
46.97118959976749 11.2536
46.99546578341598 11.1781
47.019933887188216 11.1859
47.04421456235744 11.1782
47.06849747711879 11.1457
47.09278263318286 11.1187
47.11725978640143 11.1161
47.14154944775105 11.0945
47.165841355555656 11.045
47.1901355115306 11.0175
47.214621741924994 11.0462
47.23892041698887 10.9705
47.26322134538975 10.9774
47.28771440635075 10.9243
47.31201986422527 10.9379
47.33632758061436 10.9298
47.360637557241866 10.8902
47.38513974410611 10.9134
47.40945426407847 10.8673
47.43377104948137 10.8228
47.45809010204344 10.8145
47.48260144275502 10.7911
47.506925052572285 10.7555
47.53125093475548 10.7745
47.55557909103813 10.7642
47.58009961361992 10.7301
47.60443234110732 10.6967
47.62876734791564 10.6868
47.65310463578333 10.6444
47.6776343683373 10.6507
47.7019762413987 10.5797
47.72632040075572 10.5691
47.75066684815169 10.5808
47.77520581885936 10.5621
47.799556865477655 10.5296
47.823910205386 10.5202
47.84826584033272 10.5251
47.87281407745551 10.4709
47.89717432569297 10.4706
47.92153687423484 10.4655
47.94609208429692 10.4247
47.97045925671401 10.4055
47.99482873471275 10.3929
48.01920052005013 10.3718
48.04376504619224 10.3297
48.068141469543484 10.3386
48.09252020552573 10.3126
48.11690125590099 10.3213
48.1414751266064 10.309000000000001
48.16586082917454 10.2919
48.19024885144316 10.2236
48.2146391951793 10.2238
48.239222439012764 10.236
48.26361744916137 10.161
48.28801478610016 10.1806
48.31241445160131 10.1578
48.337007097209366 10.0945
48.36141144338331 10.0674
48.38581812345755 10.0932
48.41022713920929 10.0754
48.434829215320704 10.0687
48.45924292604658 10.0575
48.48365897780325 10.0839
48.50807737237308 10.0282
48.532688907799276 9.99664
48.55711201168574 9.96401
48.581537463754074 9.97757
48.60615611725119 9.9946
48.63058628942721 9.93586
48.65501881516546 9.9107
48.6794536962573 9.89221
48.70408185970339 9.86501
48.72852147531801 9.83227
48.75296345168211 9.81676
48.77740779059232 9.8049
48.80204549302823 9.79492
48.82649458091802 9.78231
48.85094603676547 9.77815
48.87539986237231 9.713560000000001
48.90004713292306 9.71358
48.92450572200832 9.755889999999999
48.94896668628025 9.71537
48.97343002754588 9.66703
48.99808689542115 9.5899
49.02255501470614 9.66915
49.04702551642794 9.65275
49.0714984023988 9.58165
49.096164896893235 9.571860000000001
49.120642575466796 9.57214
49.145122643748394 9.54632
49.16960510355558 9.53026
49.19428125404938 9.474960000000001
49.2187685210852 9.48678
49.243258185121555 9.44921
49.26794160167084 9.4919
49.2924360839405 9.44797
49.31693296869764 9.40145
49.34143225776915 9.38503
49.36612538195438 9.315430000000001
49.39062950396021 9.33062
49.41513603578346 9.34752
49.4396449792564 9.32438
49.46434784069503 9.336910000000001
49.488861631846454 9.29865
49.513377840166804 9.24858
49.537896467493745 9.22518
49.56260909589029 9.194989999999999
49.587132585683285 9.20645
49.611658500018365 9.17795
49.636186840738596 9.13155
49.66090926588511 9.12481
49.685442483902584 9.10298
49.70997813385706 9.095360000000001
49.734516217597076 9.091389999999999
49.75924846937352 9.096219999999999
49.7837914452858 9.08473
49.80833686055187 9.03669
49.83288471702571 9.00225
49.85762682540054 9.04078
49.882179588965734 9.02155
49.9067347993235 8.99692
49.93129245833333 8.96976
49.95604445336378 8.91724
49.98060703442832 8.92801
50.005172069746266 8.90516
50.02993150438364 8.90328
50.05450147301533 8.9423
50.07907390151433 8.84947
50.10364879174981 8.829180000000001
50.12841816587289 8.81873
50.1529980044635 8.7963
50.17758031042124 8.78812
50.20216508562089 8.7971
50.22694442953363 8.71959
50.25153416817468 8.75079
50.27612638170508 8.75848
50.300721072005196 8.69448
50.325510416102105 8.68445
50.350110084975064 8.69645
50.37471223628208 8.6377
50.39931687190919 8.593960000000001
50.424116246675766 8.6105
50.44872587605249 8.607330000000001
50.47333799543065 8.6597
50.49795260670191 8.581560000000001
50.52276204271512 8.55033
50.54738166295838 8.57522
50.57200378079314 8.545539999999999
50.596628398116835 8.48985
50.62144792604559 8.49245
50.646077567609396 8.44989
50.670709714377715 8.44084
50.69553683636198 8.4739
50.72017401885922 8.43314
50.7448137122895 8.45299
50.76945591856022 8.38316
50.79429318636823 8.39695
50.818940443716784 8.38366
50.84359021965163 8.33686
50.868242516085964 8.30949
50.893089960641895 8.30355
50.917747323549435 8.29734
50.94240721271973 8.29293
50.96706963007175 8.25633
50.99192728239342 8.285730000000001
51.01659478166073 8.25183
51.04126481489051 8.22604
51.06593738400761 8.23616
51.090805275207074 8.20814
51.11548294172845 8.18329
51.14016314993547 8.188369999999999
51.164845901758845 8.16576
51.18972406304274 8.12523
51.21441192780656 8.076789999999999
51.23910234200271 8.08892
51.2637953075678 8.06085
51.288683770237945 8.037930000000001
51.31338186432707 8.01915
51.33808251561888 8.02627
51.362978729967345 8.01407
51.387684521509755 7.971769999999999
51.41239287610203 7.94958
51.437103795691165 7.97275
51.46201036644977 7.9130899999999995
51.486726441956634 7.890739999999999
51.51144508832545 7.918360000000001
51.536166307509156 7.87182
51.56108326624387 7.86693
51.58580965706056 7.863980000000001
51.61053862657523 7.83674
51.635270176746864 7.80629
51.66019755512065 7.82361
51.68493429268881 7.78609
51.70967361681515 7.7697199999999995
51.73441552946465 7.77663
51.759353359237934 7.72675
51.7841004750961 7.7243699999999995
51.80885018539685 7.68576
51.833602492111254 7.676889999999999
51.8585508051424 7.6688600000000005
51.883308330926425 7.65946
51.90806845906181 7.661910000000001
51.932831191525715 7.63605
51.95779001977161 7.576689999999999
51.98255798721516 7.55674
52.00732856494335 7.568630000000001
52.03229530577543 7.56473
52.057071130455945 7.508889999999999
52.081849571391054 7.52762
52.106630630568695 7.50438
52.13160794279417 7.47198
52.15639426492067 7.46444
52.18118321127822 7.45287
52.205974783860896 7.4398
52.23096269971011 7.449260000000001
52.255759551287994 7.47204
52.280559035098186 7.424589999999999
52.30536115314103 7.35765
52.33035970494467 7.39848
52.35516711807904 7.34963
52.37997717147198 7.34248
52.40478986713005 7.344760000000001
52.42979908731974 7.31845
52.454617094216 7.31233
52.47943774942214 7.28512
52.50426105495102 7.294789999999999
52.529280976059844 7.241810000000001
52.554109609024096 7.24978
52.57894089837482 7.22645
52.60377484613117 7.2286399999999995
52.62880550079408 7.16459
52.65364479223379 7.203639999999999
52.67848674816189 7.14535
52.70352547971946 7.1253899999999994
52.72837279155837 7.13506
52.753222773982785 7.11291
52.778075429022984 7.05819
52.80312495150885 7.101139999999999
52.827982978797436 7.09496
52.85284368481815 7.06557
52.87770707160767 7.075639999999999
52.90276741793998 7.031460000000001
52.92763619336701 7.00375
52.952507655698504 6.97376
52.977381806977576 6.99748
53.00245301017842 7.0019800000000005
53.02733256653592 6.984030000000001
53.052214817996074 6.9675899999999995
53.077099766608484 6.9308
53.102181859804446 6.9015699999999995
53.127072229988265 6.91288
53.15196530349892 6.89647
53.17686108239249 6.90176
53.20195409881522 6.846369999999999
53.22685531582556 6.83011
53.25175924441303 6.81618
53.27666588664027 6.7983899999999995
53.30176985962693 6.80231
53.3266819565689 6.802060000000001
53.35159677336455 6.77568
53.376514312083096 6.759710000000001
53.40162927507703 6.73653
53.42655228516116 6.7256100000000005
53.45147802340193 6.708889999999999
53.47660125628886 6.67133
53.50153247842639 6.62392
53.52646643496923 6.684239999999999
53.55140312799818 6.67338
53.576537409691696 6.643910000000001
53.60147960336152 6.5943
53.626424539786164 6.608169999999999
53.65137222105307 6.591889999999999
53.67651758529126 6.569560000000001
53.70147078399681 6.540019999999999
53.72642673383343 6.5563
53.75138543689533 6.5475
53.776541917524526 6.54589
53.801506154876755 6.50053
53.826473151763246 6.532769999999999
53.851442910284916 6.46989
53.87661054126026 6.47202
53.9015858509782 6.49515
53.92656392866066 6.42275
53.95154477641532 6.43203
53.976723591801296 6.39599
54.00171000771266 6.39915
54.02669920004598 6.38057
54.051691170915745 6.3389
54.076881204886796 6.35385
54.101878760928514 6.33188
54.12687910187696 6.26641
54.152077577768296 6.32958
54.1770835166946 6.29051
54.20209224691339 6.29333
54.22710377055121 6.252280000000001
54.25231352511594 6.23656
54.27733066384342 6.23409
54.30235060239643 6.17926
54.32737334290836 6.17212
54.35259441062629 6.14984
54.377622783395324 6.15067
54.40265396455061 6.1451400000000005
54.42768795623251 6.1264
54.45292037169559 6.05794
54.477960012857906 6.05205
54.50300247099511 6.05927
54.52804774825457 6.05884
54.55329154616743 5.9988
54.57834249018678 5.9787
54.6033962597977 5.98571
54.6284528571545 5.9423
54.653708072335164 5.94621
54.67877035378786 5.91993
54.70383546947698 5.86632
54.72890342156389 5.85797
54.7541700889442 5.839169999999999
54.77924374251975 5.8575099999999996
54.8043202390049 5.76821
54.82959552413022 5.71168
54.8546777351945 5.75815
54.87976279569621 5.75275
54.90485070780914 5.77975
54.930137506558005 5.70458
54.95523115074295 5.684130000000001
54.98032765308844 5.63775
55.005427015775496 5.6237699999999995
55.03072536339621 5.62062
55.05583047570572 5.54787
55.080938454927676 5.52794
55.10604930325027 5.53348
55.131359235107396 5.52836
55.15647585066083 5.48695
55.181595341907496 5.50893
55.20671771104285 5.511369999999999
55.232039262617704 5.4392
55.25716741665048 5.36691
55.28229845518636 5.39495
55.30743238042802 5.370369999999999
55.33276558731939 5.3268
55.357905315183636 5.302569999999999
55.383047936390035 5.262519999999999
55.40819345314859 5.2152199999999995
55.433538351073295 5.19396
55.458689688238415 5.23225
55.483843927614096 5.20087
55.509197623043605 5.1727099999999995
55.53435769621134 5.12835
55.55952067826466 5.08775
55.5846865714265 5.10177
55.61005202069737 5.06346
55.63522376553902 5.03315
55.66039842818645 5.07566
55.68557601087004 5.016769999999999
55.7109532500271 4.9658
55.73613670233794 5.0108
