TT I
1.2716486653135266 7.401
1.2939594142134223 7.4356800000000005
1.3162702121660406 6.94532
1.3385810600174564 6.8449800000000005
1.3608919586137629 6.8307899999999995
1.383202908801069 6.72922
1.405513911425503 6.2089300000000005
1.4278249673332093 6.79034
1.4501343378461518 6.80293
1.4724455028545926 6.31343
1.4947567236847858 6.008430000000001
1.517068001182951 6.23989
1.5393793361953272 5.90954
1.5616907295681737 5.59844
1.5840021821477681 5.70536
1.60631369478041 6.02986
1.6286252683124185 5.190930000000001
1.6509369035901333 4.68078
1.6732468618895553 4.89816
1.695558623192809 5.25579
1.7178704487808514 5.13716
1.7401823395001077 5.1070199999999994
1.7625012545597203 4.5027
1.7848028405262486 4.75536
1.8071218901122095 5.2489099999999995
1.8294236121921872 4.5025900000000005
1.8517427996910911 4.48844
1.8740620574440425 4.9835199999999995
1.8963639900671978 4.75114
1.9186833908139995 4.47492
1.9409854680117449 4.61638
1.9633050151394713 5.23136
1.9856246367570705 5.21253
2.0079269371922672 4.893619999999999
2.03024671027244 4.950819999999999
2.0525491637446027 4.76805
2.074869091674931 5.00812
2.097171701569106 5.04927
2.1194917877373847 5.1429599999999995
2.141811954326636 4.74286
2.164114805233074 4.6885
2.186435135143035 6.44064
2.208738150935709 15.3812
2.231058647554722 33.2928
2.2533792288321184 25.9112
2.275682498336085 11.0803
2.298003251406138 6.4385900000000005
2.3203066942619714 5.7483
2.3426276225136022 5.48497
2.3649486396617507 5.35002
2.387252348930071 5.27157
2.4095735463442893 5.3025
2.4318774374315884 5.78523
2.4541988185014043 5.79085
2.476502894794693 5.873469999999999
2.498824462909887 6.655130000000001
2.521146125856138 7.11078
2.5434504863470337 6.78385
2.5657723414244717 7.73491
2.588076895590662 7.39929
2.610398946189713 7.9873899999999995
2.6327210958598384 7.1892
2.6550259469304716 7.225230000000001
2.6773482972090137 8.015139999999999
2.6996533504259 7.568739999999999
2.7219759047039602 7.8883399999999995
2.744298562293959 7.8302
2.7666039251246595 7.03555
2.7889267918020164 7.267469999999999
2.8112323652516555 7.62827
2.833555444408179 8.26061
2.8558786311183852 8.33354
2.8781845268938557 8.3698
2.9005079311721484 9.136619999999999
2.9228140460410397 9.17486
2.9451376712799635 9.161810000000001
2.967444008632326 9.216289999999999
2.9897678582247247 9.85923
3.0120918213106695 10.6486
3.0343984987899373 10.6158
3.0567226913198637 11.3744
3.079029599759726 11.8234
3.101354025127254 12.3985
3.123678568232338 12.8215
3.145985829517914 12.8017
3.16831061055229 14.0524
3.1906181112775593 13.9388
3.212943133635653 14.9693
3.2352682779763207 15.3635
3.2575761442691227 15.2312
3.2799015350264273 15.8186
3.302209649240067 16.2797
3.3245352898092655 17.4046
3.3468436553365257 17.7792
3.369169549113219 18.0707
3.3914955708171384 19.166
3.413804319727358 18.8704
3.4361305997334863 19.2021
3.4584396084414553 20.2468
3.4807661501462652 20.6952
3.503092824025881 21.2563
3.5254022288463154 21.6747
3.5477291695206588 22.2376
3.5700388426251948 22.8076
3.5923660534916446 24.5804
3.6146934007816114 42.5225
3.637003482731501 104.236
3.6593311053109985 115.75299999999999
3.681641464033634 64.5716
3.7039693653009733 32.2656
3.726297407241705 27.0303
3.7486081875460804 26.479
3.7709365132734978 26.6761
3.793247578841633 26.9907
3.8155761917550093 26.948
3.8378875459837216 27.1576
3.8602164494827234 27.7751
3.882545499606844 28.6289
3.9048572932539183 29.3735
3.9271866390645718 29.795
3.9494987298666713 30.3443
3.971828374764527 30.2951
3.9941581705403255 30.9581
4.016470713506008 32.1315
4.038800813471445 32.3285
4.061113662089144 32.6222
4.0834440696459176 33.8459
4.105774632334751 34.8903
4.128087945865126 35.3037
4.150418821249301 36.4164
4.172732448931298 37.6117
4.195063640413578 39.9911
4.2173775856475215 44.2858
4.239709096631102 82.7049
4.262040768704612 281.51599999999996
4.284355196706267 389.25699999999995
4.306687193387355 247.57
4.329001947444346 91.2876
4.35133427213731 50.1436
4.373666762177566 45.7743
4.395982011761091 45.3799
4.418314834921175 46.7966
4.44063041906622 56.074
4.4629635787515625 69.60300000000001
4.4852969080429785 69.0382
4.5076130004776225 55.8416
4.529946671403969 50.8408
4.552263106909177 50.3797
4.574597122877047 51.4819
4.596931312711224 53.1944
4.619248269273446 54.0094
4.6415828092605835 54.8957
4.663900117405352 55.8292
4.686235010953232 57.5579
4.708552674085913 58.8941
4.730887924602802 60.1261
4.753223354952695 61.2966
4.775541557023902 62.7633
4.797877349456786 64.1395
4.820195915032126 66.2009
4.842532072957498 67.7179
4.864868414979744 69.6863
4.88718753227192 71.8531
4.909524244902505 73.7045
4.931843734218147 75.8845
4.954180820867835 77.839
4.976518095879839 81.5624
4.998838149695359 84.1071
5.021175803844231 87.7134
5.043496238205739 90.9704
5.065834274903528 95.3934
5.088172504230693 100.351
5.1104935158799565 107.10600000000001
5.132832132875765 133.183
5.155153533596801 185.69799999999998
5.1774925416746225 224.291
5.199814334878411 382.495
5.2221537374521505 1060.17
5.244493338631803 2863.59
5.266815727034316 7316.19
5.289155727832427 11816.6
5.311478517248165 9064.59
5.333818921080011 3242.61
5.356159527788849 663.712
5.3784829252032536 204.84400000000002
5.400823940070432 152.391
5.423147747031976 133.762
5.445489173474152 122.493
5.467830807066149 116.171
5.490155234831516 111.488
5.512497285125229 108.054
5.534822130975162 105.898
5.557164601388673 103.20200000000001
5.579489868738879 100.569
5.601832762690846 100.118
5.6241758697774475 99.1685
5.646501775867269 98.3692
5.668845311622074 96.6966
5.691171647754637 95.5294
5.713515615597765 94.3059
5.735859800852677 93.6017
5.758186788542988 92.27799999999999
5.780531411018185 92.6308
5.802858837297399 92.4927
5.825203900414495 92.1629
5.8475491852224 92.2107
5.869877275883075 92.5928
5.892223006467101 94.1166
5.914551544266608 95.4274
5.936897724049891 98.26700000000001
5.959244129804903 103.95
5.981573344815301 122.863
6.0039202049061 212.355
6.026249875609095 467.001
6.04859719346037 988.972
6.070927323278297 2124.54
6.093275102315365 4136.14
6.115623113320588 5226.62
6.137953938319995 3473.21
6.160302415650845 1200.42
6.182633708324452 293.77299999999997
6.2049826554078376 124.759
6.227331838745022 97.2223
6.249663839443684 88.5796
6.27201349767565 85.3402
6.294345974611799 93.4147
6.316696111167083 108.07799999999999
6.339046488263839 101.54
6.361379686074702 83.3266
6.383730546639482 73.4999
6.406064229255215 70.3059
6.428415576718203 69.3254
6.450749747566656 68.1322
6.47310158535871 66.8461
6.495453669698332 66.3071
6.517788579421056 66.0061
6.540141159237969 64.8762
6.562476565766648 64.5507
6.5848296444934045 63.8641
6.607182974060425 63.4157
6.6295191323281015 63.9113
6.651872965955752 67.4202
6.6742096296068985 100.054
6.6965639707294615 159.02100000000002
6.71891856698715 159.032
6.741255995248479 103.91799999999999
6.763611104154477 70.6691
6.785949046381137 61.6492
6.808304671371482 59.3324
6.8306605557940046 59.2821
6.852999275508618 58.3815
6.875355681171544 58.1638
6.897694923437771 57.8804
6.92005185377892 57.6984
6.9423916220322655 57.2695
6.964749080490181 56.5058
6.987106804399774 56.985
7.009447368180821 56.3531
7.031805625367033 56.1489
7.054146723727803 56.5517
7.076505517631004 56.3959
7.098864581288365 56.2164
7.121206488070854 56.0974
7.143566093607822 56.0699
7.165908543567245 56.2401
7.188268694426048 55.9853
7.2106291193438095 56.2048
7.232972390625943 58.3072
7.255333366030969 73.6265
7.277677189091925 141.44299999999998
7.300038718428332 201.315
7.322400526130865 167.858
7.344745183422596 98.8892
7.367107550224791 64.6428
7.389452767901992 57.7673
7.411815697249891 56.3304
7.434161478756298 55.3262
7.456524974096713 55.294
7.478888753837185 55.2742
7.501235387657368 55.6613
7.523599738562711 55.5949
7.545946944825532 55.668
7.568311870344528 56.1553
7.5906770845765665 56.3652
7.613025156078678 58.1112
7.635390950099687 59.818000000000005
7.657739602662809 58.8211
7.680105979923558 56.9368
7.702472650212829 57.0692
7.724822180948224 56.7321
7.747189439655568 56.8874
7.769539560075357 57.1056
7.791907410653562 57.4945
7.81425812420825 57.2064
7.836626570110925 57.1506
7.858995315087906 58.405
7.881346924933401 58.4609
7.903716270417482 58.8232
7.926068482028405 59.3085
7.948438431475253 60.3096
7.9708086843180235 60.5448
7.993161805171116 61.1664
8.015532667162402 61.4258
8.037886398416653 62.7178
8.060257873014221 62.6799
8.082629655331942 63.5222
8.104984308787587 64.7122
8.127356708900503 68.5355
8.149711981398308 75.6251
8.172085002766314 78.1109
8.194458336181368 73.6507
8.216814543847752 70.4025
8.23918850371002 70.4944
8.26154533906492 71.3779
8.283919928836452 72.4035
8.306277395339652 73.4557
8.328652618483376 74.8437
8.351028159736202 76.6792
8.373386579575245 79.0297
8.395762759396959 80.8207
8.418121819038275 86.8495
8.440498640894003 102.648
8.462875785192262 119.139
8.485235811156207 130.15200000000002
8.507613602688501 167.229
8.529974277114228 254.585
8.552352719347912 389.525
8.574731488360351 645.931
8.59709314210385 1127.28
8.619472567021075 1775.33
8.64183487789147 2125.22
8.664214962183097 1886.45
8.686577933647762 1053.88
8.708958680784317 419.23400000000004
8.731339760774953 188.269
8.753703729764451 118.40799999999999
8.77608547780821 101.79899999999999
8.798450116065078 97.5476
8.820832535634787 94.4599
8.843215292401656 92.6236
8.865580941199045 90.8485
8.887964374703538 90.0097
8.910330701447199 91.5285
8.932714815164482 95.1679
8.955099270424924 93.8179
8.977466620733543 89.9756
8.999851761421976 86.8385
9.022219798361645 84.962
9.04460562795561 84.3557
9.066991803441677 83.8303
9.089360876979615 83.6069
9.111747746589993 83.3978
9.13411751544971 82.5955
9.156505082664324 82.7152
9.178875550323522 83.0449
9.20126381862328 83.2737
9.223652438908596 83.9778
9.246023961427412 84.057
9.26841328802173 82.8981
9.290785518039224 82.6804
9.313175554425882 83.3682
9.335565947154315 83.2343
9.357939245086508 83.6178
9.380330352834827 83.6679
9.40270436697103 83.9993
9.425096193225055 83.7243
9.447488380180165 84.6716
9.469863475295412 85.0627
9.492256385987508 85.6598
9.514632206018318 86.1965
9.537025843935714 86.0695
9.559402392368193 87.0161
9.581796761000229 88.1395
9.604191496441521 89.8898
9.626569144158516 93.5814
9.648964615551032 99.1909
9.671343000390081 101.21799999999999
9.693739211225699 98.4669
9.716135793237463 94.9097
9.738515290448102 93.9961
9.760912617143402 94.8941
9.783292860202891 96.3405
9.805690935076182 97.9574
9.828089385495742 98.3751
9.850470754023561 101.414
9.872869957865444 110.385
9.89525208097539 128.362
9.917652041736662 143.875
9.940052382417589 142.21200000000002
9.962435644102392 144.687
9.984836746950979 178.938
10.007220771957746 242.608
10.029622640473708 344.163
10.052007432299963 513.716
10.074410069984072 774.2410000000001
10.096813093716005 1181.36
10.119199042482517 1635.89
10.141602840636468 1896.24
10.163989564971628 1639.98
10.186394141051062 987.6669999999999
10.208799107559706 447.38300000000004
10.231187001965623 212.84099999999998
10.253592751657669 134.939
10.275981430388155 117.18700000000001
10.298387966769793 116.279
10.320794897965431 120.07600000000001
10.343184759907361 118.458
10.36559248305461 111.48
10.387983138083852 106.527
10.410391656691655 108.63600000000001
10.432800574501677 119.125
10.455192425893369 135.82
10.47760214443012 160.967
10.499994797678786 202.847
10.522405320453982 275.224
10.54479877906917 382.85699999999997
10.567210109595656 498.07800000000003
10.5896218454736 559.294
10.612016518879773 529.128
10.634429067781074 382.341
10.656824555333241 224.59599999999998
10.679237920773568 135.186
10.701651695961992 100.139
10.724048411481384 91.1754
10.746463008485165 88.2145
10.768860546937125 86.2797
10.791275969274796 84.2741
10.81369180576079 82.9449
10.836090585366925 82.2813
10.858507252467449 80.9882
10.88090686379991 80.21
10.903324365036394 79.4386
10.925724811614439 79.562
10.948143150509463 81.2825
10.970561909719066 80.4564
10.992963615930844 78.4865
11.015383218085756 76.0091
11.037785768347074 74.4802
11.06020621697282 73.9494
11.082627090322113 73.0057
11.105030913430326 72.7752
11.12745263854165 73.7159
11.149857314510728 77.7876
11.172279894912576 85.9011
11.194702904450653 86.7631
11.217108866490921 81.847
11.239532736615194 76.5244
11.26193956033512 73.5466
11.284364294577085 71.471
11.306789462371718 69.1933
11.329197585398376 68.1632
11.351623622610898 67.9739
11.37403261614354 67.0568
11.396459526308487 66.8264
11.418869393879497 66.298
11.441297180532617 66.0989
11.463725406927658 65.8887
11.486136592353875 65.7775
11.508565700543707 66.3996
11.530977768845315 68.6285
11.553407762368774 70.0574
11.575838200059769 69.2068
11.598251599479612 66.87
11.620682927815501 64.9498
11.64309721895548 64.6336
11.665529441478206 64.1683
11.687962112597958 63.9152
11.710377748130886 63.9049
11.732811318753434 63.4977
11.755227854859067 63.6222
11.777662328529495 63.5014
11.800079768750786 63.7064
11.822515149015453 63.4032
11.844950984084935 63.8154
11.867369787303163 62.8379
11.889806534289491 63.0494
11.912226250487029 63.7163
11.934663912939751 63.7022
11.9571020346363 63.6254
11.979523127133968 63.6355
12.001962169624331 64.4452
12.024384183972964 65.2888
12.046824150809913 68.125
12.069264581333726 73.7324
12.091687985297767 80.1921
12.11412934550045 89.2614
12.136553680195208 103.855
12.158995973632788 123.491
12.181438735204349 151.619
12.20386447284199 180.25099999999998
12.226308172985636 203.102
12.24873485024193 206.33599999999998
12.271179492516982 174.873
12.293607112949127 137.744
12.316052700916226 103.318
12.338498763250042 83.5264
12.360927805303868 72.9161
12.383374818673879 68.0213
12.405804812803074 65.7281
12.428252780773262 65.3822
12.45070122756722 65.1488
12.473132656675375 65.1078
12.49558206341869 65.2614
12.518014453510101 65.3622
12.540464823770117 65.2703
12.562915677315177 65.7553
12.58534951575545 66.6045
12.607801338171472 68.7975
12.630236146511358 75.1992
12.652688941369085 81.2796
12.675124723177234 81.7367
12.697578494048786 77.1081
12.720032754458185 71.1562
12.742470003354093 69.0781
12.764925245138771 68.4563
12.787363476431278 68.7706
12.809819703166806 69.0931
12.83227642391173 69.8326
12.854716135692716 70.4227
12.877173846755147 71.6892
12.899614549869717 71.64699999999999
12.9220732548287 72.63
12.94453245827299 73.0107
12.966974655289818 74.0689
12.989434858002571 75.0878
13.011878055298721 75.4656
13.034339260862497 76.4992
13.056800969391883 77.7117
13.079245674017244 79.6915
13.101708390774869 81.8142
13.12415410463411 88.6727
13.146617833206086 100.68
13.169064559883248 113.212
13.191529303857127 127.48899999999999
13.213994557076367 149.309
13.236442809902437 182.237
13.258909083908291 231.21
13.28135835851934 290.259
13.30382565690295 354.17400000000004
13.326293469022952 412.86800000000005
13.348744283242008 433.629
13.371213125129904 383.921
13.39366497011003 286.04
13.416134845360597 191.97
13.438605238843131 131.80200000000002
13.46105863690397 109.557
13.483530069144786 106.98200000000001
13.505984506951902 111.709
13.528456981549432 121.071
13.550929978879088 135.662
13.573385983253365 157.357
13.595860028340867 192.153
13.618317081455832 238.47799999999998
13.64079217790333 288.103
13.663250283359057 334.774
13.685726434770173 364.64599999999996
13.708203115221277 344.58
13.730662806148091 280.594
13.75314054697177 202.046
13.775601299246777 139.41
13.798080104050406 102.771
13.820559442405358 87.8413
13.843021793671388 83.2554
13.865502201420897 81.3989
13.887965623051947 80.7042
13.910447103807167 79.4544
13.932929122629764 78.2247
13.955394156785959 77.5936
13.977877254034569 76.6466
14.000343367582113 75.9345
14.022827546871707 75.24
14.045294743423524 74.2497
14.06778000837062 73.9782
14.090265817715476 73.7811
14.112734645763819 73.3829
14.13522154619454 73.4521
14.157691466286913 73.5905
14.180179461423874 73.2765
14.202668005486178 72.3405
14.22513957064374 71.5904
14.247629214846473 71.1652
14.270101881097517 70.92699999999999
14.29259262906496 71.7094
14.315083930490205 72.4582
14.337558255389705 72.9188
14.360050666019726 72.2971
14.382526101071944 71.2681
14.405019624534942 70.2189
14.427513705993134 69.4794
14.449990813291825 69.3441
14.47248601302899 69.3708
14.49496423954951 69.7289
14.517460561197822 69.7239
14.539939910570322 69.4584
14.562437357763558 69.8536
14.58493536931253 71.2869
14.607416409993311 72.3202
14.62991555254159 72.9877
14.652397725157423 72.8914
14.674898002342799 71.8813
14.697398848433282 71.3339
14.719882725991326 71.6658
14.74238471217934 72.4337
14.764869730765593 75.7091
14.787372860692983 79.2667
14.809876564079925 83.9819
14.83236330125751 89.7465
14.854868153850365 97.8913
14.877356041159485 110.26
14.899862046604186 127.444
14.922351087688757 149.53
14.944858249632887 175.984
14.967365991421232 200.265
14.989856770231246 219.105
15.012365673994204 217.06
15.03485761569738 193.649
15.05736768508665 156.384
15.07987833888692 120.7
15.102372032001655 94.8337
15.124883856909658 79.2555
15.14737872204565 73.78
15.169891721717274 71.5258
15.192405310371893 71.639
15.214901940621196 72.2177
15.237416709527137 72.4185
15.259914520936249 72.49
15.282430473753607 71.6478
15.304947020131227 70.0647
15.327446610371178 69.1158
15.349964346154254 68.1857
15.372465126703139 67.5963
15.394984055556009 67.1895
15.417486030076159 67.2291
15.44000615566487 66.8548
15.462526881230803 66.8422
15.485030653812652 67.0222
15.507552581617434 67.0948
15.530057557334603 67.1785
15.55258069104857 67.0973
15.575104429329837 66.8287
15.597611216864632 66.3617
15.620136166564563 66.5266
15.6426441664095 67.4962
15.665170331202765 69.6011
15.687697105158826 72.6703
15.710206930593545 76.0587
15.732734925158933 80.2151
15.755245972089478 86.5504
15.77777519094324 95.1094
15.800287463046663 106.95
15.822817909869592 123.60600000000001
15.84534897229804 142.614
15.867863089299354 165.768
15.890395385222186 181.24
15.912910736597423 192.125
15.935444269699861 185.06400000000002
15.957978423016485 162.529
15.980495633101265 131.308
16.003031029129367 102.949
16.02554948280019 81.0994
16.048086125229432 70.53699999999999
16.070623392487107 67.2321
16.09314371869582 66.2078
16.11568223789321 65.1455
16.13820381691126 64.0601
16.160743591742527 62.6358
16.183283996022084 61.6611
16.205807461423195 60.3682
16.228349126881973 59.7575
16.25087385432698 59.6093
16.27341678466365 59.2702
16.29594277784926 59.2881
16.31848697676433 59.7704
16.341031811604868 60.1234
16.36355971058487 60.5655
16.3861058195587 60.1105
16.40863499352978 58.8532
16.431182380342005 57.8165
16.453730407713202 57.0861
16.476261501364792 56.7166
16.498810812136167 56.309
16.52134319004079 56.2572
16.54389378792203 56.1107
16.566445031001553 56.0524
16.588979342490088 55.7533
16.61153187824822 55.8261
16.634067483263312 55.6859
16.656621315414416 55.621
16.679175797408888 55.1017
16.701713349928728 55.258
16.72426913389191 55.4839
16.74680798922351 55.7264
16.76936507887444 55.8684
16.791905240734874 55.5231
16.814463639794468 55.5664
16.837022695210294 55.6711
16.859564824093756 56.1433
16.882125194503903 57.0111
16.904668639217885 58.0953
16.927230328348003 58.2166
16.949792678493612 58.1295
16.972338104193863 57.3211
16.994901778652235 56.5299
17.017448529496576 56.295
17.040013531998152 56.3225
17.06257920018044 56.8204
17.0851279459922 57.8774
17.107694947817667 58.7289
17.130245028099072 59.4945
17.15281336730298 60.9501
17.17536478578733 62.3064
17.19793446610687 64.3618
17.220504818648422 66.9172
17.243058251703697 69.7219
17.265629950971032 73.9205
17.288184731571736 77.9656
17.310757781306908 81.5532
17.33333150794385 83.0098
17.355888317140174 82.1764
17.37846339986244 78.7804
17.401021565958885 72.6049
17.42359800851343 67.5815
17.44617513265564 63.5241
17.468735341390783 61.1999
17.491261035594565 59.8499
17.51396340099364 59.6992
17.536490463869136 59.8283
17.559018209820174 60.0152
17.58154663977963 60.1561
17.604251766089718 59.9331
17.626781572227713 60.2764
17.64931206518155 60.6146
17.671843245885103 61.1776
17.69455114821572 61.3786
17.717083712612634 61.7148
17.739616967569667 61.5997
17.762150914021706 61.7273
17.78486160749854 61.9452
17.807396945166804 62.5882
17.829932977143503 63.2205
17.85246970436452 64.6161
17.875183204129467 66.8313
17.897721330097664 68.986
17.920260154126645 71.1775
17.942799677153296 74.2821
17.9655159983646 77.7434
17.988056927677544 82.7379
18.010598558807683 89.5408
18.033140892692916 98.1088
18.05586005052525 107.82600000000001
18.07840379824407 118.713
18.10094825154059 129.945
18.12366954819864 137.805
18.146215420998306 140.762
18.16876200220057 134.465
18.191309292745153 122.006
18.214033452627167 107.81299999999999
18.236582170236648 94.9668
18.259131600016456 88.4438
18.281681742907335 86.9865
18.304408781233683 90.1959
18.32696035875955 94.6128
18.349512652227624 99.2844
18.372065662579683 103.943
18.394795594587553 106.675
18.41735004715306 105.18
18.43990521943684 99.3469
18.46246111238171 90.4793
18.485193953325208 80.4505
18.507751296070428 72.6432
18.530309362314178 67.8308
18.552868153000343 64.8737
18.57560391815056 62.976000000000006
18.59816416623245 62.4906
18.620725141597372 61.9612
18.643286845190268 61.6152
18.666025549835414 61.4143
18.688588718427933 60.6354
18.711152618092243 60.3972
18.73389353884365 60.0684
18.75645890921984 59.5098
18.77902501351406 59.4525
18.801591852673102 59.416000000000004
18.824335739722738 58.9918
18.846904057212626 58.9305
18.8694731124168 58.4907
18.89204290628315 58.3743
18.914789774966803 58.1239
18.937361054791623 57.9012
18.959933076131318 57.7946
18.982505839934877 57.8319
19.00525570560582 57.768
19.027829963004184 57.7196
19.05040496572238 57.7552
19.072980714710468 57.6146
19.095733592739563 57.9425
19.11831084296757 58.0575
19.140888842324735 58.7417
19.16346759176222 59.1602
19.18622349753803 59.5853
19.208803755869358 60.3647
19.231384767143577 61.2616
19.253966532312948 62.588
19.276725481241822 64.309
19.29930876296784 66.6155
19.3218928014549 69.4723
19.34465404436217 72.5438
19.36723960516257 75.4593
19.389825925592426 76.7475
19.412413006605938 76.5244
19.43517731967805 73.8279
19.457765930683355 69.6763
19.48035530514408 64.8836
19.50294544401556 60.927
19.525712842708348 57.8947
19.54830451925909 56.2225
19.570896963095727 54.8472
19.593490175174704 54.4492
19.616260674962184 54.422
19.638855432416964 54.2198
19.661450960992624 54.3729
19.68404726164677 54.1082
19.706820878021247 54.102
19.729418731756834 54.2077
19.752017360452857 53.9407
19.77461676506804 54.1827
19.797393513540218 54.1109
19.819994478951667 54.6472
19.84259622316767 55.0066
19.8651987471481 55.5777
19.887978643247177 55.636
19.91058273574792 56.067
19.933187610901943 56.9135
19.955969879466828 57.9957
19.97857632894404 59.1384
20.00118356396599 60.5414
20.023791585494575 62.433
20.046577028914875 64.9023
20.069186632506966 66.9612
20.091797025500632 69.0076
20.114408208858933 70.4212
20.137196842715273 70.6239
20.159809615886765 69.4606
20.18242318232135 67.0889
20.20503754298326 64.6871
20.227829382875154 63.3319
20.250445341109344 62.7847
20.27306209647285 63.101000000000006
20.29567964993108 64.0941
20.31847471147704 65.0104
20.34109387027612 65.9668
20.363713830075454 65.9671
20.386334591841646 65.0998
20.409132890679302 62.9578
20.431755265564437 59.6902
20.454378445325528 56.8091
20.477002430930366 54.8477
20.499803982716553 53.456
20.522429589228004 52.6077
20.54505600449589 51.9141
20.567683229489194 51.8459
20.590488049900088 51.2376
20.61311690359731 50.8877
20.63574656993626 50.7982
20.658553853717297 50.3881
20.681185154618298 50.3211
20.703817271080066 50.0617
20.72645020407368 49.8063
20.749260783967177 49.6695
20.771895359337133 49.6285
20.794530754161617 49.5696
20.817166969412938 49.5445
20.83998086114876 49.2835
20.86261872660049 49.2532
20.885257415405402 49.2421
20.90789692853701 49.199
20.930714147864748 49.0884
20.953355319030678 49.2635
20.97599731745334 49.3564
20.99864014410749 49.1552
21.021460706796564 49.1746
21.044105199328826 49.5208
21.06675052302631 49.6929
21.089396678865015 49.7947
21.112220600704806 50.0642
21.134868430275347 50.3914
21.15751709492456 50.5831
21.180166595629693 50.7189
21.202993892429635 51.1164
21.22564507473034 51.7216
21.24829709602816 52.0467
21.27112693608965 52.097
21.293780644891275 52.1887
21.316435195634053 51.5022
21.339090589297417 50.7417
21.361923832041875 50.5529
21.384580921090404 49.7152
21.407238856007325 49.228
21.429897637773326 49.0926
21.45273429906592 48.9394
21.475394784108598 48.8967
21.498056118951983 48.8361
21.520718304578022 48.9245
21.543558400304388 49.1147
21.566222297108816 49.3661
21.58888704765135 49.5559
21.61155265291521 49.9048
21.63439619898156 50.3351
21.657063523335786 50.5379
21.67973170537063 50.9924
21.7024007460706 51.4449
21.72524775840385 52.1477
21.747918526116475 52.9758
21.770590155457388 54.0668
21.79326264741238 55.6153
21.816113141960237 57.3528
21.838787368860547 59.1124
21.861462461341976 60.6911
21.884315579735777 62.7398
21.90699241312273 63.7986
21.92967011506078 64.7398
21.95234868653799 65.1771
21.9752053151131 64.3775
21.997885635446785 62.7728
22.020566828293532 60.8264
22.04324889464272 58.9709
22.066109049404666 57.4909
22.088792872571794 56.6605
22.111477572219204 56.3206
22.1341631493376 56.5654
22.157026846313123 56.7308
22.179714188221507 56.2215
22.202402410582668 55.2477
22.22509151438863 53.809
22.24795876962584 52.3528
22.270649646204486 51.448
22.293341407213727 50.5825
22.316034053646906 50.1521
22.338904883215342 49.8419
22.36159931041458 49.7451
22.38429462602756 49.8028
22.40699083104897 49.6023
22.429865251039757 49.6399
22.452563244831367 49.6189
22.47526213102522 49.5359
22.49813925616515 49.4044
22.520839937143307 49.208999999999996
22.543541513520587 49.3721
22.56624398629403 49.0146
22.589124730075895 49.0334
22.611829005656723 49.2826
22.63453418063466 49.1452
22.657240256008077 49.4183
22.680124634582935 49.3803
22.70283252079775 49.92100000000001
22.725541310413075 50.0043
22.74825100442868 50.3709
22.771139033969575 50.8736
22.79385054687155 50.9172
22.81656296718292 51.5329
22.83927629590484 52.3208
22.862167992606945 53.2042
22.88488314827121 54.2783
22.907599215359284 55.1793
22.93031619487366 56.2769
22.953211574954405 57.1309
22.975930389478226 58.1058
22.998650119445763 58.5909
23.02137076586092 58.3604
23.044269845560063 57.2788
23.06699233506288 55.5337
23.089715744034912 53.6545
23.112617610931565 52.1663
23.135342869061212 50.7942
23.158069049684816 49.9941
23.1807961538087 49.5916
23.20370174880544 49.6065
23.226430710184808 49.4211
23.249160598093425 49.4824
23.271891413539002 49.4237
23.294800752937697 49.4424
23.31753343374794 49.7004
23.340267045128353 49.9042
23.36300158808808 50.0783
23.38591468821339 50.2934
23.408651104658304 50.7151
23.431388455719986 51.4003
23.454126742409 52.0757
23.4770436196085 52.8955
23.499783787914662 54.0824
23.522524894889884 54.9686
23.54526694154616 55.8646
23.56818761219047 56.9849
23.59093154860734 57.8198
23.613676427751283 58.4562
23.636422250635754 58.0056
23.659346731118656 56.8444
23.68209445191868 54.89
23.704843119509587 52.8684
23.72759273490623 50.8737
23.750521041644767 49.1864
23.77327256312355 48.0563
23.796025035462787 47.2866
23.818956224555475 46.8584
23.841710609113413 46.7331
23.86446594758979 46.3899
23.887222241002014 46.1784
23.910157285144578 45.8184
23.932915498962537 45.8938
23.955674670778713 45.7019
23.978434801611975 45.5165
24.001373717286125 45.2758
24.024135776723917 45.1709
24.046898798245582 45.0903
24.06966278287146 45.0523
24.092605586582614 44.7929
24.115371508023642 44.6072
24.1381383956401 44.6398
24.16090625045381 44.7232
24.183852958731244 44.5634
24.206622758582608 44.4239
24.229393528706886 44.174
24.252165270127392 44.238
24.27511589952438 44.2968
24.297889594216997 44.0521
24.32066426328598 43.8721
24.34343990775613 43.8329
24.36639447485003 43.72
24.38917208083877 43.6711
24.41195066531332 43.5585
24.43490819850244 43.6707
24.457688750692377 43.4662
24.48047028445616 43.599
24.503252800821233 43.6502
24.526214300784112 43.6178
24.548998793132213 43.5845
24.57178427117417 43.4952
24.59457073593893 43.5147
24.617536219319863 43.4996
24.64032466834748 43.4873
24.663114107195035 43.4189
24.685904536893013 43.1702
24.708874020360852 42.9979
24.731666442613744 43.1653
24.754459858818787 43.1354
24.777254270007962 42.9812
24.80022777025625 42.8406
24.82302418230472 42.7434
24.845821592443674 42.7852
24.86862000170663 42.832
24.891597535453727 42.6489
24.914397953892728 42.9602
24.93719937456671 42.7394
24.96000179851076 42.8633
24.98298338249997 43.1421
25.00578782394922 43.2473
25.028593271784167 43.3943
25.05157790644186 43.7295
25.07438537804115 43.8161
25.097193859145293 43.9354
25.120003350792075 44.2341
25.142992065061257 44.3796
25.165803588823465 44.7102
25.18861612625217 44.907
25.211429678386736 45.13
25.234422489079968 45.2682
25.257238081693636 45.2145
25.280054692141732 45.3473
25.3028723214652 45.2949
25.325869245420463 45.3792
25.348688923599397 45.4368
25.371509623787006 45.4029
25.394331347025812 45.2711
25.41733240110666 44.8899
25.440156181590016 44.1786
25.46298098826268 43.761
25.48580682216873 43.27
25.50881202326435 42.5682
25.53163992281684 42.0971
25.55446885274561 41.7089
25.577298814096377 41.3155
25.600308179121807 41.1642
25.623140214533745 41.3708
25.64597328451537 41.4073
25.66898578564376 41.2218
25.691820936010206 41.0798
25.714657124097695 41.0519
25.737494350954734 41.0326
25.760511045684957 40.924
25.783350361364224 41.0606
25.806190718969255 41.1512
25.82903211955018 41.2241
25.852053024868923 41.2802
25.874896522722523 41.1776
25.897741066713106 41.0913
25.920586657892454 41.2294
25.943611790812668 41.2891
25.966459487728237 41.3352
25.989308234998564 41.3258
26.01215803367705 41.7309
26.03518741123814 41.9511
26.05803932412957 42.1523
26.080892291600094 41.9704
26.10374631470478 42.1502
26.12677995397268 42.3369
26.14963609978026 42.2017
26.172493304397875 41.8907
26.19535156888223 41.6739
26.218389486949604 41.3342
26.241249882640123 41.0774
26.26411134137826 40.7673
26.28715248187403 40.7504
26.31001607820869 40.7492
26.3328807407756 40.4681
26.35574647063438 40.6104
26.37879191991473 40.6947
26.401659795896734 40.6643
26.424528742360263 40.7498
26.447398760366614 41.0005
26.470448535598294 41.1507
26.49332070826805 41.3034
26.516193955675355 41.4832
26.53906827888316 41.6447
26.562122397260108 41.8107
26.584998883685063 42.0576
26.607876449110325 42.2755
26.63075509460056 42.4944
26.65381357334404 42.6928
26.67669439061878 42.67
26.699576291163382 42.591
26.722459276044212 42.608000000000004
26.745522132402975 42.3028
26.768407297649354 42.0079
26.791293550442003 41.5939
26.814180891848974 41.4652
26.837248143099337 41.1741
26.860137673466657 41.1131
26.88302829566349 40.6421
26.90592001075963 40.6036
26.92899167420566 40.4975
26.951885586870763 40.0781
26.974780595655517 39.8214
26.99785558178161 39.777
27.020752794605112 39.448
27.043651106772522 39.3957
27.06655051935668 39.4355
27.089629948036183 39.1006
27.112531573292053 39.0494
27.135434302194138 39.2449
27.158338135817015 39.0752
27.181422024430987 39.1658
27.204328079372566 38.9715
27.22723524226965 38.9901
27.250143514198573 39.1012
27.273231880156334 38.9669
27.296142382065014 38.9397
27.319053996245536 38.7437
27.341966723775965 38.9248
27.365059584515222 38.9702
27.38797455070062 38.9429
27.410890633481237 38.802
27.433807833936918 38.9011
27.456905206923906 38.9965
27.47982465472398 38.8877
27.502745223449743 39.0106
27.525666914182825 39.05
27.548768816912457 38.9837
27.571692763693633 38.9025
27.59461783573812 38.88
27.617723149491244 38.7208
27.640650484125285 38.6586
27.66357894728264 38.5202
27.686508540048052 38.5967
27.709618414237887 38.4504
27.732550278321757 38.4271
27.755483275279115 38.1927
27.778417406196485 38.312
27.801531858397514 38.2989
27.824468269376716 38.1937
27.847405817586786 38.2263
27.870344504116094 38.4866
27.893463551932008 38.5021
27.916404527281053 38.6972
27.93934664422563 38.7675
27.962289903855886 38.7362
27.98541356491974 39.1081
28.00835912214229 39.2108
28.03130582533231 39.4022
28.054253675581805 39.4743
28.077381967556104 39.5201
28.100332124185126 39.3583
28.123283431160893 39.3574
28.146235889577238 39.2802
28.169368830154156 39.0882
28.192323603752033 38.8642
28.215279532083304 38.5903
28.238415973016764 38.3505
28.261374223145094 38.4123
28.284333631303806 38.1875
28.307294198589954 37.9488
28.330435319167677 37.6185
28.353398217078915 37.4953
28.376362277420153 37.3146
28.39932750129032 37.139
28.422473319286713 36.8403
28.44544088262495 36.8868
28.468409612800283 36.6411
28.491379510913497 36.4482
28.51453004413313 36.515
28.53750229057244 36.4133
28.56047570826344 36.3592
28.583450298308804 36.3556
28.606605564586562 36.1485
28.629582511831156 36.2077
28.65256063474956 36.1389
28.675539934446338 36.1366
28.698699951647605 36.0598
28.72168161743193 35.9239
28.74466446331978 35.9952
28.767648490417624 36.0008
28.790813276438353 35.858000000000004
28.813799678527303 35.8792
28.836787265157085 35.9587
28.859955641890075 35.8853
28.882945610203045 35.8072
28.905936766392035 35.6412
28.928929111566863 35.6284
28.952102288520145 35.6712
28.975097024308607 35.6003
28.998092952423807 35.4546
29.021090073977508 35.3273
29.04426806913204 35.2798
29.067267590245258 35.1391
29.090268308143695 35.0194
29.11327022394099 34.9643
29.13645305530891 34.8949
29.159457379627167 34.9201
29.18246290519685 34.7525
29.20546963313352 34.7454
29.22865731875826 34.8329
29.25166646419296 34.8573
29.27467681535305 34.5483
29.29768837335608 34.6428
29.320880931312562 34.7893
29.34389491580634 34.6675
29.366910110507334 34.6583
29.38992651653503 34.5483
29.41312396492981 34.702
29.436142806456754 34.5288
29.45916286268059 34.4995
29.48236399319994 34.3847
29.50538649169417 34.1638
29.528410208259935 34.2127
29.55143514402014 33.9781
29.574641196749695 33.8044
29.597668583816574 33.7575
29.6206971934585 33.6048
29.64372702680042 33.6262
29.666938019934474 33.5217
29.689970313635285 33.4243
29.713003834422636 33.4199
29.73603858342347 33.3824
29.759254535188578 33.41
29.78229175361658 33.3067
29.80533020365064 33.2957
29.82836988641968 33.2678
29.85159081507472 33.2934
29.874632976355343 33.113
29.89767637376955 33.265
29.920721008448314 33.0331
29.9439469322847 33.0611
29.96699405457564 33.0889
29.9900424175358 33.0417
30.013092022298157 32.9312
30.03632295963995 32.8773
30.059375061131373 32.917
30.08242840783577 32.8441
30.105483000888153 32.9
30.128718970092244 32.8976
30.151776069006917 32.765
30.17483441768648 32.8341
30.198074175317235 32.8969
30.221135036724256 32.8983
30.24419715131772 32.7503
30.267260520236203 32.6536
30.290505341942243 32.6862
30.313571232750228 32.8642
30.336638381310948 32.7508
30.35970678876503 32.698
30.38295669299435 32.5637
30.40602763151657 32.5035
30.429099832366074 32.5823
30.452173296685572 32.5219
30.47542830191959 32.4849
30.498504306502497 32.3696
30.521581577995562 32.5115
30.544660117543582 32.6104
30.56792024229725 32.5944
30.59100133132069 32.5695
30.614083691845494 32.4797
30.637167325018545 32.5856
30.660432587840603 32.5996
30.683518779717886 32.5954
30.70660624769615 32.5912
30.729694992924372 32.543
30.75296541239743 32.6766
30.77605672557558 32.5225
30.799149319462742 32.5222
30.8224236211637 32.366
30.845518789950724 32.2643
30.868615242910597 32.2952
30.891712981195973 32.146
30.91499247215866 31.9503
30.938092794619365 31.9269
30.96119440587579 31.8317
30.984297307082752 31.7809
31.00758200598383 31.6651
31.030687500658694 31.5739
31.053794288760695 31.601999999999997
31.076902371446767 31.4745
31.100192296997445 31.5766
31.12330298246119 31.5092
31.14641496599209 31.3391
31.169528248749216 31.4217
31.19282341969534 31.3764
31.215939314557186 31.3789
31.239056512134788 31.2819
31.262175013589378 31.3572
31.28547544871168 31.2658
31.30859657161541 31.1743
31.331719001892175 31.2723
31.35484274070538 31.3782
31.378148458819545 31.253
31.401274828443725 31.2057
31.424402510106933 31.2052
31.447712205419993 31.221
31.470842524931633 31.2077
31.493974159989783 31.2159
31.51710711176168 31.188000000000002
31.54042212308802 31.1805
31.563557722100917 31.2284
31.586694641341655 31.0579
31.609832881979628 30.9015
31.63315322823208 30.8455
31.656294125521327 30.7437
31.679436347728515 30.6298
31.70257989602529 30.729
31.725905596152327 30.6325
31.74905181052835 30.4856
31.772199354521323 30.5696
31.79534822930507 30.5021
31.818679302290967 30.5368
31.84183085259981 30.4403
31.864983737233473 30.4816
31.88813795736804 30.5635
31.911474422233013 30.4085
31.934631327356435 30.5028
31.9577895715215 30.3756
31.980949155906522 30.4793
32.004291031706956 30.3665
32.027453310562606 30.2986
32.05061693318573 30.096
32.07396288236386 30.2012
32.09712920658542 30.127
32.12029687812702 30.0697
32.14346589817093 29.9448
32.166817291729984 29.8788
32.18998902288583 29.8255
32.21316210610336 29.7618
32.23633654256711 29.6383
32.259693399663725 29.625999999999998
32.282870556771144 29.4873
32.30604907069099 29.6339
32.329228942610065 29.5196
32.35259128243769 29.3897
32.375773884550505 29.3262
32.398957848235646 29.3185
32.422143174682176 29.1944
32.445511016471215 29.0713
32.468699082679954 29.1928
32.49188851523011 29.182
32.51507931531304 28.9897
32.538452678331 29.0523
32.56164622776311 28.9089
32.58484114831493 28.9406
32.60803744118015 28.912
32.631416344731896 28.8441
32.654615396551876 28.775
32.67781582427913 28.7524
32.701198898634416 28.7276
32.72440209253756 28.5702
32.747606665947124 28.6652
32.77081262006088 28.4911
32.79420126883317 28.5011
32.81740999876112 28.5229
32.840620112999424 28.4333
32.86383161274818 28.357
32.88722585534586 28.3934
32.91044014056596 28.5078
32.933655814909734 28.4351
32.95687287957963 28.3406
32.98027273544904 28.3122
33.00349259526636 28.2622
33.026713849030116 28.3109
33.04993649794511 28.3372
33.073341986570746 28.2446
33.09656744032826 28.1879
33.11979429286444 28.116
33.14302254538647 28.1167
33.166433686291185 28.0894
33.18966475336992 28.1023
33.212897224069096 27.9459
33.23613109959831 27.9096
33.259547912343415 27.9892
33.2827846121627 27.9336
33.306022720453775 27.9301
33.32926223842861 27.7787
33.352684742614166 27.7871
33.37592709463173 27.7239
33.399170859982064 27.6069
33.422597648419426 27.5735
33.44584425514446 27.4914
33.46909227885668 27.4631
33.4923417207723 27.3169
33.51577423505344 27.3578
33.539026528130385 27.3114
33.56228024307245 27.2526
33.585535381098246 27.0484
33.60897364093058 27.1
33.63223163992385 27.0898
33.6554910656699 27.0714
33.678751919389796 26.9972
33.702195944520106 26.9479
33.72545966903325 27.0143
33.74872482519663 26.8884
33.771991414233746 26.924
33.79544122444841 26.788
33.81871069412428 26.776
33.84198160035767 26.761
33.86525394437455 26.7327
33.88870955949969 26.5994
33.911984794020626 26.6539
33.93526147001624 26.5405
33.958539588715006 26.5799
33.98200102861669 26.5122
34.0052820477047 26.4219
34.02856451319451 26.4303
34.05203033759056 26.3583
34.07531571090147 26.3028
34.09860253431845 26.2475
34.121890809074316 26.1348
34.145362493118924 26.2005
34.16865368561615 26.2771
34.191946333164054 26.0657
34.21524043699793 26.107
34.23871800066799 26.0873
34.26201503218366 25.9573
34.28531352370466 25.9464
34.30861347646881 25.9337
34.33209693978188 25.9742
34.3553998301885 25.8057
34.378704185565205 25.7817
34.402010007152356 25.6737
34.42549939016683 25.7681
34.44880815937748 25.6922
34.472118398533134 25.5737
34.49543010887669 25.5145
34.51892543169198 25.4653
34.54224009966052 25.5028
34.56555624255917 25.5681
34.58887386163339 25.3741
34.61237514439016 25.2403
34.6356957311114 25.2419
34.65901779775809 25.2715
34.68252356662995 25.2145
34.705848608458616 25.2917
34.72917513396849 25.0975
34.75250314440949 25.0915
34.77601490857862 25.0697
34.799345904259795 25.0732
34.82267838863559 25.0859
34.846012362958525 25.0154
34.869530142679984 24.9907
34.89286711232212 24.8886
34.91620557568269 24.9501
34.93954553401677 24.8948
34.9630693495876 24.8397
34.986412313340814 24.8865
35.00975677584668 24.7949
35.033102738362956 24.7493
35.05663261012228 24.668000000000003
35.0799815881786 24.6799
35.10333207003229 24.641
35.12668405694369 24.6067
35.150220005273056 24.5276
35.17357501786656 24.5721
35.19693153931268 24.4624
35.220289570874385 24.4052
35.24383161619786 24.4158
35.267192683604904 24.435
35.290555264930376 24.3412
35.314101899412165 24.4453
35.33746752422433 24.413
35.36083466676374 24.3802
35.38420332829803 24.2408
35.407756095629054 24.3213
35.43112781085063 24.2468
35.45450104888391 24.2614
35.477875810999194 24.2517
35.50143473172161 24.1698
35.52481255774625 24.1699
35.54819191167777 24.0846
35.57157279478914 23.9899
35.595137889488406 24.0646
35.61852184675279 24.0004
35.641907337029984 23.9325
35.665294361595684 23.9037
35.68886565090076 23.8086
35.7122557598848 23.8072
35.73564740699838 23.9332
35.759040593519934 23.7387
35.78261809810353 23.6638
35.80601437933051 23.6602
35.829412203814705 23.6749
35.85281157283719 23.5816
35.876395313415884 23.6228
35.8997977874528 23.5611
35.92320180988546 23.5268
35.946790244133936 23.3459
35.97019737933222 23.4144
35.993606066789866 23.3352
36.01701630779276 23.3685
36.04061101440684 23.336
36.06402437852291 23.3467
36.08743930005611 23.2194
36.1108557802951 23.1619
36.13445678011326 23.159000000000002
36.15787639383515 23.0799
36.18129757014299 23.1139
36.20472031032821 23.1301
36.22832762423364 23.0175
36.25175350829375 23.0039
36.275180960119776 22.9106
36.298609981005924 23.0266
36.32222362992669 22.8909
36.34565580510207 22.9301
36.36908955323448 22.8622
36.39252487562093 22.745
36.416144880530226 22.8339
36.43958336764275 22.8138
36.463023432914625 22.7473
36.486465077645676 22.6138
36.51009145956204 22.6844
36.53353627947859 22.7345
36.55698268276811 22.7292
36.58043067073321 22.5486
36.60406345072071 22.464000000000002
36.62751462435344 22.4917
36.65096738658405 22.4634
36.67460498210655 22.416
36.69806093788647 22.3796
36.72151848619297 22.3119
36.744977628333636 22.3353
36.76862165890998 22.3012
36.79208400512205 22.2586
36.81554794910557 22.2283
36.83901349217101 22.2
36.862663978991606 22.1114
36.88613273667352 22.1473
36.90960309738324 22.1101
36.933075062434064 22.0527
36.95673202673572 22.0561
36.98020721697122 21.9058
37.003684015502365 21.8845
37.027162423645365 21.8506
37.050825886711465 21.7987
37.07430753063053 21.7446
37.09779078812467 21.7744
37.121275660513014 21.7615
37.144945643673694 21.7099
37.16843376245278 21.6833
37.19192350009803 21.6669
37.215414857931435 21.6191
37.239091382563885 21.5932
37.262585997426164 21.5104
37.28608223645736 21.5704
37.309763684451696 21.5305
37.33326318851098 21.4617
37.356764320726555 21.4209
37.380267082425526 21.4362
37.40395510942588 21.4313
37.42746114683234 21.3302
37.45096881771841 21.2583
37.474478123414166 21.2911
37.49817275092816 21.2407
37.52168534303452 21.2258
37.54519957395567 21.0626
37.568715445024665 21.0992
37.592416694607714 21.0773
37.61593586281424 21.090999999999998
37.63945667518264 21.0861
37.66297913304891 20.9781
37.68668702630454 20.9079
37.710212792059274 20.8889
37.733740207334854 20.8175
37.757269273470364 20.8346
37.780983832050374 20.7986
37.80451621684926 20.8317
37.82805025654007 20.8114
37.851585952464795 20.7439
37.8753071980695 20.6862
37.89884622345676 20.5999
37.92238690911902 20.5559
37.94611318753442 20.5019
37.969657210779765 20.5719
37.99320289834801 20.5666
38.016750251586465 20.5185
38.04048325513017 20.4752
38.06403395679343 20.4375
38.087586328183946 20.336
38.11114037065203 20.3228
38.13488012115898 20.3029
38.1584375229181 20.326
38.181996599821 20.2375
38.205557353221124 20.2632
38.229303872575656 20.1628
38.2528679961576 20.1254
38.27643380031219 20.1329
38.30000128639589 20.1444
38.32375459653193 20.0654
38.34732546371299 20.1323
38.37089801690786 19.9796
38.39447225747609 19.9583
38.418232380377425 19.9471
38.441810012983396 19.8821
38.46538933705673 19.878
38.488970353960084 19.8521
38.51273731166058 19.8383
38.536321731567014 19.7455
38.55990784840681 19.7582
38.58367995004091 19.69
38.60726947812959 19.695
38.63086070726198 19.6987
38.654453638806274 19.6535
38.678232613930824 19.586
38.70182896773327 19.5183
38.72542702806741 19.4767
38.7490267963045 19.5146
38.77281266709232 19.4742
38.79641586862214 19.4238
38.8200207821842 19.3819
38.843627409152944 19.4362
38.86742019782782 19.398
38.891030269149255 19.3363
38.914642058016156 19.3031
38.938255565806124 19.3041
38.96205529464307 19.2333
38.98567225787121 19.1736
39.00929094417078 19.1599
39.03291135492255 19.1221
39.05671804624804 19.1286
39.080341923549106 19.0521
39.103967529460334 19.0413
39.127594865365744 19.0372
39.15140854155791 18.9794
39.17503935514948 18.9955
39.19867190290282 18.9321
39.22249083587951 18.8627
39.24612686969409 18.8917
39.269764641845306 18.9131
39.293404153722804 18.8433
39.317230110864074 18.7924
39.34087311998506 18.6687
39.36451787301696 18.6902
39.388164371352595 18.6531
39.41199737518003 18.607
39.43564738196752 18.6266
39.45929913825317 18.6298
39.48295264543308 18.5756
39.506792718520884 18.5158
39.530449745387216 18.4251
39.55410852735203 18.463
39.57776906581474 18.435
39.60161623079 18.3738
39.625280300200025 18.4077
39.64894613032202 18.3608
39.67261372255866 18.3618
39.6964680021016 18.3209
39.72013913657293 18.3017
39.74381203738292 18.2421
39.76748670593756 18.2353
39.79134812278169 18.1831
39.81502634488497 18.1568
39.83870633896685 18.1122
39.862388106436654 18.1107
39.88625668336918 18.0733
39.90994201572829 18.0742
39.933629125719285 17.9827
39.957503091207826 17.999000000000002
39.9811937746168 18.0253
40.00488623990914 17.9471
40.02858048850006 17.865
40.05246165409549 17.8851
40.076159487492085 17.767
40.099859108448875 17.8005
40.123560518384345 17.7851
40.1474489070226 17.8384
40.171153913178564 17.7684
40.194860712584955 17.6422
40.2185693066637 17.6845
40.242464941335314 17.6419
40.26617714307655 17.5615
40.289891143772046 17.5516
40.3136069448471 17.5791
40.33750984859743 17.5376
40.3612292688043 17.5265
40.3849504936829 17.4843
40.40867352466194 17.4813
40.43258372059144 17.4291
40.45631038219906 17.4387
40.48003885420956 17.352999999999998
40.503769138055105 17.3871
40.52768664931955 17.4031
40.55142057531802 17.3301
40.57515631746428 17.2574
40.599079334038514 17.232
40.62281872700477 17.1689
40.64655994043941 17.1177
40.67030297578061 17.1591
40.69423334835778 17.14
40.71798004609188 17.0697
40.74172857006355 17.0656
40.76547892171441 17.0416
40.7894166736039 17.0189
40.813170699248566 16.9786
40.83692655691388 16.9253
40.86068424804498 16.9534
40.884629402612525 16.9543
40.908390779366385 16.9175
40.932153993938 16.8703
40.95591904777605 16.8318
40.979871628443995 16.828
41.003640379561936 16.8095
41.02741097430883 16.7821
41.05118341413683 16.7008
41.075143444384416 16.7175
41.098919593177826 16.6601
41.1226975914255 16.6654
41.14647744058318 16.6064
41.170444943946755 16.5458
41.19422851378379 16.5432
41.218013938914645 16.5306
41.24198706625173 16.4948
41.26577622087193 16.4461
41.289567235177785 16.4367
41.31336011063129 16.3714
41.337340752422875 16.3354
41.361137369129835 16.3702
41.38493585138705 16.3149
41.40873620066004 16.2989
41.43272438060107 16.2943
41.45652848292052 16.2749
41.48033445666918 16.2189
41.50414230331616 16.1782
41.528138045159764 16.164
41.551949656675205 16.0679
41.575763145513235 16.1139
41.59957851314666 16.0618
41.62358184070442 16.018
41.64740098505737 15.9801
41.6712220126409 15.9823
41.69504492493139 15.9668
41.71905586207357 15.9351
41.74288256296395 15.8884
41.766711153007456 15.8582
41.79054163368412 15.8916
41.814560204340054 15.9472
41.838394485526365 15.8502
41.86223066180303 15.8252
41.88625497706819 15.8154
41.910094962812 15.790999999999999
41.93393684811168 15.7148
41.95778063445365 15.6832
41.981812625263366 15.7055
42.00566023303407 15.6056
42.029509746323676 15.6058
42.05336116662236 15.6105
42.077400857069705 15.5618
42.10125611078846 15.5412
42.12511327600405 15.4566
42.14897235421036 15.4502
42.173019768448455 15.439
42.19688269209613 15.4543
42.22074753323349 15.3871
42.24461429335818 15.339
42.268669455600495 15.4046
42.292540073217886 15.3849
42.31641261433284 15.283
42.34028708044675 15.274000000000001
42.36435001496739 15.2417
42.38822835065557 15.2567
42.41210861586426 15.2211
42.4359908120986 15.1821
42.46006154323262 15.1311
42.48394762115317 15.1502
42.507835634632315 15.0928
42.531912233047436 15.1109
42.55580413732265 15.0406
42.579697981698 15.0598
42.60359376768525 14.9773
42.62767820545945 14.9333
42.65157789440821 14.9894
42.67547952952185 14.9349
42.699383112316 14.8676
42.72347541395347 14.8606
42.74738291190531 14.8094
42.771292362102166 14.8765
42.795203766063516 14.7993
42.819303956130405 14.724
42.843219287476536 14.7539
42.86713657716324 14.7224
42.89105582671383 14.6573
42.91516392983864 14.6186
42.939087119032166 14.5711
42.963012272677304 14.5651
42.98693939230129 14.565
43.01105543317513 14.5709
43.034986504731386 14.5572
43.05891954686589 14.5076
43.08285456110972 14.4934
43.10697856448665 14.4357
43.130917542983475 14.3956
43.15485849820081 14.3811
43.17880143167367 14.3201
43.20293342237094 14.3227
43.226880332449 14.3076
43.25082922540554 14.3244
43.27496722682525 14.3138
43.29892010567796 14.2657
43.32287497204102 14.2164
43.34683182745632 14.1673
43.370977859791836 14.1875
43.39493871351105 14.1882
43.41890156092628 14.1848
43.44286640358341 14.1323
43.46702049182749 14.0953
43.49098934522816 14.0826
43.51496019852649 14.0413
43.5389330532723 14.012
43.56309522248204 13.9724
43.58707210044314 13.9656
43.61105098451946 13.9109
43.63503187626491 13.8909
43.659202151562134 13.917
43.68318707902681 13.8709
43.70717401884041 13.8278
43.731162972560874 13.7954
43.75534137913236 13.788
43.779334381108384 13.764000000000001
43.803329401683186 13.7263
43.82732644241872 13.6875
43.8515130055166 13.7676
43.87551410707659 13.6807
43.89951723350145 13.6759
43.923709934595614 13.6782
43.94771713129917 13.6259
43.97172635758096 13.6155
43.99573761501002 13.554
44.0199385169922 13.5107
44.04395385732619 13.5032
44.067971233533086 13.5654
44.09199064718605 13.4913
44.11619977548961 13.452
44.14022328470671 13.4204
44.16424883610785 13.4507
44.18827643127035 13.3941
44.21249381139513 13.3846
44.236525514814076 13.3172
44.26055926674478 13.2713
44.28459506876863 13.3189
44.3088207262813 13.285
44.33286064928722 13.2428
44.35690262714919 13.1968
44.38094666145278 13.1989
44.4051806219871 13.1791
44.42922879003185 13.1598
44.45327901929361 13.1588
44.477331311362136 13.1423
44.501573600619416 13.0709
44.525630039221795 13.0664
44.54968854541895 13.0342
44.573937102200176 12.96
44.5979997645541 12.9626
44.622064499300315 12.9552
44.64613130803592 12.9405
44.67038823869318 12.9196
44.69445921643748 12.9548
44.718532272981385 12.8608
44.742607409926194 12.8625
44.76687274034801 12.837
44.79095205918753 12.8569
44.81503346325094 12.8118
44.839116954143876 12.7819
44.86339071028742 12.772
44.88747839599524 12.7261
44.91156817336837 12.7329
44.93566004401666 12.7044
44.959942251908146 12.6474
44.984038330325966 12.6218
45.00813650686762 12.5504
45.03223678314731 12.5651
45.05652746888232 12.5353
45.08063196592069 12.5404
45.104738567558705 12.5142
45.128847275414856 12.5154
45.15314646515866 12.4494
45.17725940679741 12.4314
45.20137445952892 12.4473
45.22568004865265 12.3986
45.24979934496396 12.3536
45.27392075725247 12.3366
45.29804428714431 12.3686
45.322358426247604 12.3863
45.346486212804315 12.2798
45.370616121861914 12.2815
45.39474815505086 12.2593
45.41907087049246 12.2342
45.4432071734666 12.1815
45.46734560548283 12.1398
45.49148616817604 12.1634
45.51581748638564 12.1893
45.5399623320197 12.1414
45.56410931325473 12.0977
45.58825843173002 12.0897
45.61259837920865 12.0597
45.636751793816 12.0234
45.66090735060093 12.0235
45.68506505120716 11.9638
45.7094136545275 11.9461
45.73357566449271 11.9223
45.75773982322992 11.9145
45.78190613238733 11.8431
45.806263418194064 11.8534
45.83043404997326 11.8872
45.85460683713677 11.8975
45.87897065658495 11.8416
45.90314777634752 11.8003
45.92732705646868 11.7858
45.9515084986045 11.7498
45.97588104735473 11.7432
46.00006683541565 11.6988
46.02425479047904 11.7216
46.04844491420549 11.6194
46.0728262191024 11.6856
46.09702070211635 11.6401
46.12121735879483 11.622
46.14541619080294 11.6325
46.169806278764455 11.5558
46.194009483459034 11.5584
46.21821486849841 11.5331
46.24242243555223 11.4965
46.266821333570014 11.5089
46.29103328674601 11.4554
46.31524742696538 11.4056
46.33946375590237 11.4093
46.36387149104216 11.446
46.38809221957392 11.3378
46.41231514186606 11.3569
46.436540259597464 11.3601
46.460956858999374 11.3528
46.48518638983522 11.3213
46.509418121166966 11.259
46.533652054678114 11.2324
46.55807754555709 11.2153
46.58231590571962 11.232000000000001
46.60655647313217 11.173
46.630988654873654 11.1452
46.655233659129024 11.149000000000001
46.67948087571551 11.1655
46.70373030632484 11.1074
46.72817142736393 11.1081
46.752425308428684 11.0816
46.77668140861147 11.0745
46.80093972960865 10.9956
46.82538981736788 10.9956
46.849652602470904 10.9967
46.87391761349769 11.0029
46.8981848521493 10.9375
46.9226439341274 10.9418
46.946915650573224 10.9155
46.97118959976749 10.8857
46.99546578341598 10.8178
47.019933887188216 10.8697
47.04421456235744 10.8561
47.06849747711879 10.8229
47.09278263318286 10.765
47.11725978640143 10.7649
47.14154944775105 10.7108
47.165841355555656 10.7039
47.1901355115306 10.7283
47.214621741924994 10.6675
47.23892041698887 10.6545
47.26322134538975 10.632
47.28771440635075 10.6172
47.31201986422527 10.5857
47.33632758061436 10.5679
47.360637557241866 10.5565
47.38513974410611 10.5561
47.40945426407847 10.536
47.43377104948137 10.5328
47.45809010204344 10.4986
47.48260144275502 10.4648
47.506925052572285 10.4676
47.53125093475548 10.4279
47.55557909103813 10.427
47.58009961361992 10.4027
47.60443234110732 10.3213
47.62876734791564 10.3449
47.65310463578333 10.3382
47.6776343683373 10.3052
47.7019762413987 10.2509
47.72632040075572 10.2779
47.75066684815169 10.2849
47.77520581885936 10.2245
47.799556865477655 10.2172
47.823910205386 10.2033
47.84826584033272 10.1992
47.87281407745551 10.1375
47.89717432569297 10.1197
47.92153687423484 10.1329
47.94609208429692 10.1287
47.97045925671401 10.1173
47.99482873471275 10.0668
48.01920052005013 10.0651
48.04376504619224 10.0462
48.068141469543484 10.0292
48.09252020552573 10.0052
48.11690125590099 9.96882
48.1414751266064 9.97912
48.16586082917454 9.96673
48.19024885144316 9.924380000000001
48.2146391951793 9.8826
48.239222439012764 9.8925
48.26361744916137 9.90525
48.28801478610016 9.865260000000001
48.31241445160131 9.87597
48.337007097209366 9.83114
48.36141144338331 9.79996
48.38581812345755 9.81268
48.41022713920929 9.81072
48.434829215320704 9.75941
48.45924292604658 9.73971
48.48365897780325 9.737060000000001
48.50807737237308 9.72235
48.532688907799276 9.708219999999999
48.55711201168574 9.67897
48.581537463754074 9.67567
48.60615611725119 9.62528
48.63058628942721 9.62477
48.65501881516546 9.60294
48.6794536962573 9.593210000000001
48.70408185970339 9.554
48.72852147531801 9.5342
48.75296345168211 9.52844
48.77740779059232 9.54672
48.80204549302823 9.54274
48.82649458091802 9.45633
48.85094603676547 9.4533
48.87539986237231 9.40508
48.90004713292306 9.40741
48.92450572200832 9.414010000000001
48.94896668628025 9.37063
48.97343002754588 9.333730000000001
48.99808689542115 9.38187
49.02255501470614 9.36403
49.04702551642794 9.32693
49.0714984023988 9.323269999999999
49.096164896893235 9.2637
49.120642575466796 9.25029
49.145122643748394 9.26592
49.16960510355558 9.23531
49.19428125404938 9.22606
49.2187685210852 9.19047
49.243258185121555 9.166739999999999
49.26794160167084 9.16058
49.2924360839405 9.16505
49.31693296869764 9.13912
49.34143225776915 9.11784
49.36612538195438 9.124089999999999
49.39062950396021 9.094380000000001
49.41513603578346 9.05386
49.4396449792564 9.03919
49.46434784069503 9.0279
49.488861631846454 8.97199
49.513377840166804 9.01304
49.537896467493745 8.9999
49.56260909589029 8.91974
49.587132585683285 8.93275
49.611658500018365 8.8971
49.636186840738596 8.89842
49.66090926588511 8.910110000000001
49.685442483902584 8.846969999999999
49.70997813385706 8.85051
49.734516217597076 8.843010000000001
49.75924846937352 8.78687
49.7837914452858 8.8065
49.80833686055187 8.79164
49.83288471702571 8.754380000000001
49.85762682540054 8.743269999999999
49.882179588965734 8.72245
49.9067347993235 8.714139999999999
49.93129245833333 8.69735
49.95604445336378 8.70172
49.98060703442832 8.6717
50.005172069746266 8.62468
50.02993150438364 8.611260000000001
50.05450147301533 8.62589
50.07907390151433 8.61924
50.10364879174981 8.58723
50.12841816587289 8.569239999999999
50.1529980044635 8.555769999999999
50.17758031042124 8.55579
50.20216508562089 8.57117
50.22694442953363 8.49598
50.25153416817468 8.462489999999999
50.27612638170508 8.45047
50.300721072005196 8.43622
50.325510416102105 8.4537
50.350110084975064 8.43263
50.37471223628208 8.420919999999999
50.39931687190919 8.40346
50.424116246675766 8.37922
50.44872587605249 8.350710000000001
50.47333799543065 8.32271
50.49795260670191 8.344710000000001
50.52276204271512 8.320039999999999
50.54738166295838 8.29472
50.57200378079314 8.243039999999999
50.596628398116835 8.263819999999999
50.62144792604559 8.23293
50.646077567609396 8.23318
50.670709714377715 8.20458
50.69553683636198 8.17769
50.72017401885922 8.154819999999999
50.7448137122895 8.18069
50.76945591856022 8.145610000000001
50.79429318636823 8.10807
50.818940443716784 8.10713
50.84359021965163 8.08602
50.868242516085964 8.06588
50.893089960641895 8.08271
50.917747323549435 8.05889
50.94240721271973 8.045110000000001
50.96706963007175 7.99043
50.99192728239342 7.99345
51.01659478166073 7.99713
51.04126481489051 7.993760000000001
51.06593738400761 7.96064
51.090805275207074 7.92287
51.11548294172845 7.86945
51.14016314993547 7.893689999999999
51.164845901758845 7.88812
51.18972406304274 7.87752
51.21441192780656 7.844930000000001
51.23910234200271 7.80929
51.2637953075678 7.82795
51.288683770237945 7.814989999999999
51.31338186432707 7.78485
51.33808251561888 7.808160000000001
51.362978729967345 7.784610000000001
51.387684521509755 7.75741
51.41239287610203 7.73635
51.437103795691165 7.70891
51.46201036644977 7.6757800000000005
51.486726441956634 7.6745600000000005
51.51144508832545 7.67917
51.536166307509156 7.6632
51.56108326624387 7.645910000000001
51.58580965706056 7.611039999999999
51.61053862657523 7.58448
51.635270176746864 7.56925
51.66019755512065 7.5484
51.68493429268881 7.53092
51.70967361681515 7.5492300000000006
51.73441552946465 7.551089999999999
51.759353359237934 7.54148
51.7841004750961 7.53476
51.80885018539685 7.5227699999999995
51.833602492111254 7.48203
51.8585508051424 7.4607
51.883308330926425 7.42409
51.90806845906181 7.3940600000000005
51.932831191525715 7.38537
51.95779001977161 7.358960000000001
51.98255798721516 7.34998
52.00732856494335 7.30773
52.03229530577543 7.321439999999999
52.057071130455945 7.29709
52.081849571391054 7.310630000000001
52.106630630568695 7.29727
52.13160794279417 7.26757
52.15639426492067 7.2781199999999995
52.18118321127822 7.250539999999999
52.205974783860896 7.22761
52.23096269971011 7.23216
52.255759551287994 7.23465
52.280559035098186 7.2129
52.30536115314103 7.18182
52.33035970494467 7.12867
52.35516711807904 7.1382699999999994
52.37997717147198 7.109210000000001
52.40478986713005 7.123069999999999
52.42979908731974 7.12298
52.454617094216 7.06428
52.47943774942214 7.018339999999999
52.50426105495102 7.0307
52.529280976059844 7.035360000000001
52.554109609024096 7.014480000000001
52.57894089837482 7.02038
52.60377484613117 6.987139999999999
52.62880550079408 6.9902
52.65364479223379 6.98117
52.67848674816189 6.93227
52.70352547971946 6.9056
52.72837279155837 6.92483
52.753222773982785 6.90975
52.778075429022984 6.8843
52.80312495150885 6.884810000000001
52.827982978797436 6.8166199999999995
52.85284368481815 6.8280199999999995
52.87770707160767 6.79655
52.90276741793998 6.78061
52.92763619336701 6.80548
52.952507655698504 6.779319999999999
52.977381806977576 6.78016
53.00245301017842 6.77036
53.02733256653592 6.722339999999999
53.052214817996074 6.70534
53.077099766608484 6.7004
53.102181859804446 6.711939999999999
53.127072229988265 6.72843
53.15196530349892 6.688910000000001
53.17686108239249 6.644419999999999
53.20195409881522 6.67709
53.22685531582556 6.66258
53.25175924441303 6.6650100000000005
53.27666588664027 6.62822
53.30176985962693 6.596419999999999
53.3266819565689 6.602519999999999
53.35159677336455 6.53991
53.376514312083096 6.53195
53.40162927507703 6.53409
53.42655228516116 6.53252
53.45147802340193 6.53357
53.47660125628886 6.48383
53.50153247842639 6.49219
53.52646643496923 6.50594
53.55140312799818 6.50764
53.576537409691696 6.4422
53.60147960336152 6.4290199999999995
53.626424539786164 6.4153199999999995
53.65137222105307 6.38154
53.67651758529126 6.37915
53.70147078399681 6.33289
53.72642673383343 6.35494
53.75138543689533 6.3224
53.776541917524526 6.32641
53.801506154876755 6.33301
53.826473151763246 6.27733
53.851442910284916 6.27618
53.87661054126026 6.24659
53.9015858509782 6.2314099999999994
53.92656392866066 6.23493
53.95154477641532 6.2055
53.976723591801296 6.21061
54.00171000771266 6.24181
54.02669920004598 6.19824
54.051691170915745 6.18951
54.076881204886796 6.13499
54.101878760928514 6.1188
54.12687910187696 6.13755
54.152077577768296 6.10898
54.1770835166946 6.0972
54.20209224691339 6.1049
54.22710377055121 6.04665
54.25231352511594 6.03832
54.27733066384342 6.01971
54.30235060239643 6.04889
54.32737334290836 6.01766
54.35259441062629 5.9736400000000005
54.377622783395324 5.98492
54.40265396455061 5.972580000000001
54.42768795623251 5.92634
54.45292037169559 5.89206
54.477960012857906 5.926130000000001
54.50300247099511 5.87066
54.52804774825457 5.85621
54.55329154616743 5.85375
54.57834249018678 5.83577
54.6033962597977 5.82702
54.6284528571545 5.79766
54.653708072335164 5.74223
54.67877035378786 5.77781
54.70383546947698 5.724
54.72890342156389 5.693169999999999
54.7541700889442 5.67812
54.77924374251975 5.6486
54.8043202390049 5.67539
54.82959552413022 5.62568
54.8546777351945 5.6523
54.87976279569621 5.577999999999999
54.90485070780914 5.59565
54.930137506558005 5.5526800000000005
54.95523115074295 5.55675
54.98032765308844 5.55262
55.005427015775496 5.49249
55.03072536339621 5.522
55.05583047570572 5.44168
55.080938454927676 5.44726
55.10604930325027 5.37807
55.131359235107396 5.4267900000000004
55.15647585066083 5.337269999999999
55.181595341907496 5.35478
55.20671771104285 5.25932
55.232039262617704 5.30882
55.25716741665048 5.25678
55.28229845518636 5.296819999999999
55.30743238042802 5.22331
55.33276558731939 5.23626
55.357905315183636 5.18947
55.383047936390035 5.15902
55.40819345314859 5.140280000000001
55.433538351073295 5.1298900000000005
55.458689688238415 5.13124
55.483843927614096 5.0619
55.509197623043605 5.05056
55.53435769621134 5.00329
55.55952067826466 4.98613
55.5846865714265 4.97274
55.61005202069737 5.005
55.63522376553902 5.0225599999999995
55.66039842818645 4.94669
55.68557601087004 4.8928199999999995
55.7109532500271 4.81449
55.73613670233794 4.822019999999999
