TT I
1.2716486653135266 8.35955
1.2939594142134223 7.40035
1.3162702121660406 7.22279
1.3385810600174564 6.950710000000001
1.3608919586137629 7.291530000000001
1.383202908801069 6.704160000000001
1.405513911425503 6.3699900000000005
1.4278249673332093 6.39268
1.4501343378461518 6.39051
1.4724455028545926 6.22614
1.4947567236847858 6.41596
1.517068001182951 6.70984
1.5393793361953272 6.35482
1.5616907295681737 5.81482
1.5840021821477681 5.9310599999999996
1.60631369478041 6.13905
1.6286252683124185 5.71948
1.6509369035901333 5.47957
1.6732468618895553 5.1963
1.695558623192809 5.2857
1.7178704487808514 5.54013
1.7401823395001077 5.40678
1.7625012545597203 5.13488
1.7848028405262486 4.96203
1.8071218901122095 4.95137
1.8294236121921872 4.89614
1.8517427996910911 5.11142
1.8740620574440425 4.6136099999999995
1.8963639900671978 5.16375
1.9186833908139995 4.92396
1.9409854680117449 5.06237
1.9633050151394713 4.5685
1.9856246367570705 4.54151
2.0079269371922672 4.58091
2.03024671027244 4.55664
2.0525491637446027 4.4027199999999995
2.074869091674931 4.67661
2.097171701569106 4.53231
2.1194917877373847 4.24874
2.141811954326636 4.642180000000001
2.164114805233074 4.49958
2.186435135143035 4.317819999999999
2.208738150935709 5.89915
2.231058647554722 7.35875
2.2533792288321184 6.78228
2.275682498336085 5.33986
2.298003251406138 5.20142
2.3203066942619714 4.59678
2.3426276225136022 4.242
2.3649486396617507 4.2285699999999995
2.387252348930071 5.4858400000000005
2.4095735463442893 4.7508
2.4318774374315884 5.19606
2.4541988185014043 5.33355
2.476502894794693 4.7739
2.498824462909887 5.24374
2.521146125856138 4.94835
2.5434504863470337 6.20139
2.5657723414244717 5.346419999999999
2.588076895590662 6.1454
2.610398946189713 6.47129
2.6327210958598384 6.29215
2.6550259469304716 6.09175
2.6773482972090137 6.5793800000000005
2.6996533504259 6.69735
2.7219759047039602 6.51163
2.744298562293959 7.319
2.7666039251246595 7.16147
2.7889267918020164 6.726380000000001
2.8112323652516555 7.87755
2.833555444408179 7.73078
2.8558786311183852 7.85425
2.8781845268938557 8.34786
2.9005079311721484 8.51742
2.9228140460410397 8.76193
2.9451376712799635 9.2671
2.967444008632326 9.33204
2.9897678582247247 9.70858
3.0120918213106695 10.1768
3.0343984987899373 10.1473
3.0567226913198637 10.9825
3.079029599759726 11.5633
3.101354025127254 12.1971
3.123678568232338 12.4553
3.145985829517914 13.0266
3.16831061055229 12.9783
3.1906181112775593 14.2537
3.212943133635653 14.8772
3.2352682779763207 15.3602
3.2575761442691227 15.4368
3.2799015350264273 15.8443
3.302209649240067 16.3245
3.3245352898092655 16.6647
3.3468436553365257 17.0906
3.369169549113219 17.6132
3.3914955708171384 18.6225
3.413804319727358 18.5111
3.4361305997334863 18.5381
3.4584396084414553 19.6308
3.4807661501462652 20.8102
3.503092824025881 21.4686
3.5254022288463154 21.135
3.5477291695206588 21.7545
3.5700388426251948 21.8906
3.5923660534916446 22.8267
3.6146934007816114 25.0721
3.637003482731501 30.8884
3.6593311053109985 32.4505
3.681641464033634 28.377
3.7039693653009733 25.2662
3.726297407241705 25.4205
3.7486081875460804 25.9217
3.7709365132734978 26.2454
3.793247578841633 26.9173
3.8155761917550093 26.9089
3.8378875459837216 27.5002
3.8602164494827234 27.5302
3.882545499606844 28.1538
3.9048572932539183 29.1536
3.9271866390645718 29.6099
3.9494987298666713 30.5869
3.971828374764527 30.6343
3.9941581705403255 31.58
4.016470713506008 32.0096
4.038800813471445 32.754
4.061113662089144 33.1226
4.0834440696459176 34.2988
4.105774632334751 34.6537
4.128087945865126 35.1165
4.150418821249301 35.8074
4.172732448931298 36.566
4.195063640413578 37.6723
4.2173775856475215 39.6125
4.239709096631102 45.1609
4.262040768704612 64.5683
4.284355196706267 75.5317
4.306687193387355 63.3765
4.329001947444346 48.8291
4.35133427213731 44.9853
4.373666762177566 44.8747
4.395982011761091 45.3555
4.418314834921175 46.0116
4.44063041906622 47.7957
4.4629635787515625 49.5604
4.4852969080429785 50.7597
4.5076130004776225 51.2765
4.529946671403969 53.1513
4.552263106909177 54.0493
4.574597122877047 54.1324
4.596931312711224 54.9056
4.619248269273446 55.5624
4.6415828092605835 56.5253
4.663900117405352 57.823
4.686235010953232 59.2199
4.708552674085913 61.1837
4.730887924602802 62.4504
4.753223354952695 64.4715
4.775541557023902 66.5606
4.797877349456786 68.1965
4.820195915032126 69.9495
4.842532072957498 71.3194
4.864868414979744 73.6654
4.88718753227192 76.7846
4.909524244902505 78.5684
4.931843734218147 80.7038
4.954180820867835 83.5103
4.976518095879839 87.2245
4.998838149695359 90.9501
5.021175803844231 95.8638
5.043496238205739 100.993
5.065834274903528 106.787
5.088172504230693 112.73200000000001
5.1104935158799565 120.76799999999999
5.132832132875765 138.164
5.155153533596801 163.59799999999998
5.1774925416746225 233.55
5.199814334878411 633.438
5.2221537374521505 1905.33
5.244493338631803 3999.13
5.266815727034316 6936.73
5.289155727832427 10339.3
5.311478517248165 9517.08
5.333818921080011 4291.16
5.356159527788849 1014.57
5.3784829252032536 278.23400000000004
5.400823940070432 183.265
5.423147747031976 152.80200000000002
5.445489173474152 136.585
5.467830807066149 129.297
5.490155234831516 123.73700000000001
5.512497285125229 117.488
5.534822130975162 114.134
5.557164601388673 111.464
5.579489868738879 107.85600000000001
5.601832762690846 105.74
5.6241758697774475 103.988
5.646501775867269 103.985
5.668845311622074 102.78399999999999
5.691171647754637 102.333
5.713515615597765 100.60799999999999
5.735859800852677 99.9869
5.758186788542988 100.102
5.780531411018185 101.085
5.802858837297399 100.59299999999999
5.825203900414495 101.575
5.8475491852224 103.089
5.869877275883075 103.745
5.892223006467101 104.23899999999999
5.914551544266608 107.18
5.936897724049891 112.63600000000001
5.959244129804903 123.62700000000001
5.981573344815301 162.16
6.0039202049061 329.531
6.026249875609095 756.8580000000001
6.04859719346037 1423.75
6.070927323278297 2314.16
6.093275102315365 3626.3
6.115623113320588 4488.63
6.137953938319995 3741.95
6.160302415650845 1462.26
6.182633708324452 380.347
6.2049826554078376 150.494
6.227331838745022 109.444
6.249663839443684 95.7511
6.27201349767565 88.8646
6.294345974611799 85.8039
6.316696111167083 83.6808
6.339046488263839 81.36
6.361379686074702 77.1868
6.383730546639482 74.5629
6.406064229255215 73.3947
6.428415576718203 72.8874
6.450749747566656 71.0206
6.47310158535871 69.5049
6.495453669698332 68.1812
6.517788579421056 67.6148
6.540141159237969 65.9999
6.562476565766648 65.7634
6.5848296444934045 65.0559
6.607182974060425 64.3232
6.6295191323281015 64.0176
6.651872965955752 63.9151
6.6742096296068985 66.377
6.6965639707294615 71.6723
6.71891856698715 71.7807
6.741255995248479 66.2298
6.763611104154477 62.0301
6.785949046381137 60.7567
6.808304671371482 60.1672
6.8306605557940046 60.2748
6.852999275508618 59.0097
6.875355681171544 58.7397
6.897694923437771 58.5905
6.92005185377892 58.4172
6.9423916220322655 58.1299
6.964749080490181 57.3714
6.987106804399774 57.4058
7.009447368180821 57.2727
7.031805625367033 57.146
7.054146723727803 56.9041
7.076505517631004 56.7873
7.098864581288365 57.1536
7.121206488070854 57.0715
7.143566093607822 57.4311
7.165908543567245 57.7788
7.188268694426048 57.2651
7.2106291193438095 56.1554
7.232972390625943 56.2465
7.255333366030969 58.3793
7.277677189091925 64.1768
7.300038718428332 70.4925
7.322400526130865 67.65
7.344745183422596 61.4331
7.367107550224791 57.3148
7.389452767901992 56.6948
7.411815697249891 56.2081
7.434161478756298 55.787
7.456524974096713 55.8135
7.478888753837185 55.4054
7.501235387657368 55.7365
7.523599738562711 55.8374
7.545946944825532 56.0293
7.568311870344528 56.5161
7.5906770845765665 57.0457
7.613025156078678 57.0824
7.635390950099687 57.6237
7.657739602662809 57.2986
7.680105979923558 57.5036
7.702472650212829 58.185
7.724822180948224 58.0126
7.747189439655568 57.7169
7.769539560075357 58.0134
7.791907410653562 58.8049
7.81425812420825 58.4824
7.836626570110925 58.8687
7.858995315087906 59.618
7.881346924933401 60.0541
7.903716270417482 60.6858
7.926068482028405 61.0728
7.948438431475253 61.6231
7.9708086843180235 62.2923
7.993161805171116 62.8956
8.015532667162402 63.5044
8.037886398416653 64.7747
8.060257873014221 65.1163
8.082629655331942 65.6592
8.104984308787587 66.4312
8.127356708900503 67.9024
8.149711981398308 69.9874
8.172085002766314 70.7253
8.194458336181368 71.1149
8.216814543847752 71.208
8.23918850371002 72.8103
8.26154533906492 73.9524
8.283919928836452 75.9342
8.306277395339652 76.696
8.328652618483376 78.3858
8.351028159736202 81.1429
8.373386579575245 83.7112
8.395762759396959 85.6773
8.418121819038275 89.3848
8.440498640894003 95.1432
8.462875785192262 104.964
8.485235811156207 133.333
8.507613602688501 216.678
8.529974277114228 382.255
8.552352719347912 579.0880000000001
8.574731488360351 801.456
8.59709314210385 1108.92
8.619472567021075 1507.12
8.64183487789147 1908.88
8.664214962183097 1905.07
8.686577933647762 1264.08
8.708958680784317 579.101
8.731339760774953 236.38400000000001
8.753703729764451 133.665
8.77608547780821 110.639
8.798450116065078 104.541
8.820832535634787 100.0
8.843215292401656 97.9262
8.865580941199045 96.3414
8.887964374703538 94.7413
8.910330701447199 93.7547
8.932714815164482 92.3643
8.955099270424924 90.8649
8.977466620733543 90.0224
8.999851761421976 89.4586
9.022219798361645 88.3339
9.04460562795561 88.0824
9.066991803441677 88.0356
9.089360876979615 87.6106
9.111747746589993 87.1074
9.13411751544971 86.5919
9.156505082664324 86.1472
9.178875550323522 86.3117
9.20126381862328 86.1767
9.223652438908596 86.2242
9.246023961427412 86.0649
9.26841328802173 86.1405
9.290785518039224 86.8845
9.313175554425882 87.6028
9.335565947154315 88.0132
9.357939245086508 88.0712
9.380330352834827 88.1096
9.40270436697103 87.9784
9.425096193225055 87.5623
9.447488380180165 88.2802
9.469863475295412 88.9626
9.492256385987508 89.2882
9.514632206018318 89.7403
9.537025843935714 90.26799999999999
9.559402392368193 91.3317
9.581796761000229 92.7992
9.604191496441521 93.5969
9.626569144158516 94.6184
9.648964615551032 95.5327
9.671343000390081 96.1123
9.693739211225699 96.7482
9.716135793237463 97.1258
9.738515290448102 98.2933
9.760912617143402 99.355
9.783292860202891 101.19200000000001
9.805690935076182 102.59
9.828089385495742 103.725
9.850470754023561 105.836
9.872869957865444 108.9
9.89525208097539 112.84299999999999
9.917652041736662 118.48
9.940052382417589 127.131
9.962435644102392 158.804
9.984836746950979 230.261
10.007220771957746 356.559
10.029622640473708 516.278
10.052007432299963 679.797
10.074410069984072 849.153
10.096813093716005 1094.67
10.119199042482517 1417.18
10.141602840636468 1729.67
10.163989564971628 1738.32
10.186394141051062 1197.45
10.208799107559706 610.675
10.231187001965623 277.105
10.253592751657669 155.622
10.275981430388155 125.68799999999999
10.298387966769793 118.055
10.320794897965431 115.471
10.343184759907361 113.802
10.36559248305461 111.249
10.387983138083852 111.348
10.410391656691655 118.605
10.432800574501677 137.981
10.455192425893369 170.41099999999997
10.47760214443012 210.15400000000002
10.499994797678786 248.111
10.522405320453982 294.837
10.54479877906917 355.471
10.567210109595656 436.236
10.5896218454736 506.969
10.612016518879773 521.932
10.634429067781074 420.892
10.656824555333241 263.492
10.679237920773568 160.796
10.701651695961992 109.885
10.724048411481384 96.1049
10.746463008485165 91.9806
10.768860546937125 90.07799999999999
10.791275969274796 87.8519
10.81369180576079 86.2421
10.836090585366925 85.0364
10.858507252467449 83.9041
10.88090686379991 83.0231
10.903324365036394 82.1208
10.925724811614439 80.6417
10.948143150509463 80.7652
10.970561909719066 80.0438
10.992963615930844 79.2262
11.015383218085756 77.8925
11.037785768347074 76.6567
11.06020621697282 76.2433
11.082627090322113 75.5292
11.105030913430326 74.6335
11.12745263854165 74.4435
11.149857314510728 73.7733
11.172279894912576 74.4686
11.194702904450653 73.6887
11.217108866490921 72.7583
11.239532736615194 71.707
11.26193956033512 71.4206
11.284364294577085 70.818
11.306789462371718 70.2074
11.329197585398376 69.9693
11.351623622610898 69.8276
11.37403261614354 68.7795
11.396459526308487 68.7192
11.418869393879497 68.1715
11.441297180532617 67.8139
11.463725406927658 67.5386
11.486136592353875 67.4322
11.508565700543707 67.1195
11.530977768845315 67.3598
11.553407762368774 66.9144
11.575838200059769 66.8434
11.598251599479612 66.3244
11.620682927815501 65.8595
11.64309721895548 66.2718
11.665529441478206 65.9597
11.687962112597958 65.4919
11.710377748130886 65.5308
11.732811318753434 65.4345
11.755227854859067 65.21300000000001
11.777662328529495 65.2239
11.800079768750786 65.1973
11.822515149015453 65.0752
11.844950984084935 65.2289
11.867369787303163 65.0522
11.889806534289491 65.0038
11.912226250487029 65.2924
11.934663912939751 65.4704
11.9571020346363 65.7378
11.979523127133968 66.0383
12.001962169624331 66.7419
12.024384183972964 68.8137
12.046824150809913 74.0954
12.069264581333726 82.5616
12.091687985297767 92.1937
12.11412934550045 102.038
12.136553680195208 112.855
12.158995973632788 126.30799999999999
12.181438735204349 142.053
12.20386447284199 162.82299999999998
12.226308172985636 187.91
12.24873485024193 200.947
12.271179492516982 187.628
12.293607112949127 151.132
12.316052700916226 111.34100000000001
12.338498763250042 83.1488
12.360927805303868 71.3706
12.383374818673879 68.3618
12.405804812803074 67.4054
12.428252780773262 67.1212
12.45070122756722 67.0634
12.473132656675375 66.8166
12.49558206341869 67.079
12.518014453510101 67.207
12.540464823770117 67.6323
12.562915677315177 67.1647
12.58534951575545 67.8134
12.607801338171472 67.8165
12.630236146511358 68.7404
12.652688941369085 69.7225
12.675124723177234 70.2144
12.697578494048786 70.6773
12.720032754458185 69.6709
12.742470003354093 69.9941
12.764925245138771 70.5207
12.787363476431278 71.0257
12.809819703166806 71.2944
12.83227642391173 72.2113
12.854716135692716 72.8725
12.877173846755147 74.1987
12.899614549869717 74.5933
12.9220732548287 75.3957
12.94453245827299 75.8837
12.966974655289818 76.9822
12.989434858002571 77.9412
13.011878055298721 78.6441
13.034339260862497 80.1266
13.056800969391883 81.384
13.079245674017244 83.8537
13.101708390774869 87.7188
13.12415410463411 97.9009
13.146617833206086 115.37899999999999
13.169064559883248 137.061
13.191529303857127 160.166
13.213994557076367 182.301
13.236442809902437 207.364
13.258909083908291 237.396
13.28135835851934 274.225
13.30382565690295 317.762
13.326293469022952 371.47
13.348744283242008 406.976
13.371213125129904 389.25300000000004
13.39366497011003 319.325
13.416134845360597 222.94400000000002
13.438605238843131 153.482
13.46105863690397 123.009
13.483530069144786 121.23299999999999
13.505984506951902 132.974
13.528456981549432 150.889
13.550929978879088 167.18
13.573385983253365 183.467
13.595860028340867 203.808
13.618317081455832 231.657
13.64079217790333 265.959
13.663250283359057 305.217
13.685726434770173 342.84
13.708203115221277 355.97
13.730662806148091 310.798
13.75314054697177 238.58700000000002
13.775601299246777 167.396
13.798080104050406 116.867
13.820559442405358 94.4203
13.843021793671388 87.3341
13.865502201420897 84.8681
13.887965623051947 84.0475
13.910447103807167 82.8017
13.932929122629764 81.0368
13.955394156785959 80.3391
13.977877254034569 79.6542
14.000343367582113 78.7581
14.022827546871707 78.11
14.045294743423524 77.4581
14.06778000837062 76.7374
14.090265817715476 76.5385
14.112734645763819 75.9581
14.13522154619454 75.2814
14.157691466286913 75.1783
14.180179461423874 74.986
14.202668005486178 74.7534
14.22513957064374 74.2269
14.247629214846473 73.8166
14.270101881097517 73.4057
14.29259262906496 73.1638
14.315083930490205 73.2104
14.337558255389705 73.1674
14.360050666019726 73.0828
14.382526101071944 72.5841
14.405019624534942 72.0347
14.427513705993134 71.9956
14.449990813291825 72.1519
14.47248601302899 71.9421
14.49496423954951 72.0849
14.517460561197822 71.9513
14.539939910570322 71.8591
14.562437357763558 72.2135
14.58493536931253 72.6114
14.607416409993311 72.7768
14.62991555254159 73.1785
14.652397725157423 73.4498
14.674898002342799 73.4849
14.697398848433282 73.9332
14.719882725991326 75.163
14.74238471217934 77.0986
14.764869730765593 82.0255
14.787372860692983 88.1526
14.809876564079925 96.4539
14.83236330125751 105.98200000000001
14.854868153850365 114.632
14.877356041159485 123.787
14.899862046604186 134.358
14.922351087688757 147.916
14.944858249632887 164.425
14.967365991421232 183.305
14.989856770231246 203.22099999999998
15.012365673994204 215.97400000000002
15.03485761569738 206.615
15.05736768508665 174.84400000000002
15.07987833888692 137.47799999999998
15.102372032001655 106.041
15.124883856909658 86.01
15.14737872204565 77.8067
15.169891721717274 74.7776
15.192405310371893 73.8711
15.214901940621196 73.3744
15.237416709527137 72.4537
15.259914520936249 72.5223
15.282430473753607 71.4783
15.304947020131227 70.5957
15.327446610371178 70.5001
15.349964346154254 69.9483
15.372465126703139 70.2212
15.394984055556009 69.8138
15.417486030076159 69.3853
15.44000615566487 69.0584
15.462526881230803 69.1187
15.485030653812652 68.9939
15.507552581617434 68.7198
15.530057557334603 69.029
15.55258069104857 69.0454
15.575104429329837 69.1725
15.597611216864632 69.1592
15.620136166564563 69.6356
15.6426441664095 71.3271
15.665170331202765 74.6858
15.687697105158826 80.3201
15.710206930593545 87.0465
15.732734925158933 94.09899999999999
15.755245972089478 101.089
15.77777519094324 107.50399999999999
15.800287463046663 114.96600000000001
15.822817909869592 125.087
15.84534897229804 136.28799999999998
15.867863089299354 151.186
15.890395385222186 167.28
15.912910736597423 182.363
15.935444269699861 186.702
15.957978423016485 174.48
15.980495633101265 147.459
16.003031029129367 118.01299999999999
16.02554948280019 90.6363
16.048086125229432 74.9293
16.070623392487107 68.8281
16.09314371869582 66.2658
16.11568223789321 64.8433
16.13820381691126 63.9919
16.160743591742527 63.4156
16.183283996022084 63.036
16.205807461423195 62.1374
16.228349126881973 61.6079
16.25087385432698 61.518
16.27341678466365 60.928999999999995
16.29594277784926 60.4472
16.31848697676433 60.3859
16.341031811604868 59.7593
16.36355971058487 59.5448
16.3861058195587 59.4697
16.40863499352978 58.9067
16.431182380342005 58.788999999999994
16.453730407713202 58.5008
16.476261501364792 58.0631
16.498810812136167 57.6614
16.52134319004079 57.9813
16.54389378792203 57.7871
16.566445031001553 57.8029
16.588979342490088 57.6957
16.61153187824822 57.1848
16.634067483263312 57.2928
16.656621315414416 57.3314
16.679175797408888 56.8363
16.701713349928728 56.7698
16.72426913389191 57.1343
16.74680798922351 56.8105
16.76936507887444 56.9865
16.791905240734874 57.07899999999999
16.814463639794468 57.0071
16.837022695210294 56.736000000000004
16.859564824093756 57.0932
16.882125194503903 57.1764
16.904668639217885 57.2944
16.927230328348003 57.3559
16.949792678493612 57.6357
16.972338104193863 57.6353
16.994901778652235 57.5913
17.017448529496576 57.9571
17.040013531998152 58.2948
17.06257920018044 59.1654
17.0851279459922 60.3171
17.107694947817667 61.7152
17.130245028099072 63.1142
17.15281336730298 64.8675
17.17536478578733 66.3071
17.19793446610687 67.8428
17.220504818648422 69.697
17.243058251703697 71.2348
17.265629950971032 74.0272
17.288184731571736 77.1857
17.310757781306908 80.889
17.33333150794385 83.963
17.355888317140174 84.5332
17.37846339986244 82.8154
17.401021565958885 77.7579
17.42359800851343 72.3421
17.44617513265564 67.0685
17.468735341390783 64.2304
17.491261035594565 62.5403
17.51396340099364 61.976000000000006
17.536490463869136 61.9772
17.559018209820174 61.7149
17.58154663977963 61.8735
17.604251766089718 62.0295
17.626781572227713 62.2424
17.64931206518155 62.3918
17.671843245885103 62.8371
17.69455114821572 62.9892
17.717083712612634 63.3387
17.739616967569667 63.7211
17.762150914021706 64.1746
17.78486160749854 64.4189
17.807396945166804 65.3875
17.829932977143503 66.6279
17.85246970436452 68.6451
17.875183204129467 71.5256
17.897721330097664 75.4194
17.920260154126645 79.3832
17.942799677153296 83.6486
17.9655159983646 86.7115
17.988056927677544 90.1929
18.010598558807683 94.5306
18.033140892692916 100.137
18.05586005052525 106.329
18.07840379824407 113.68
18.10094825154059 123.12700000000001
18.12366954819864 133.49200000000002
18.146215420998306 140.799
18.16876200220057 142.011
18.191309292745153 134.19
18.214033452627167 121.485
18.236582170236648 107.36200000000001
18.259131600016456 97.074
18.281681742907335 91.5676
18.304408781233683 91.3614
18.32696035875955 92.941
18.349512652227624 96.2414
18.372065662579683 100.79799999999999
18.394795594587553 104.083
18.41735004715306 105.069
18.43990521943684 101.913
18.46246111238171 94.8813
18.485193953325208 85.2876
18.507751296070428 76.9432
18.530309362314178 70.9751
18.552868153000343 67.432
18.57560391815056 65.7076
18.59816416623245 64.8079
18.620725141597372 64.1905
18.643286845190268 63.6915
18.666025549835414 63.2435
18.688588718427933 62.6668
18.711152618092243 62.4484
18.73389353884365 62.0341
18.75645890921984 61.8081
18.77902501351406 61.5777
18.801591852673102 61.3846
18.824335739722738 60.9995
18.846904057212626 60.8707
18.8694731124168 60.3989
18.89204290628315 60.4991
18.914789774966803 60.4293
18.937361054791623 59.9775
18.959933076131318 59.4837
18.982505839934877 59.5786
19.00525570560582 59.567
19.027829963004184 59.4916
19.05040496572238 59.4585
19.072980714710468 59.6612
19.095733592739563 60.0159
19.11831084296757 60.3916
19.140888842324735 61.006
19.16346759176222 61.7052
19.18622349753803 62.515
19.208803755869358 63.5481
19.231384767143577 64.3446
19.253966532312948 64.995
19.276725481241822 66.1373
19.29930876296784 67.3574
19.3218928014549 68.9919
19.34465404436217 70.92399999999999
19.36723960516257 73.4286
19.389825925592426 75.3765
19.412413006605938 76.6702
19.43517731967805 75.9699
19.457765930683355 73.2112
19.48035530514408 69.0857
19.50294544401556 64.7024
19.525712842708348 60.8612
19.54830451925909 58.8197
19.570896963095727 57.1168
19.593490175174704 56.5498
19.616260674962184 56.4204
19.638855432416964 56.1164
19.661450960992624 56.1829
19.68404726164677 55.8951
19.706820878021247 55.6284
19.729418731756834 55.956
19.752017360452857 55.6948
19.77461676506804 56.0352
19.797393513540218 56.2483
19.819994478951667 56.6049
19.84259622316767 57.4103
19.8651987471481 58.0466
19.887978643247177 58.6149
19.91058273574792 59.1033
19.933187610901943 59.9231
19.955969879466828 60.6439
19.97857632894404 61.4984
20.00118356396599 62.3972
20.023791585494575 63.6191
20.046577028914875 65.587
20.069186632506966 67.4335
20.091797025500632 69.6697
20.114408208858933 71.6312
20.137196842715273 72.9703
20.159809615886765 73.0462
20.18242318232135 71.0177
20.20503754298326 68.7507
20.227829382875154 66.3263
20.250445341109344 65.0716
20.27306209647285 64.1515
20.29567964993108 64.347
20.31847471147704 65.0293
20.34109387027612 66.298
20.363713830075454 66.9956
20.386334591841646 67.1525
20.409132890679302 65.2049
20.431755265564437 62.7795
20.454378445325528 59.8552
20.477002430930366 57.074
20.499803982716553 55.0283
20.522429589228004 53.7097
20.54505600449589 53.0747
20.567683229489194 52.9913
20.590488049900088 52.8616
20.61311690359731 52.4613
20.63574656993626 52.3167
20.658553853717297 51.8836
20.681185154618298 51.9546
20.703817271080066 51.8695
20.72645020407368 51.3996
20.749260783967177 51.29600000000001
20.771895359337133 51.3487
20.794530754161617 51.1589
20.817166969412938 51.1181
20.83998086114876 51.0525
20.86261872660049 50.7371
20.885257415405402 50.7341
20.90789692853701 50.7155
20.930714147864748 50.7933
20.953355319030678 50.964
20.97599731745334 51.2625
20.99864014410749 50.9258
21.021460706796564 50.9774
21.044105199328826 51.1326
21.06675052302631 51.4157
21.089396678865015 51.6721
21.112220600704806 51.8224
21.134868430275347 52.1119
21.15751709492456 52.0164
21.180166595629693 51.9879
21.202993892429635 52.4727
21.22564507473034 52.5923
21.24829709602816 52.99
21.27112693608965 53.3779
21.293780644891275 53.551
21.316435195634053 53.2426
21.339090589297417 52.8551
21.361923832041875 52.3252
21.384580921090404 51.5282
21.407238856007325 51.0097
21.429897637773326 50.9342
21.45273429906592 50.6851
21.475394784108598 50.7105
21.498056118951983 50.5421
21.520718304578022 50.9811
21.543558400304388 50.8683
21.566222297108816 51.2433
21.58888704765135 51.4959
21.61155265291521 51.8191
21.63439619898156 52.5287
21.657063523335786 53.0099
21.67973170537063 53.8168
21.7024007460706 54.4511
21.72524775840385 54.9956
21.747918526116475 55.7295
21.770590155457388 56.3675
21.79326264741238 57.3508
21.816113141960237 58.4401
21.838787368860547 59.8114
21.861462461341976 61.201
21.884315579735777 63.1529
21.90699241312273 64.7196
21.92967011506078 65.9491
21.95234868653799 66.8253
21.9752053151131 67.0547
21.997885635446785 65.5022
22.020566828293532 63.6013
22.04324889464272 61.2235
22.066109049404666 59.2059
22.088792872571794 58.04600000000001
22.111477572219204 57.6593
22.1341631493376 57.611000000000004
22.157026846313123 57.8596
22.179714188221507 57.7966
22.202402410582668 57.047
22.22509151438863 56.0154
22.24795876962584 54.708
22.270649646204486 53.6495
22.293341407213727 52.5675
22.316034053646906 52.0047
22.338904883215342 51.35
22.36159931041458 51.2303
22.38429462602756 51.0854
22.40699083104897 50.6748
22.429865251039757 50.6924
22.452563244831367 50.7974
22.47526213102522 50.7063
22.49813925616515 50.6564
22.520839937143307 50.6987
22.543541513520587 50.8855
22.56624398629403 50.7928
22.589124730075895 50.5931
22.611829005656723 50.9718
22.63453418063466 51.0846
22.657240256008077 51.3265
22.680124634582935 51.6872
22.70283252079775 52.0787
22.725541310413075 52.5809
22.74825100442868 52.7187
22.771139033969575 53.0741
22.79385054687155 53.236000000000004
22.81656296718292 53.8129
22.83927629590484 54.0851
22.862167992606945 54.5596
22.88488314827121 55.6611
22.907599215359284 56.1293
22.93031619487366 56.9896
22.953211574954405 57.4947
22.975930389478226 58.68
22.998650119445763 59.3908
23.02137076586092 59.6544
23.044269845560063 59.1855
23.06699233506288 57.9816
23.089715744034912 56.5165
23.112617610931565 54.7889
23.135342869061212 53.0888
23.158069049684816 51.9741
23.1807961538087 51.3039
23.20370174880544 51.0369
23.226430710184808 51.0071
23.249160598093425 51.1538
23.271891413539002 51.3214
23.294800752937697 51.5341
23.31753343374794 52.195
23.340267045128353 52.1293
23.36300158808808 52.5545
23.38591468821339 52.7063
23.408651104658304 52.9926
23.431388455719986 53.4504
23.454126742409 53.8783
23.4770436196085 54.3213
23.499783787914662 55.0001
23.522524894889884 55.588
23.54526694154616 56.1416
23.56818761219047 57.0547
23.59093154860734 58.0482
23.613676427751283 59.0841
23.636422250635754 59.261
23.659346731118656 58.5613
23.68209445191868 57.4296
23.704843119509587 55.536
23.72759273490623 53.4446
23.750521041644767 51.5922
23.77327256312355 50.0876
23.796025035462787 49.1322
23.818956224555475 48.4135
23.841710609113413 48.1823
23.86446594758979 47.8366
23.887222241002014 47.628
23.910157285144578 47.2626
23.932915498962537 47.3909
23.955674670778713 47.0529
23.978434801611975 46.8796
24.001373717286125 46.8915
24.024135776723917 46.6902
24.046898798245582 46.5479
24.06966278287146 46.4632
24.092605586582614 46.2053
24.115371508023642 45.9662
24.1381383956401 45.9138
24.16090625045381 45.9461
24.183852958731244 45.7299
24.206622758582608 45.6744
24.229393528706886 45.4103
24.252165270127392 45.5842
24.27511589952438 45.6056
24.297889594216997 45.3152
24.32066426328598 45.1965
24.34343990775613 45.284
24.36639447485003 45.0122
24.38917208083877 45.0246
24.41195066531332 44.8904
24.43490819850244 44.9699
24.457688750692377 44.8778
24.48047028445616 44.7648
24.503252800821233 44.8078
24.526214300784112 44.9775
24.548998793132213 44.887
24.57178427117417 44.7727
24.59457073593893 44.7886
24.617536219319863 44.81
24.64032466834748 44.8027
24.663114107195035 44.5967
24.685904536893013 44.4385
24.708874020360852 44.4875
24.731666442613744 44.4558
24.754459858818787 44.2531
24.777254270007962 44.1889
24.80022777025625 44.0915
24.82302418230472 44.0805
24.845821592443674 44.1198
24.86862000170663 44.1475
24.891597535453727 44.0425
24.914397953892728 44.3671
24.93719937456671 44.2152
24.96000179851076 44.2745
24.98298338249997 44.4372
25.00578782394922 44.8479
25.028593271784167 44.8791
25.05157790644186 45.0135
25.07438537804115 45.1822
25.097193859145293 45.3942
25.120003350792075 45.5123
25.142992065061257 45.8769
25.165803588823465 46.0383
25.18861612625217 46.244
25.211429678386736 46.4254
25.234422489079968 46.5782
25.257238081693636 46.5927
25.280054692141732 46.4215
25.3028723214652 46.2886
25.325869245420463 46.3499
25.348688923599397 46.388999999999996
25.371509623787006 46.571000000000005
25.394331347025812 46.5317
25.41733240110666 46.2348
25.440156181590016 45.8199
25.46298098826268 45.347
25.48580682216873 44.7463
25.50881202326435 44.1729
25.53163992281684 43.5221
25.55446885274561 43.1163
25.577298814096377 42.751000000000005
25.600308179121807 42.7132
25.623140214533745 42.6924
25.64597328451537 42.665
25.66898578564376 42.2785
25.691820936010206 42.5546
25.714657124097695 42.42
25.737494350954734 42.3019
25.760511045684957 42.2874
25.783350361364224 42.3742
25.806190718969255 42.3782
25.82903211955018 42.5534
25.852053024868923 42.4999
25.874896522722523 42.7283
25.897741066713106 42.4768
25.920586657892454 42.5212
25.943611790812668 42.5576
25.966459487728237 42.6364
25.989308234998564 42.5527
26.01215803367705 42.8278
26.03518741123814 42.958999999999996
26.05803932412957 42.9097
26.080892291600094 42.9444
26.10374631470478 43.0754
26.12677995397268 43.3567
26.14963609978026 43.4106
26.172493304397875 43.2842
26.19535156888223 43.108000000000004
26.218389486949604 42.8974
26.241249882640123 42.601000000000006
26.26411134137826 42.3227
26.28715248187403 42.2861
26.31001607820869 42.0123
26.3328807407756 41.8482
26.35574647063438 42.0781
26.37879191991473 41.9602
26.401659795896734 41.9885
26.424528742360263 42.2169
26.447398760366614 42.4288
26.470448535598294 42.3364
26.49332070826805 42.511
26.516193955675355 42.7306
26.53906827888316 42.7429
26.562122397260108 42.9342
26.584998883685063 43.1306
26.607876449110325 43.2707
26.63075509460056 43.4644
26.65381357334404 43.7448
26.67669439061878 43.7569
26.699576291163382 43.8319
26.722459276044212 43.9012
26.745522132402975 43.7157
26.768407297649354 43.4738
26.791293550442003 43.0365
26.814180891848974 42.6322
26.837248143099337 42.3948
26.860137673466657 42.1756
26.88302829566349 42.0486
26.90592001075963 41.8813
26.92899167420566 41.7387
26.951885586870763 41.3741
26.974780595655517 41.2047
26.99785558178161 40.9663
27.020752794605112 40.9117
27.043651106772522 40.6936
27.06655051935668 40.5918
27.089629948036183 40.5029
27.112531573292053 40.4678
27.135434302194138 40.5642
27.158338135817015 40.3927
27.181422024430987 40.391
27.204328079372566 40.3063
27.22723524226965 40.299
27.250143514198573 40.4282
27.273231880156334 40.2041
27.296142382065014 40.02
27.319053996245536 40.086999999999996
27.341966723775965 40.2113
27.365059584515222 40.126999999999995
27.38797455070062 40.1595
27.410890633481237 40.1924
27.433807833936918 40.0803
27.456905206923906 40.0921
27.47982465472398 40.0852
27.502745223449743 40.1106
27.525666914182825 40.2177
27.548768816912457 40.1727
27.571692763693633 40.2254
27.59461783573812 40.0975
27.617723149491244 39.9955
27.640650484125285 40.0239
27.66357894728264 39.9461
27.686508540048052 39.8386
27.709618414237887 39.8103
27.732550278321757 39.6659
27.755483275279115 39.5812
27.778417406196485 39.6593
27.801531858397514 39.6238
27.824468269376716 39.6457
27.847405817586786 39.5792
27.870344504116094 39.7075
27.893463551932008 39.6857
27.916404527281053 39.9173
27.93934664422563 39.9403
27.962289903855886 39.8987
27.98541356491974 40.071
28.00835912214229 40.1706
28.03130582533231 40.3583
28.054253675581805 40.529
28.077381967556104 40.4622
28.100332124185126 40.5206
28.123283431160893 40.4743
28.146235889577238 40.5314
28.169368830154156 40.4765
28.192323603752033 40.2393
28.215279532083304 39.8137
28.238415973016764 39.5683
28.261374223145094 39.3591
28.284333631303806 39.3317
28.307294198589954 39.1646
28.330435319167677 38.8452
28.353398217078915 38.580999999999996
28.376362277420153 38.3693
28.39932750129032 38.3247
28.422473319286713 38.0635
28.44544088262495 38.0715
28.468409612800283 37.9082
28.491379510913497 37.6491
28.51453004413313 37.5827
28.53750229057244 37.4924
28.56047570826344 37.4358
28.583450298308804 37.341
28.606605564586562 37.1901
28.629582511831156 37.3143
28.65256063474956 37.1476
28.675539934446338 37.1473
28.698699951647605 37.1223
28.72168161743193 37.0419
28.74466446331978 36.958
28.767648490417624 36.9334
28.790813276438353 36.8572
28.813799678527303 36.8813
28.836787265157085 36.8475
28.859955641890075 36.7473
28.882945610203045 36.934
28.905936766392035 36.7794
28.928929111566863 36.8413
28.952102288520145 36.778
28.975097024308607 36.5617
28.998092952423807 36.508
29.021090073977508 36.4501
29.04426806913204 36.3772
29.067267590245258 36.1694
29.090268308143695 36.1562
29.11327022394099 36.0595
29.13645305530891 35.9005
29.159457379627167 35.8564
29.18246290519685 35.7416
29.20546963313352 35.8035
29.22865731875826 35.8981
29.25166646419296 35.6674
29.27467681535305 35.566
29.29768837335608 35.6663
29.320880931312562 35.7115
29.34389491580634 35.6085
29.366910110507334 35.5984
29.38992651653503 35.5616
29.41312396492981 35.5361
29.436142806456754 35.5621
29.45916286268059 35.4441
29.48236399319994 35.4055
29.50538649169417 35.3723
29.528410208259935 35.1972
29.55143514402014 34.9865
29.574641196749695 34.8578
29.597668583816574 34.7774
29.6206971934585 34.580999999999996
29.64372702680042 34.6085
29.666938019934474 34.5
29.689970313635285 34.554
29.713003834422636 34.4463
29.73603858342347 34.3694
29.759254535188578 34.2846
29.78229175361658 34.1928
29.80533020365064 34.41
29.82836988641968 34.2878
29.85159081507472 34.1707
29.874632976355343 34.0972
29.89767637376955 34.1715
29.920721008448314 34.1178
29.9439469322847 34.0285
29.96699405457564 33.9726
29.9900424175358 34.0342
30.013092022298157 33.9934
30.03632295963995 33.8189
30.059375061131373 33.9158
30.08242840783577 33.9193
30.105483000888153 33.895
30.128718970092244 33.8287
30.151776069006917 33.7779
30.17483441768648 33.7313
30.198074175317235 33.7362
30.221135036724256 33.6275
30.24419715131772 33.6447
30.267260520236203 33.7167
30.290505341942243 33.7126
30.313571232750228 33.7329
30.336638381310948 33.7147
30.35970678876503 33.5876
30.38295669299435 33.6948
30.40602763151657 33.7061
30.429099832366074 33.564
30.452173296685572 33.5096
30.47542830191959 33.4624
30.498504306502497 33.5168
30.521581577995562 33.4777
30.544660117543582 33.5387
30.56792024229725 33.571
30.59100133132069 33.399
30.614083691845494 33.4018
30.637167325018545 33.49
30.660432587840603 33.5085
30.683518779717886 33.4237
30.70660624769615 33.467
30.729694992924372 33.5085
30.75296541239743 33.5832
30.77605672557558 33.4362
30.799149319462742 33.5017
30.8224236211637 33.3716
30.845518789950724 33.2649
30.868615242910597 33.2071
30.891712981195973 33.1195
30.91499247215866 33.0508
30.938092794619365 33.0127
30.96119440587579 32.9091
30.984297307082752 32.8004
31.00758200598383 32.7748
31.030687500658694 32.6964
31.053794288760695 32.5547
31.076902371446767 32.4886
31.100192296997445 32.4505
31.12330298246119 32.5015
31.14641496599209 32.3584
31.169528248749216 32.4629
31.19282341969534 32.3138
31.215939314557186 32.304
31.239056512134788 32.233000000000004
31.262175013589378 32.150999999999996
31.28547544871168 32.0995
31.30859657161541 32.1
31.331719001892175 32.0595
31.35484274070538 32.2718
31.378148458819545 32.1864
31.401274828443725 32.1652
31.424402510106933 32.184
31.447712205419993 32.1871
31.470842524931633 32.0101
31.493974159989783 32.0373
31.51710711176168 32.0697
31.54042212308802 32.1074
31.563557722100917 32.1638
31.586694641341655 32.0275
31.609832881979628 31.9765
31.63315322823208 31.7895
31.656294125521327 31.7838
31.679436347728515 31.711
31.70257989602529 31.5911
31.725905596152327 31.6342
31.74905181052835 31.4734
31.772199354521323 31.5376
31.79534822930507 31.5076
31.818679302290967 31.4025
31.84183085259981 31.3912
31.864983737233473 31.3719
31.88813795736804 31.4092
31.911474422233013 31.2881
31.934631327356435 31.2807
31.9577895715215 31.3554
31.980949155906522 31.3422
32.004291031706956 31.2291
32.027453310562606 31.1451
32.05061693318573 31.105999999999998
32.07396288236386 31.2366
32.09712920658542 31.1146
32.12029687812702 30.9737
32.14346589817093 30.8138
32.166817291729984 30.8414
32.18998902288583 30.8152
32.21316210610336 30.6584
32.23633654256711 30.4516
32.259693399663725 30.4949
32.282870556771144 30.4128
32.30604907069099 30.5124
32.329228942610065 30.3346
32.35259128243769 30.2019
32.375773884550505 30.1872
32.398957848235646 30.2157
32.422143174682176 30.1362
32.445511016471215 30.0063
32.468699082679954 29.8971
32.49188851523011 29.8996
32.51507931531304 29.8937
32.538452678331 29.916999999999998
32.56164622776311 29.8579
32.58484114831493 29.7892
32.60803744118015 29.7426
32.631416344731896 29.7417
32.654615396551876 29.7211
32.67781582427913 29.7617
32.701198898634416 29.5746
32.72440209253756 29.5158
32.747606665947124 29.5722
32.77081262006088 29.4312
32.79420126883317 29.4461
32.81740999876112 29.4728
32.840620112999424 29.2685
32.86383161274818 29.1675
32.88722585534586 29.1429
32.91044014056596 29.3457
32.933655814909734 29.259
32.95687287957963 29.1735
32.98027273544904 29.1024
33.00349259526636 29.0595
33.026713849030116 29.1054
33.04993649794511 29.1238
33.073341986570746 29.0137
33.09656744032826 29.0368
33.11979429286444 29.0649
33.14302254538647 28.9785
33.166433686291185 28.8903
33.18966475336992 28.8105
33.212897224069096 28.7474
33.23613109959831 28.81
33.259547912343415 28.712
33.2827846121627 28.6651
33.306022720453775 28.6294
33.32926223842861 28.6183
33.352684742614166 28.6078
33.37592709463173 28.594
33.399170859982064 28.4814
33.422597648419426 28.4053
33.44584425514446 28.2573
33.46909227885668 28.3053
33.4923417207723 28.1824
33.51577423505344 28.1369
33.539026528130385 28.1246
33.56228024307245 28.0439
33.585535381098246 27.8963
33.60897364093058 27.8699
33.63223163992385 27.8589
33.6554910656699 27.8455
33.678751919389796 27.8959
33.702195944520106 27.7433
33.72545966903325 27.7656
33.74872482519663 27.5862
33.771991414233746 27.5887
33.79544122444841 27.5429
33.81871069412428 27.4452
33.84198160035767 27.5406
33.86525394437455 27.5036
33.88870955949969 27.4956
33.911984794020626 27.4622
33.93526147001624 27.3849
33.958539588715006 27.4328
33.98200102861669 27.3061
34.0052820477047 27.1896
34.02856451319451 27.2368
34.05203033759056 27.1369
34.07531571090147 27.1284
34.09860253431845 27.0947
34.121890809074316 27.0522
34.145362493118924 27.0366
34.16865368561615 26.9555
34.191946333164054 26.8273
34.21524043699793 26.8757
34.23871800066799 26.8558
34.26201503218366 26.7793
34.28531352370466 26.7145
34.30861347646881 26.6458
34.33209693978188 26.7103
34.3553998301885 26.6465
34.378704185565205 26.5153
34.402010007152356 26.415
34.42549939016683 26.4953
34.44880815937748 26.3654
34.472118398533134 26.4209
34.49543010887669 26.4081
34.51892543169198 26.2842
34.54224009966052 26.2665
34.56555624255917 26.2395
34.58887386163339 26.1434
34.61237514439016 26.0233
34.6356957311114 26.0717
34.65901779775809 26.0856
34.68252356662995 26.0241
34.705848608458616 25.9275
34.72917513396849 25.9248
34.75250314440949 25.8634
34.77601490857862 25.8195
34.799345904259795 25.7496
34.82267838863559 25.732
34.846012362958525 25.7231
34.869530142679984 25.6475
34.89286711232212 25.6556
34.91620557568269 25.6453
34.93954553401677 25.5611
34.9630693495876 25.4693
34.986412313340814 25.5448
35.00975677584668 25.5407
35.033102738362956 25.5135
35.05663261012228 25.4762
35.0799815881786 25.3927
35.10333207003229 25.336
35.12668405694369 25.3655
35.150220005273056 25.2929
35.17357501786656 25.2028
35.19693153931268 25.1697
35.220289570874385 25.2225
35.24383161619786 25.2184
35.267192683604904 25.2053
35.290555264930376 25.0797
35.314101899412165 25.099
35.33746752422433 25.0939
35.36083466676374 25.0318
35.38420332829803 24.9361
35.407756095629054 24.9879
35.43112781085063 25.0409
35.45450104888391 24.9208
35.477875810999194 24.881999999999998
35.50143473172161 24.835
35.52481255774625 24.8758
35.54819191167777 24.8114
35.57157279478914 24.8313
35.595137889488406 24.7424
35.61852184675279 24.6776
35.641907337029984 24.616
35.665294361595684 24.6605
35.68886565090076 24.5569
35.7122557598848 24.5266
35.73564740699838 24.6197
35.759040593519934 24.4956
35.78261809810353 24.4659
35.80601437933051 24.3947
35.829412203814705 24.2821
35.85281157283719 24.2304
35.876395313415884 24.2719
35.8997977874528 24.1839
35.92320180988546 24.1546
35.946790244133936 24.0548
35.97019737933222 24.1402
35.993606066789866 24.0821
36.01701630779276 24.0068
36.04061101440684 23.95
36.06402437852291 23.9878
36.08743930005611 23.9451
36.1108557802951 23.8757
36.13445678011326 23.8809
36.15787639383515 23.7681
36.18129757014299 23.77
36.20472031032821 23.6941
36.22832762423364 23.65
36.25175350829375 23.7345
36.275180960119776 23.6392
36.298609981005924 23.6136
36.32222362992669 23.5923
36.34565580510207 23.5339
36.36908955323448 23.4723
36.39252487562093 23.3889
36.416144880530226 23.3195
36.43958336764275 23.3599
36.463023432914625 23.3706
36.486465077645676 23.3325
36.51009145956204 23.4531
36.53353627947859 23.4026
36.55698268276811 23.3207
36.58043067073321 23.2089
36.60406345072071 23.0826
36.62751462435344 23.1499
36.65096738658405 23.1215
36.67460498210655 23.0821
36.69806093788647 23.0828
36.72151848619297 22.9583
36.744977628333636 22.9899
36.76862165890998 22.9106
36.79208400512205 22.9292
36.81554794910557 22.9309
36.83901349217101 22.7848
36.862663978991606 22.7756
36.88613273667352 22.689
36.90960309738324 22.7727
36.933075062434064 22.6519
36.95673202673572 22.6463
36.98020721697122 22.6556
37.003684015502365 22.5892
37.027162423645365 22.5078
37.050825886711465 22.5146
37.07430753063053 22.3836
37.09779078812467 22.3629
37.121275660513014 22.3603
37.144945643673694 22.4045
37.16843376245278 22.3916
37.19192350009803 22.3264
37.215414857931435 22.2804
37.239091382563885 22.1905
37.262585997426164 22.1716
37.28608223645736 22.1024
37.309763684451696 22.0748
37.33326318851098 22.0239
37.356764320726555 22.0509
37.380267082425526 22.0115
37.40395510942588 22.0503
37.42746114683234 21.9516
37.45096881771841 21.9141
37.474478123414166 21.9171
37.49817275092816 21.8506
37.52168534303452 21.8119
37.54519957395567 21.7303
37.568715445024665 21.7409
37.592416694607714 21.6475
37.61593586281424 21.7349
37.63945667518264 21.795
37.66297913304891 21.6095
37.68668702630454 21.6616
37.710212792059274 21.515
37.733740207334854 21.478
37.757269273470364 21.388
37.780983832050374 21.3773
37.80451621684926 21.3882
37.82805025654007 21.3678
37.851585952464795 21.3836
37.8753071980695 21.287
37.89884622345676 21.1509
37.92238690911902 21.2334
37.94611318753442 21.0988
37.969657210779765 21.08
37.99320289834801 21.1631
38.016750251586465 21.0139
38.04048325513017 20.9954
38.06403395679343 21.0396
38.087586328183946 21.009
38.11114037065203 20.9527
38.13488012115898 21.0207
38.1584375229181 20.8248
38.181996599821 20.7471
38.205557353221124 20.8106
38.229303872575656 20.8112
38.2528679961576 20.789
38.27643380031219 20.7571
38.30000128639589 20.6979
38.32375459653193 20.6674
38.34732546371299 20.6091
38.37089801690786 20.56
38.39447225747609 20.5133
38.418232380377425 20.4983
38.441810012983396 20.4543
38.46538933705673 20.4488
38.488970353960084 20.4198
38.51273731166058 20.462
38.536321731567014 20.3772
38.55990784840681 20.2801
38.58367995004091 20.2433
38.60726947812959 20.232
38.63086070726198 20.2492
38.654453638806274 20.2103
38.678232613930824 20.1236
38.70182896773327 20.1004
38.72542702806741 20.0763
38.7490267963045 20.0612
38.77281266709232 19.9881
38.79641586862214 19.9824
38.8200207821842 19.967
38.843627409152944 19.957
38.86742019782782 19.8962
38.891030269149255 19.8387
38.914642058016156 19.8553
38.938255565806124 19.8147
38.96205529464307 19.8185
38.98567225787121 19.8069
39.00929094417078 19.7489
39.03291135492255 19.6855
39.05671804624804 19.6333
39.080341923549106 19.5747
39.103967529460334 19.5892
39.127594865365744 19.5939
39.15140854155791 19.5038
39.17503935514948 19.4992
39.19867190290282 19.4592
39.22249083587951 19.4394
39.24612686969409 19.4198
39.269764641845306 19.3982
39.293404153722804 19.3894
39.317230110864074 19.2786
39.34087311998506 19.2669
39.36451787301696 19.2578
39.388164371352595 19.1764
39.41199737518003 19.0915
39.43564738196752 19.0822
39.45929913825317 19.0449
39.48295264543308 19.0276
39.506792718520884 19.0242
39.530449745387216 19.0427
39.55410852735203 18.9571
39.57776906581474 18.9472
39.60161623079 18.8892
39.625280300200025 18.9463
39.64894613032202 18.8629
39.67261372255866 18.8643
39.6964680021016 18.7877
39.72013913657293 18.8089
39.74381203738292 18.816
39.76748670593756 18.7894
39.79134812278169 18.7415
39.81502634488497 18.7031
39.83870633896685 18.6236
39.862388106436654 18.5592
39.88625668336918 18.5457
39.90994201572829 18.5668
39.933629125719285 18.573
39.957503091207826 18.5005
39.9811937746168 18.5281
40.00488623990914 18.4747
40.02858048850006 18.4265
40.05246165409549 18.3833
40.076159487492085 18.3473
40.099859108448875 18.3823
40.123560518384345 18.3155
40.1474489070226 18.3157
40.171153913178564 18.2228
40.194860712584955 18.2268
40.2185693066637 18.1794
40.242464941335314 18.1297
40.26617714307655 18.1365
40.289891143772046 18.1047
40.3136069448471 18.0166
40.33750984859743 18.0436
40.3612292688043 18.0092
40.3849504936829 17.982
40.40867352466194 17.9989
40.43258372059144 17.9201
40.45631038219906 17.8787
40.48003885420956 17.8264
40.503769138055105 17.8394
40.52768664931955 17.8872
40.55142057531802 17.8004
40.57515631746428 17.7502
40.599079334038514 17.7666
40.62281872700477 17.6957
40.64655994043941 17.6863
40.67030297578061 17.5674
40.69423334835778 17.5715
40.71798004609188 17.5384
40.74172857006355 17.4863
40.76547892171441 17.5295
40.7894166736039 17.5228
40.813170699248566 17.4717
40.83692655691388 17.4272
40.86068424804498 17.3831
40.884629402612525 17.3809
40.908390779366385 17.407
40.932153993938 17.3612
40.95591904777605 17.3193
40.979871628443995 17.3237
41.003640379561936 17.2299
41.02741097430883 17.1505
41.05118341413683 17.1821
41.075143444384416 17.133
41.098919593177826 17.1277
41.1226975914255 17.127
41.14647744058318 17.0693
41.170444943946755 16.9886
41.19422851378379 17.0106
41.218013938914645 17.0215
41.24198706625173 16.9267
41.26577622087193 16.9227
41.289567235177785 16.8634
41.31336011063129 16.8739
41.337340752422875 16.8821
41.361137369129835 16.8854
41.38493585138705 16.8233
41.40873620066004 16.7747
41.43272438060107 16.7228
41.45652848292052 16.7017
41.48033445666918 16.6706
41.50414230331616 16.6289
41.528138045159764 16.6658
41.551949656675205 16.6082
41.575763145513235 16.5565
41.59957851314666 16.532
41.62358184070442 16.4862
41.64740098505737 16.4615
41.6712220126409 16.4727
41.69504492493139 16.3768
41.71905586207357 16.3822
41.74288256296395 16.3898
41.766711153007456 16.3437
41.79054163368412 16.2642
41.814560204340054 16.3299
41.838394485526365 16.2916
41.86223066180303 16.1982
41.88625497706819 16.2296
41.910094962812 16.1941
41.93393684811168 16.1953
41.95778063445365 16.0396
41.981812625263366 16.0638
42.00566023303407 16.0793
42.029509746323676 16.0379
42.05336116662236 16.0145
42.077400857069705 15.9744
42.10125611078846 15.9219
42.12511327600405 15.9319
42.14897235421036 15.9129
42.173019768448455 15.883
42.19688269209613 15.8489
42.22074753323349 15.8549
42.24461429335818 15.7846
42.268669455600495 15.7716
42.292540073217886 15.856
42.31641261433284 15.7984
42.34028708044675 15.702
42.36435001496739 15.6797
42.38822835065557 15.6215
42.41210861586426 15.565
42.4359908120986 15.5797
42.46006154323262 15.5927
42.48394762115317 15.4749
42.507835634632315 15.5194
42.531912233047436 15.4987
42.55580413732265 15.4694
42.579697981698 15.4508
42.60359376768525 15.4069
42.62767820545945 15.3682
42.65157789440821 15.3952
42.67547952952185 15.3568
42.699383112316 15.2879
42.72347541395347 15.3125
42.74738291190531 15.2643
42.771292362102166 15.2243
42.795203766063516 15.2606
42.819303956130405 15.2355
42.843219287476536 15.1748
42.86713657716324 15.0987
42.89105582671383 15.1301
42.91516392983864 15.1211
42.939087119032166 15.0082
42.963012272677304 14.9794
42.98693939230129 14.9546
43.01105543317513 14.915
43.034986504731386 14.9597
43.05891954686589 14.9349
43.08285456110972 14.9014
43.10697856448665 14.8178
43.130917542983475 14.7709
43.15485849820081 14.8261
43.17880143167367 14.7673
43.20293342237094 14.7336
43.226880332449 14.7327
43.25082922540554 14.7522
43.27496722682525 14.7036
43.29892010567796 14.607999999999999
43.32287497204102 14.6339
43.34683182745632 14.6019
43.370977859791836 14.5867
43.39493871351105 14.6138
43.41890156092628 14.5577
43.44286640358341 14.4593
43.46702049182749 14.4531
43.49098934522816 14.4349
43.51496019852649 14.446
43.5389330532723 14.3863
43.56309522248204 14.3905
43.58707210044314 14.4109
43.61105098451946 14.3538
43.63503187626491 14.3139
43.659202151562134 14.2923
43.68318707902681 14.2683
43.70717401884041 14.2482
43.731162972560874 14.2019
43.75534137913236 14.1808
43.779334381108384 14.1155
43.803329401683186 14.1316
43.82732644241872 14.0972
43.8515130055166 14.107000000000001
43.87551410707659 14.0504
43.89951723350145 14.0352
43.923709934595614 14.0221
43.94771713129917 13.9975
43.97172635758096 13.9944
43.99573761501002 13.9794
44.0199385169922 13.9308
44.04395385732619 13.8405
44.067971233533086 13.8581
44.09199064718605 13.834000000000001
44.11619977548961 13.7876
44.14022328470671 13.7966
44.16424883610785 13.8153
44.18827643127035 13.805
44.21249381139513 13.7389
44.236525514814076 13.7166
44.26055926674478 13.7192
44.28459506876863 13.6964
44.3088207262813 13.6248
44.33286064928722 13.5717
44.35690262714919 13.5984
44.38094666145278 13.5204
44.4051806219871 13.5333
44.42922879003185 13.5087
44.45327901929361 13.4423
44.477331311362136 13.4265
44.501573600619416 13.4036
44.525630039221795 13.3872
44.54968854541895 13.3826
44.573937102200176 13.3277
44.5979997645541 13.3991
44.622064499300315 13.2931
44.64613130803592 13.2607
44.67038823869318 13.3197
44.69445921643748 13.2331
44.718532272981385 13.2219
44.742607409926194 13.1936
44.76687274034801 13.1942
44.79095205918753 13.1546
44.81503346325094 13.1047
44.839116954143876 13.1092
44.86339071028742 13.0747
44.88747839599524 13.065999999999999
44.91156817336837 13.03
44.93566004401666 13.043
44.959942251908146 13.020999999999999
44.984038330325966 12.9945
45.00813650686762 12.9444
45.03223678314731 12.9209
45.05652746888232 12.8838
45.08063196592069 12.8883
45.104738567558705 12.843
45.128847275414856 12.8115
45.15314646515866 12.7812
45.17725940679741 12.7898
45.20137445952892 12.758
45.22568004865265 12.7525
45.24979934496396 12.7415
45.27392075725247 12.7235
45.29804428714431 12.6877
45.322358426247604 12.6693
45.346486212804315 12.5889
45.370616121861914 12.64
45.39474815505086 12.6253
45.41907087049246 12.5722
45.4432071734666 12.564
45.46734560548283 12.5201
45.49148616817604 12.5043
45.51581748638564 12.4972
45.5399623320197 12.4946
45.56410931325473 12.4388
45.58825843173002 12.4257
45.61259837920865 12.3298
45.636751793816 12.3771
45.66090735060093 12.3315
45.68506505120716 12.2863
45.7094136545275 12.2778
45.73357566449271 12.2507
45.75773982322992 12.2924
45.78190613238733 12.2487
45.806263418194064 12.1664
45.83043404997326 12.2014
45.85460683713677 12.1579
45.87897065658495 12.1342
45.90314777634752 12.1296
45.92732705646868 12.1069
45.9515084986045 12.097999999999999
45.97588104735473 12.0667
46.00006683541565 12.0228
46.02425479047904 12.0126
46.04844491420549 12.0151
46.0728262191024 11.9718
46.09702070211635 11.9515
46.12121735879483 11.9536
46.14541619080294 11.9611
46.169806278764455 11.9051
46.194009483459034 11.8751
46.21821486849841 11.8396
46.24242243555223 11.8122
46.266821333570014 11.7636
46.29103328674601 11.7859
46.31524742696538 11.7725
46.33946375590237 11.745999999999999
46.36387149104216 11.6709
46.38809221957392 11.620999999999999
46.41231514186606 11.6817
46.436540259597464 11.6717
46.460956858999374 11.6248
46.48518638983522 11.6136
46.509418121166966 11.6074
46.533652054678114 11.57
46.55807754555709 11.540999999999999
46.58231590571962 11.5514
46.60655647313217 11.5117
46.630988654873654 11.4781
46.655233659129024 11.4521
46.67948087571551 11.4271
46.70373030632484 11.3881
46.72817142736393 11.3921
46.752425308428684 11.3735
46.77668140861147 11.3448
46.80093972960865 11.3007
46.82538981736788 11.2744
46.849652602470904 11.2664
46.87391761349769 11.2403
46.8981848521493 11.2394
46.9226439341274 11.2256
46.946915650573224 11.1764
46.97118959976749 11.203
46.99546578341598 11.1696
47.019933887188216 11.1208
47.04421456235744 11.1224
47.06849747711879 11.079
47.09278263318286 11.071
47.11725978640143 11.0588
47.14154944775105 11.0006
47.165841355555656 11.0051
47.1901355115306 10.9922
47.214621741924994 10.9903
47.23892041698887 10.9652
47.26322134538975 10.91
47.28771440635075 10.9209
47.31201986422527 10.9076
47.33632758061436 10.8815
47.360637557241866 10.8414
47.38513974410611 10.8335
47.40945426407847 10.8065
47.43377104948137 10.7681
47.45809010204344 10.8183
47.48260144275502 10.7669
47.506925052572285 10.7216
47.53125093475548 10.6791
47.55557909103813 10.6528
47.58009961361992 10.6764
47.60443234110732 10.6349
47.62876734791564 10.6076
47.65310463578333 10.599
47.6776343683373 10.6103
47.7019762413987 10.5627
47.72632040075572 10.5477
47.75066684815169 10.5353
47.77520581885936 10.5724
47.799556865477655 10.4999
47.823910205386 10.4802
47.84826584033272 10.4844
47.87281407745551 10.4236
47.89717432569297 10.4105
47.92153687423484 10.4102
47.94609208429692 10.4075
47.97045925671401 10.4141
47.99482873471275 10.3548
48.01920052005013 10.3426
48.04376504619224 10.3304
48.068141469543484 10.3287
48.09252020552573 10.3272
48.11690125590099 10.2501
48.1414751266064 10.2588
48.16586082917454 10.2353
48.19024885144316 10.2184
48.2146391951793 10.2064
48.239222439012764 10.1972
48.26361744916137 10.1097
48.28801478610016 10.1334
48.31241445160131 10.1146
48.337007097209366 10.0936
48.36141144338331 10.0782
48.38581812345755 10.0656
48.41022713920929 10.0651
48.434829215320704 10.0193
48.45924292604658 10.0231
48.48365897780325 10.0148
48.50807737237308 9.98338
48.532688907799276 9.98136
48.55711201168574 9.93887
48.581537463754074 9.93825
48.60615611725119 9.92791
48.63058628942721 9.86178
48.65501881516546 9.87605
48.6794536962573 9.862639999999999
48.70408185970339 9.82044
48.72852147531801 9.79137
48.75296345168211 9.74275
48.77740779059232 9.79048
48.80204549302823 9.74968
48.82649458091802 9.762089999999999
48.85094603676547 9.6894
48.87539986237231 9.66975
48.90004713292306 9.68031
48.92450572200832 9.65877
48.94896668628025 9.633389999999999
48.97343002754588 9.631969999999999
48.99808689542115 9.61941
49.02255501470614 9.62065
49.04702551642794 9.54755
49.0714984023988 9.4943
49.096164896893235 9.53686
49.120642575466796 9.47954
49.145122643748394 9.494060000000001
49.16960510355558 9.46
49.19428125404938 9.49677
49.2187685210852 9.47075
49.243258185121555 9.45374
49.26794160167084 9.417710000000001
49.2924360839405 9.4209
49.31693296869764 9.37693
49.34143225776915 9.3734
49.36612538195438 9.28359
49.39062950396021 9.31691
49.41513603578346 9.292689999999999
49.4396449792564 9.29996
49.46434784069503 9.28222
49.488861631846454 9.22419
49.513377840166804 9.2127
49.537896467493745 9.216510000000001
49.56260909589029 9.18573
49.587132585683285 9.18553
49.611658500018365 9.160169999999999
49.636186840738596 9.13611
49.66090926588511 9.14599
49.685442483902584 9.07659
49.70997813385706 9.06593
49.734516217597076 9.06095
49.75924846937352 9.05273
49.7837914452858 9.04342
49.80833686055187 9.00872
49.83288471702571 8.95166
49.85762682540054 8.999360000000001
49.882179588965734 8.97856
49.9067347993235 8.93373
49.93129245833333 8.91577
49.95604445336378 8.92244
49.98060703442832 8.877880000000001
50.005172069746266 8.855139999999999
50.02993150438364 8.83847
50.05450147301533 8.83826
50.07907390151433 8.82627
50.10364879174981 8.78327
50.12841816587289 8.78359
50.1529980044635 8.76698
50.17758031042124 8.7672
50.20216508562089 8.740969999999999
50.22694442953363 8.72131
50.25153416817468 8.72015
50.27612638170508 8.692260000000001
50.300721072005196 8.64365
50.325510416102105 8.66042
50.350110084975064 8.6449
50.37471223628208 8.598469999999999
50.39931687190919 8.59557
50.424116246675766 8.58847
50.44872587605249 8.55597
50.47333799543065 8.5488
50.49795260670191 8.55462
50.52276204271512 8.5157
50.54738166295838 8.49329
50.57200378079314 8.48435
50.596628398116835 8.46289
50.62144792604559 8.49222
50.646077567609396 8.457289999999999
50.670709714377715 8.42394
50.69553683636198 8.45549
50.72017401885922 8.3902
50.7448137122895 8.41317
50.76945591856022 8.37257
50.79429318636823 8.35677
50.818940443716784 8.33815
50.84359021965163 8.3066
50.868242516085964 8.304739999999999
50.893089960641895 8.25517
50.917747323549435 8.25987
50.94240721271973 8.265360000000001
50.96706963007175 8.22175
50.99192728239342 8.23306
51.01659478166073 8.214960000000001
51.04126481489051 8.21802
51.06593738400761 8.160060000000001
51.090805275207074 8.12663
51.11548294172845 8.13337
51.14016314993547 8.12589
51.164845901758845 8.12691
51.18972406304274 8.09874
51.21441192780656 8.053889999999999
51.23910234200271 8.0534
51.2637953075678 8.03021
51.288683770237945 8.01863
51.31338186432707 8.026810000000001
51.33808251561888 7.977180000000001
51.362978729967345 7.999060000000001
51.387684521509755 7.95558
51.41239287610203 7.9301699999999995
51.437103795691165 7.918130000000001
51.46201036644977 7.908110000000001
51.486726441956634 7.85508
51.51144508832545 7.88692
51.536166307509156 7.860639999999999
51.56108326624387 7.830589999999999
51.58580965706056 7.82722
51.61053862657523 7.793660000000001
51.635270176746864 7.809419999999999
51.66019755512065 7.798439999999999
51.68493429268881 7.715139999999999
51.70967361681515 7.71715
51.73441552946465 7.739380000000001
51.759353359237934 7.716310000000001
51.7841004750961 7.705489999999999
51.80885018539685 7.669760000000001
51.833602492111254 7.640680000000001
51.8585508051424 7.63735
51.883308330926425 7.60162
51.90806845906181 7.5868
51.932831191525715 7.5821
51.95779001977161 7.57572
51.98255798721516 7.54577
52.00732856494335 7.529210000000001
52.03229530577543 7.55353
52.057071130455945 7.48993
52.081849571391054 7.509460000000001
52.106630630568695 7.502789999999999
52.13160794279417 7.466239999999999
52.15639426492067 7.4903
52.18118321127822 7.44395
52.205974783860896 7.44895
52.23096269971011 7.40437
52.255759551287994 7.3715
52.280559035098186 7.4250300000000005
52.30536115314103 7.363510000000001
52.33035970494467 7.340489999999999
52.35516711807904 7.30912
52.37997717147198 7.3211
52.40478986713005 7.2866800000000005
52.42979908731974 7.28379
52.454617094216 7.28027
52.47943774942214 7.274489999999999
52.50426105495102 7.23318
52.529280976059844 7.2339899999999995
52.554109609024096 7.233169999999999
52.57894089837482 7.21737
52.60377484613117 7.19043
52.62880550079408 7.1722
52.65364479223379 7.12932
52.67848674816189 7.1127199999999995
52.70352547971946 7.139810000000001
52.72837279155837 7.12056
52.753222773982785 7.0907
52.778075429022984 7.06585
52.80312495150885 7.072660000000001
52.827982978797436 7.05196
52.85284368481815 7.028760000000001
52.87770707160767 7.0069
52.90276741793998 7.00488
52.92763619336701 6.996389999999999
52.952507655698504 7.01133
52.977381806977576 6.984189999999999
53.00245301017842 6.97657
53.02733256653592 6.93907
53.052214817996074 6.886610000000001
53.077099766608484 6.875660000000001
53.102181859804446 6.902019999999999
53.127072229988265 6.87502
53.15196530349892 6.866689999999999
53.17686108239249 6.8155
53.20195409881522 6.81295
53.22685531582556 6.80727
53.25175924441303 6.740710000000001
53.27666588664027 6.78712
53.30176985962693 6.7578
53.3266819565689 6.760439999999999
53.35159677336455 6.783180000000001
53.376514312083096 6.745089999999999
53.40162927507703 6.71438
53.42655228516116 6.6967
53.45147802340193 6.736680000000001
53.47660125628886 6.66626
53.50153247842639 6.63277
53.52646643496923 6.621230000000001
53.55140312799818 6.624230000000001
53.576537409691696 6.5796600000000005
53.60147960336152 6.58533
53.626424539786164 6.58427
53.65137222105307 6.54394
53.67651758529126 6.48773
53.70147078399681 6.52984
53.72642673383343 6.5060199999999995
53.75138543689533 6.514819999999999
53.776541917524526 6.5126
53.801506154876755 6.48877
53.826473151763246 6.47795
53.851442910284916 6.42355
53.87661054126026 6.3994
53.9015858509782 6.42686
53.92656392866066 6.42699
53.95154477641532 6.38644
53.976723591801296 6.3622
54.00171000771266 6.3409699999999996
54.02669920004598 6.3525599999999995
54.051691170915745 6.34879
54.076881204886796 6.30258
54.101878760928514 6.27175
54.12687910187696 6.31855
54.152077577768296 6.2878099999999995
54.1770835166946 6.24984
54.20209224691339 6.25105
54.22710377055121 6.21167
54.25231352511594 6.19902
54.27733066384342 6.1935
54.30235060239643 6.22
54.32737334290836 6.1599900000000005
54.35259441062629 6.14545
54.377622783395324 6.12504
54.40265396455061 6.10661
54.42768795623251 6.08809
54.45292037169559 6.0465800000000005
54.477960012857906 6.04235
54.50300247099511 6.06423
54.52804774825457 6.02628
54.55329154616743 5.98623
54.57834249018678 5.98555
54.6033962597977 5.93652
54.6284528571545 5.902340000000001
54.653708072335164 5.8581900000000005
54.67877035378786 5.8804
54.70383546947698 5.9042
54.72890342156389 5.86808
54.7541700889442 5.82555
54.77924374251975 5.80965
54.8043202390049 5.78903
54.82959552413022 5.73205
54.8546777351945 5.7578
54.87976279569621 5.69121
54.90485070780914 5.69897
54.930137506558005 5.70976
54.95523115074295 5.744680000000001
54.98032765308844 5.63167
55.005427015775496 5.6345
55.03072536339621 5.63075
55.05583047570572 5.61564
55.080938454927676 5.571969999999999
55.10604930325027 5.54608
55.131359235107396 5.5591099999999996
55.15647585066083 5.4732400000000005
55.181595341907496 5.48543
55.20671771104285 5.43939
55.232039262617704 5.43083
55.25716741665048 5.38101
55.28229845518636 5.3725
55.30743238042802 5.34701
55.33276558731939 5.31399
55.357905315183636 5.32178
55.383047936390035 5.3044400000000005
55.40819345314859 5.22422
55.433538351073295 5.2265
55.458689688238415 5.17436
55.483843927614096 5.13812
55.509197623043605 5.1420699999999995
55.53435769621134 5.10307
55.55952067826466 5.08451
55.5846865714265 5.09744
55.61005202069737 5.0756
55.63522376553902 5.047619999999999
55.66039842818645 5.037640000000001
55.68557601087004 4.99071
55.7109532500271 4.92908
55.73613670233794 4.99295
