TT I
1.2716486653135266 7.74759
1.2939594142134223 7.702380000000001
1.3162702121660406 7.17523
1.3385810600174564 6.80935
1.3608919586137629 6.756989999999999
1.383202908801069 6.94441
1.405513911425503 6.64164
1.4278249673332093 6.24942
1.4501343378461518 6.619739999999999
1.4724455028545926 5.64029
1.4947567236847858 5.07803
1.517068001182951 5.5441199999999995
1.5393793361953272 6.39998
1.5616907295681737 6.31837
1.5840021821477681 6.1119900000000005
1.60631369478041 6.19156
1.6286252683124185 5.54439
1.6509369035901333 5.14182
1.6732468618895553 5.38933
1.695558623192809 4.985469999999999
1.7178704487808514 6.29591
1.7401823395001077 6.12962
1.7625012545597203 5.53942
1.7848028405262486 5.08525
1.8071218901122095 4.612509999999999
1.8294236121921872 4.97058
1.8517427996910911 4.78251
1.8740620574440425 5.31452
1.8963639900671978 5.2039
1.9186833908139995 5.57501
1.9409854680117449 5.12197
1.9633050151394713 5.3308599999999995
1.9856246367570705 5.16507
2.0079269371922672 4.537719999999999
2.03024671027244 5.2150300000000005
2.0525491637446027 5.18547
2.074869091674931 4.45581
2.097171701569106 4.97962
2.1194917877373847 4.84092
2.141811954326636 5.02934
2.164114805233074 4.33231
2.186435135143035 4.5315199999999995
2.208738150935709 4.18433
2.231058647554722 4.39848
2.2533792288321184 4.80171
2.275682498336085 4.34012
2.298003251406138 4.3008
2.3203066942619714 4.03483
2.3426276225136022 4.50491
2.3649486396617507 4.755330000000001
2.387252348930071 4.37071
2.4095735463442893 4.17925
2.4318774374315884 3.8919300000000003
2.4541988185014043 4.56133
2.476502894794693 5.21456
2.498824462909887 3.63881
2.521146125856138 4.02002
2.5434504863470337 4.1134
2.5657723414244717 5.0304
2.588076895590662 5.8288400000000005
2.610398946189713 5.908180000000001
2.6327210958598384 4.67457
2.6550259469304716 4.84828
2.6773482972090137 5.2590900000000005
2.6996533504259 5.28753
2.7219759047039602 5.75098
2.744298562293959 6.13689
2.7666039251246595 5.90505
2.7889267918020164 6.38244
2.8112323652516555 7.178669999999999
2.833555444408179 6.61367
2.8558786311183852 6.3486
2.8781845268938557 7.78309
2.9005079311721484 7.87104
2.9228140460410397 8.06568
2.9451376712799635 8.85807
2.967444008632326 9.10717
2.9897678582247247 10.123
3.0120918213106695 10.5915
3.0343984987899373 10.5859
3.0567226913198637 11.0073
3.079029599759726 11.7171
3.101354025127254 12.1776
3.123678568232338 12.3912
3.145985829517914 13.1355
3.16831061055229 13.5543
3.1906181112775593 13.2964
3.212943133635653 14.4015
3.2352682779763207 15.1664
3.2575761442691227 15.5477
3.2799015350264273 16.0914
3.302209649240067 16.2272
3.3245352898092655 16.7333
3.3468436553365257 17.2947
3.369169549113219 17.6687
3.3914955708171384 18.2476
3.413804319727358 18.4347
3.4361305997334863 18.868
3.4584396084414553 19.5496
3.4807661501462652 20.2333
3.503092824025881 20.6212
3.5254022288463154 20.3658
3.5477291695206588 20.7292
3.5700388426251948 21.1525
3.5923660534916446 21.3952
3.6146934007816114 22.1474
3.637003482731501 22.6149
3.6593311053109985 23.1196
3.681641464033634 23.2966
3.7039693653009733 23.3911
3.726297407241705 23.8994
3.7486081875460804 24.041
3.7709365132734978 24.7723
3.793247578841633 24.9787
3.8155761917550093 25.701999999999998
3.8378875459837216 26.0585
3.8602164494827234 26.0336
3.882545499606844 26.7932
3.9048572932539183 27.6363
3.9271866390645718 28.055999999999997
3.9494987298666713 28.8218
3.971828374764527 28.9319
3.9941581705403255 29.0793
4.016470713506008 29.6043
4.038800813471445 29.9802
4.061113662089144 30.8077
4.0834440696459176 31.7104
4.105774632334751 31.5897
4.128087945865126 32.0044
4.150418821249301 32.9946
4.172732448931298 34.0651
4.195063640413578 34.2569
4.2173775856475215 35.366
4.239709096631102 36.0943
4.262040768704612 35.9671
4.284355196706267 36.598
4.306687193387355 37.7311
4.329001947444346 39.0151
4.35133427213731 39.515
4.373666762177566 40.2366
4.395982011761091 41.0313
4.418314834921175 41.4758
4.44063041906622 42.8721
4.4629635787515625 44.048
4.4852969080429785 44.5345
4.5076130004776225 46.1647
4.529946671403969 46.9322
4.552263106909177 47.684
4.574597122877047 48.8287
4.596931312711224 50.1224
4.619248269273446 51.1741
4.6415828092605835 52.5058
4.663900117405352 53.6438
4.686235010953232 55.1118
4.708552674085913 56.5423
4.730887924602802 57.8897
4.753223354952695 59.5113
4.775541557023902 60.9538
4.797877349456786 62.1657
4.820195915032126 64.5657
4.842532072957498 65.5156
4.864868414979744 67.7647
4.88718753227192 70.1941
4.909524244902505 72.3894
4.931843734218147 74.7383
4.954180820867835 78.1478
4.976518095879839 81.9607
4.998838149695359 85.8548
5.021175803844231 90.5649
5.043496238205739 94.8854
5.065834274903528 101.22
5.088172504230693 107.906
5.1104935158799565 116.95
5.132832132875765 131.786
5.155153533596801 155.885
5.1774925416746225 212.332
5.199814334878411 558.23
5.2221537374521505 1960.98
5.244493338631803 3760.66
5.266815727034316 5297.55
5.289155727832427 8143.77
5.311478517248165 9553.85
5.333818921080011 6329.54
5.356159527788849 2015.71
5.3784829252032536 470.88
5.400823940070432 217.37
5.423147747031976 164.285
5.445489173474152 140.368
5.467830807066149 128.35
5.490155234831516 120.198
5.512497285125229 113.884
5.534822130975162 110.821
5.557164601388673 108.072
5.579489868738879 103.48
5.601832762690846 101.302
5.6241758697774475 100.34200000000001
5.646501775867269 98.8174
5.668845311622074 98.053
5.691171647754637 97.4124
5.713515615597765 95.8781
5.735859800852677 95.2817
5.758186788542988 94.2037
5.780531411018185 94.57
5.802858837297399 94.625
5.825203900414495 95.4426
5.8475491852224 96.9088
5.869877275883075 98.309
5.892223006467101 101.545
5.914551544266608 105.46
5.936897724049891 112.319
5.959244129804903 124.979
5.981573344815301 156.326
6.0039202049061 291.28700000000003
6.026249875609095 758.952
6.04859719346037 1381.54
6.070927323278297 1897.87
6.093275102315365 2663.15
6.115623113320588 3712.53
6.137953938319995 4032.16
6.160302415650845 2262.59
6.182633708324452 728.0419999999999
6.2049826554078376 224.102
6.227331838745022 124.24700000000001
6.249663839443684 100.17
6.27201349767565 89.3702
6.294345974611799 82.6517
6.316696111167083 78.281
6.339046488263839 75.7216
6.361379686074702 72.6972
6.383730546639482 70.3877
6.406064229255215 67.8451
6.428415576718203 67.5727
6.450749747566656 66.4074
6.47310158535871 65.0768
6.495453669698332 64.257
6.517788579421056 63.303999999999995
6.540141159237969 62.2359
6.562476565766648 61.3369
6.5848296444934045 60.644
6.607182974060425 59.8272
6.6295191323281015 59.7539
6.651872965955752 58.6023
6.6742096296068985 58.0099
6.6965639707294615 57.9504
6.71891856698715 56.9065
6.741255995248479 57.047
6.763611104154477 56.2242
6.785949046381137 55.9802
6.808304671371482 55.4451
6.8306605557940046 55.198
6.852999275508618 54.7709
6.875355681171544 54.5502
6.897694923437771 54.36600000000001
6.92005185377892 53.9913
6.9423916220322655 53.592
6.964749080490181 53.2679
6.987106804399774 53.3935
7.009447368180821 52.8916
7.031805625367033 52.8394
7.054146723727803 53.0362
7.076505517631004 52.3226
7.098864581288365 52.2921
7.121206488070854 52.1824
7.143566093607822 51.8839
7.165908543567245 52.1218
7.188268694426048 51.8947
7.2106291193438095 51.8609
7.232972390625943 51.7663
7.255333366030969 51.6284
7.277677189091925 51.4295
7.300038718428332 51.5449
7.322400526130865 51.6093
7.344745183422596 52.0001
7.367107550224791 51.7362
7.389452767901992 51.9595
7.411815697249891 52.205
7.434161478756298 51.3574
7.456524974096713 51.7913
7.478888753837185 51.7215
7.501235387657368 52.6576
7.523599738562711 55.7572
7.545946944825532 62.1753
7.568311870344528 64.3942
7.5906770845765665 59.6327
7.613025156078678 55.1407
7.635390950099687 54.0661
7.657739602662809 53.3753
7.680105979923558 53.0529
7.702472650212829 53.6452
7.724822180948224 53.8093
7.747189439655568 53.7909
7.769539560075357 53.8016
7.791907410653562 54.7651
7.81425812420825 54.4745
7.836626570110925 54.7168
7.858995315087906 55.7772
7.881346924933401 55.94
7.903716270417482 56.5526
7.926068482028405 56.6336
7.948438431475253 57.4842
7.9708086843180235 57.8097
7.993161805171116 58.4031
8.015532667162402 58.8745
8.037886398416653 59.8574
8.060257873014221 60.3398
8.082629655331942 60.7199
8.104984308787587 61.5425
8.127356708900503 62.3237
8.149711981398308 63.0817
8.172085002766314 64.0317
8.194458336181368 64.6846
8.216814543847752 66.1069
8.23918850371002 67.6614
8.26154533906492 68.7425
8.283919928836452 70.3355
8.306277395339652 71.62899999999999
8.328652618483376 73.245
8.351028159736202 75.5397
8.373386579575245 77.8784
8.395762759396959 79.9894
8.418121819038275 83.556
8.440498640894003 87.9729
8.462875785192262 95.4282
8.485235811156207 110.249
8.507613602688501 172.64700000000002
8.529974277114228 368.55400000000003
8.552352719347912 605.864
8.574731488360351 770.831
8.59709314210385 865.0
8.619472567021075 1070.36
8.64183487789147 1447.56
8.664214962183097 1831.29
8.686577933647762 1662.84
8.708958680784317 1007.78
8.731339760774953 433.978
8.753703729764451 183.06400000000002
8.77608547780821 117.978
8.798450116065078 104.073
8.820832535634787 97.0184
8.843215292401656 93.6024
8.865580941199045 90.5372
8.887964374703538 88.6524
8.910330701447199 87.1498
8.932714815164482 86.3448
8.955099270424924 84.9486
8.977466620733543 83.9464
8.999851761421976 83.5759
9.022219798361645 82.9986
9.04460562795561 82.3026
9.066991803441677 81.936
9.089360876979615 81.8446
9.111747746589993 81.27
9.13411751544971 81.0402
9.156505082664324 80.5651
9.178875550323522 81.0169
9.20126381862328 81.8341
9.223652438908596 87.1261
9.246023961427412 96.4349
9.26841328802173 98.4605
9.290785518039224 93.4399
9.313175554425882 86.9061
9.335565947154315 82.8408
9.357939245086508 82.185
9.380330352834827 81.7311
9.40270436697103 81.719
9.425096193225055 81.4416
9.447488380180165 82.758
9.469863475295412 82.9858
9.492256385987508 82.9575
9.514632206018318 83.5737
9.537025843935714 83.85799999999999
9.559402392368193 84.3985
9.581796761000229 85.2666
9.604191496441521 85.8257
9.626569144158516 86.4876
9.648964615551032 86.8082
9.671343000390081 87.795
9.693739211225699 88.9076
9.716135793237463 90.0902
9.738515290448102 91.1556
9.760912617143402 92.3614
9.783292860202891 93.5217
9.805690935076182 95.1241
9.828089385495742 95.936
9.850470754023561 98.4989
9.872869957865444 100.64299999999999
9.89525208097539 103.54700000000001
9.917652041736662 107.241
9.940052382417589 113.492
9.962435644102392 130.026
9.984836746950979 185.101
10.007220771957746 342.25800000000004
10.029622640473708 548.047
10.052007432299963 678.842
10.074410069984072 727.046
10.096813093716005 804.51
10.119199042482517 995.505
10.141602840636468 1339.42
10.163989564971628 1630.9
10.186394141051062 1558.1
10.208799107559706 1017.74
10.231187001965623 494.83099999999996
10.253592751657669 222.169
10.275981430388155 136.22299999999998
10.298387966769793 116.46
10.320794897965431 111.102
10.343184759907361 107.83
10.36559248305461 105.12299999999999
10.387983138083852 104.241
10.410391656691655 105.875
10.432800574501677 120.553
10.455192425893369 163.793
10.47760214443012 216.185
10.499994797678786 248.71900000000002
10.522405320453982 259.16900000000004
10.54479877906917 277.184
10.567210109595656 323.671
10.5896218454736 400.16
10.612016518879773 485.32
10.634429067781074 490.577
10.656824555333241 388.293
10.679237920773568 232.683
10.701651695961992 136.892
10.724048411481384 101.145
10.746463008485165 90.1139
10.768860546937125 85.9189
10.791275969274796 82.9966
10.81369180576079 81.4369
10.836090585366925 80.0072
10.858507252467449 78.8617
10.88090686379991 77.5806
10.903324365036394 76.9072
10.925724811614439 75.4701
10.948143150509463 75.0015
10.970561909719066 73.8338
10.992963615930844 73.1205
11.015383218085756 72.2106
11.037785768347074 71.0283
11.06020621697282 70.9489
11.082627090322113 70.5714
11.105030913430326 69.7647
11.12745263854165 69.1216
11.149857314510728 68.2751
11.172279894912576 68.3855
11.194702904450653 67.3986
11.217108866490921 66.7071
11.239532736615194 66.16
11.26193956033512 66.127
11.284364294577085 65.6728
11.306789462371718 65.0666
11.329197585398376 64.983
11.351623622610898 64.9751
11.37403261614354 64.4275
11.396459526308487 63.9193
11.418869393879497 63.6648
11.441297180532617 63.292
11.463725406927658 63.0902
11.486136592353875 62.8347
11.508565700543707 62.6038
11.530977768845315 62.5138
11.553407762368774 61.9166
11.575838200059769 62.0347
11.598251599479612 61.8836
11.620682927815501 61.5558
11.64309721895548 61.8063
11.665529441478206 61.3256
11.687962112597958 60.9609
11.710377748130886 61.3042
11.732811318753434 61.2267
11.755227854859067 61.2774
11.777662328529495 60.8474
11.800079768750786 60.9693
11.822515149015453 61.0687
11.844950984084935 61.2993
11.867369787303163 60.8777
11.889806534289491 61.2789
11.912226250487029 62.199
11.934663912939751 64.2676
11.9571020346363 66.0048
11.979523127133968 65.7249
12.001962169624331 65.3805
12.024384183972964 64.9839
12.046824150809913 67.2332
12.069264581333726 77.3079
12.091687985297767 90.2018
12.11412934550045 101.28
12.136553680195208 107.054
12.158995973632788 110.601
12.181438735204349 115.75299999999999
12.20386447284199 127.204
12.226308172985636 147.43
12.24873485024193 174.05700000000002
12.271179492516982 191.945
12.293607112949127 178.285
12.316052700916226 142.366
12.338498763250042 99.5836
12.360927805303868 75.2272
12.383374818673879 66.5904
12.405804812803074 63.8682
12.428252780773262 63.2278
12.45070122756722 63.032
12.473132656675375 62.657
12.49558206341869 62.726000000000006
12.518014453510101 62.7726
12.540464823770117 62.8065
12.562915677315177 63.0494
12.58534951575545 63.3797
12.607801338171472 63.1561
12.630236146511358 63.2254
12.652688941369085 64.1828
12.675124723177234 64.0738
12.697578494048786 64.6805
12.720032754458185 64.6327
12.742470003354093 65.1993
12.764925245138771 65.6644
12.787363476431278 66.2163
12.809819703166806 66.5736
12.83227642391173 67.2541
12.854716135692716 67.7334
12.877173846755147 69.0608
12.899614549869717 69.5885
12.9220732548287 70.2764
12.94453245827299 70.8446
12.966974655289818 71.6916
12.989434858002571 72.5082
13.011878055298721 73.4874
13.034339260862497 74.8901
13.056800969391883 76.2381
13.079245674017244 78.8498
13.101708390774869 80.6493
13.12415410463411 85.9595
13.146617833206086 102.529
13.169064559883248 132.819
13.191529303857127 164.50099999999998
13.213994557076367 187.111
13.236442809902437 196.012
13.258909083908291 201.58700000000002
13.28135835851934 213.828
13.30382565690295 239.416
13.326293469022952 283.70799999999997
13.348744283242008 341.66900000000004
13.371213125129904 390.54
13.39366497011003 383.315
13.416134845360597 312.072
13.438605238843131 216.81599999999997
13.46105863690397 146.668
13.483530069144786 120.523
13.505984506951902 129.982
13.528456981549432 154.674
13.550929978879088 173.232
13.573385983253365 181.671
13.595860028340867 183.28
13.618317081455832 188.905
13.64079217790333 204.467
13.663250283359057 231.63099999999997
13.685726434770173 274.296
13.708203115221277 325.605
13.730662806148091 340.702
13.75314054697177 307.782
13.775601299246777 231.253
13.798080104050406 154.495
13.820559442405358 107.587
13.843021793671388 88.2903
13.865502201420897 81.7293
13.887965623051947 80.4513
13.910447103807167 79.0035
13.932929122629764 77.382
13.955394156785959 76.6624
13.977877254034569 75.4944
14.000343367582113 74.6561
14.022827546871707 74.0077
14.045294743423524 73.211
14.06778000837062 72.6738
14.090265817715476 72.4881
14.112734645763819 72.50399999999999
14.13522154619454 73.0165
14.157691466286913 74.0955
14.180179461423874 73.678
14.202668005486178 72.6806
14.22513957064374 71.3263
14.247629214846473 70.259
14.270101881097517 69.4662
14.29259262906496 69.1054
14.315083930490205 68.5313
14.337558255389705 68.6172
14.360050666019726 68.4147
14.382526101071944 68.2909
14.405019624534942 68.084
14.427513705993134 67.7403
14.449990813291825 67.9814
14.47248601302899 67.7848
14.49496423954951 67.8232
14.517460561197822 68.0022
14.539939910570322 67.8458
14.562437357763558 67.9161
14.58493536931253 68.3533
14.607416409993311 68.3052
14.62991555254159 68.4479
14.652397725157423 68.6855
14.674898002342799 68.9398
14.697398848433282 69.2312
14.719882725991326 70.3028
14.74238471217934 71.1082
14.764869730765593 73.4284
14.787372860692983 80.0915
14.809876564079925 93.3683
14.83236330125751 107.045
14.854868153850365 116.61399999999999
14.877356041159485 120.625
14.899862046604186 122.023
14.922351087688757 125.13
14.944858249632887 132.166
14.967365991421232 144.942
14.989856770231246 163.026
15.012365673994204 187.495
15.03485761569738 205.60299999999998
15.05736768508665 204.843
15.07987833888692 178.012
15.102372032001655 140.18200000000002
15.124883856909658 102.73899999999999
15.14737872204565 81.9059
15.169891721717274 73.5919
15.192405310371893 71.0906
15.214901940621196 69.6897
15.237416709527137 68.7737
15.259914520936249 68.2261
15.282430473753607 67.5736
15.304947020131227 66.6432
15.327446610371178 66.6636
15.349964346154254 66.1957
15.372465126703139 66.0165
15.394984055556009 65.7037
15.417486030076159 65.6822
15.44000615566487 65.2949
15.462526881230803 65.1224
15.485030653812652 65.209
15.507552581617434 65.1482
15.530057557334603 64.9997
15.55258069104857 65.3364
15.575104429329837 65.2893
15.597611216864632 65.1125
15.620136166564563 65.3725
15.6426441664095 65.9998
15.665170331202765 67.8608
15.687697105158826 73.1539
15.710206930593545 83.7776
15.732734925158933 95.0219
15.755245972089478 102.706
15.77777519094324 107.054
15.800287463046663 107.885
15.822817909869592 109.387
15.84534897229804 112.777
15.867863089299354 121.816
15.890395385222186 133.739
15.912910736597423 150.526
15.935444269699861 171.984
15.957978423016485 184.27200000000002
15.980495633101265 177.743
16.003031029129367 154.19
16.02554948280019 119.398
16.048086125229432 90.5944
16.070623392487107 74.0342
16.09314371869582 66.3249
16.11568223789321 63.0836
16.13820381691126 61.4651
16.160743591742527 60.7255
16.183283996022084 60.0884
16.205807461423195 59.1916
16.228349126881973 58.6913
16.25087385432698 58.7017
16.27341678466365 57.6402
16.29594277784926 57.4405
16.31848697676433 56.8949
16.341031811604868 56.2566
16.36355971058487 56.2468
16.3861058195587 56.2196
16.40863499352978 55.8582
16.431182380342005 55.4251
16.453730407713202 55.0648
16.476261501364792 54.8537
16.498810812136167 54.6617
16.52134319004079 54.7971
16.54389378792203 54.7578
16.566445031001553 54.45399999999999
16.588979342490088 54.4168
16.61153187824822 54.2534
16.634067483263312 54.1705
16.656621315414416 54.1226
16.679175797408888 53.726000000000006
16.701713349928728 53.6499
16.72426913389191 53.8939
16.74680798922351 53.7645
16.76936507887444 53.8599
16.791905240734874 53.8481
16.814463639794468 53.6793
16.837022695210294 53.7075
16.859564824093756 53.8685
16.882125194503903 53.8289
16.904668639217885 54.0923
16.927230328348003 54.4088
16.949792678493612 54.8742
16.972338104193863 54.6907
16.994901778652235 54.6942
17.017448529496576 54.9763
17.040013531998152 54.9022
17.06257920018044 55.1303
17.0851279459922 56.5003
17.107694947817667 58.3392
17.130245028099072 60.5658
17.15281336730298 62.7335
17.17536478578733 64.1158
17.19793446610687 64.4371
17.220504818648422 64.5222
17.243058251703697 65.0812
17.265629950971032 66.4609
17.288184731571736 68.1808
17.310757781306908 71.5316
17.33333150794385 74.5967
17.355888317140174 78.3025
17.37846339986244 81.3732
17.401021565958885 80.6389
17.42359800851343 76.9644
17.44617513265564 71.5043
17.468735341390783 65.7053
17.491261035594565 61.2198
17.51396340099364 59.3872
17.536490463869136 58.8288
17.559018209820174 58.4634
17.58154663977963 58.6476
17.604251766089718 58.88
17.626781572227713 59.0418
17.64931206518155 59.1902
17.671843245885103 59.4731
17.69455114821572 59.5186
17.717083712612634 59.8673
17.739616967569667 60.2606
17.762150914021706 61.0949
17.78486160749854 61.3572
17.807396945166804 61.96
17.829932977143503 62.4772
17.85246970436452 63.3094
17.875183204129467 66.003
17.897721330097664 71.5689
17.920260154126645 78.2218
17.942799677153296 83.5081
17.9655159983646 86.869
17.988056927677544 88.0864
18.010598558807683 88.7383
18.033140892692916 89.9987
18.05586005052525 92.4634
18.07840379824407 96.5059
18.10094825154059 103.195
18.12366954819864 112.537
18.146215420998306 125.59700000000001
18.16876200220057 138.987
18.191309292745153 145.928
18.214033452627167 142.678
18.236582170236648 129.257
18.259131600016456 111.934
18.281681742907335 96.6214
18.304408781233683 87.9159
18.32696035875955 84.8606
18.349512652227624 85.6147
18.372065662579683 88.99
18.394795594587553 93.7822
18.41735004715306 99.1112
18.43990521943684 102.476
18.46246111238171 101.73700000000001
18.485193953325208 95.4348
18.507751296070428 85.9113
18.530309362314178 76.5485
18.552868153000343 69.2376
18.57560391815056 64.7467
18.59816416623245 62.9609
18.620725141597372 62.0506
18.643286845190268 61.1159
18.666025549835414 60.592
18.688588718427933 59.9055
18.711152618092243 59.7791
18.73389353884365 59.3112
18.75645890921984 58.8742
18.77902501351406 58.6619
18.801591852673102 58.5132
18.824335739722738 57.8925
18.846904057212626 57.8226
18.8694731124168 57.8183
18.89204290628315 57.6678
18.914789774966803 57.4552
18.937361054791623 57.0908
18.959933076131318 56.7579
18.982505839934877 56.753
19.00525570560582 56.7808
19.027829963004184 56.391999999999996
19.05040496572238 56.4893
19.072980714710468 56.3315
19.095733592739563 56.5684
19.11831084296757 57.0353
19.140888842324735 58.0128
19.16346759176222 59.3779
19.18622349753803 60.5439
19.208803755869358 61.5178
19.231384767143577 61.9671
19.253966532312948 62.0156
19.276725481241822 62.2439
19.29930876296784 62.6433
19.3218928014549 63.5681
19.34465404436217 64.5235
19.36723960516257 66.3832
19.389825925592426 68.4059
19.412413006605938 70.8695
19.43517731967805 73.2641
19.457765930683355 74.146
19.48035530514408 72.2208
19.50294544401556 68.7213
19.525712842708348 64.1501
19.54830451925909 59.7143
19.570896963095727 56.3951
19.593490175174704 54.6482
19.616260674962184 54.0445
19.638855432416964 53.4022
19.661450960992624 53.6374
19.68404726164677 53.376000000000005
19.706820878021247 52.9993
19.729418731756834 53.3185
19.752017360452857 53.0915
19.77461676506804 53.1554
19.797393513540218 53.1869
19.819994478951667 53.4906
19.84259622316767 54.3867
19.8651987471481 55.5869
19.887978643247177 56.5424
19.91058273574792 57.4076
19.933187610901943 58.0158
19.955969879466828 58.3515
19.97857632894404 58.2873
20.00118356396599 58.2792
20.023791585494575 58.7157
20.046577028914875 59.8893
20.069186632506966 61.2697
20.091797025500632 63.5874
20.114408208858933 66.3125
20.137196842715273 69.345
20.159809615886765 71.867
20.18242318232135 72.0204
20.20503754298326 70.4386
20.227829382875154 68.3495
20.250445341109344 65.3
20.27306209647285 62.1963
20.29567964993108 60.6249
20.31847471147704 60.3295
20.34109387027612 60.988
20.363713830075454 62.675
20.386334591841646 64.1976
20.409132890679302 64.8569
20.431755265564437 64.4725
20.454378445325528 62.397
20.477002430930366 59.4572
20.499803982716553 56.2821
20.522429589228004 53.4579
20.54505600449589 51.5885
20.567683229489194 50.8667
20.590488049900088 50.4875
20.61311690359731 50.1281
20.63574656993626 49.8106
20.658553853717297 49.5761
20.681185154618298 49.53
20.703817271080066 49.3991
20.72645020407368 49.081
20.749260783967177 49.0471
20.771895359337133 48.967
20.794530754161617 49.0458
20.817166969412938 48.8613
20.83998086114876 48.7614
20.86261872660049 48.6583
20.885257415405402 48.6194
20.90789692853701 48.4649
20.930714147864748 48.4294
20.953355319030678 48.3482
20.97599731745334 48.548
20.99864014410749 48.5107
21.021460706796564 48.7779
21.044105199328826 48.9758
21.06675052302631 49.2094
21.089396678865015 49.2786
21.112220600704806 49.2738
21.134868430275347 49.338
21.15751709492456 49.1027
21.180166595629693 49.0712
21.202993892429635 49.5098
21.22564507473034 49.6955
21.24829709602816 50.0904
21.27112693608965 50.568999999999996
21.293780644891275 51.0561
21.316435195634053 51.1726
21.339090589297417 50.9783
21.361923832041875 50.9408
21.384580921090404 50.2165
21.407238856007325 49.4603
21.429897637773326 49.1131
21.45273429906592 48.6067
21.475394784108598 48.5734
21.498056118951983 48.2613
21.520718304578022 48.4012
21.543558400304388 48.5919
21.566222297108816 48.8177
21.58888704765135 48.8942
21.61155265291521 49.1737
21.63439619898156 50.1381
21.657063523335786 51.1399
21.67973170537063 52.278999999999996
21.7024007460706 53.0721
21.72524775840385 53.6079
21.747918526116475 53.8459
21.770590155457388 53.8872
21.79326264741238 54.208
21.816113141960237 54.6183
21.838787368860547 55.2828
21.861462461341976 56.5173
21.884315579735777 57.9238
21.90699241312273 59.5209
21.92967011506078 61.4861
21.95234868653799 63.6246
21.9752053151131 65.4957
21.997885635446785 66.071
22.020566828293532 65.4723
22.04324889464272 63.3839
22.066109049404666 60.5722
22.088792872571794 57.9158
22.111477572219204 56.1218
22.1341631493376 55.2774
22.157026846313123 55.3852
22.179714188221507 55.8144
22.202402410582668 56.3326
22.22509151438863 56.0132
22.24795876962584 54.9981
22.270649646204486 53.7944
22.293341407213727 52.4293
22.316034053646906 51.005
22.338904883215342 50.0526
22.36159931041458 49.4274
22.38429462602756 48.91
22.40699083104897 48.6987
22.429865251039757 48.6472
22.452563244831367 48.655
22.47526213102522 48.6269
22.49813925616515 48.4312
22.520839937143307 48.5943
22.543541513520587 48.5155
22.56624398629403 48.4374
22.589124730075895 48.4899
22.611829005656723 48.6673
22.63453418063466 48.5644
22.657240256008077 48.8625
22.680124634582935 49.1547
22.70283252079775 50.0232
22.725541310413075 50.8122
22.74825100442868 51.2497
22.771139033969575 51.685
22.79385054687155 51.6815
22.81656296718292 51.692
22.83927629590484 51.7661
22.862167992606945 51.9896
22.88488314827121 52.3599
22.907599215359284 52.4605
22.93031619487366 53.0626
22.953211574954405 53.79
22.975930389478226 54.7728
22.998650119445763 55.8091
23.02137076586092 56.6997
23.044269845560063 57.8638
23.06699233506288 58.2403
23.089715744034912 57.2544
23.112617610931565 55.9993
23.135342869061212 54.0411
23.158069049684816 52.2512
23.1807961538087 50.4832
23.20370174880544 49.7441
23.226430710184808 49.20399999999999
23.249160598093425 49.1342
23.271891413539002 49.1644
23.294800752937697 49.513000000000005
23.31753343374794 50.3628
23.340267045128353 50.6536
23.36300158808808 51.3313
23.38591468821339 51.6518
23.408651104658304 51.782
23.431388455719986 51.5144
23.454126742409 51.3949
23.4770436196085 51.6224
23.499783787914662 51.8637
23.522524894889884 51.9995
23.54526694154616 52.3652
23.56818761219047 53.3211
23.59093154860734 54.1319
23.613676427751283 55.4118
23.636422250635754 56.5268
23.659346731118656 57.4126
23.68209445191868 57.7945
23.704843119509587 57.1646
23.72759273490623 55.4927
23.750521041644767 53.3581
23.77327256312355 51.1538
23.796025035462787 49.1584
23.818956224555475 47.4838
23.841710609113413 46.8475
23.86446594758979 46.2715
23.887222241002014 45.9981
23.910157285144578 45.4258
23.932915498962537 45.4556
23.955674670778713 45.2857
23.978434801611975 45.0327
24.001373717286125 44.8332
24.024135776723917 44.7521
24.046898798245582 44.6398
24.06966278287146 44.4395
24.092605586582614 44.4021
24.115371508023642 44.2895
24.1381383956401 44.0454
24.16090625045381 43.9797
24.183852958731244 43.8104
24.206622758582608 43.6759
24.229393528706886 43.4074
24.252165270127392 43.6692
24.27511589952438 43.6817
24.297889594216997 43.4066
24.32066426328598 43.1844
24.34343990775613 43.3542
24.36639447485003 43.2053
24.38917208083877 43.1519
24.41195066531332 43.1112
24.43490819850244 43.0886
24.457688750692377 42.817
24.48047028445616 42.7871
24.503252800821233 42.9628
24.526214300784112 43.0359
24.548998793132213 42.8881
24.57178427117417 42.8293
24.59457073593893 42.9113
24.617536219319863 42.869
24.64032466834748 43.0044
24.663114107195035 43.0136
24.685904536893013 42.7707
24.708874020360852 42.7709
24.731666442613744 42.7512
24.754459858818787 42.507
24.777254270007962 42.4036
24.80022777025625 42.1905
24.82302418230472 42.24100000000001
24.845821592443674 42.3904
24.86862000170663 42.4003
24.891597535453727 42.2225
24.914397953892728 42.5507
24.93719937456671 42.5247
24.96000179851076 42.5984
24.98298338249997 42.7127
25.00578782394922 42.8196
25.028593271784167 42.9846
25.05157790644186 43.2107
25.07438537804115 43.246
25.097193859145293 43.7055
25.120003350792075 43.7251
25.142992065061257 43.8646
25.165803588823465 44.0975
25.18861612625217 44.332
25.211429678386736 44.44
25.234422489079968 44.696999999999996
25.257238081693636 44.8052
25.280054692141732 44.9158
25.3028723214652 44.6524
25.325869245420463 44.6508
25.348688923599397 44.5608
25.371509623787006 44.5363
25.394331347025812 44.6659
25.41733240110666 44.956
25.440156181590016 44.8923
25.46298098826268 44.7936
25.48580682216873 44.4011
25.50881202326435 43.6622
25.53163992281684 43.0222
25.55446885274561 42.4244
25.577298814096377 41.7771
25.600308179121807 41.2866
25.623140214533745 41.1428
25.64597328451537 40.8665
25.66898578564376 40.7556
25.691820936010206 40.7263
25.714657124097695 40.5882
25.737494350954734 40.6821
25.760511045684957 40.5285
25.783350361364224 40.7814
25.806190718969255 40.7991
25.82903211955018 41.011
25.852053024868923 40.8488
25.874896522722523 40.9497
25.897741066713106 40.7775
25.920586657892454 40.8529
25.943611790812668 40.9226
25.966459487728237 40.8907
25.989308234998564 40.8311
26.01215803367705 40.9527
26.03518741123814 41.0106
26.05803932412957 41.0549
26.080892291600094 41.0929
26.10374631470478 41.1388
26.12677995397268 41.4538
26.14963609978026 41.7801
26.172493304397875 41.8472
26.19535156888223 42.1232
26.218389486949604 41.7715
26.241249882640123 41.5858
26.26411134137826 41.3352
26.28715248187403 41.086000000000006
26.31001607820869 40.8549
26.3328807407756 40.5274
26.35574647063438 40.7358
26.37879191991473 40.6189
26.401659795896734 40.6449
26.424528742360263 40.6487
26.447398760366614 40.7029
26.470448535598294 40.7733
26.49332070826805 40.7946
26.516193955675355 41.0872
26.53906827888316 41.1752
26.562122397260108 41.0871
26.584998883685063 41.2232
26.607876449110325 41.4507
26.63075509460056 41.4607
26.65381357334404 41.6912
26.67669439061878 41.7789
26.699576291163382 42.0603
26.722459276044212 42.4589
26.745522132402975 42.6093
26.768407297649354 42.4534
26.791293550442003 42.2822
26.814180891848974 41.8718
26.837248143099337 41.5129
26.860137673466657 41.2067
26.88302829566349 40.879
26.90592001075963 40.684
26.92899167420566 40.6276
26.951885586870763 40.3332
26.974780595655517 40.1032
26.99785558178161 39.8595
27.020752794605112 39.6237
27.043651106772522 39.2895
27.06655051935668 39.2013
27.089629948036183 39.0777
27.112531573292053 38.9355
27.135434302194138 39.0437
27.158338135817015 38.7832
27.181422024430987 38.7636
27.204328079372566 38.7417
27.22723524226965 38.8385
27.250143514198573 38.8739
27.273231880156334 38.8652
27.296142382065014 38.7095
27.319053996245536 38.5119
27.341966723775965 38.6349
27.365059584515222 38.5999
27.38797455070062 38.5379
27.410890633481237 38.375
27.433807833936918 38.3858
27.456905206923906 38.4694
27.47982465472398 38.5326
27.502745223449743 38.4583
27.525666914182825 38.5488
27.548768816912457 38.492
27.571692763693633 38.4844
27.59461783573812 38.5501
27.617723149491244 38.6158
27.640650484125285 38.6001
27.66357894728264 38.611
27.686508540048052 38.5964
27.709618414237887 38.5739
27.732550278321757 38.4929
27.755483275279115 38.3961
27.778417406196485 38.3649
27.801531858397514 38.3003
27.824468269376716 38.1772
27.847405817586786 38.1549
27.870344504116094 38.2085
27.893463551932008 38.1731
27.916404527281053 38.2951
27.93934664422563 38.3176
27.962289903855886 38.3689
27.98541356491974 38.4593
28.00835912214229 38.5527
28.03130582533231 38.7042
28.054253675581805 38.8571
28.077381967556104 38.7972
28.100332124185126 38.8374
28.123283431160893 39.0681
28.146235889577238 39.1417
28.169368830154156 39.2041
28.192323603752033 39.1839
28.215279532083304 38.8392
28.238415973016764 38.7062
28.261374223145094 38.4284
28.284333631303806 38.3013
28.307294198589954 38.1786
28.330435319167677 37.8504
28.353398217078915 37.6363
28.376362277420153 37.5428
28.39932750129032 37.3628
28.422473319286713 37.0721
28.44544088262495 36.8854
28.468409612800283 36.6431
28.491379510913497 36.3325
28.51453004413313 36.365
28.53750229057244 36.2282
28.56047570826344 36.0952
28.583450298308804 36.126999999999995
28.606605564586562 35.973
28.629582511831156 35.9346
28.65256063474956 35.7808
28.675539934446338 35.7704
28.698699951647605 35.7292
28.72168161743193 35.6114
28.74466446331978 35.6388
28.767648490417624 35.5353
28.790813276438353 35.4771
28.813799678527303 35.4106
28.836787265157085 35.3585
28.859955641890075 35.4519
28.882945610203045 35.4136
28.905936766392035 35.2921
28.928929111566863 35.3803
28.952102288520145 35.381
28.975097024308607 35.3018
28.998092952423807 35.3072
29.021090073977508 35.2655
29.04426806913204 35.1936
29.067267590245258 35.0587
29.090268308143695 34.9439
29.11327022394099 34.8321
29.13645305530891 34.6911
29.159457379627167 34.6672
29.18246290519685 34.527
29.20546963313352 34.4923
29.22865731875826 34.4712
29.25166646419296 34.4204
29.27467681535305 34.2693
29.29768837335608 34.2266
29.320880931312562 34.2826
29.34389491580634 34.2263
29.366910110507334 34.2424
29.38992651653503 34.0696
29.41312396492981 34.1484
29.436142806456754 34.1942
29.45916286268059 34.1345
29.48236399319994 34.1695
29.50538649169417 34.0655
29.528410208259935 34.149
29.55143514402014 33.9716
29.574641196749695 33.8535
29.597668583816574 33.6705
29.6206971934585 33.5308
29.64372702680042 33.525
29.666938019934474 33.2283
29.689970313635285 33.1179
29.713003834422636 32.9885
29.73603858342347 33.0114
29.759254535188578 32.9118
29.78229175361658 32.8924
29.80533020365064 32.9947
29.82836988641968 32.9223
29.85159081507472 32.8459
29.874632976355343 32.8252
29.89767637376955 32.8661
29.920721008448314 32.7185
29.9439469322847 32.6684
29.96699405457564 32.5086
29.9900424175358 32.6447
30.013092022298157 32.5614
30.03632295963995 32.4778
30.059375061131373 32.5035
30.08242840783577 32.6339
30.105483000888153 32.461
30.128718970092244 32.427
30.151776069006917 32.3697
30.17483441768648 32.42
30.198074175317235 32.3792
30.221135036724256 32.3987
30.24419715131772 32.3713
30.267260520236203 32.3305
30.290505341942243 32.4307
30.313571232750228 32.523
30.336638381310948 32.5791
30.35970678876503 32.4876
30.38295669299435 32.4196
30.40602763151657 32.459
30.429099832366074 32.402
30.452173296685572 32.2671
30.47542830191959 32.3011
30.498504306502497 32.1997
30.521581577995562 32.2891
30.544660117543582 32.2437
30.56792024229725 32.2788
30.59100133132069 32.1685
30.614083691845494 32.1051
30.637167325018545 32.1676
30.660432587840603 32.0851
30.683518779717886 32.1158
30.70660624769615 32.1962
30.729694992924372 32.2074
30.75296541239743 32.2493
30.77605672557558 32.3808
30.799149319462742 32.3266
30.8224236211637 32.336
30.845518789950724 32.2346
30.868615242910597 32.2016
30.891712981195973 32.1553
30.91499247215866 32.0052
30.938092794619365 31.8857
30.96119440587579 31.8697
30.984297307082752 31.7019
31.00758200598383 31.6158
31.030687500658694 31.5212
31.053794288760695 31.4442
31.076902371446767 31.3944
31.100192296997445 31.3551
31.12330298246119 31.2471
31.14641496599209 31.2473
31.169528248749216 31.1907
31.19282341969534 31.215999999999998
31.215939314557186 31.1778
31.239056512134788 31.0338
31.262175013589378 30.9826
31.28547544871168 31.0021
31.30859657161541 31.002
31.331719001892175 30.9341
31.35484274070538 30.9853
31.378148458819545 30.9357
31.401274828443725 30.8944
31.424402510106933 30.9429
31.447712205419993 30.9587
31.470842524931633 30.8679
31.493974159989783 30.84
31.51710711176168 30.9009
31.54042212308802 30.888
31.563557722100917 30.9664
31.586694641341655 30.8985
31.609832881979628 30.7549
31.63315322823208 30.8176
31.656294125521327 30.8583
31.679436347728515 30.6753
31.70257989602529 30.6062
31.725905596152327 30.4782
31.74905181052835 30.3605
31.772199354521323 30.3685
31.79534822930507 30.3923
31.818679302290967 30.3085
31.84183085259981 30.2148
31.864983737233473 30.2548
31.88813795736804 30.1554
31.911474422233013 30.112
31.934631327356435 30.1285
31.9577895715215 30.0573
31.980949155906522 30.1885
32.004291031706956 30.2188
32.027453310562606 30.0879
32.05061693318573 29.9161
32.07396288236386 29.9823
32.09712920658542 30.0434
32.12029687812702 29.8455
32.14346589817093 29.7952
32.166817291729984 29.848000000000003
32.18998902288583 29.704
32.21316210610336 29.6405
32.23633654256711 29.5029
32.259693399663725 29.4273
32.282870556771144 29.4052
32.30604907069099 29.4121
32.329228942610065 29.3467
32.35259128243769 29.1588
32.375773884550505 29.1406
32.398957848235646 29.0539
32.422143174682176 29.0769
32.445511016471215 29.0812
32.468699082679954 28.8781
32.49188851523011 28.8144
32.51507931531304 28.7108
32.538452678331 28.6836
32.56164622776311 28.6622
32.58484114831493 28.584
32.60803744118015 28.5996
32.631416344731896 28.5856
32.654615396551876 28.5769
32.67781582427913 28.5347
32.701198898634416 28.4201
32.72440209253756 28.272
32.747606665947124 28.3843
32.77081262006088 28.2864
32.79420126883317 28.2598
32.81740999876112 28.255
32.840620112999424 28.2616
32.86383161274818 28.2051
32.88722585534586 28.0732
32.91044014056596 28.0698
32.933655814909734 28.0322
32.95687287957963 28.1573
32.98027273544904 28.022
33.00349259526636 27.9912
33.026713849030116 28.0001
33.04993649794511 27.9253
33.073341986570746 27.83
33.09656744032826 27.9081
33.11979429286444 27.9363
33.14302254538647 27.9096
33.166433686291185 27.750999999999998
33.18966475336992 27.7107
33.212897224069096 27.631
33.23613109959831 27.6855
33.259547912343415 27.65
33.2827846121627 27.7362
33.306022720453775 27.6182
33.32926223842861 27.5398
33.352684742614166 27.5342
33.37592709463173 27.5112
33.399170859982064 27.500999999999998
33.422597648419426 27.4266
33.44584425514446 27.3036
33.46909227885668 27.2935
33.4923417207723 27.1497
33.51577423505344 27.1704
33.539026528130385 27.0864
33.56228024307245 27.1019
33.585535381098246 27.0102
33.60897364093058 26.8837
33.63223163992385 26.8971
33.6554910656699 26.8199
33.678751919389796 26.853
33.702195944520106 26.7281
33.72545966903325 26.7545
33.74872482519663 26.5859
33.771991414233746 26.6146
33.79544122444841 26.5037
33.81871069412428 26.4652
33.84198160035767 26.3968
33.86525394437455 26.5033
33.88870955949969 26.3938
33.911984794020626 26.3666
33.93526147001624 26.3461
33.958539588715006 26.2541
33.98200102861669 26.2917
34.0052820477047 26.1498
34.02856451319451 26.1781
34.05203033759056 26.0977
34.07531571090147 26.0669
34.09860253431845 26.1355
34.121890809074316 26.0589
34.145362493118924 26.016
34.16865368561615 25.9376
34.191946333164054 25.8575
34.21524043699793 25.7922
34.23871800066799 25.824
34.26201503218366 25.6735
34.28531352370466 25.7362
34.30861347646881 25.605
34.33209693978188 25.6247
34.3553998301885 25.5459
34.378704185565205 25.5009
34.402010007152356 25.4852
34.42549939016683 25.4383
34.44880815937748 25.4166
34.472118398533134 25.3587
34.49543010887669 25.3524
34.51892543169198 25.3054
34.54224009966052 25.3188
34.56555624255917 25.2408
34.58887386163339 25.131
34.61237514439016 25.0336
34.6356957311114 25.0481
34.65901779775809 25.0283
34.68252356662995 24.9431
34.705848608458616 25.016
34.72917513396849 24.8534
34.75250314440949 24.8487
34.77601490857862 24.8524
34.799345904259795 24.708000000000002
34.82267838863559 24.7316
34.846012362958525 24.7578
34.869530142679984 24.7241
34.89286711232212 24.6516
34.91620557568269 24.5475
34.93954553401677 24.5337
34.9630693495876 24.5696
34.986412313340814 24.6303
35.00975677584668 24.5758
35.033102738362956 24.5283
35.05663261012228 24.5034
35.0799815881786 24.5027
35.10333207003229 24.4047
35.12668405694369 24.4646
35.150220005273056 24.4072
35.17357501786656 24.264
35.19693153931268 24.2522
35.220289570874385 24.2043
35.24383161619786 24.1686
35.267192683604904 24.2295
35.290555264930376 24.1912
35.314101899412165 24.1162
35.33746752422433 24.1087
35.36083466676374 24.1031
35.38420332829803 24.0363
35.407756095629054 24.1076
35.43112781085063 24.1263
35.45450104888391 23.9179
35.477875810999194 24.059
35.50143473172161 23.9199
35.52481255774625 23.9841
35.54819191167777 23.9106
35.57157279478914 23.8534
35.595137889488406 23.8474
35.61852184675279 23.8215
35.641907337029984 23.7707
35.665294361595684 23.7834
35.68886565090076 23.6862
35.7122557598848 23.6539
35.73564740699838 23.7047
35.759040593519934 23.4744
35.78261809810353 23.4737
35.80601437933051 23.4817
35.829412203814705 23.47
35.85281157283719 23.2867
35.876395313415884 23.3536
35.8997977874528 23.348000000000003
35.92320180988546 23.3558
35.946790244133936 23.183000000000003
35.97019737933222 23.2198
35.993606066789866 23.1803
36.01701630779276 23.1609
36.04061101440684 23.1062
36.06402437852291 23.1561
36.08743930005611 23.1119
36.1108557802951 22.9623
36.13445678011326 22.9904
36.15787639383515 22.9428
36.18129757014299 22.8919
36.20472031032821 22.81
36.22832762423364 22.8223
36.25175350829375 22.8638
36.275180960119776 22.693
36.298609981005924 22.8561
36.32222362992669 22.7296
36.34565580510207 22.6725
36.36908955323448 22.6746
36.39252487562093 22.5863
36.416144880530226 22.5212
36.43958336764275 22.5501
36.463023432914625 22.4616
36.486465077645676 22.3716
36.51009145956204 22.5281
36.53353627947859 22.4947
36.55698268276811 22.4566
36.58043067073321 22.399
36.60406345072071 22.2131
36.62751462435344 22.2461
36.65096738658405 22.2226
36.67460498210655 22.1828
36.69806093788647 22.2052
36.72151848619297 22.1654
36.744977628333636 22.1844
36.76862165890998 22.0917
36.79208400512205 22.0177
36.81554794910557 22.016
36.83901349217101 21.9659
36.862663978991606 21.9337
36.88613273667352 21.8771
36.90960309738324 21.8994
36.933075062434064 21.8439
36.95673202673572 21.7741
36.98020721697122 21.718000000000004
37.003684015502365 21.703000000000003
37.027162423645365 21.6316
37.050825886711465 21.6096
37.07430753063053 21.6235
37.09779078812467 21.5851
37.121275660513014 21.5696
37.144945643673694 21.4712
37.16843376245278 21.4307
37.19192350009803 21.5099
37.215414857931435 21.4451
37.239091382563885 21.3716
37.262585997426164 21.3638
37.28608223645736 21.3512
37.309763684451696 21.3057
37.33326318851098 21.2589
37.356764320726555 21.1564
37.380267082425526 21.2298
37.40395510942588 21.1965
37.42746114683234 21.1311
37.45096881771841 21.0271
37.474478123414166 21.076
37.49817275092816 21.0069
37.52168534303452 20.9899
37.54519957395567 20.857
37.568715445024665 20.8942
37.592416694607714 20.8888
37.61593586281424 20.932
37.63945667518264 20.85
37.66297913304891 20.7653
37.68668702630454 20.7428
37.710212792059274 20.6537
37.733740207334854 20.6575
37.757269273470364 20.6936
37.780983832050374 20.5688
37.80451621684926 20.5507
37.82805025654007 20.5463
37.851585952464795 20.5395
37.8753071980695 20.4195
37.89884622345676 20.3812
37.92238690911902 20.3881
37.94611318753442 20.3935
37.969657210779765 20.3096
37.99320289834801 20.3488
38.016750251586465 20.281
38.04048325513017 20.259
38.06403395679343 20.2164
38.087586328183946 20.2141
38.11114037065203 20.1552
38.13488012115898 20.1763
38.1584375229181 20.0216
38.181996599821 19.9703
38.205557353221124 19.9985
38.229303872575656 19.9446
38.2528679961576 19.9652
38.27643380031219 19.8652
38.30000128639589 19.9025
38.32375459653193 19.9171
38.34732546371299 19.8375
38.37089801690786 19.7423
38.39447225747609 19.7298
38.418232380377425 19.6675
38.441810012983396 19.6686
38.46538933705673 19.6109
38.488970353960084 19.6523
38.51273731166058 19.6121
38.536321731567014 19.5647
38.55990784840681 19.5463
38.58367995004091 19.4605
38.60726947812959 19.3893
38.63086070726198 19.4614
38.654453638806274 19.3962
38.678232613930824 19.3396
38.70182896773327 19.3186
38.72542702806741 19.2701
38.7490267963045 19.3072
38.77281266709232 19.3664
38.79641586862214 19.3124
38.8200207821842 19.1597
38.843627409152944 19.206
38.86742019782782 19.1914
38.891030269149255 19.1305
38.914642058016156 19.1456
38.938255565806124 19.1082
38.96205529464307 19.0058
38.98567225787121 19.0382
39.00929094417078 18.9571
39.03291135492255 18.9339
39.05671804624804 18.8457
39.080341923549106 18.9393
39.103967529460334 18.8864
39.127594865365744 18.7696
39.15140854155791 18.7645
39.17503935514948 18.7697
39.19867190290282 18.7274
39.22249083587951 18.6593
39.24612686969409 18.6772
39.269764641845306 18.665
39.293404153722804 18.6815
39.317230110864074 18.5683
39.34087311998506 18.5584
39.36451787301696 18.5749
39.388164371352595 18.4245
39.41199737518003 18.4292
39.43564738196752 18.415
39.45929913825317 18.4764
39.48295264543308 18.4516
39.506792718520884 18.3157
39.530449745387216 18.2913
39.55410852735203 18.2565
39.57776906581474 18.2772
39.60161623079 18.2556
39.625280300200025 18.2264
39.64894613032202 18.1507
39.67261372255866 18.1089
39.6964680021016 18.1217
39.72013913657293 18.0839
39.74381203738292 18.0463
39.76748670593756 18.0797
39.79134812278169 18.0515
39.81502634488497 17.9553
39.83870633896685 17.9361
39.862388106436654 17.9217
39.88625668336918 17.8729
39.90994201572829 17.9377
39.933629125719285 17.8183
39.957503091207826 17.7754
39.9811937746168 17.7826
40.00488623990914 17.7241
40.02858048850006 17.6884
40.05246165409549 17.6629
40.076159487492085 17.5666
40.099859108448875 17.5784
40.123560518384345 17.5687
40.1474489070226 17.5522
40.171153913178564 17.5355
40.194860712584955 17.4604
40.2185693066637 17.465999999999998
40.242464941335314 17.4262
40.26617714307655 17.4353
40.289891143772046 17.4461
40.3136069448471 17.358
40.33750984859743 17.3559
40.3612292688043 17.3088
40.3849504936829 17.2919
40.40867352466194 17.2971
40.43258372059144 17.2071
40.45631038219906 17.2096
40.48003885420956 17.2111
40.503769138055105 17.1919
40.52768664931955 17.134
40.55142057531802 17.1255
40.57515631746428 17.062
40.599079334038514 17.1002
40.62281872700477 17.0087
40.64655994043941 16.9756
40.67030297578061 16.9704
40.69423334835778 16.9643
40.71798004609188 16.877
40.74172857006355 16.9209
40.76547892171441 16.9192
40.7894166736039 16.862000000000002
40.813170699248566 16.8383
40.83692655691388 16.769000000000002
40.86068424804498 16.7674
40.884629402612525 16.7414
40.908390779366385 16.7267
40.932153993938 16.6741
40.95591904777605 16.6378
40.979871628443995 16.7325
41.003640379561936 16.649
41.02741097430883 16.576
41.05118341413683 16.5222
41.075143444384416 16.5216
41.098919593177826 16.4802
41.1226975914255 16.4447
41.14647744058318 16.4341
41.170444943946755 16.4209
41.19422851378379 16.4127
41.218013938914645 16.3733
41.24198706625173 16.3607
41.26577622087193 16.299
41.289567235177785 16.3436
41.31336011063129 16.2428
41.337340752422875 16.2215
41.361137369129835 16.2204
41.38493585138705 16.1737
41.40873620066004 16.1056
41.43272438060107 16.0562
41.45652848292052 16.0356
41.48033445666918 15.9796
41.50414230331616 16.0342
41.528138045159764 16.0207
41.551949656675205 15.9804
41.575763145513235 15.9323
41.59957851314666 15.9299
41.62358184070442 15.8396
41.64740098505737 15.8177
41.6712220126409 15.8307
41.69504492493139 15.8021
41.71905586207357 15.7776
41.74288256296395 15.7271
41.766711153007456 15.7121
41.79054163368412 15.668
41.814560204340054 15.632
41.838394485526365 15.6978
41.86223066180303 15.6271
41.88625497706819 15.6168
41.910094962812 15.6243
41.93393684811168 15.6163
41.95778063445365 15.4761
41.981812625263366 15.4639
42.00566023303407 15.4949
42.029509746323676 15.4275
42.05336116662236 15.4291
42.077400857069705 15.3996
42.10125611078846 15.395
42.12511327600405 15.3485
42.14897235421036 15.2687
42.173019768448455 15.2858
42.19688269209613 15.2284
42.22074753323349 15.2605
42.24461429335818 15.242
42.268669455600495 15.192
42.292540073217886 15.177
42.31641261433284 15.1373
42.34028708044675 15.0421
42.36435001496739 15.0926
42.38822835065557 15.0792
42.41210861586426 15.0242
42.4359908120986 15.0214
42.46006154323262 14.9658
42.48394762115317 14.9213
42.507835634632315 14.915
42.531912233047436 14.9161
42.55580413732265 14.9054
42.579697981698 14.8847
42.60359376768525 14.8157
42.62767820545945 14.8273
42.65157789440821 14.7871
42.67547952952185 14.7282
42.699383112316 14.7313
42.72347541395347 14.6408
42.74738291190531 14.6933
42.771292362102166 14.7146
42.795203766063516 14.6254
42.819303956130405 14.574000000000002
42.843219287476536 14.5258
42.86713657716324 14.5555
42.89105582671383 14.5528
42.91516392983864 14.535
42.939087119032166 14.4966
42.963012272677304 14.4382
42.98693939230129 14.3849
43.01105543317513 14.4461
43.034986504731386 14.4134
43.05891954686589 14.3467
43.08285456110972 14.3559
43.10697856448665 14.3496
43.130917542983475 14.3056
43.15485849820081 14.3053
43.17880143167367 14.2229
43.20293342237094 14.1511
43.226880332449 14.1628
43.25082922540554 14.1772
43.27496722682525 14.1639
43.29892010567796 14.0934
43.32287497204102 14.0783
43.34683182745632 14.0158
43.370977859791836 14.0011
43.39493871351105 14.0036
43.41890156092628 13.9869
43.44286640358341 13.9441
43.46702049182749 13.9584
43.49098934522816 13.8817
43.51496019852649 13.9048
43.5389330532723 13.853
43.56309522248204 13.856
43.58707210044314 13.84
43.61105098451946 13.7549
43.63503187626491 13.7649
43.659202151562134 13.7612
43.68318707902681 13.7696
43.70717401884041 13.7052
43.731162972560874 13.6453
43.75534137913236 13.648
43.779334381108384 13.6706
43.803329401683186 13.6223
43.82732644241872 13.5968
43.8515130055166 13.6014
43.87551410707659 13.5506
43.89951723350145 13.505999999999998
43.923709934595614 13.5178
43.94771713129917 13.4716
43.97172635758096 13.4688
43.99573761501002 13.4204
44.0199385169922 13.3603
44.04395385732619 13.3422
44.067971233533086 13.3621
44.09199064718605 13.3407
44.11619977548961 13.2791
44.14022328470671 13.2933
44.16424883610785 13.2753
44.18827643127035 13.2944
44.21249381139513 13.2463
44.236525514814076 13.1797
44.26055926674478 13.1814
44.28459506876863 13.1775
44.3088207262813 13.1143
44.33286064928722 13.0494
44.35690262714919 13.0338
44.38094666145278 13.01
44.4051806219871 13.0412
44.42922879003185 13.0174
44.45327901929361 12.9907
44.477331311362136 12.9935
44.501573600619416 12.932
44.525630039221795 12.9226
44.54968854541895 12.8785
44.573937102200176 12.8642
44.5979997645541 12.8545
44.622064499300315 12.8263
44.64613130803592 12.7923
44.67038823869318 12.7429
44.69445921643748 12.7658
44.718532272981385 12.7396
44.742607409926194 12.7268
44.76687274034801 12.6593
44.79095205918753 12.7056
44.81503346325094 12.6238
44.839116954143876 12.6037
44.86339071028742 12.6123
44.88747839599524 12.5756
44.91156817336837 12.5198
44.93566004401666 12.5632
44.959942251908146 12.5398
44.984038330325966 12.4795
45.00813650686762 12.4402
45.03223678314731 12.4296
45.05652746888232 12.3925
45.08063196592069 12.3856
45.104738567558705 12.3681
45.128847275414856 12.3629
45.15314646515866 12.2995
45.17725940679741 12.3444
45.20137445952892 12.2879
45.22568004865265 12.2333
45.24979934496396 12.2774
45.27392075725247 12.232000000000001
45.29804428714431 12.2215
45.322358426247604 12.1729
45.346486212804315 12.1688
45.370616121861914 12.1486
45.39474815505086 12.0841
45.41907087049246 12.04
45.4432071734666 12.0746
45.46734560548283 12.122
45.49148616817604 12.0402
45.51581748638564 12.0058
45.5399623320197 11.9887
45.56410931325473 11.9559
45.58825843173002 11.9682
45.61259837920865 11.9009
45.636751793816 11.8859
45.66090735060093 11.8565
45.68506505120716 11.834000000000001
45.7094136545275 11.8216
45.73357566449271 11.7992
45.75773982322992 11.8061
45.78190613238733 11.8097
45.806263418194064 11.7478
45.83043404997326 11.7599
45.85460683713677 11.7517
45.87897065658495 11.6853
45.90314777634752 11.6691
45.92732705646868 11.6417
45.9515084986045 11.6343
45.97588104735473 11.6117
46.00006683541565 11.5955
46.02425479047904 11.5868
46.04844491420549 11.5622
46.0728262191024 11.5642
46.09702070211635 11.5403
46.12121735879483 11.5175
46.14541619080294 11.5104
46.169806278764455 11.4492
46.194009483459034 11.4339
46.21821486849841 11.3865
46.24242243555223 11.355
46.266821333570014 11.3791
46.29103328674601 11.3497
46.31524742696538 11.3299
46.33946375590237 11.2918
46.36387149104216 11.2916
46.38809221957392 11.2464
46.41231514186606 11.215
46.436540259597464 11.1894
46.460956858999374 11.1892
46.48518638983522 11.1957
46.509418121166966 11.1178
46.533652054678114 11.119000000000002
46.55807754555709 11.1127
46.58231590571962 11.1223
46.60655647313217 11.0651
46.630988654873654 11.0314
46.655233659129024 11.0378
46.67948087571551 11.033
46.70373030632484 11.0032
46.72817142736393 10.9617
46.752425308428684 10.9626
46.77668140861147 10.9549
46.80093972960865 10.9242
46.82538981736788 10.9169
46.849652602470904 10.8893
46.87391761349769 10.8665
46.8981848521493 10.7977
46.9226439341274 10.7687
46.946915650573224 10.7771
46.97118959976749 10.7942
46.99546578341598 10.7405
47.019933887188216 10.7274
47.04421456235744 10.6989
47.06849747711879 10.6736
47.09278263318286 10.6611
47.11725978640143 10.6596
47.14154944775105 10.6126
47.165841355555656 10.6362
47.1901355115306 10.5688
47.214621741924994 10.6177
47.23892041698887 10.6044
47.26322134538975 10.5145
47.28771440635075 10.4678
47.31201986422527 10.5095
47.33632758061436 10.4909
47.360637557241866 10.4706
47.38513974410611 10.427
47.40945426407847 10.3932
47.43377104948137 10.3936
47.45809010204344 10.3535
47.48260144275502 10.3771
47.506925052572285 10.3202
47.53125093475548 10.3201
47.55557909103813 10.315999999999999
47.58009961361992 10.300999999999998
47.60443234110732 10.2321
47.62876734791564 10.2217
47.65310463578333 10.2152
47.6776343683373 10.2441
47.7019762413987 10.1815
47.72632040075572 10.18
47.75066684815169 10.1475
47.77520581885936 10.1485
47.799556865477655 10.1393
47.823910205386 10.0825
47.84826584033272 10.0685
47.87281407745551 10.0697
47.89717432569297 10.08
47.92153687423484 10.013
47.94609208429692 10.0359
47.97045925671401 10.0206
47.99482873471275 9.9257
48.01920052005013 9.92625
48.04376504619224 9.951089999999999
48.068141469543484 9.9109
48.09252020552573 9.93853
48.11690125590099 9.857339999999999
48.1414751266064 9.85144
48.16586082917454 9.87072
48.19024885144316 9.81425
48.2146391951793 9.80004
48.239222439012764 9.79975
48.26361744916137 9.781460000000001
48.28801478610016 9.77363
48.31241445160131 9.7302
48.337007097209366 9.71608
48.36141144338331 9.70048
48.38581812345755 9.67613
48.41022713920929 9.70068
48.434829215320704 9.65923
48.45924292604658 9.6207
48.48365897780325 9.6636
48.50807737237308 9.617560000000001
48.532688907799276 9.64719
48.55711201168574 9.603639999999999
48.581537463754074 9.54535
48.60615611725119 9.52543
48.63058628942721 9.50462
48.65501881516546 9.474260000000001
48.6794536962573 9.52582
48.70408185970339 9.49055
48.72852147531801 9.41577
48.75296345168211 9.429860000000001
48.77740779059232 9.434339999999999
48.80204549302823 9.40583
48.82649458091802 9.40709
48.85094603676547 9.34662
48.87539986237231 9.310360000000001
48.90004713292306 9.32523
48.92450572200832 9.30729
48.94896668628025 9.282789999999999
48.97343002754588 9.27798
48.99808689542115 9.26399
49.02255501470614 9.2702
49.04702551642794 9.22495
49.0714984023988 9.20575
49.096164896893235 9.1507
49.120642575466796 9.12326
49.145122643748394 9.1507
49.16960510355558 9.13268
49.19428125404938 9.12706
49.2187685210852 9.11135
49.243258185121555 9.10711
49.26794160167084 9.05392
49.2924360839405 8.99959
49.31693296869764 9.02692
49.34143225776915 9.0209
49.36612538195438 8.9902
49.39062950396021 8.970460000000001
49.41513603578346 8.935089999999999
49.4396449792564 8.96365
49.46434784069503 8.933580000000001
49.488861631846454 8.89452
49.513377840166804 8.90392
49.537896467493745 8.863339999999999
49.56260909589029 8.849789999999999
49.587132585683285 8.872639999999999
49.611658500018365 8.820730000000001
49.636186840738596 8.7995
49.66090926588511 8.78074
49.685442483902584 8.76249
49.70997813385706 8.715710000000001
49.734516217597076 8.737789999999999
49.75924846937352 8.717360000000001
49.7837914452858 8.692269999999999
49.80833686055187 8.635069999999999
49.83288471702571 8.63756
49.85762682540054 8.66713
49.882179588965734 8.63072
49.9067347993235 8.6106
49.93129245833333 8.62332
49.95604445336378 8.56816
49.98060703442832 8.5902
50.005172069746266 8.55596
50.02993150438364 8.53947
50.05450147301533 8.53876
50.07907390151433 8.50884
50.10364879174981 8.47335
50.12841816587289 8.48886
50.1529980044635 8.46091
50.17758031042124 8.44152
50.20216508562089 8.43487
50.22694442953363 8.39808
50.25153416817468 8.38137
50.27612638170508 8.37505
50.300721072005196 8.36012
50.325510416102105 8.363560000000001
50.350110084975064 8.33248
50.37471223628208 8.32678
50.39931687190919 8.31426
50.424116246675766 8.29769
50.44872587605249 8.27975
50.47333799543065 8.28074
50.49795260670191 8.23392
50.52276204271512 8.19389
50.54738166295838 8.23117
50.57200378079314 8.211689999999999
50.596628398116835 8.165939999999999
50.62144792604559 8.17557
50.646077567609396 8.111889999999999
50.670709714377715 8.12045
50.69553683636198 8.12134
50.72017401885922 8.09505
50.7448137122895 8.079189999999999
50.76945591856022 8.08569
50.79429318636823 8.05194
50.818940443716784 8.03332
50.84359021965163 8.02755
50.868242516085964 7.994219999999999
50.893089960641895 7.99932
50.917747323549435 7.95051
50.94240721271973 7.954289999999999
50.96706963007175 7.94792
50.99192728239342 7.935689999999999
51.01659478166073 7.92254
51.04126481489051 7.8815800000000005
51.06593738400761 7.8826
51.090805275207074 7.84588
51.11548294172845 7.82768
51.14016314993547 7.8006
51.164845901758845 7.82247
51.18972406304274 7.79666
51.21441192780656 7.779160000000001
51.23910234200271 7.78826
51.2637953075678 7.76013
51.288683770237945 7.74777
51.31338186432707 7.70485
51.33808251561888 7.68607
51.362978729967345 7.692139999999999
51.387684521509755 7.6864300000000005
51.41239287610203 7.678139999999999
51.437103795691165 7.636239999999999
51.46201036644977 7.638960000000001
51.486726441956634 7.610869999999999
51.51144508832545 7.56033
51.536166307509156 7.59294
51.56108326624387 7.5477
51.58580965706056 7.5372
51.61053862657523 7.5061100000000005
51.635270176746864 7.490060000000001
51.66019755512065 7.491410000000001
51.68493429268881 7.51841
51.70967361681515 7.47832
51.73441552946465 7.46886
51.759353359237934 7.461989999999999
51.7841004750961 7.41908
51.80885018539685 7.39507
51.833602492111254 7.3906
51.8585508051424 7.3922300000000005
51.883308330926425 7.35123
51.90806845906181 7.34685
51.932831191525715 7.3427
51.95779001977161 7.30823
51.98255798721516 7.28633
52.00732856494335 7.27365
52.03229530577543 7.30161
52.057071130455945 7.22577
52.081849571391054 7.25225
52.106630630568695 7.2466
52.13160794279417 7.19198
52.15639426492067 7.19234
52.18118321127822 7.1868
52.205974783860896 7.142869999999999
52.23096269971011 7.1321
52.255759551287994 7.12977
52.280559035098186 7.126760000000001
52.30536115314103 7.099419999999999
52.33035970494467 7.11827
52.35516711807904 7.10117
52.37997717147198 7.0468399999999995
52.40478986713005 7.055739999999999
52.42979908731974 7.03949
52.454617094216 6.98917
52.47943774942214 6.9729
52.50426105495102 7.01196
52.529280976059844 6.9855100000000006
52.554109609024096 6.96638
52.57894089837482 6.972460000000001
52.60377484613117 6.91748
52.62880550079408 6.93347
52.65364479223379 6.883030000000001
52.67848674816189 6.8558699999999995
52.70352547971946 6.891560000000001
52.72837279155837 6.8985899999999996
52.753222773982785 6.8434
52.778075429022984 6.85292
52.80312495150885 6.81613
52.827982978797436 6.802969999999999
52.85284368481815 6.79812
52.87770707160767 6.757160000000001
52.90276741793998 6.75511
52.92763619336701 6.75045
52.952507655698504 6.73062
52.977381806977576 6.702839999999999
53.00245301017842 6.737989999999999
53.02733256653592 6.69751
53.052214817996074 6.69885
53.077099766608484 6.674930000000001
53.102181859804446 6.663139999999999
53.127072229988265 6.66246
53.15196530349892 6.64323
53.17686108239249 6.60803
53.20195409881522 6.59967
53.22685531582556 6.595219999999999
53.25175924441303 6.573230000000001
53.27666588664027 6.56038
53.30176985962693 6.5322
53.3266819565689 6.51066
53.35159677336455 6.50354
53.376514312083096 6.509469999999999
53.40162927507703 6.47421
53.42655228516116 6.445
53.45147802340193 6.45596
53.47660125628886 6.464180000000001
53.50153247842639 6.45261
53.52646643496923 6.420030000000001
53.55140312799818 6.39745
53.576537409691696 6.38695
53.60147960336152 6.38428
53.626424539786164 6.33499
53.65137222105307 6.39363
53.67651758529126 6.32035
53.70147078399681 6.303719999999999
53.72642673383343 6.3238199999999996
53.75138543689533 6.30293
53.776541917524526 6.29215
53.801506154876755 6.25957
53.826473151763246 6.23034
53.851442910284916 6.21454
53.87661054126026 6.20668
53.9015858509782 6.19951
53.92656392866066 6.15935
53.95154477641532 6.18421
53.976723591801296 6.15337
54.00171000771266 6.15603
54.02669920004598 6.13218
54.051691170915745 6.10283
54.076881204886796 6.107469999999999
54.101878760928514 6.09234
54.12687910187696 6.055630000000001
54.152077577768296 6.03448
54.1770835166946 6.02307
54.20209224691339 6.02537
54.22710377055121 6.00502
54.25231352511594 5.98839
54.27733066384342 5.900440000000001
54.30235060239643 5.969040000000001
54.32737334290836 5.97114
54.35259441062629 5.90675
54.377622783395324 5.8396300000000005
54.40265396455061 5.88009
54.42768795623251 5.84197
54.45292037169559 5.8291699999999995
54.477960012857906 5.83119
54.50300247099511 5.7889800000000005
54.52804774825457 5.76516
54.55329154616743 5.75789
54.57834249018678 5.709980000000001
54.6033962597977 5.68976
54.6284528571545 5.69585
54.653708072335164 5.68668
54.67877035378786 5.65565
54.70383546947698 5.60559
54.72890342156389 5.61876
54.7541700889442 5.54637
54.77924374251975 5.57374
54.8043202390049 5.5068
54.82959552413022 5.47091
54.8546777351945 5.43877
54.87976279569621 5.44637
54.90485070780914 5.4695
54.930137506558005 5.42364
54.95523115074295 5.46525
54.98032765308844 5.41036
55.005427015775496 5.4175
55.03072536339621 5.37678
55.05583047570572 5.30155
55.080938454927676 5.31548
55.10604930325027 5.31588
55.131359235107396 5.285159999999999
55.15647585066083 5.2249
55.181595341907496 5.20413
55.20671771104285 5.13636
55.232039262617704 5.142
55.25716741665048 5.12284
55.28229845518636 5.10997
55.30743238042802 5.09205
55.33276558731939 5.0609
55.357905315183636 5.049869999999999
55.383047936390035 5.02444
55.40819345314859 4.952459999999999
55.433538351073295 4.92856
55.458689688238415 4.93215
55.483843927614096 4.93389
55.509197623043605 4.91413
55.53435769621134 4.82134
55.55952067826466 4.84261
55.5846865714265 4.8920699999999995
55.61005202069737 4.8573900000000005
55.63522376553902 4.8490400000000005
55.66039842818645 4.83066
55.68557601087004 4.841469999999999
55.7109532500271 4.74377
55.73613670233794 4.75171
