TT I
1.2716486653135266 6.90493
1.2939594142134223 6.981210000000001
1.3162702121660406 6.975810000000001
1.3385810600174564 6.58997
1.3608919586137629 6.31101
1.383202908801069 6.621180000000001
1.405513911425503 6.79264
1.4278249673332093 6.63202
1.4501343378461518 6.08574
1.4724455028545926 6.002680000000001
1.4947567236847858 5.823840000000001
1.517068001182951 6.06784
1.5393793361953272 5.88771
1.5616907295681737 5.51138
1.5840021821477681 4.90707
1.60631369478041 4.86134
1.6286252683124185 5.35993
1.6509369035901333 4.881419999999999
1.6732468618895553 4.878
1.695558623192809 4.69958
1.7178704487808514 5.36851
1.7401823395001077 5.102
1.7625012545597203 4.83172
1.7848028405262486 5.12058
1.8071218901122095 4.44566
1.8294236121921872 4.18496
1.8517427996910911 4.51459
1.8740620574440425 4.68738
1.8963639900671978 5.27283
1.9186833908139995 4.98562
1.9409854680117449 4.64141
1.9633050151394713 5.1197
1.9856246367570705 4.39685
2.0079269371922672 4.74512
2.03024671027244 4.4048
2.0525491637446027 4.6490599999999995
2.074869091674931 4.423430000000001
2.097171701569106 4.6382
2.1194917877373847 5.00559
2.141811954326636 5.2759
2.164114805233074 4.81299
2.186435135143035 6.065869999999999
2.208738150935709 12.5682
2.231058647554722 24.264
2.2533792288321184 19.2503
2.275682498336085 9.24095
2.298003251406138 6.3766
2.3203066942619714 5.72138
2.3426276225136022 5.31654
2.3649486396617507 5.54098
2.387252348930071 6.074669999999999
2.4095735463442893 5.9011
2.4318774374315884 6.4961400000000005
2.4541988185014043 7.042610000000001
2.476502894794693 7.3003
2.498824462909887 7.869
2.521146125856138 7.6643
2.5434504863470337 7.47455
2.5657723414244717 7.62913
2.588076895590662 8.28399
2.610398946189713 8.43778
2.6327210958598384 8.56621
2.6550259469304716 8.32195
2.6773482972090137 8.784239999999999
2.6996533504259 8.407630000000001
2.7219759047039602 9.02105
2.744298562293959 8.68866
2.7666039251246595 8.253919999999999
2.7889267918020164 8.72495
2.8112323652516555 8.46257
2.833555444408179 8.61394
2.8558786311183852 8.704189999999999
2.8781845268938557 8.63526
2.9005079311721484 9.25737
2.9228140460410397 9.44425
2.9451376712799635 9.44178
2.967444008632326 9.13303
2.9897678582247247 10.4691
3.0120918213106695 10.2472
3.0343984987899373 10.7306
3.0567226913198637 10.9859
3.079029599759726 11.8278
3.101354025127254 12.6377
3.123678568232338 13.3661
3.145985829517914 13.2063
3.16831061055229 13.673
3.1906181112775593 14.2603
3.212943133635653 15.1094
3.2352682779763207 15.3516
3.2575761442691227 15.6786
3.2799015350264273 15.675
3.302209649240067 15.9635
3.3245352898092655 16.7352
3.3468436553365257 17.4026
3.369169549113219 17.6814
3.3914955708171384 18.6881
3.413804319727358 19.1945
3.4361305997334863 19.2292
3.4584396084414553 19.4755
3.4807661501462652 19.995
3.503092824025881 20.9494
3.5254022288463154 21.2102
3.5477291695206588 21.4017
3.5700388426251948 22.3412
3.5923660534916446 23.4872
3.6146934007816114 36.3539
3.637003482731501 76.5635
3.6593311053109985 83.5149
3.681641464033634 49.765
3.7039693653009733 29.3268
3.726297407241705 25.7904
3.7486081875460804 25.2284
3.7709365132734978 25.9072
3.793247578841633 26.2583
3.8155761917550093 26.5675
3.8378875459837216 27.118000000000002
3.8602164494827234 27.6051
3.882545499606844 28.1888
3.9048572932539183 28.7402
3.9271866390645718 28.7876
3.9494987298666713 29.3457
3.971828374764527 30.1962
3.9941581705403255 30.3929
4.016470713506008 30.7277
4.038800813471445 31.4925
4.061113662089144 32.3012
4.0834440696459176 33.2284
4.105774632334751 33.3627
4.128087945865126 34.3002
4.150418821249301 35.0451
4.172732448931298 35.8049
4.195063640413578 37.5956
4.2173775856475215 41.0012
4.239709096631102 68.1736
4.262040768704612 199.174
4.284355196706267 267.031
4.306687193387355 176.511
4.329001947444346 73.4438
4.35133427213731 46.4583
4.373666762177566 43.7241
4.395982011761091 43.9901
4.418314834921175 45.0611
4.44063041906622 51.6471
4.4629635787515625 60.9931
4.4852969080429785 60.8474
4.5076130004776225 52.4636
4.529946671403969 49.9779
4.552263106909177 49.8039
4.574597122877047 50.2401
4.596931312711224 51.8804
4.619248269273446 52.5068
4.6415828092605835 53.6797
4.663900117405352 54.6355
4.686235010953232 56.1709
4.708552674085913 57.4113
4.730887924602802 58.56100000000001
4.753223354952695 60.0422
4.775541557023902 61.4962
4.797877349456786 63.1366
4.820195915032126 65.2215
4.842532072957498 66.4839
4.864868414979744 68.5151
4.88718753227192 70.3382
4.909524244902505 72.6851
4.931843734218147 74.0681
4.954180820867835 76.6503
4.976518095879839 79.562
4.998838149695359 82.0818
5.021175803844231 85.2995
5.043496238205739 87.8584
5.065834274903528 92.5229
5.088172504230693 96.8097
5.1104935158799565 103.044
5.132832132875765 122.234
5.155153533596801 158.10399999999998
5.1774925416746225 190.55
5.199814334878411 315.14799999999997
5.2221537374521505 875.825
5.244493338631803 2640.48
5.266815727034316 7794.03
5.289155727832427 13658.1
5.311478517248165 8965.63
5.333818921080011 2546.85
5.356159527788849 451.985
5.3784829252032536 168.543
5.400823940070432 136.66899999999998
5.423147747031976 122.955
5.445489173474152 114.09100000000001
5.467830807066149 109.774
5.490155234831516 106.439
5.512497285125229 103.301
5.534822130975162 101.90700000000001
5.557164601388673 99.8208
5.579489868738879 97.1982
5.601832762690846 96.3572
5.6241758697774475 95.3563
5.646501775867269 94.9326
5.668845311622074 93.568
5.691171647754637 92.7885
5.713515615597765 91.4532
5.735859800852677 90.5064
5.758186788542988 89.8087
5.780531411018185 89.9113
5.802858837297399 89.521
5.825203900414495 89.3395
5.8475491852224 89.5299
5.869877275883075 90.0266
5.892223006467101 91.39200000000001
5.914551544266608 92.0148
5.936897724049891 94.3999
5.959244129804903 99.8667
5.981573344815301 116.669
6.0039202049061 193.203
6.026249875609095 412.51300000000003
6.04859719346037 894.4860000000001
6.070927323278297 2176.03
6.093275102315365 4519.35
6.115623113320588 5190.45
6.137953938319995 3047.34
6.160302415650845 823.09
6.182633708324452 196.09400000000002
6.2049826554078376 105.564
6.227331838745022 87.9174
6.249663839443684 81.8395
6.27201349767565 79.9579
6.294345974611799 84.8287
6.316696111167083 93.68700000000001
6.339046488263839 88.9908
6.361379686074702 76.5307
6.383730546639482 70.3007
6.406064229255215 67.4015
6.428415576718203 66.96
6.450749747566656 65.8574
6.47310158535871 65.09899999999999
6.495453669698332 64.492
6.517788579421056 63.3086
6.540141159237969 62.5624
6.562476565766648 62.0409
6.5848296444934045 61.5362
6.607182974060425 61.27
6.6295191323281015 60.9083
6.651872965955752 64.0166
6.6742096296068985 85.6242
6.6965639707294615 122.37799999999999
6.71891856698715 121.71
6.741255995248479 86.6438
6.763611104154477 65.4529
6.785949046381137 59.3445
6.808304671371482 57.5986
6.8306605557940046 57.0741
6.852999275508618 56.465
6.875355681171544 56.1163
6.897694923437771 55.8973
6.92005185377892 55.63
6.9423916220322655 55.1843
6.964749080490181 54.873000000000005
6.987106804399774 54.971000000000004
7.009447368180821 54.9456
7.031805625367033 54.4048
7.054146723727803 54.3417
7.076505517631004 54.1625
7.098864581288365 54.0422
7.121206488070854 53.8201
7.143566093607822 53.8091
7.165908543567245 54.2089
7.188268694426048 54.2903
7.2106291193438095 54.3776
7.232972390625943 55.2812
7.255333366030969 66.1417
7.277677189091925 110.60600000000001
7.300038718428332 147.524
7.322400526130865 125.554
7.344745183422596 81.8052
7.367107550224791 59.6293
7.389452767901992 55.3401
7.411815697249891 54.5988
7.434161478756298 53.7119
7.456524974096713 53.5711
7.478888753837185 53.231
7.501235387657368 53.7478
7.523599738562711 53.6716
7.545946944825532 53.663000000000004
7.568311870344528 53.9313
7.5906770845765665 54.498000000000005
7.613025156078678 55.473
7.635390950099687 56.6735
7.657739602662809 55.6487
7.680105979923558 54.9666
7.702472650212829 55.0764
7.724822180948224 54.8884
7.747189439655568 55.0471
7.769539560075357 55.4336
7.791907410653562 55.6677
7.81425812420825 55.4254
7.836626570110925 55.9609
7.858995315087906 56.8831
7.881346924933401 56.5363
7.903716270417482 57.1518
7.926068482028405 57.4802
7.948438431475253 58.1141
7.9708086843180235 58.8457
7.993161805171116 59.2939
8.015532667162402 59.6648
8.037886398416653 60.6658
8.060257873014221 61.1866
8.082629655331942 61.742
8.104984308787587 62.6632
8.127356708900503 65.8283
8.149711981398308 70.3546
8.172085002766314 72.5563
8.194458336181368 70.1196
8.216814543847752 68.221
8.23918850371002 68.4223
8.26154533906492 69.1026
8.283919928836452 70.347
8.306277395339652 71.4287
8.328652618483376 72.7866
8.351028159736202 74.3867
8.373386579575245 76.6271
8.395762759396959 78.3834
8.418121819038275 83.3106
8.440498640894003 94.4236
8.462875785192262 107.15
8.485235811156207 119.531
8.507613602688501 156.82
8.529974277114228 235.36599999999999
8.552352719347912 354.73400000000004
8.574731488360351 604.904
8.59709314210385 1184.3
8.619472567021075 1919.98
8.64183487789147 2281.76
8.664214962183097 1725.06
8.686577933647762 869.528
8.708958680784317 311.197
8.731339760774953 143.62
8.753703729764451 105.01299999999999
8.77608547780821 95.6747
8.798450116065078 92.8844
8.820832535634787 90.1447
8.843215292401656 88.5897
8.865580941199045 87.6171
8.887964374703538 87.044
8.910330701447199 87.7402
8.932714815164482 89.448
8.955099270424924 88.2171
8.977466620733543 85.7452
8.999851761421976 83.3829
9.022219798361645 82.397
9.04460562795561 81.9186
9.066991803441677 81.7126
9.089360876979615 81.3434
9.111747746589993 81.1706
9.13411751544971 80.3938
9.156505082664324 79.9234
9.178875550323522 80.425
9.20126381862328 80.8648
9.223652438908596 81.0666
9.246023961427412 81.1236
9.26841328802173 80.8349
9.290785518039224 80.3893
9.313175554425882 81.0929
9.335565947154315 80.9772
9.357939245086508 81.189
9.380330352834827 81.7111
9.40270436697103 81.9576
9.425096193225055 81.1231
9.447488380180165 82.3596
9.469863475295412 82.3608
9.492256385987508 83.1849
9.514632206018318 83.693
9.537025843935714 84.0379
9.559402392368193 84.6382
9.581796761000229 85.7717
9.604191496441521 86.5845
9.626569144158516 89.6324
9.648964615551032 93.417
9.671343000390081 95.1131
9.693739211225699 93.5718
9.716135793237463 91.762
9.738515290448102 91.3219
9.760912617143402 92.5128
9.783292860202891 93.5182
9.805690935076182 95.1454
9.828089385495742 95.6635
9.850470754023561 97.8906
9.872869957865444 104.978
9.89525208097539 117.411
9.917652041736662 128.584
9.940052382417589 129.559
9.962435644102392 137.14600000000002
9.984836746950979 169.013
10.007220771957746 227.718
10.029622640473708 319.724
10.052007432299963 489.486
10.074410069984072 794.1339999999999
10.096813093716005 1293.1
10.119199042482517 1845.49
10.141602840636468 1998.43
10.163989564971628 1473.56
10.186394141051062 814.428
10.208799107559706 334.371
10.231187001965623 162.018
10.253592751657669 118.434
10.275981430388155 109.16799999999999
10.298387966769793 108.721
10.320794897965431 111.04899999999999
10.343184759907361 109.755
10.36559248305461 105.39399999999999
10.387983138083852 102.214
10.410391656691655 105.029
10.432800574501677 115.459
10.455192425893369 130.41299999999998
10.47760214443012 155.313
10.499994797678786 196.101
10.522405320453982 282.209
10.54479877906917 408.785
10.567210109595656 536.313
10.5896218454736 595.915
10.612016518879773 495.08
10.634429067781074 316.717
10.656824555333241 180.592
10.679237920773568 114.54700000000001
10.701651695961992 92.51100000000001
10.724048411481384 86.8498
10.746463008485165 84.428
10.768860546937125 83.0442
10.791275969274796 81.1636
10.81369180576079 80.3913
10.836090585366925 79.6031
10.858507252467449 78.2763
10.88090686379991 77.4745
10.903324365036394 76.8431
10.925724811614439 76.4547
10.948143150509463 77.6326
10.970561909719066 76.6748
10.992963615930844 75.0294
11.015383218085756 73.1847
11.037785768347074 71.9353
11.06020621697282 71.4285
11.082627090322113 70.7884
11.105030913430326 70.678
11.12745263854165 70.7609
11.149857314510728 73.8332
11.172279894912576 78.4342
11.194702904450653 78.7244
11.217108866490921 75.3031
11.239532736615194 71.7486
11.26193956033512 69.8748
11.284364294577085 68.6974
11.306789462371718 66.6642
11.329197585398376 66.0192
11.351623622610898 65.8576
11.37403261614354 64.7985
11.396459526308487 64.5552
11.418869393879497 64.2886
11.441297180532617 64.0633
11.463725406927658 63.6023
11.486136592353875 63.2711
11.508565700543707 64.0501
11.530977768845315 65.6184
11.553407762368774 66.1602
11.575838200059769 65.4843
11.598251599479612 64.0128
11.620682927815501 62.6308
11.64309721895548 62.4857
11.665529441478206 62.1155
11.687962112597958 61.7522
11.710377748130886 61.9047
11.732811318753434 61.6487
11.755227854859067 61.6838
11.777662328529495 61.6662
11.800079768750786 61.4277
11.822515149015453 61.2717
11.844950984084935 61.3548
11.867369787303163 61.1318
11.889806534289491 61.2711
11.912226250487029 61.5158
11.934663912939751 61.5401
11.9571020346363 61.707
11.979523127133968 61.9449
12.001962169624331 62.2363
12.024384183972964 63.3623
12.046824150809913 65.8834
12.069264581333726 70.622
12.091687985297767 76.4684
12.11412934550045 84.9664
12.136553680195208 99.9372
12.158995973632788 125.541
12.181438735204349 156.439
12.20386447284199 193.423
12.226308172985636 220.357
12.24873485024193 200.343
12.271179492516982 156.24200000000002
12.293607112949127 115.964
12.316052700916226 87.4617
12.338498763250042 73.4788
12.360927805303868 67.2804
12.383374818673879 64.6984
12.405804812803074 63.078
12.428252780773262 62.8048
12.45070122756722 62.7425
12.473132656675375 62.6888
12.49558206341869 62.917
12.518014453510101 62.7714
12.540464823770117 63.2613
12.562915677315177 63.5843
12.58534951575545 64.314
12.607801338171472 65.782
12.630236146511358 70.1513
12.652688941369085 74.0733
12.675124723177234 74.3282
12.697578494048786 71.4079
12.720032754458185 68.1464
12.742470003354093 66.6311
12.764925245138771 66.3426
12.787363476431278 66.649
12.809819703166806 67.074
12.83227642391173 67.7485
12.854716135692716 68.221
12.877173846755147 69.447
12.899614549869717 69.8688
12.9220732548287 70.331
12.94453245827299 70.8927
12.966974655289818 71.8052
12.989434858002571 72.4094
13.011878055298721 73.0497
13.034339260862497 74.3744
13.056800969391883 75.4388
13.079245674017244 77.4054
13.101708390774869 80.0094
13.12415410463411 86.3672
13.146617833206086 96.6642
13.169064559883248 107.48299999999999
13.191529303857127 121.015
13.213994557076367 142.576
13.236442809902437 180.062
13.258909083908291 239.312
13.28135835851934 311.498
13.30382565690295 391.62300000000005
13.326293469022952 436.48900000000003
13.348744283242008 422.279
13.371213125129904 337.957
13.39366497011003 235.5
13.416134845360597 153.81
13.438605238843131 114.259
13.46105863690397 100.639
13.483530069144786 101.786
13.505984506951902 107.056
13.528456981549432 115.70200000000001
13.550929978879088 129.797
13.573385983253365 153.136
13.595860028340867 193.56799999999998
13.618317081455832 252.31799999999998
13.64079217790333 319.101
13.663250283359057 368.624
13.685726434770173 384.535
13.708203115221277 331.04900000000004
13.730662806148091 239.12
13.75314054697177 165.75099999999998
13.775601299246777 115.1
13.798080104050406 90.8737
13.820559442405358 82.1065
13.843021793671388 79.6525
13.865502201420897 78.4042
13.887965623051947 77.8523
13.910447103807167 76.8799
13.932929122629764 75.433
13.955394156785959 75.1582
13.977877254034569 74.376
14.000343367582113 73.3772
14.022827546871707 72.7249
14.045294743423524 72.1068
14.06778000837062 71.541
14.090265817715476 71.1978
14.112734645763819 70.7553
14.13522154619454 70.8957
14.157691466286913 70.8497
14.180179461423874 70.5902
14.202668005486178 69.8703
14.22513957064374 69.41
14.247629214846473 69.0156
14.270101881097517 68.7585
14.29259262906496 68.9291
14.315083930490205 69.4931
14.337558255389705 69.6794
14.360050666019726 69.7043
14.382526101071944 68.6806
14.405019624534942 68.0323
14.427513705993134 67.4962
14.449990813291825 67.4843
14.47248601302899 67.2765
14.49496423954951 67.4984
14.517460561197822 67.4416
14.539939910570322 67.3685
14.562437357763558 67.7424
14.58493536931253 68.6123
14.607416409993311 69.4416
14.62991555254159 69.86399999999999
14.652397725157423 70.0101
14.674898002342799 69.4693
14.697398848433282 69.1328
14.719882725991326 69.9196
14.74238471217934 70.5017
14.764869730765593 73.5578
14.787372860692983 76.6024
14.809876564079925 80.9894
14.83236330125751 86.0478
14.854868153850365 94.1545
14.877356041159485 107.95700000000001
14.899862046604186 127.77
14.922351087688757 155.49200000000002
14.944858249632887 190.26
14.967365991421232 219.567
14.989856770231246 232.639
15.012365673994204 216.514
15.03485761569738 178.542
15.05736768508665 135.84
15.07987833888692 104.506
15.102372032001655 84.2298
15.124883856909658 73.9765
15.14737872204565 70.1088
15.169891721717274 68.811
15.192405310371893 68.6247
15.214901940621196 68.9644
15.237416709527137 68.9307
15.259914520936249 69.1444
15.282430473753607 68.4823
15.304947020131227 67.1753
15.327446610371178 66.3024
15.349964346154254 65.7463
15.372465126703139 65.3667
15.394984055556009 65.2734
15.417486030076159 64.9486
15.44000615566487 64.6735
15.462526881230803 64.545
15.485030653812652 64.8022
15.507552581617434 64.8556
15.530057557334603 64.9016
15.55258069104857 64.7526
15.575104429329837 64.8279
15.597611216864632 64.7696
15.620136166564563 64.7883
15.6426441664095 65.5755
15.665170331202765 67.5897
15.687697105158826 70.6134
15.710206930593545 73.6916
15.732734925158933 77.2102
15.755245972089478 83.1737
15.77777519094324 92.1587
15.800287463046663 105.47399999999999
15.822817909869592 126.46799999999999
15.84534897229804 151.101
15.867863089299354 176.435
15.890395385222186 192.861
15.912910736597423 195.64700000000002
15.935444269699861 176.89
15.957978423016485 149.05700000000002
15.980495633101265 113.463
16.003031029129367 88.7273
16.02554948280019 72.0644
16.048086125229432 65.3312
16.070623392487107 63.1715
16.09314371869582 62.6245
16.11568223789321 61.7276
16.13820381691126 60.8938
16.160743591742527 60.03
16.183283996022084 59.245
16.205807461423195 58.1676
16.228349126881973 57.772
16.25087385432698 57.6074
16.27341678466365 57.0872
16.29594277784926 56.86600000000001
16.31848697676433 57.0808
16.341031811604868 57.3001
16.36355971058487 57.6572
16.3861058195587 57.3356
16.40863499352978 56.255
16.431182380342005 55.4986
16.453730407713202 55.098
16.476261501364792 54.5984
16.498810812136167 54.0943
16.52134319004079 54.4345
16.54389378792203 54.4482
16.566445031001553 54.0139
16.588979342490088 53.838
16.61153187824822 53.9194
16.634067483263312 53.9624
16.656621315414416 53.6408
16.679175797408888 53.4801
16.701713349928728 53.3856
16.72426913389191 53.7876
16.74680798922351 53.7047
16.76936507887444 53.8108
16.791905240734874 53.8331
16.814463639794468 53.6647
16.837022695210294 53.6566
16.859564824093756 53.9378
16.882125194503903 54.4497
16.904668639217885 55.2863
16.927230328348003 55.2608
16.949792678493612 55.4774
16.972338104193863 54.9682
16.994901778652235 54.6271
17.017448529496576 54.7277
17.040013531998152 54.7461
17.06257920018044 55.1189
17.0851279459922 55.7171
17.107694947817667 56.7404
17.130245028099072 57.5709
17.15281336730298 58.6755
17.17536478578733 60.1798
17.19793446610687 62.4283
17.220504818648422 65.3374
17.243058251703697 69.2241
17.265629950971032 74.2813
17.288184731571736 79.5356
17.310757781306908 83.6662
17.33333150794385 83.1709
17.355888317140174 80.9025
17.37846339986244 74.9846
17.401021565958885 67.9
17.42359800851343 62.8138
17.44617513265564 59.7701
17.468735341390783 58.3527
17.491261035594565 57.7736
17.51396340099364 57.571999999999996
17.536490463869136 57.9486
17.559018209820174 58.1146
17.58154663977963 57.9659
17.604251766089718 58.0727
17.626781572227713 58.4242
17.64931206518155 58.75
17.671843245885103 59.0249
17.69455114821572 59.2804
17.717083712612634 59.5574
17.739616967569667 59.8944
17.762150914021706 60.1626
17.78486160749854 60.2305
17.807396945166804 60.7691
17.829932977143503 61.7076
17.85246970436452 62.9885
17.875183204129467 64.6377
17.897721330097664 66.6345
17.920260154126645 68.6509
17.942799677153296 71.6686
17.9655159983646 75.4445
17.988056927677544 80.7457
18.010598558807683 88.6067
18.033140892692916 99.1809
18.05586005052525 111.897
18.07840379824407 125.029
18.10094825154059 134.50799999999998
18.12366954819864 139.15200000000002
18.146215420998306 136.559
18.16876200220057 125.12
18.191309292745153 110.774
18.214033452627167 96.3801
18.236582170236648 86.7046
18.259131600016456 82.807
18.281681742907335 84.3616
18.304408781233683 90.3965
18.32696035875955 96.2238
18.349512652227624 101.677
18.372065662579683 106.18299999999999
18.394795594587553 106.272
18.41735004715306 100.415
18.43990521943684 91.689
18.46246111238171 82.1587
18.485193953325208 73.3858
18.507751296070428 66.8802
18.530309362314178 63.7086
18.552868153000343 62.0111
18.57560391815056 60.8209
18.59816416623245 60.43899999999999
18.620725141597372 60.0048
18.643286845190268 59.3611
18.666025549835414 59.1257
18.688588718427933 58.6034
18.711152618092243 58.5144
18.73389353884365 58.2096
18.75645890921984 57.7248
18.77902501351406 57.3913
18.801591852673102 57.5531
18.824335739722738 57.0047
18.846904057212626 56.9116
18.8694731124168 56.5598
18.89204290628315 56.6679
18.914789774966803 56.437
18.937361054791623 56.0837
18.959933076131318 55.7546
18.982505839934877 55.785
19.00525570560582 55.9878
19.027829963004184 55.9033
19.05040496572238 56.0677
19.072980714710468 55.8669
19.095733592739563 56.032
19.11831084296757 56.2342
19.140888842324735 56.5727
19.16346759176222 56.8578
19.18622349753803 57.2881
19.208803755869358 58.0967
19.231384767143577 59.3602
19.253966532312948 60.916000000000004
19.276725481241822 63.1979
19.29930876296784 65.9029
19.3218928014549 69.2173
19.34465404436217 72.4121
19.36723960516257 75.4165
19.389825925592426 75.7188
19.412413006605938 73.9622
19.43517731967805 69.7181
19.457765930683355 65.2897
19.48035530514408 60.8428
19.50294544401556 57.1732
19.525712842708348 55.0207
19.54830451925909 53.966
19.570896963095727 53.1996
19.593490175174704 52.7713
19.616260674962184 53.0327
19.638855432416964 52.4724
19.661450960992624 52.6479
19.68404726164677 52.4869
19.706820878021247 52.2996
19.729418731756834 52.6203
19.752017360452857 52.3112
19.77461676506804 52.4909
19.797393513540218 52.3886
19.819994478951667 52.8315
19.84259622316767 53.1554
19.8651987471481 53.6542
19.887978643247177 53.94
19.91058273574792 54.0851
19.933187610901943 55.0671
19.955969879466828 56.2993
19.97857632894404 57.801
20.00118356396599 59.5375
20.023791585494575 61.8506
20.046577028914875 64.9328
20.069186632506966 67.0682
20.091797025500632 68.972
20.114408208858933 69.1365
20.137196842715273 68.1727
20.159809615886765 66.1276
20.18242318232135 63.1024
20.20503754298326 61.2359
20.227829382875154 60.7858
20.250445341109344 61.108000000000004
20.27306209647285 62.4571
20.29567964993108 63.961000000000006
20.31847471147704 65.141
20.34109387027612 65.4036
20.363713830075454 64.5234
20.386334591841646 62.5099
20.409132890679302 59.5389
20.431755265564437 56.0414
20.454378445325528 53.6376
20.477002430930366 51.91
20.499803982716553 51.0573
20.522429589228004 50.433
20.54505600449589 50.1177
20.567683229489194 49.821999999999996
20.590488049900088 49.5109
20.61311690359731 49.3597
20.63574656993626 49.0544
20.658553853717297 48.7177
20.681185154618298 48.8301
20.703817271080066 48.6142
20.72645020407368 48.1887
20.749260783967177 48.1709
20.771895359337133 48.096000000000004
20.794530754161617 47.966
20.817166969412938 47.915
20.83998086114876 47.9136
20.86261872660049 47.8729
20.885257415405402 47.6052
20.90789692853701 47.7265
20.930714147864748 47.6642
20.953355319030678 47.547
20.97599731745334 47.6465
20.99864014410749 47.4535
21.021460706796564 47.608999999999995
21.044105199328826 47.9286
21.06675052302631 48.0558
21.089396678865015 48.1823
21.112220600704806 48.4568
21.134868430275347 48.6831
21.15751709492456 49.2776
21.180166595629693 49.6231
21.202993892429635 50.1046
21.22564507473034 50.3422
21.24829709602816 50.7306
21.27112693608965 50.6728
21.293780644891275 50.4204
21.316435195634053 49.6806
21.339090589297417 48.8713
21.361923832041875 48.4157
21.384580921090404 47.8496
21.407238856007325 47.5032
21.429897637773326 47.4532
21.45273429906592 47.4205
21.475394784108598 47.325
21.498056118951983 47.3541
21.520718304578022 47.6636
21.543558400304388 47.8468
21.566222297108816 48.0762
21.58888704765135 48.1138
21.61155265291521 48.2489
21.63439619898156 48.5472
21.657063523335786 48.7197
21.67973170537063 49.2594
21.7024007460706 49.8384
21.72524775840385 50.5212
21.747918526116475 51.5828
21.770590155457388 52.9064
21.79326264741238 54.5403
21.816113141960237 56.5676
21.838787368860547 58.5624
21.861462461341976 61.0054
21.884315579735777 62.8683
21.90699241312273 63.8973
21.92967011506078 63.9232
21.95234868653799 63.4011
21.9752053151131 61.3168
21.997885635446785 59.1923
22.020566828293532 57.543
22.04324889464272 56.1173
22.066109049404666 55.4843
22.088792872571794 55.3278
22.111477572219204 55.685
22.1341631493376 55.4771
22.157026846313123 55.1423
22.179714188221507 54.0471
22.202402410582668 52.843999999999994
22.22509151438863 51.2525
22.24795876962584 50.1382
22.270649646204486 49.2755
22.293341407213727 48.6969
22.316034053646906 48.3234
22.338904883215342 48.1204
22.36159931041458 48.0483
22.38429462602756 48.1596
22.40699083104897 47.8769
22.429865251039757 47.702
22.452563244831367 47.9468
22.47526213102522 48.0302
22.49813925616515 47.8209
22.520839937143307 47.8136
22.543541513520587 47.8344
22.56624398629403 47.5846
22.589124730075895 47.4909
22.611829005656723 47.8443
22.63453418063466 47.744
22.657240256008077 47.94
22.680124634582935 48.0786
22.70283252079775 48.2101
22.725541310413075 48.4475
22.74825100442868 48.6916
22.771139033969575 49.302
22.79385054687155 49.4525
22.81656296718292 50.0606
22.83927629590484 50.9665
22.862167992606945 52.1731
22.88488314827121 53.1812
22.907599215359284 54.5266
22.93031619487366 55.7798
22.953211574954405 56.8111
22.975930389478226 57.4979
22.998650119445763 57.5246
23.02137076586092 56.152
23.044269845560063 54.7275
23.06699233506288 52.867
23.089715744034912 51.1658
23.112617610931565 49.6181
23.135342869061212 48.6662
23.158069049684816 47.9888
23.1807961538087 47.88
23.20370174880544 47.7555
23.226430710184808 47.7857
23.249160598093425 47.7696
23.271891413539002 47.9733
23.294800752937697 47.9856
23.31753343374794 48.1745
23.340267045128353 47.9562
23.36300158808808 48.5044
23.38591468821339 48.8022
23.408651104658304 49.2895
23.431388455719986 49.7855
23.454126742409 50.7454
23.4770436196085 52.0404
23.499783787914662 53.3287
23.522524894889884 54.5683
23.54526694154616 55.6355
23.56818761219047 56.9478
23.59093154860734 57.0784
23.613676427751283 57.1905
23.636422250635754 56.1036
23.659346731118656 54.2509
23.68209445191868 52.181999999999995
23.704843119509587 49.9209
23.72759273490623 48.2973
23.750521041644767 46.9992
23.77327256312355 46.144
23.796025035462787 45.586000000000006
23.818956224555475 45.2899
23.841710609113413 45.2072
23.86446594758979 44.9514
23.887222241002014 44.7178
23.910157285144578 44.3499
23.932915498962537 44.4053
23.955674670778713 44.1936
23.978434801611975 43.9951
24.001373717286125 43.9644
24.024135776723917 43.8629
24.046898798245582 43.6299
24.06966278287146 43.6352
24.092605586582614 43.4093
24.115371508023642 43.2881
24.1381383956401 43.2402
24.16090625045381 43.1451
24.183852958731244 43.2258
24.206622758582608 42.8494
24.229393528706886 42.72
24.252165270127392 42.9638
24.27511589952438 42.7938
24.297889594216997 42.6231
24.32066426328598 42.4814
24.34343990775613 42.4556
24.36639447485003 42.4123
24.38917208083877 42.4016
24.41195066531332 42.3209
24.43490819850244 42.4276
24.457688750692377 42.2222
24.48047028445616 42.1935
24.503252800821233 42.2488
24.526214300784112 42.5146
24.548998793132213 42.394
24.57178427117417 42.1651
24.59457073593893 42.1372
24.617536219319863 42.0268
24.64032466834748 42.2332
24.663114107195035 41.9142
24.685904536893013 41.7529
24.708874020360852 41.67100000000001
24.731666442613744 41.7233
24.754459858818787 41.6727
24.777254270007962 41.5209
24.80022777025625 41.4571
24.82302418230472 41.3965
24.845821592443674 41.4669
24.86862000170663 41.4464
24.891597535453727 41.2627
24.914397953892728 41.4718
24.93719937456671 41.5322
24.96000179851076 41.4466
24.98298338249997 41.6896
25.00578782394922 41.9961
25.028593271784167 42.1568
25.05157790644186 42.4621
25.07438537804115 42.5668
25.097193859145293 42.827
25.120003350792075 43.1486
25.142992065061257 43.5339
25.165803588823465 43.8538
25.18861612625217 43.9575
25.211429678386736 43.9684
25.234422489079968 44.1354
25.257238081693636 44.0638
25.280054692141732 44.0714
25.3028723214652 44.2369
25.325869245420463 44.2069
25.348688923599397 44.2848
25.371509623787006 44.0835
25.394331347025812 43.6307
25.41733240110666 43.338
25.440156181590016 42.5963
25.46298098826268 42.0335
25.48580682216873 41.4603
25.50881202326435 40.9749
25.53163992281684 40.6194
25.55446885274561 40.3449
25.577298814096377 40.065
25.600308179121807 39.9568
25.623140214533745 39.9675
25.64597328451537 40.032
25.66898578564376 39.5852
25.691820936010206 39.8076
25.714657124097695 39.6821
25.737494350954734 39.5963
25.760511045684957 39.6921
25.783350361364224 39.7733
25.806190718969255 39.8608
25.82903211955018 39.8891
25.852053024868923 39.8795
25.874896522722523 39.8226
25.897741066713106 39.93
25.920586657892454 40.0416
25.943611790812668 40.1319
25.966459487728237 40.2439
25.989308234998564 40.248000000000005
26.01215803367705 40.7924
26.03518741123814 40.9346
26.05803932412957 40.9236
26.080892291600094 41.0398
26.10374631470478 40.8671
26.12677995397268 41.0101
26.14963609978026 40.9684
26.172493304397875 40.513000000000005
26.19535156888223 40.3244
26.218389486949604 39.785
26.241249882640123 39.7326
26.26411134137826 39.3989
26.28715248187403 39.4096
26.31001607820869 39.3691
26.3328807407756 39.1785
26.35574647063438 39.5037
26.37879191991473 39.2596
26.401659795896734 39.4103
26.424528742360263 39.5473
26.447398760366614 39.7021
26.470448535598294 39.8263
26.49332070826805 40.1228
26.516193955675355 40.4113
26.53906827888316 40.6557
26.562122397260108 40.9176
26.584998883685063 41.2654
26.607876449110325 41.3933
26.63075509460056 41.4784
26.65381357334404 41.5283
26.67669439061878 41.4657
26.699576291163382 41.243
26.722459276044212 41.1762
26.745522132402975 40.7692
26.768407297649354 40.6327
26.791293550442003 40.3012
26.814180891848974 40.0819
26.837248143099337 39.6849
26.860137673466657 39.6851
26.88302829566349 39.4051
26.90592001075963 39.2923
26.92899167420566 39.1925
26.951885586870763 38.7576
26.974780595655517 38.5232
26.99785558178161 38.4844
27.020752794605112 38.3321
27.043651106772522 38.1262
27.06655051935668 38.1412
27.089629948036183 37.9384
27.112531573292053 37.9179
27.135434302194138 38.0324
27.158338135817015 37.9432
27.181422024430987 37.9307
27.204328079372566 37.721
27.22723524226965 37.8285
27.250143514198573 37.8362
27.273231880156334 37.8683
27.296142382065014 37.7502
27.319053996245536 37.6755
27.341966723775965 37.7064
27.365059584515222 37.7387
27.38797455070062 37.8372
27.410890633481237 37.7325
27.433807833936918 37.7222
27.456905206923906 37.8652
27.47982465472398 37.8458
27.502745223449743 37.9336
27.525666914182825 38.0456
27.548768816912457 38.0084
27.571692763693633 37.8113
27.59461783573812 37.6415
27.617723149491244 37.4477
27.640650484125285 37.3902
27.66357894728264 37.4083
27.686508540048052 37.4392
27.709618414237887 37.4823
27.732550278321757 37.2305
27.755483275279115 37.2118
27.778417406196485 37.1994
27.801531858397514 37.2454
27.824468269376716 37.1473
27.847405817586786 36.9699
27.870344504116094 37.2593
27.893463551932008 37.5496
27.916404527281053 37.5682
27.93934664422563 37.7427
27.962289903855886 37.8819
27.98541356491974 38.0968
28.00835912214229 38.1485
28.03130582533231 38.4232
28.054253675581805 38.4328
28.077381967556104 38.4
28.100332124185126 38.2142
28.123283431160893 38.3135
28.146235889577238 38.1775
28.169368830154156 38.0349
28.192323603752033 37.7527
28.215279532083304 37.5096
28.238415973016764 37.1827
28.261374223145094 37.1476
28.284333631303806 36.9037
28.307294198589954 36.7859
28.330435319167677 36.4205
28.353398217078915 36.2998
28.376362277420153 35.9779
28.39932750129032 35.8604
28.422473319286713 35.7042
28.44544088262495 35.7354
28.468409612800283 35.6322
28.491379510913497 35.4092
28.51453004413313 35.2713
28.53750229057244 35.3231
28.56047570826344 35.1298
28.583450298308804 35.2023
28.606605564586562 34.9396
28.629582511831156 35.1453
28.65256063474956 35.0617
28.675539934446338 34.9816
28.698699951647605 34.9174
28.72168161743193 34.8561
28.74466446331978 34.8482
28.767648490417624 34.8516
28.790813276438353 34.8625
28.813799678527303 34.8451
28.836787265157085 34.8473
28.859955641890075 34.8687
28.882945610203045 34.6966
28.905936766392035 34.6855
28.928929111566863 34.7457
28.952102288520145 34.6733
28.975097024308607 34.4758
28.998092952423807 34.3479
29.021090073977508 34.2927
29.04426806913204 34.2133
29.067267590245258 34.1105
29.090268308143695 33.9781
29.11327022394099 33.951
29.13645305530891 33.8997
29.159457379627167 33.8283
29.18246290519685 33.7499
29.20546963313352 33.7238
29.22865731875826 33.7956
29.25166646419296 33.721
29.27467681535305 33.5048
29.29768837335608 33.7652
29.320880931312562 33.7719
29.34389491580634 33.724000000000004
29.366910110507334 33.7137
29.38992651653503 33.6646
29.41312396492981 33.6454
29.436142806456754 33.5245
29.45916286268059 33.3237
29.48236399319994 33.2283
29.50538649169417 33.1168
29.528410208259935 33.1019
29.55143514402014 32.8483
29.574641196749695 32.8469
29.597668583816574 32.6025
29.6206971934585 32.5205
29.64372702680042 32.6151
29.666938019934474 32.4377
29.689970313635285 32.3219
29.713003834422636 32.3542
29.73603858342347 32.3946
29.759254535188578 32.332
29.78229175361658 32.0928
29.80533020365064 32.2944
29.82836988641968 32.2798
29.85159081507472 32.0591
29.874632976355343 32.1276
29.89767637376955 32.2453
29.920721008448314 32.0378
29.9439469322847 31.884
29.96699405457564 31.9628
29.9900424175358 32.0158
30.013092022298157 31.8912
30.03632295963995 31.9132
30.059375061131373 31.9422
30.08242840783577 31.8021
30.105483000888153 31.8898
30.128718970092244 31.7295
30.151776069006917 31.9105
30.17483441768648 31.9168
30.198074175317235 31.8366
30.221135036724256 31.833000000000002
30.24419715131772 31.7152
30.267260520236203 31.5947
30.290505341942243 31.8143
30.313571232750228 31.7605
30.336638381310948 31.7547
30.35970678876503 31.701
30.38295669299435 31.7149
30.40602763151657 31.5261
30.429099832366074 31.5742
30.452173296685572 31.4326
30.47542830191959 31.4939
30.498504306502497 31.4671
30.521581577995562 31.4991
30.544660117543582 31.6605
30.56792024229725 31.6659
30.59100133132069 31.6347
30.614083691845494 31.6522
30.637167325018545 31.6521
30.660432587840603 31.7593
30.683518779717886 31.6173
30.70660624769615 31.7018
30.729694992924372 31.6254
30.75296541239743 31.629
30.77605672557558 31.5816
30.799149319462742 31.4937
30.8224236211637 31.3477
30.845518789950724 31.2768
30.868615242910597 31.2293
30.891712981195973 31.13
30.91499247215866 31.013
30.938092794619365 31.0066
30.96119440587579 30.8293
30.984297307082752 30.7861
31.00758200598383 30.6812
31.030687500658694 30.5542
31.053794288760695 30.5343
31.076902371446767 30.6101
31.100192296997445 30.6
31.12330298246119 30.529
31.14641496599209 30.441
31.169528248749216 30.511999999999997
31.19282341969534 30.4217
31.215939314557186 30.3523
31.239056512134788 30.3523
31.262175013589378 30.3082
31.28547544871168 30.2785
31.30859657161541 30.2221
31.331719001892175 30.2563
31.35484274070538 30.4572
31.378148458819545 30.432
31.401274828443725 30.3345
31.424402510106933 30.3907
31.447712205419993 30.465
31.470842524931633 30.2658
31.493974159989783 30.3194
31.51710711176168 30.3531
31.54042212308802 30.3384
31.563557722100917 30.1887
31.586694641341655 29.9678
31.609832881979628 29.8989
31.63315322823208 29.9513
31.656294125521327 29.7825
31.679436347728515 29.7685
31.70257989602529 29.6899
31.725905596152327 29.6125
31.74905181052835 29.5611
31.772199354521323 29.6566
31.79534822930507 29.6544
31.818679302290967 29.6544
31.84183085259981 29.601999999999997
31.864983737233473 29.6092
31.88813795736804 29.6214
31.911474422233013 29.546999999999997
31.934631327356435 29.5757
31.9577895715215 29.4904
31.980949155906522 29.5621
32.004291031706956 29.5223
32.027453310562606 29.4557
32.05061693318573 29.2663
32.07396288236386 29.3067
32.09712920658542 29.1985
32.12029687812702 29.0826
32.14346589817093 28.9531
32.166817291729984 28.9494
32.18998902288583 28.9088
32.21316210610336 28.8011
32.23633654256711 28.7257
32.259693399663725 28.6812
32.282870556771144 28.5617
32.30604907069099 28.5507
32.329228942610065 28.5975
32.35259128243769 28.4526
32.375773884550505 28.4035
32.398957848235646 28.4463
32.422143174682176 28.32
32.445511016471215 28.2347
32.468699082679954 28.2308
32.49188851523011 28.2577
32.51507931531304 28.0452
32.538452678331 28.0391
32.56164622776311 28.0495
32.58484114831493 28.0322
32.60803744118015 27.9802
32.631416344731896 28.0045
32.654615396551876 27.8977
32.67781582427913 27.8359
32.701198898634416 27.7591
32.72440209253756 27.7098
32.747606665947124 27.7069
32.77081262006088 27.6201
32.79420126883317 27.6203
32.81740999876112 27.6368
32.840620112999424 27.5455
32.86383161274818 27.491999999999997
32.88722585534586 27.521
32.91044014056596 27.5431
32.933655814909734 27.5251
32.95687287957963 27.5034
32.98027273544904 27.3869
33.00349259526636 27.3527
33.026713849030116 27.3773
33.04993649794511 27.3795
33.073341986570746 27.279
33.09656744032826 27.3653
33.11979429286444 27.2583
33.14302254538647 27.269000000000002
33.166433686291185 27.1815
33.18966475336992 27.1883
33.212897224069096 27.0253
33.23613109959831 27.0472
33.259547912343415 27.0576
33.2827846121627 27.068
33.306022720453775 26.9369
33.32926223842861 26.8694
33.352684742614166 27.0088
33.37592709463173 26.8983
33.399170859982064 26.839000000000002
33.422597648419426 26.7444
33.44584425514446 26.6298
33.46909227885668 26.6009
33.4923417207723 26.5122
33.51577423505344 26.5274
33.539026528130385 26.4729
33.56228024307245 26.427
33.585535381098246 26.2779
33.60897364093058 26.2579
33.63223163992385 26.2282
33.6554910656699 26.2202
33.678751919389796 26.125
33.702195944520106 26.0471
33.72545966903325 26.0497
33.74872482519663 26.052
33.771991414233746 26.1124
33.79544122444841 26.0408
33.81871069412428 25.9549
33.84198160035767 25.9828
33.86525394437455 25.9869
33.88870955949969 25.8192
33.911984794020626 25.8866
33.93526147001624 25.8689
33.958539588715006 25.6749
33.98200102861669 25.6873
34.0052820477047 25.5773
34.02856451319451 25.5698
34.05203033759056 25.4751
34.07531571090147 25.4759
34.09860253431845 25.5514
34.121890809074316 25.4695
34.145362493118924 25.4394
34.16865368561615 25.3811
34.191946333164054 25.3614
34.21524043699793 25.2812
34.23871800066799 25.2627
34.26201503218366 25.1179
34.28531352370466 25.1255
34.30861347646881 25.1599
34.33209693978188 25.0662
34.3553998301885 25.0912
34.378704185565205 24.9805
34.402010007152356 24.8903
34.42549939016683 24.9174
34.44880815937748 24.8404
34.472118398533134 24.8127
34.49543010887669 24.8087
34.51892543169198 24.7245
34.54224009966052 24.703000000000003
34.56555624255917 24.723000000000003
34.58887386163339 24.6172
34.61237514439016 24.6199
34.6356957311114 24.5484
34.65901779775809 24.430999999999997
34.68252356662995 24.4879
34.705848608458616 24.4347
34.72917513396849 24.3618
34.75250314440949 24.2867
34.77601490857862 24.2516
34.799345904259795 24.1845
34.82267838863559 24.2114
34.846012362958525 24.1377
34.869530142679984 24.2126
34.89286711232212 24.1475
34.91620557568269 24.1273
34.93954553401677 24.1554
34.9630693495876 23.9558
34.986412313340814 24.0078
35.00975677584668 24.0159
35.033102738362956 23.9492
35.05663261012228 23.8252
35.0799815881786 23.9183
35.10333207003229 23.8793
35.12668405694369 23.8528
35.150220005273056 23.8148
35.17357501786656 23.7961
35.19693153931268 23.7353
35.220289570874385 23.6571
35.24383161619786 23.7139
35.267192683604904 23.8105
35.290555264930376 23.7035
35.314101899412165 23.677
35.33746752422433 23.5878
35.36083466676374 23.7098
35.38420332829803 23.6133
35.407756095629054 23.5836
35.43112781085063 23.6064
35.45450104888391 23.5185
35.477875810999194 23.533
35.50143473172161 23.4374
35.52481255774625 23.4661
35.54819191167777 23.4026
35.57157279478914 23.2972
35.595137889488406 23.3507
35.61852184675279 23.2904
35.641907337029984 23.2827
35.665294361595684 23.1761
35.68886565090076 23.1099
35.7122557598848 23.1023
35.73564740699838 23.1099
35.759040593519934 23.029
35.78261809810353 22.9694
35.80601437933051 23.0082
35.829412203814705 22.8808
35.85281157283719 22.7853
35.876395313415884 22.844
35.8997977874528 22.8355
35.92320180988546 22.717
35.946790244133936 22.721999999999998
35.97019737933222 22.7215
35.993606066789866 22.6919
36.01701630779276 22.5886
36.04061101440684 22.595
36.06402437852291 22.6595
36.08743930005611 22.5825
36.1108557802951 22.5113
36.13445678011326 22.438000000000002
36.15787639383515 22.3895
36.18129757014299 22.4292
36.20472031032821 22.3147
36.22832762423364 22.2622
36.25175350829375 22.2492
36.275180960119776 22.2165
36.298609981005924 22.2905
36.32222362992669 22.3119
36.34565580510207 22.276999999999997
36.36908955323448 22.1758
36.39252487562093 22.0766
36.416144880530226 22.0801
36.43958336764275 22.0518
36.463023432914625 22.0576
36.486465077645676 21.9864
36.51009145956204 21.967
36.53353627947859 21.9678
36.55698268276811 21.9258
36.58043067073321 21.8911
36.60406345072071 21.8273
36.62751462435344 21.8241
36.65096738658405 21.8301
36.67460498210655 21.7486
36.69806093788647 21.7582
36.72151848619297 21.674
36.744977628333636 21.6396
36.76862165890998 21.5501
36.79208400512205 21.534000000000002
36.81554794910557 21.5593
36.83901349217101 21.4702
36.862663978991606 21.4335
36.88613273667352 21.4383
36.90960309738324 21.3634
36.933075062434064 21.377
36.95673202673572 21.3104
36.98020721697122 21.2154
37.003684015502365 21.1904
37.027162423645365 21.2266
37.050825886711465 21.1462
37.07430753063053 21.1475
37.09779078812467 21.121
37.121275660513014 21.1132
37.144945643673694 21.0715
37.16843376245278 20.9967
37.19192350009803 21.0889
37.215414857931435 20.976999999999997
37.239091382563885 20.8665
37.262585997426164 20.9196
37.28608223645736 20.8628
37.309763684451696 20.8159
37.33326318851098 20.8046
37.356764320726555 20.7381
37.380267082425526 20.7461
37.40395510942588 20.6972
37.42746114683234 20.6917
37.45096881771841 20.6235
37.474478123414166 20.6838
37.49817275092816 20.590999999999998
37.52168534303452 20.5675
37.54519957395567 20.4552
37.568715445024665 20.465999999999998
37.592416694607714 20.4814
37.61593586281424 20.4944
37.63945667518264 20.4394
37.66297913304891 20.3894
37.68668702630454 20.3666
37.710212792059274 20.3051
37.733740207334854 20.1882
37.757269273470364 20.2131
37.780983832050374 20.1952
37.80451621684926 20.1596
37.82805025654007 20.0859
37.851585952464795 20.0186
37.8753071980695 20.005
37.89884622345676 19.9794
37.92238690911902 19.9762
37.94611318753442 19.9352
37.969657210779765 19.873
37.99320289834801 19.8981
38.016750251586465 19.8718
38.04048325513017 19.8212
38.06403395679343 19.8901
38.087586328183946 19.7824
38.11114037065203 19.7096
38.13488012115898 19.7294
38.1584375229181 19.6743
38.181996599821 19.6345
38.205557353221124 19.634
38.229303872575656 19.5468
38.2528679961576 19.5052
38.27643380031219 19.4726
38.30000128639589 19.4185
38.32375459653193 19.4482
38.34732546371299 19.4242
38.37089801690786 19.3222
38.39447225747609 19.328
38.418232380377425 19.2639
38.441810012983396 19.2394
38.46538933705673 19.2521
38.488970353960084 19.1715
38.51273731166058 19.2105
38.536321731567014 19.1672
38.55990784840681 19.1668
38.58367995004091 19.1432
38.60726947812959 19.0669
38.63086070726198 19.1289
38.654453638806274 19.0017
38.678232613930824 19.0
38.70182896773327 18.9721
38.72542702806741 18.9509
38.7490267963045 18.9403
38.77281266709232 18.8532
38.79641586862214 18.82
38.8200207821842 18.7244
38.843627409152944 18.8306
38.86742019782782 18.7196
38.891030269149255 18.7194
38.914642058016156 18.6973
38.938255565806124 18.6221
38.96205529464307 18.6284
38.98567225787121 18.6524
39.00929094417078 18.5992
39.03291135492255 18.5653
39.05671804624804 18.5117
39.080341923549106 18.4755
39.103967529460334 18.4721
39.127594865365744 18.4559
39.15140854155791 18.3399
39.17503935514948 18.3405
39.19867190290282 18.3326
39.22249083587951 18.2934
39.24612686969409 18.3378
39.269764641845306 18.2751
39.293404153722804 18.2555
39.317230110864074 18.2077
39.34087311998506 18.1183
39.36451787301696 18.1032
39.388164371352595 18.1277
39.41199737518003 18.0823
39.43564738196752 18.0553
39.45929913825317 18.0487
39.48295264543308 17.9981
39.506792718520884 17.9455
39.530449745387216 17.95
39.55410852735203 17.9216
39.57776906581474 17.9304
39.60161623079 17.8664
39.625280300200025 17.8171
39.64894613032202 17.7567
39.67261372255866 17.7772
39.6964680021016 17.7378
39.72013913657293 17.7169
39.74381203738292 17.7017
39.76748670593756 17.6524
39.79134812278169 17.6813
39.81502634488497 17.6198
39.83870633896685 17.5932
39.862388106436654 17.5526
39.88625668336918 17.5138
39.90994201572829 17.5475
39.933629125719285 17.5418
39.957503091207826 17.4056
39.9811937746168 17.4418
40.00488623990914 17.3587
40.02858048850006 17.3198
40.05246165409549 17.3276
40.076159487492085 17.2465
40.099859108448875 17.2838
40.123560518384345 17.2214
40.1474489070226 17.2241
40.171153913178564 17.1747
40.194860712584955 17.1902
40.2185693066637 17.152
40.242464941335314 17.0696
40.26617714307655 17.0631
40.289891143772046 17.0302
40.3136069448471 16.982
40.33750984859743 17.039
40.3612292688043 17.0115
40.3849504936829 16.9202
40.40867352466194 16.9822
40.43258372059144 16.8693
40.45631038219906 16.875
40.48003885420956 16.8224
40.503769138055105 16.7446
40.52768664931955 16.8194
40.55142057531802 16.8012
40.57515631746428 16.7606
40.599079334038514 16.7458
40.62281872700477 16.6313
40.64655994043941 16.6019
40.67030297578061 16.5618
40.69423334835778 16.6033
40.71798004609188 16.554000000000002
40.74172857006355 16.5524
40.76547892171441 16.558
40.7894166736039 16.4772
40.813170699248566 16.5102
40.83692655691388 16.4646
40.86068424804498 16.4668
40.884629402612525 16.4491
40.908390779366385 16.3618
40.932153993938 16.4045
40.95591904777605 16.3288
40.979871628443995 16.346
41.003640379561936 16.3336
41.02741097430883 16.2493
41.05118341413683 16.2315
41.075143444384416 16.1927
41.098919593177826 16.2295
41.1226975914255 16.1483
41.14647744058318 16.1058
41.170444943946755 16.0749
41.19422851378379 16.0728
41.218013938914645 16.0037
41.24198706625173 15.9901
41.26577622087193 15.9558
41.289567235177785 15.9844
41.31336011063129 15.9445
41.337340752422875 15.8799
41.361137369129835 15.8549
41.38493585138705 15.832
41.40873620066004 15.7738
41.43272438060107 15.7361
41.45652848292052 15.7246
41.48033445666918 15.6421
41.50414230331616 15.687000000000001
41.528138045159764 15.6753
41.551949656675205 15.6064
41.575763145513235 15.6224
41.59957851314666 15.5752
41.62358184070442 15.5536
41.64740098505737 15.5087
41.6712220126409 15.4794
41.69504492493139 15.4318
41.71905586207357 15.3572
41.74288256296395 15.4414
41.766711153007456 15.4222
41.79054163368412 15.3661
41.814560204340054 15.3589
41.838394485526365 15.3423
41.86223066180303 15.2862
41.88625497706819 15.2587
41.910094962812 15.2459
41.93393684811168 15.2473
41.95778063445365 15.1716
41.981812625263366 15.1787
42.00566023303407 15.1517
42.029509746323676 15.1381
42.05336116662236 15.1231
42.077400857069705 15.1506
42.10125611078846 15.0805
42.12511327600405 14.9976
42.14897235421036 14.9946
42.173019768448455 14.9936
42.19688269209613 14.9552
42.22074753323349 14.9745
42.24461429335818 14.8852
42.268669455600495 14.901
42.292540073217886 14.8728
42.31641261433284 14.8486
42.34028708044675 14.795
42.36435001496739 14.8519
42.38822835065557 14.8332
42.41210861586426 14.7232
42.4359908120986 14.7229
42.46006154323262 14.6775
42.48394762115317 14.6472
42.507835634632315 14.5798
42.531912233047436 14.6477
42.55580413732265 14.5813
42.579697981698 14.5468
42.60359376768525 14.4984
42.62767820545945 14.5141
42.65157789440821 14.5076
42.67547952952185 14.4793
42.699383112316 14.4542
42.72347541395347 14.398
42.74738291190531 14.3808
42.771292362102166 14.3892
42.795203766063516 14.349
42.819303956130405 14.3176
42.843219287476536 14.3052
42.86713657716324 14.2335
42.89105582671383 14.2249
42.91516392983864 14.2143
42.939087119032166 14.2052
42.963012272677304 14.184000000000001
42.98693939230129 14.1487
43.01105543317513 14.1427
43.034986504731386 14.0671
43.05891954686589 14.0417
43.08285456110972 14.0597
43.10697856448665 14.0414
43.130917542983475 13.9863
43.15485849820081 13.9935
43.17880143167367 13.9199
43.20293342237094 13.9399
43.226880332449 13.9102
43.25082922540554 13.8719
43.27496722682525 13.876
43.29892010567796 13.859000000000002
43.32287497204102 13.8096
43.34683182745632 13.7539
43.370977859791836 13.7835
43.39493871351105 13.7132
43.41890156092628 13.7557
43.44286640358341 13.686
43.46702049182749 13.703
43.49098934522816 13.6221
43.51496019852649 13.6027
43.5389330532723 13.5841
43.56309522248204 13.5542
43.58707210044314 13.5473
43.61105098451946 13.5274
43.63503187626491 13.4171
43.659202151562134 13.4039
43.68318707902681 13.4443
43.70717401884041 13.4334
43.731162972560874 13.4352
43.75534137913236 13.356
43.779334381108384 13.3414
43.803329401683186 13.3468
43.82732644241872 13.3664
43.8515130055166 13.3365
43.87551410707659 13.2904
43.89951723350145 13.2168
43.923709934595614 13.2076
43.94771713129917 13.2141
43.97172635758096 13.1936
43.99573761501002 13.1291
44.0199385169922 13.1214
44.04395385732619 13.1197
44.067971233533086 13.104000000000001
44.09199064718605 13.1021
44.11619977548961 13.0647
44.14022328470671 13.0235
44.16424883610785 13.0317
44.18827643127035 13.0339
44.21249381139513 12.9815
44.236525514814076 12.8852
44.26055926674478 12.9056
44.28459506876863 12.9253
44.3088207262813 12.842
44.33286064928722 12.8307
44.35690262714919 12.8001
44.38094666145278 12.7911
44.4051806219871 12.7859
44.42922879003185 12.765999999999998
44.45327901929361 12.7242
44.477331311362136 12.6849
44.501573600619416 12.6975
44.525630039221795 12.6766
44.54968854541895 12.6386
44.573937102200176 12.6154
44.5979997645541 12.6078
44.622064499300315 12.5874
44.64613130803592 12.5762
44.67038823869318 12.5735
44.69445921643748 12.5201
44.718532272981385 12.4961
44.742607409926194 12.4634
44.76687274034801 12.4435
44.79095205918753 12.4045
44.81503346325094 12.3796
44.839116954143876 12.3713
44.86339071028742 12.3611
44.88747839599524 12.3149
44.91156817336837 12.2681
44.93566004401666 12.3476
44.959942251908146 12.3238
44.984038330325966 12.2308
45.00813650686762 12.2091
45.03223678314731 12.2065
45.05652746888232 12.1944
45.08063196592069 12.1879
45.104738567558705 12.1258
45.128847275414856 12.1222
45.15314646515866 12.0378
45.17725940679741 12.0655
45.20137445952892 12.0623
45.22568004865265 12.047
45.24979934496396 11.9913
45.27392075725247 11.9695
45.29804428714431 11.9578
45.322358426247604 11.943
45.346486212804315 11.9263
45.370616121861914 11.9093
45.39474815505086 11.952
45.41907087049246 11.8618
45.4432071734666 11.8179
45.46734560548283 11.8346
45.49148616817604 11.7876
45.51581748638564 11.7395
45.5399623320197 11.7545
45.56410931325473 11.7312
45.58825843173002 11.7106
45.61259837920865 11.6649
45.636751793816 11.667
45.66090735060093 11.6143
45.68506505120716 11.6166
45.7094136545275 11.6226
45.73357566449271 11.613
45.75773982322992 11.5814
45.78190613238733 11.593
45.806263418194064 11.5094
45.83043404997326 11.532
45.85460683713677 11.5363
45.87897065658495 11.4843
45.90314777634752 11.4619
45.92732705646868 11.4084
45.9515084986045 11.3845
45.97588104735473 11.3798
46.00006683541565 11.3812
46.02425479047904 11.3753
46.04844491420549 11.3167
46.0728262191024 11.3232
46.09702070211635 11.3078
46.12121735879483 11.319
46.14541619080294 11.2854
46.169806278764455 11.2288
46.194009483459034 11.2415
46.21821486849841 11.1297
46.24242243555223 11.1408
46.266821333570014 11.1325
46.29103328674601 11.1374
46.31524742696538 11.1
46.33946375590237 11.0359
46.36387149104216 11.0318
46.38809221957392 11.0498
46.41231514186606 11.0525
46.436540259597464 11.0096
46.460956858999374 10.9905
46.48518638983522 10.9973
46.509418121166966 10.9783
46.533652054678114 10.9499
46.55807754555709 10.9041
46.58231590571962 10.9373
46.60655647313217 10.8773
46.630988654873654 10.8876
46.655233659129024 10.8579
46.67948087571551 10.8131
46.70373030632484 10.788
46.72817142736393 10.7654
46.752425308428684 10.7767
46.77668140861147 10.7563
46.80093972960865 10.7041
46.82538981736788 10.6704
46.849652602470904 10.6531
46.87391761349769 10.6229
46.8981848521493 10.6444
46.9226439341274 10.6278
46.946915650573224 10.5784
46.97118959976749 10.5649
46.99546578341598 10.5166
47.019933887188216 10.5057
47.04421456235744 10.5033
47.06849747711879 10.4912
47.09278263318286 10.4836
47.11725978640143 10.4554
47.14154944775105 10.4027
47.165841355555656 10.4183
47.1901355115306 10.3544
47.214621741924994 10.3718
47.23892041698887 10.3418
47.26322134538975 10.3369
47.28771440635075 10.3425
47.31201986422527 10.2958
47.33632758061436 10.265
47.360637557241866 10.2381
47.38513974410611 10.2041
47.40945426407847 10.2402
47.43377104948137 10.2309
47.45809010204344 10.183
47.48260144275502 10.1354
47.506925052572285 10.1353
47.53125093475548 10.1048
47.55557909103813 10.0995
47.58009961361992 10.0969
47.60443234110732 10.0579
47.62876734791564 10.0487
47.65310463578333 10.0642
47.6776343683373 10.0138
47.7019762413987 9.98915
47.72632040075572 9.96722
47.75066684815169 9.93394
47.77520581885936 9.903889999999999
47.799556865477655 9.88452
47.823910205386 9.91075
47.84826584033272 9.90783
47.87281407745551 9.85223
47.89717432569297 9.83774
47.92153687423484 9.8351
47.94609208429692 9.84125
47.97045925671401 9.790230000000001
47.99482873471275 9.7684
48.01920052005013 9.74801
48.04376504619224 9.73179
48.068141469543484 9.756860000000001
48.09252020552573 9.72841
48.11690125590099 9.68993
48.1414751266064 9.66385
48.16586082917454 9.6908
48.19024885144316 9.60999
48.2146391951793 9.61284
48.239222439012764 9.585469999999999
48.26361744916137 9.57527
48.28801478610016 9.56889
48.31241445160131 9.55395
48.337007097209366 9.52857
48.36141144338331 9.52195
48.38581812345755 9.48819
48.41022713920929 9.46831
48.434829215320704 9.45086
48.45924292604658 9.45187
48.48365897780325 9.44856
48.50807737237308 9.40399
48.532688907799276 9.39582
48.55711201168574 9.384269999999999
48.581537463754074 9.34888
48.60615611725119 9.33039
48.63058628942721 9.34003
48.65501881516546 9.32892
48.6794536962573 9.29535
48.70408185970339 9.31278
48.72852147531801 9.31521
48.75296345168211 9.23853
48.77740779059232 9.23471
48.80204549302823 9.23683
48.82649458091802 9.21261
48.85094603676547 9.163260000000001
48.87539986237231 9.143510000000001
48.90004713292306 9.154010000000001
48.92450572200832 9.146239999999999
48.94896668628025 9.118030000000001
48.97343002754588 9.10942
48.99808689542115 9.085360000000001
49.02255501470614 9.1127
49.04702551642794 9.06731
49.0714984023988 9.00651
49.096164896893235 9.0375
49.120642575466796 8.990110000000001
49.145122643748394 8.95708
49.16960510355558 8.94245
49.19428125404938 8.93576
49.2187685210852 8.89989
49.243258185121555 8.89128
49.26794160167084 8.91138
49.2924360839405 8.85098
49.31693296869764 8.85379
49.34143225776915 8.85865
49.36612538195438 8.80821
49.39062950396021 8.79318
49.41513603578346 8.79678
49.4396449792564 8.77484
49.46434784069503 8.73363
49.488861631846454 8.74152
49.513377840166804 8.704130000000001
49.537896467493745 8.67339
49.56260909589029 8.65944
49.587132585683285 8.68632
49.611658500018365 8.66452
49.636186840738596 8.62905
49.66090926588511 8.65006
49.685442483902584 8.59653
49.70997813385706 8.56225
49.734516217597076 8.53844
49.75924846937352 8.56628
49.7837914452858 8.539480000000001
49.80833686055187 8.49447
49.83288471702571 8.48357
49.85762682540054 8.48639
49.882179588965734 8.479239999999999
49.9067347993235 8.46803
49.93129245833333 8.44435
49.95604445336378 8.41475
49.98060703442832 8.388630000000001
50.005172069746266 8.418660000000001
50.02993150438364 8.35935
50.05450147301533 8.370619999999999
50.07907390151433 8.31184
50.10364879174981 8.33588
50.12841816587289 8.29557
50.1529980044635 8.265039999999999
50.17758031042124 8.29167
50.20216508562089 8.27206
50.22694442953363 8.2534
50.25153416817468 8.202060000000001
50.27612638170508 8.21975
50.300721072005196 8.17227
50.325510416102105 8.1718
50.350110084975064 8.18219
50.37471223628208 8.136280000000001
50.39931687190919 8.10143
50.424116246675766 8.09735
50.44872587605249 8.12325
50.47333799543065 8.13592
50.49795260670191 8.08051
50.52276204271512 8.05833
50.54738166295838 8.042710000000001
50.57200378079314 8.05495
50.596628398116835 8.00464
50.62144792604559 7.9805
50.646077567609396 8.00009
50.670709714377715 7.981789999999999
50.69553683636198 7.97047
50.72017401885922 7.9440100000000005
50.7448137122895 7.912489999999999
50.76945591856022 7.89617
50.79429318636823 7.88037
50.818940443716784 7.860060000000001
50.84359021965163 7.82777
50.868242516085964 7.850569999999999
50.893089960641895 7.7911399999999995
50.917747323549435 7.790310000000001
50.94240721271973 7.80576
50.96706963007175 7.77376
50.99192728239342 7.7603800000000005
51.01659478166073 7.73579
51.04126481489051 7.7110899999999996
51.06593738400761 7.73451
51.090805275207074 7.68571
51.11548294172845 7.67325
51.14016314993547 7.66315
51.164845901758845 7.6818800000000005
51.18972406304274 7.637919999999999
51.21441192780656 7.618689999999999
51.23910234200271 7.63668
51.2637953075678 7.6292
51.288683770237945 7.59952
51.31338186432707 7.53875
51.33808251561888 7.511589999999999
51.362978729967345 7.516489999999999
51.387684521509755 7.533710000000001
51.41239287610203 7.51163
51.437103795691165 7.48924
51.46201036644977 7.44159
51.486726441956634 7.4686699999999995
51.51144508832545 7.4577
51.536166307509156 7.44155
51.56108326624387 7.3890199999999995
51.58580965706056 7.3971
51.61053862657523 7.409889999999999
51.635270176746864 7.376589999999999
51.66019755512065 7.36981
51.68493429268881 7.32565
51.70967361681515 7.29925
51.73441552946465 7.32268
51.759353359237934 7.29215
51.7841004750961 7.27543
51.80885018539685 7.25529
51.833602492111254 7.2331199999999995
51.8585508051424 7.224
51.883308330926425 7.21305
51.90806845906181 7.21364
51.932831191525715 7.170560000000001
51.95779001977161 7.1233699999999995
51.98255798721516 7.121580000000001
52.00732856494335 7.09395
52.03229530577543 7.109
52.057071130455945 7.104
52.081849571391054 7.10898
52.106630630568695 7.0916
52.13160794279417 7.08183
52.15639426492067 7.05583
52.18118321127822 7.06775
52.205974783860896 7.0226
52.23096269971011 6.971660000000001
52.255759551287994 6.974489999999999
52.280559035098186 6.96702
52.30536115314103 6.9426
52.33035970494467 6.94843
52.35516711807904 6.94107
52.37997717147198 6.93665
52.40478986713005 6.93642
52.42979908731974 6.89902
52.454617094216 6.91355
52.47943774942214 6.8510800000000005
52.50426105495102 6.832669999999999
52.529280976059844 6.78021
52.554109609024096 6.82655
52.57894089837482 6.81837
52.60377484613117 6.81902
52.62880550079408 6.8094
52.65364479223379 6.79135
52.67848674816189 6.74707
52.70352547971946 6.72647
52.72837279155837 6.7511600000000005
52.753222773982785 6.697610000000001
52.778075429022984 6.686489999999999
52.80312495150885 6.69251
52.827982978797436 6.685739999999999
52.85284368481815 6.63985
52.87770707160767 6.618410000000001
52.90276741793998 6.619610000000001
52.92763619336701 6.6010100000000005
52.952507655698504 6.60875
52.977381806977576 6.59916
53.00245301017842 6.604610000000001
53.02733256653592 6.61119
53.052214817996074 6.54925
53.077099766608484 6.5385800000000005
53.102181859804446 6.52184
53.127072229988265 6.54143
53.15196530349892 6.52188
53.17686108239249 6.47982
53.20195409881522 6.48855
53.22685531582556 6.466069999999999
53.25175924441303 6.38725
53.27666588664027 6.43243
53.30176985962693 6.43232
53.3266819565689 6.40551
53.35159677336455 6.40206
53.376514312083096 6.3697099999999995
53.40162927507703 6.36331
53.42655228516116 6.35352
53.45147802340193 6.32573
53.47660125628886 6.3326199999999995
53.50153247842639 6.272480000000001
53.52646643496923 6.27306
53.55140312799818 6.25379
53.576537409691696 6.28174
53.60147960336152 6.25515
53.626424539786164 6.226369999999999
53.65137222105307 6.20308
53.67651758529126 6.22586
53.70147078399681 6.18279
53.72642673383343 6.20377
53.75138543689533 6.19489
53.776541917524526 6.15984
53.801506154876755 6.13802
53.826473151763246 6.13564
53.851442910284916 6.08816
53.87661054126026 6.07601
53.9015858509782 6.09304
53.92656392866066 6.05269
53.95154477641532 6.04723
53.976723591801296 6.045640000000001
54.00171000771266 6.00905
54.02669920004598 6.020580000000001
54.051691170915745 6.02796
54.076881204886796 6.00592
54.101878760928514 5.97881
54.12687910187696 5.90434
54.152077577768296 5.89741
54.1770835166946 5.90487
54.20209224691339 5.88198
54.22710377055121 5.91633
54.25231352511594 5.9112
54.27733066384342 5.82104
54.30235060239643 5.86034
54.32737334290836 5.8368400000000005
54.35259441062629 5.82463
54.377622783395324 5.7834900000000005
54.40265396455061 5.78864
54.42768795623251 5.82063
54.45292037169559 5.79922
54.477960012857906 5.76691
54.50300247099511 5.73501
54.52804774825457 5.6807300000000005
54.55329154616743 5.67333
54.57834249018678 5.65943
54.6033962597977 5.61027
54.6284528571545 5.65287
54.653708072335164 5.60254
54.67877035378786 5.6216099999999996
54.70383546947698 5.58024
54.72890342156389 5.54669
54.7541700889442 5.48951
54.77924374251975 5.52914
54.8043202390049 5.47653
54.82959552413022 5.43199
54.8546777351945 5.4389
54.87976279569621 5.4366900000000005
54.90485070780914 5.413930000000001
54.930137506558005 5.403630000000001
54.95523115074295 5.41641
54.98032765308844 5.33403
55.005427015775496 5.33122
55.03072536339621 5.36037
55.05583047570572 5.286230000000001
55.080938454927676 5.2527099999999995
55.10604930325027 5.26715
55.131359235107396 5.27174
55.15647585066083 5.24046
55.181595341907496 5.17175
55.20671771104285 5.12207
55.232039262617704 5.10722
55.25716741665048 5.08982
55.28229845518636 5.08172
55.30743238042802 5.08438
55.33276558731939 5.0921
55.357905315183636 5.05314
55.383047936390035 4.99196
55.40819345314859 5.01397
55.433538351073295 4.98228
55.458689688238415 4.95142
55.483843927614096 4.87973
55.509197623043605 4.87195
55.53435769621134 4.90879
55.55952067826466 4.8566400000000005
55.5846865714265 4.806430000000001
55.61005202069737 4.82343
55.63522376553902 4.8320300000000005
55.66039842818645 4.77033
55.68557601087004 4.79214
55.7109532500271 4.73607
55.73613670233794 4.76271
