TT I
1.2716486653135266 7.38167
1.2939594142134223 7.409789999999999
1.3162702121660406 6.748189999999999
1.3385810600174564 6.91701
1.3608919586137629 6.86108
1.383202908801069 6.4595199999999995
1.405513911425503 5.90497
1.4278249673332093 6.72354
1.4501343378461518 6.66639
1.4724455028545926 6.05854
1.4947567236847858 5.6740699999999995
1.517068001182951 6.131819999999999
1.5393793361953272 6.2217
1.5616907295681737 5.82031
1.5840021821477681 5.58369
1.60631369478041 5.64393
1.6286252683124185 5.07229
1.6509369035901333 5.44395
1.6732468618895553 5.252669999999999
1.695558623192809 4.829940000000001
1.7178704487808514 5.07714
1.7401823395001077 5.02853
1.7625012545597203 4.92745
1.7848028405262486 4.61484
1.8071218901122095 4.6700800000000005
1.8294236121921872 4.639469999999999
1.8517427996910911 5.09005
1.8740620574440425 4.937469999999999
1.8963639900671978 5.03141
1.9186833908139995 4.63645
1.9409854680117449 5.02318
1.9633050151394713 4.94042
1.9856246367570705 4.85026
2.0079269371922672 4.7583
2.03024671027244 5.05805
2.0525491637446027 4.51815
2.074869091674931 4.15566
2.097171701569106 4.22112
2.1194917877373847 4.53737
2.141811954326636 4.48245
2.164114805233074 4.76843
2.186435135143035 5.64841
2.208738150935709 9.77303
2.231058647554722 16.8292
2.2533792288321184 13.4777
2.275682498336085 7.43677
2.298003251406138 5.32289
2.3203066942619714 4.9486
2.3426276225136022 5.1179
2.3649486396617507 5.35861
2.387252348930071 5.38564
2.4095735463442893 5.2228900000000005
2.4318774374315884 4.9227
2.4541988185014043 5.79708
2.476502894794693 6.35144
2.498824462909887 5.62512
2.521146125856138 5.95518
2.5434504863470337 5.72626
2.5657723414244717 6.24472
2.588076895590662 7.575139999999999
2.610398946189713 7.43038
2.6327210958598384 7.263510000000001
2.6550259469304716 6.808910000000001
2.6773482972090137 7.5388
2.6996533504259 6.97208
2.7219759047039602 7.354310000000001
2.744298562293959 7.3925399999999994
2.7666039251246595 7.259180000000001
2.7889267918020164 7.33908
2.8112323652516555 7.48795
2.833555444408179 7.512810000000001
2.8558786311183852 8.37607
2.8781845268938557 8.5038
2.9005079311721484 8.68344
2.9228140460410397 8.53329
2.9451376712799635 9.17998
2.967444008632326 9.530289999999999
2.9897678582247247 9.57475
3.0120918213106695 10.3426
3.0343984987899373 10.8614
3.0567226913198637 10.9307
3.079029599759726 11.782
3.101354025127254 12.0196
3.123678568232338 12.6965
3.145985829517914 12.4745
3.16831061055229 13.5148
3.1906181112775593 14.0453
3.212943133635653 14.4714
3.2352682779763207 14.7647
3.2575761442691227 15.4814
3.2799015350264273 15.8817
3.302209649240067 16.0808
3.3245352898092655 17.124000000000002
3.3468436553365257 17.468
3.369169549113219 17.9928
3.3914955708171384 18.8111
3.413804319727358 19.1221
3.4361305997334863 19.4958
3.4584396084414553 19.531
3.4807661501462652 20.3319
3.503092824025881 20.8406
3.5254022288463154 21.0869
3.5477291695206588 21.6576
3.5700388426251948 22.4995
3.5923660534916446 23.6112
3.6146934007816114 31.855
3.637003482731501 59.2749
3.6593311053109985 64.2768
3.681641464033634 41.7538
3.7039693653009733 28.1541
3.726297407241705 25.8954
3.7486081875460804 25.8498
3.7709365132734978 26.5139
3.793247578841633 26.9603
3.8155761917550093 26.9927
3.8378875459837216 27.4855
3.8602164494827234 27.6987
3.882545499606844 28.4283
3.9048572932539183 29.4112
3.9271866390645718 29.5721
3.9494987298666713 30.1066
3.971828374764527 30.8797
3.9941581705403255 31.1312
4.016470713506008 31.9396
4.038800813471445 32.9742
4.061113662089144 33.3658
4.0834440696459176 34.0674
4.105774632334751 34.0745
4.128087945865126 35.2016
4.150418821249301 35.9819
4.172732448931298 36.9583
4.195063640413578 38.4307
4.2173775856475215 41.4886
4.239709096631102 59.8713
4.262040768704612 149.31799999999998
4.284355196706267 190.94099999999997
4.306687193387355 131.131
4.329001947444346 64.1417
4.35133427213731 46.8411
4.373666762177566 44.9761
4.395982011761091 45.1418
4.418314834921175 46.0862
4.44063041906622 50.5207
4.4629635787515625 57.2735
4.4852969080429785 57.5874
4.5076130004776225 53.2476
4.529946671403969 52.8312
4.552263106909177 52.8014
4.574597122877047 53.0837
4.596931312711224 54.3099
4.619248269273446 54.9195
4.6415828092605835 55.4695
4.663900117405352 56.9683
4.686235010953232 59.0213
4.708552674085913 59.9252
4.730887924602802 61.2174
4.753223354952695 62.9613
4.775541557023902 64.2921
4.797877349456786 66.4774
4.820195915032126 68.4115
4.842532072957498 69.5234
4.864868414979744 72.1229
4.88718753227192 74.2133
4.909524244902505 76.7982
4.931843734218147 78.3694
4.954180820867835 80.9168
4.976518095879839 84.635
4.998838149695359 87.7915
5.021175803844231 91.727
5.043496238205739 95.8329
5.065834274903528 101.007
5.088172504230693 106.65100000000001
5.1104935158799565 115.82700000000001
5.132832132875765 136.424
5.155153533596801 174.035
5.1774925416746225 242.762
5.199814334878411 603.851
5.2221537374521505 1615.76
5.244493338631803 3672.57
5.266815727034316 7505.22
5.289155727832427 11415.7
5.311478517248165 8856.06
5.333818921080011 3455.21
5.356159527788849 744.193
5.3784829252032536 222.58
5.400823940070432 161.333
5.423147747031976 138.97299999999998
5.445489173474152 127.214
5.467830807066149 121.369
5.490155234831516 116.351
5.512497285125229 111.256
5.534822130975162 108.66
5.557164601388673 106.632
5.579489868738879 103.205
5.601832762690846 102.12799999999999
5.6241758697774475 101.178
5.646501775867269 100.12100000000001
5.668845311622074 99.02
5.691171647754637 98.7348
5.713515615597765 97.1009
5.735859800852677 96.4556
5.758186788542988 96.5349
5.780531411018185 97.5377
5.802858837297399 96.385
5.825203900414495 96.9231
5.8475491852224 97.9747
5.869877275883075 98.8313
5.892223006467101 99.6093
5.914551544266608 101.671
5.936897724049891 106.318
5.959244129804903 116.449
5.981573344815301 157.171
6.0039202049061 322.561
6.026249875609095 674.306
6.04859719346037 1271.96
6.070927323278297 2324.92
6.093275102315365 4008.79
6.115623113320588 4805.96
6.137953938319995 3398.59
6.160302415650845 1159.32
6.182633708324452 285.064
6.2049826554078376 128.011
6.227331838745022 99.8366
6.249663839443684 89.8082
6.27201349767565 86.0909
6.294345974611799 87.3072
6.316696111167083 91.9108
6.339046488263839 87.9074
6.361379686074702 78.0317
6.383730546639482 73.3347
6.406064229255215 71.2387
6.428415576718203 70.7942
6.450749747566656 69.3982
6.47310158535871 67.9008
6.495453669698332 66.9438
6.517788579421056 66.2775
6.540141159237969 65.4761
6.562476565766648 64.4054
6.5848296444934045 64.2047
6.607182974060425 63.8806
6.6295191323281015 63.6891
6.651872965955752 65.1789
6.6742096296068985 78.5338
6.6965639707294615 103.885
6.71891856698715 104.33
6.741255995248479 80.0566
6.763611104154477 65.2831
6.785949046381137 60.809
6.808304671371482 59.7244
6.8306605557940046 59.5857
6.852999275508618 58.9982
6.875355681171544 58.3696
6.897694923437771 57.7771
6.92005185377892 57.6714
6.9423916220322655 57.407
6.964749080490181 56.8208
6.987106804399774 56.7701
7.009447368180821 56.8357
7.031805625367033 56.3094
7.054146723727803 56.3224
7.076505517631004 56.3282
7.098864581288365 55.9817
7.121206488070854 56.0849
7.143566093607822 55.8892
7.165908543567245 56.5934
7.188268694426048 56.2376
7.2106291193438095 56.1031
7.232972390625943 56.9127
7.255333366030969 63.4989
7.277677189091925 91.90700000000001
7.300038718428332 119.45700000000001
7.322400526130865 105.904
7.344745183422596 74.8795
7.367107550224791 59.7572
7.389452767901992 56.492
7.411815697249891 56.243
7.434161478756298 55.6684
7.456524974096713 55.4507
7.478888753837185 55.1521
7.501235387657368 55.9098
7.523599738562711 55.3358
7.545946944825532 55.894
7.568311870344528 56.6612
7.5906770845765665 56.4351
7.613025156078678 57.1124
7.635390950099687 57.8252
7.657739602662809 57.593
7.680105979923558 56.8176
7.702472650212829 57.3265
7.724822180948224 57.2104
7.747189439655568 57.3079
7.769539560075357 57.4118
7.791907410653562 57.8871
7.81425812420825 58.174
7.836626570110925 58.4431
7.858995315087906 59.4833
7.881346924933401 59.3167
7.903716270417482 59.7631
7.926068482028405 60.0522
7.948438431475253 60.8666
7.9708086843180235 61.4298
7.993161805171116 62.0399
8.015532667162402 62.4412
8.037886398416653 63.6057
8.060257873014221 63.918
8.082629655331942 64.8248
8.104984308787587 65.5069
8.127356708900503 68.0227
8.149711981398308 72.0259
8.172085002766314 73.5248
8.194458336181368 71.8571
8.216814543847752 70.9036
8.23918850371002 71.5449
8.26154533906492 72.4328
8.283919928836452 74.0264
8.306277395339652 75.2452
8.328652618483376 76.7567
8.351028159736202 79.2838
8.373386579575245 81.7933
8.395762759396959 83.7269
8.418121819038275 88.0183
8.440498640894003 97.9323
8.462875785192262 112.51799999999999
8.485235811156207 145.819
8.507613602688501 224.263
8.529974277114228 344.42900000000003
8.552352719347912 499.98900000000003
8.574731488360351 757.0319999999999
8.59709314210385 1184.34
8.619472567021075 1704.79
8.64183487789147 2103.03
8.664214962183097 1849.97
8.686577933647762 1053.01
8.708958680784317 422.42199999999997
8.731339760774953 181.976
8.753703729764451 118.955
8.77608547780821 104.43799999999999
8.798450116065078 99.9417
8.820832535634787 96.3424
8.843215292401656 94.5265
8.865580941199045 92.9021
8.887964374703538 91.7321
8.910330701447199 92.0129
8.932714815164482 92.6021
8.955099270424924 91.1503
8.977466620733543 88.9593
8.999851761421976 87.51
9.022219798361645 86.0322
9.04460562795561 85.7618
9.066991803441677 85.6044
9.089360876979615 85.6994
9.111747746589993 85.1449
9.13411751544971 84.75399999999999
9.156505082664324 84.3238
9.178875550323522 84.3769
9.20126381862328 84.5687
9.223652438908596 84.8476
9.246023961427412 84.88799999999999
9.26841328802173 84.5926
9.290785518039224 84.5969
9.313175554425882 85.8166
9.335565947154315 86.0057
9.357939245086508 85.964
9.380330352834827 85.5933
9.40270436697103 85.9292
9.425096193225055 85.7033
9.447488380180165 86.5683
9.469863475295412 87.1076
9.492256385987508 87.1299
9.514632206018318 87.9497
9.537025843935714 87.9057
9.559402392368193 88.9354
9.581796761000229 90.2635
9.604191496441521 91.7499
9.626569144158516 94.0881
9.648964615551032 96.6295
9.671343000390081 97.1118
9.693739211225699 96.6957
9.716135793237463 96.2384
9.738515290448102 96.156
9.760912617143402 97.4965
9.783292860202891 98.9884
9.805690935076182 100.29700000000001
9.828089385495742 101.042
9.850470754023561 103.727
9.872869957865444 108.676
9.89525208097539 118.66
9.917652041736662 128.185
9.940052382417589 137.954
9.962435644102392 171.544
9.984836746950979 235.49900000000002
10.007220771957746 321.072
10.029622640473708 440.281
10.052007432299963 617.452
10.074410069984072 868.824
10.096813093716005 1219.37
10.119199042482517 1588.27
10.141602840636468 1863.91
10.163989564971628 1645.21
10.186394141051062 1009.66
10.208799107559706 467.30300000000005
10.231187001965623 210.248
10.253592751657669 135.07299999999998
10.275981430388155 118.055
10.298387966769793 114.97
10.320794897965431 115.53
10.343184759907361 114.21600000000001
10.36559248305461 110.602
10.387983138083852 109.594
10.410391656691655 119.24700000000001
10.432800574501677 136.733
10.455192425893369 157.977
10.47760214443012 187.77900000000002
10.499994797678786 231.972
10.522405320453982 298.243
10.54479877906917 384.671
10.567210109595656 485.819
10.5896218454736 541.5980000000001
10.612016518879773 516.401
10.634429067781074 369.592
10.656824555333241 214.40200000000002
10.679237920773568 130.235
10.701651695961992 99.8576
10.724048411481384 92.5522
10.746463008485165 89.3574
10.768860546937125 87.4263
10.791275969274796 85.8653
10.81369180576079 84.6414
10.836090585366925 83.7845
10.858507252467449 82.2749
10.88090686379991 80.9448
10.903324365036394 80.2915
10.925724811614439 79.5427
10.948143150509463 80.3669
10.970561909719066 79.5426
10.992963615930844 78.1124
11.015383218085756 76.3495
11.037785768347074 75.2091
11.06020621697282 74.638
11.082627090322113 74.0453
11.105030913430326 73.6466
11.12745263854165 73.5728
11.149857314510728 74.7534
11.172279894912576 78.061
11.194702904450653 77.9766
11.217108866490921 75.6823
11.239532736615194 73.0948
11.26193956033512 71.8548
11.284364294577085 70.74600000000001
11.306789462371718 69.6539
11.329197585398376 68.6464
11.351623622610898 68.5634
11.37403261614354 67.9209
11.396459526308487 67.89
11.418869393879497 67.1084
11.441297180532617 66.8075
11.463725406927658 66.5125
11.486136592353875 66.4538
11.508565700543707 66.5181
11.530977768845315 67.6318
11.553407762368774 67.9181
11.575838200059769 67.536
11.598251599479612 66.1559
11.620682927815501 65.2778
11.64309721895548 65.0892
11.665529441478206 64.7029
11.687962112597958 64.4233
11.710377748130886 64.5514
11.732811318753434 64.4608
11.755227854859067 64.4997
11.777662328529495 64.1019
11.800079768750786 64.1527
11.822515149015453 64.1483
11.844950984084935 64.5418
11.867369787303163 64.0373
11.889806534289491 64.0632
11.912226250487029 64.533
11.934663912939751 64.7014
11.9571020346363 64.889
11.979523127133968 65.0591
12.001962169624331 66.3589
12.024384183972964 68.7918
12.046824150809913 73.524
12.069264581333726 80.1577
12.091687985297767 86.8518
12.11412934550045 96.2932
12.136553680195208 110.054
12.158995973632788 128.50799999999998
12.181438735204349 150.107
12.20386447284199 174.53799999999998
12.226308172985636 199.313
12.24873485024193 201.02900000000002
12.271179492516982 172.47299999999998
12.293607112949127 133.659
12.316052700916226 96.8518
12.338498763250042 78.154
12.360927805303868 70.0408
12.383374818673879 67.3785
12.405804812803074 65.9991
12.428252780773262 65.8274
12.45070122756722 65.9365
12.473132656675375 65.98899999999999
12.49558206341869 66.2273
12.518014453510101 66.1165
12.540464823770117 66.4513
12.562915677315177 66.5523
12.58534951575545 66.9539
12.607801338171472 68.0904
12.630236146511358 71.0422
12.652688941369085 73.5603
12.675124723177234 74.4724
12.697578494048786 72.6832
12.720032754458185 70.35600000000001
12.742470003354093 69.3643
12.764925245138771 69.4878
12.787363476431278 70.0824
12.809819703166806 70.3773
12.83227642391173 70.936
12.854716135692716 71.8409
12.877173846755147 72.8489
12.899614549869717 73.1474
12.9220732548287 74.0622
12.94453245827299 74.6165
12.966974655289818 75.8116
12.989434858002571 76.5628
13.011878055298721 77.3864
13.034339260862497 78.4332
13.056800969391883 79.9396
13.079245674017244 83.0396
13.101708390774869 87.9409
13.12415410463411 99.4786
13.146617833206086 113.689
13.169064559883248 127.87899999999999
13.191529303857127 144.714
13.213994557076367 168.243
13.236442809902437 202.34400000000002
13.258909083908291 246.472
13.28135835851934 294.643
13.30382565690295 351.39599999999996
13.326293469022952 400.44199999999995
13.348744283242008 420.505
13.371213125129904 370.6
13.39366497011003 278.23
13.416134845360597 186.285
13.438605238843131 132.828
13.46105863690397 116.12700000000001
13.483530069144786 117.95
13.505984506951902 125.177
13.528456981549432 136.716
13.550929978879088 152.053
13.573385983253365 174.22400000000002
13.595860028340867 205.44400000000002
13.618317081455832 244.27700000000002
13.64079217790333 287.585
13.663250283359057 334.24800000000005
13.685726434770173 360.348
13.708203115221277 347.173
13.730662806148091 277.54400000000004
13.75314054697177 200.546
13.775601299246777 135.44299999999998
13.798080104050406 102.051
13.820559442405358 88.4054
13.843021793671388 84.2731
13.865502201420897 82.4806
13.887965623051947 81.8788
13.910447103807167 80.809
13.932929122629764 79.4951
13.955394156785959 78.8507
13.977877254034569 77.8718
14.000343367582113 77.0937
14.022827546871707 76.442
14.045294743423524 75.8102
14.06778000837062 75.1232
14.090265817715476 74.9843
14.112734645763819 74.7701
14.13522154619454 74.4119
14.157691466286913 74.0611
14.180179461423874 73.9007
14.202668005486178 73.2117
14.22513957064374 72.6989
14.247629214846473 72.391
14.270101881097517 72.2779
14.29259262906496 72.387
14.315083930490205 72.6293
14.337558255389705 72.6038
14.360050666019726 72.476
14.382526101071944 71.7448
14.405019624534942 71.0688
14.427513705993134 70.8603
14.449990813291825 70.8439
14.47248601302899 70.7377
14.49496423954951 70.7489
14.517460561197822 70.7411
14.539939910570322 70.6988
14.562437357763558 71.1285
14.58493536931253 71.77
14.607416409993311 72.2608
14.62991555254159 72.9015
14.652397725157423 72.8674
14.674898002342799 72.8679
14.697398848433282 73.1655
14.719882725991326 74.0752
14.74238471217934 76.6766
14.764869730765593 82.0304
14.787372860692983 86.2885
14.809876564079925 91.6071
14.83236330125751 98.243
14.854868153850365 106.835
14.877356041159485 119.67200000000001
14.899862046604186 135.111
14.922351087688757 154.639
14.944858249632887 176.074
14.967365991421232 200.924
14.989856770231246 216.176
15.012365673994204 218.06799999999998
15.03485761569738 194.22
15.05736768508665 153.785
15.07987833888692 121.15100000000001
15.102372032001655 94.4771
15.124883856909658 79.5714
15.14737872204565 74.3945
15.169891721717274 72.6682
15.192405310371893 72.1933
15.214901940621196 72.108
15.237416709527137 71.9694
15.259914520936249 71.867
15.282430473753607 71.3225
15.304947020131227 70.3381
15.327446610371178 69.7232
15.349964346154254 69.2747
15.372465126703139 68.7889
15.394984055556009 68.3584
15.417486030076159 68.3389
15.44000615566487 67.8374
15.462526881230803 67.8431
15.485030653812652 67.9252
15.507552581617434 67.9665
15.530057557334603 67.9489
15.55258069104857 67.9647
15.575104429329837 68.1254
15.597611216864632 68.0416
15.620136166564563 68.8421
15.6426441664095 71.2342
15.665170331202765 74.8032
15.687697105158826 78.6502
15.710206930593545 82.7858
15.732734925158933 87.6742
15.755245972089478 93.8233
15.77777519094324 102.97
15.800287463046663 114.42200000000001
15.822817909869592 129.004
15.84534897229804 144.638
15.867863089299354 164.055
15.890395385222186 180.435
15.912910736597423 191.65599999999998
15.935444269699861 188.605
15.957978423016485 162.925
15.980495633101265 130.833
16.003031029129367 101.70700000000001
16.02554948280019 80.0357
16.048086125229432 69.9163
16.070623392487107 66.6989
16.09314371869582 65.3097
16.11568223789321 64.3339
16.13820381691126 63.2401
16.160743591742527 62.6783
16.183283996022084 62.1238
16.205807461423195 60.9872
16.228349126881973 60.3694
16.25087385432698 60.5722
16.27341678466365 59.8978
16.29594277784926 59.7119
16.31848697676433 59.8808
16.341031811604868 59.6077
16.36355971058487 59.6474
16.3861058195587 59.5599
16.40863499352978 58.6642
16.431182380342005 57.8897
16.453730407713202 57.5349
16.476261501364792 57.3382
16.498810812136167 56.9388
16.52134319004079 57.0098
16.54389378792203 56.8824
16.566445031001553 56.8587
16.588979342490088 56.6139
16.61153187824822 56.7287
16.634067483263312 56.3356
16.656621315414416 56.4417
16.679175797408888 55.878
16.701713349928728 56.1751
16.72426913389191 56.4174
16.74680798922351 56.3602
16.76936507887444 56.153999999999996
16.791905240734874 56.449
16.814463639794468 56.1198
16.837022695210294 56.3494
16.859564824093756 56.6611
16.882125194503903 56.9893
16.904668639217885 57.5633
16.927230328348003 57.5188
16.949792678493612 57.621
16.972338104193863 57.3321
16.994901778652235 56.9165
17.017448529496576 57.4043
17.040013531998152 57.7088
17.06257920018044 58.669
17.0851279459922 59.6183
17.107694947817667 60.527
17.130245028099072 61.3402
17.15281336730298 62.7292
17.17536478578733 64.3578
17.19793446610687 66.7486
17.220504818648422 69.123
17.243058251703697 71.3513
17.265629950971032 75.0876
17.288184731571736 78.9468
17.310757781306908 82.6612
17.33333150794385 84.6472
17.355888317140174 84.0398
17.37846339986244 79.6384
17.401021565958885 73.5057
17.42359800851343 67.9379
17.44617513265564 64.1703
17.468735341390783 61.9241
17.491261035594565 60.8356
17.51396340099364 60.7665
17.536490463869136 60.7119
17.559018209820174 60.9458
17.58154663977963 60.9152
17.604251766089718 61.2675
17.626781572227713 61.4664
17.64931206518155 61.458999999999996
17.671843245885103 62.0592
17.69455114821572 62.3653
17.717083712612634 62.6302
17.739616967569667 62.8009
17.762150914021706 63.2481
17.78486160749854 63.4775
17.807396945166804 64.3937
17.829932977143503 65.9874
17.85246970436452 68.4267
17.875183204129467 70.8107
17.897721330097664 73.0306
17.920260154126645 75.6866
17.942799677153296 79.2918
17.9655159983646 82.9701
17.988056927677544 88.09100000000001
18.010598558807683 94.6036
18.033140892692916 102.044
18.05586005052525 109.991
18.07840379824407 119.5
18.10094825154059 130.25
18.12366954819864 139.572
18.146215420998306 142.94799999999998
18.16876200220057 136.72299999999998
18.191309292745153 124.524
18.214033452627167 110.818
18.236582170236648 97.9242
18.259131600016456 91.1159
18.281681742907335 89.3958
18.304408781233683 91.7132
18.32696035875955 95.1854
18.349512652227624 99.5244
18.372065662579683 103.98
18.394795594587553 105.854
18.41735004715306 104.131
18.43990521943684 98.3116
18.46246111238171 89.23200000000001
18.485193953325208 79.6704
18.507751296070428 72.0699
18.530309362314178 67.773
18.552868153000343 65.3199
18.57560391815056 63.8835
18.59816416623245 63.4287
18.620725141597372 63.0336
18.643286845190268 62.3809
18.666025549835414 62.1357
18.688588718427933 61.6017
18.711152618092243 61.4014
18.73389353884365 61.0912
18.75645890921984 60.5316
18.77902501351406 60.2318
18.801591852673102 60.2324
18.824335739722738 59.7282
18.846904057212626 59.75899999999999
18.8694731124168 59.3907
18.89204290628315 59.3435
18.914789774966803 59.178999999999995
18.937361054791623 58.8489
18.959933076131318 58.646
18.982505839934877 58.4583
19.00525570560582 58.693000000000005
19.027829963004184 58.4143
19.05040496572238 58.6343
19.072980714710468 58.9027
19.095733592739563 59.2219
19.11831084296757 59.5312
19.140888842324735 59.8557
19.16346759176222 60.3605
19.18622349753803 60.915
19.208803755869358 61.8361
19.231384767143577 63.012
19.253966532312948 64.4393
19.276725481241822 66.0596
19.29930876296784 67.9097
19.3218928014549 70.1045
19.34465404436217 72.3443
19.36723960516257 75.2467
19.389825925592426 76.8921
19.412413006605938 76.6581
19.43517731967805 74.2612
19.457765930683355 69.9806
19.48035530514408 65.6034
19.50294544401556 61.5334
19.525712842708348 58.4543
19.54830451925909 56.923
19.570896963095727 55.6932
19.593490175174704 55.4364
19.616260674962184 55.3512
19.638855432416964 54.9609
19.661450960992624 55.3489
19.68404726164677 55.1099
19.706820878021247 54.8003
19.729418731756834 55.1044
19.752017360452857 54.8655
19.77461676506804 55.2969
19.797393513540218 55.4218
19.819994478951667 55.7204
19.84259622316767 56.445
19.8651987471481 57.001999999999995
19.887978643247177 57.0842
19.91058273574792 57.6252
19.933187610901943 58.1444
19.955969879466828 59.535
19.97857632894404 60.8598
20.00118356396599 62.2012
20.023791585494575 63.8641
20.046577028914875 66.1288
20.069186632506966 67.9518
20.091797025500632 69.8884
20.114408208858933 71.3118
20.137196842715273 72.079
20.159809615886765 70.8952
20.18242318232135 68.4223
20.20503754298326 66.17699999999999
20.227829382875154 64.34100000000001
20.250445341109344 63.5239
20.27306209647285 63.6196
20.29567964993108 64.5973
20.31847471147704 65.4946
20.34109387027612 66.6902
20.363713830075454 66.8123
20.386334591841646 65.9365
20.409132890679302 63.5148
20.431755265564437 60.152
20.454378445325528 57.2857
20.477002430930366 55.1876
20.499803982716553 53.7174
20.522429589228004 52.8092
20.54505600449589 52.3574
20.567683229489194 52.16
20.590488049900088 51.8155
20.61311690359731 51.7647
20.63574656993626 51.5127
20.658553853717297 51.0737
20.681185154618298 51.1307
20.703817271080066 50.9409
20.72645020407368 50.5818
20.749260783967177 50.4184
20.771895359337133 50.4787
20.794530754161617 50.4521
20.817166969412938 50.2352
20.83998086114876 50.2431
20.86261872660049 50.2134
20.885257415405402 50.2547
20.90789692853701 50.0904
20.930714147864748 50.0786
20.953355319030678 50.2011
20.97599731745334 50.2493
20.99864014410749 49.9559
21.021460706796564 50.0616
21.044105199328826 50.4689
21.06675052302631 50.5412
21.089396678865015 50.8287
21.112220600704806 50.9653
21.134868430275347 51.2928
21.15751709492456 51.3932
21.180166595629693 51.5309
21.202993892429635 51.7712
21.22564507473034 52.4018
21.24829709602816 52.7242
21.27112693608965 52.7766
21.293780644891275 52.981
21.316435195634053 52.3252
21.339090589297417 51.552
21.361923832041875 51.1782
21.384580921090404 50.538000000000004
21.407238856007325 49.8717
21.429897637773326 49.8349
21.45273429906592 49.8323
21.475394784108598 49.7626
21.498056118951983 49.8554
21.520718304578022 50.0619
21.543558400304388 50.2572
21.566222297108816 50.534
21.58888704765135 50.692
21.61155265291521 51.0965
21.63439619898156 51.7766
21.657063523335786 51.8288
21.67973170537063 52.4112
21.7024007460706 53.0234
21.72524775840385 53.628
21.747918526116475 54.6462
21.770590155457388 55.7855
21.79326264741238 57.2147
21.816113141960237 58.6446
21.838787368860547 59.9888
21.861462461341976 61.6113
21.884315579735777 63.4679
21.90699241312273 64.9986
21.92967011506078 66.0794
21.95234868653799 66.3365
21.9752053151131 65.2932
21.997885635446785 63.4404
22.020566828293532 61.4148
22.04324889464272 59.4756
22.066109049404666 57.8406
22.088792872571794 57.3571
22.111477572219204 57.1819
22.1341631493376 57.411
22.157026846313123 57.1815
22.179714188221507 56.9163
22.202402410582668 55.9325
22.22509151438863 54.448
22.24795876962584 52.9615
22.270649646204486 52.1333
22.293341407213727 51.1956
22.316034053646906 50.7963
22.338904883215342 50.4339
22.36159931041458 50.2408
22.38429462602756 50.2447
22.40699083104897 50.1126
22.429865251039757 50.2289
22.452563244831367 50.251999999999995
22.47526213102522 50.2507
22.49813925616515 50.1484
22.520839937143307 49.8759
22.543541513520587 49.9511
22.56624398629403 49.8142
22.589124730075895 49.9588
22.611829005656723 50.3576
22.63453418063466 50.3852
22.657240256008077 50.5201
22.680124634582935 50.7803
22.70283252079775 51.1301
22.725541310413075 51.4176
22.74825100442868 51.6566
22.771139033969575 52.1732
22.79385054687155 52.2841
22.81656296718292 52.92
22.83927629590484 53.7487
22.862167992606945 54.372
22.88488314827121 55.3065
22.907599215359284 56.2596
22.93031619487366 57.1329
22.953211574954405 57.9127
22.975930389478226 58.8097
22.998650119445763 59.479
23.02137076586092 58.9658
23.044269845560063 57.9679
23.06699233506288 56.4486
23.089715744034912 54.5075
23.112617610931565 52.7497
23.135342869061212 51.5189
23.158069049684816 50.6342
23.1807961538087 50.1802
23.20370174880544 50.2475
23.226430710184808 50.5024
23.249160598093425 50.567
23.271891413539002 50.5336
23.294800752937697 50.5719
23.31753343374794 50.923
23.340267045128353 50.9046
23.36300158808808 51.0811
23.38591468821339 51.5628
23.408651104658304 52.031000000000006
23.431388455719986 52.5671
23.454126742409 53.3196
23.4770436196085 54.062
23.499783787914662 54.8985
23.522524894889884 55.6447
23.54526694154616 56.5952
23.56818761219047 57.6649
23.59093154860734 58.3365
23.613676427751283 59.2934
23.636422250635754 58.8134
23.659346731118656 57.3176
23.68209445191868 55.5187
23.704843119509587 53.2999
23.72759273490623 51.321999999999996
23.750521041644767 49.7111
23.77327256312355 48.4876
23.796025035462787 47.8957
23.818956224555475 47.3725
23.841710609113413 47.3708
23.86446594758979 47.0204
23.887222241002014 46.7084
23.910157285144578 46.45399999999999
23.932915498962537 46.5778
23.955674670778713 46.3117
23.978434801611975 46.1326
24.001373717286125 46.108000000000004
24.024135776723917 45.8768
24.046898798245582 45.8023
24.06966278287146 45.6851
24.092605586582614 45.3987
24.115371508023642 45.3588
24.1381383956401 45.1572
24.16090625045381 45.1004
24.183852958731244 45.2216
24.206622758582608 45.1883
24.229393528706886 44.7841
24.252165270127392 44.886
24.27511589952438 44.902
24.297889594216997 44.7077
24.32066426328598 44.5524
24.34343990775613 44.6271
24.36639447485003 44.4022
24.38917208083877 44.4289
24.41195066531332 44.35
24.43490819850244 44.3842
24.457688750692377 44.1798
24.48047028445616 44.141000000000005
24.503252800821233 44.4239
24.526214300784112 44.3287
24.548998793132213 44.2872
24.57178427117417 44.3109
24.59457073593893 44.2043
24.617536219319863 44.255
24.64032466834748 44.2415
24.663114107195035 44.0617
24.685904536893013 43.8724
24.708874020360852 43.7687
24.731666442613744 43.5476
24.754459858818787 43.4981
24.777254270007962 43.5757
24.80022777025625 43.4232
24.82302418230472 43.478
24.845821592443674 43.5357
24.86862000170663 43.4746
24.891597535453727 43.4167
24.914397953892728 43.5514
24.93719937456671 43.5528
24.96000179851076 43.7913
24.98298338249997 43.8782
25.00578782394922 44.0806
25.028593271784167 44.2461
25.05157790644186 44.5179
25.07438537804115 44.5226
25.097193859145293 44.8111
25.120003350792075 45.1017
25.142992065061257 45.3185
25.165803588823465 45.6385
25.18861612625217 45.7956
25.211429678386736 45.9312
25.234422489079968 46.0642
25.257238081693636 45.9634
25.280054692141732 45.8988
25.3028723214652 45.7855
25.325869245420463 45.9051
25.348688923599397 45.9812
25.371509623787006 45.9019
25.394331347025812 45.9184
25.41733240110666 45.5246
25.440156181590016 44.7831
25.46298098826268 44.2996
25.48580682216873 43.6703
25.50881202326435 43.0172
25.53163992281684 42.5809
25.55446885274561 42.3951
25.577298814096377 42.008
25.600308179121807 41.9606
25.623140214533745 42.1744
25.64597328451537 41.8263
25.66898578564376 41.629
25.691820936010206 41.7262
25.714657124097695 41.8137
25.737494350954734 41.7744
25.760511045684957 41.5672
25.783350361364224 41.6744
25.806190718969255 41.6106
25.82903211955018 41.94
25.852053024868923 41.8005
25.874896522722523 41.7383
25.897741066713106 41.8277
25.920586657892454 42.0243
25.943611790812668 42.0822
25.966459487728237 42.1061
25.989308234998564 42.06100000000001
26.01215803367705 42.325
26.03518741123814 42.5325
26.05803932412957 42.4776
26.080892291600094 42.5351
26.10374631470478 42.7702
26.12677995397268 42.8572
26.14963609978026 42.8441
26.172493304397875 42.5684
26.19535156888223 42.42100000000001
26.218389486949604 41.9269
26.241249882640123 41.8963
26.26411134137826 41.5308
26.28715248187403 41.4901
26.31001607820869 41.3783
26.3328807407756 41.1977
26.35574647063438 41.4177
26.37879191991473 41.2946
26.401659795896734 41.4462
26.424528742360263 41.5823
26.447398760366614 41.6102
26.470448535598294 41.6998
26.49332070826805 42.0265
26.516193955675355 42.3045
26.53906827888316 42.2508
26.562122397260108 42.3619
26.584998883685063 42.6789
26.607876449110325 42.8657
26.63075509460056 43.0041
26.65381357334404 43.3082
26.67669439061878 43.3468
26.699576291163382 43.2638
26.722459276044212 43.1422
26.745522132402975 42.88399999999999
26.768407297649354 42.5373
26.791293550442003 42.1226
26.814180891848974 41.9723
26.837248143099337 41.6431
26.860137673466657 41.506
26.88302829566349 41.3185
26.90592001075963 41.2256
26.92899167420566 41.16
26.951885586870763 40.6636
26.974780595655517 40.5468
26.99785558178161 40.3136
27.020752794605112 40.2319
27.043651106772522 39.9663
27.06655051935668 39.9307
27.089629948036183 39.7734
27.112531573292053 39.7797
27.135434302194138 39.8821
27.158338135817015 39.6374
27.181422024430987 39.6144
27.204328079372566 39.5588
27.22723524226965 39.5782
27.250143514198573 39.6987
27.273231880156334 39.7063
27.296142382065014 39.5226
27.319053996245536 39.4635
27.341966723775965 39.5177
27.365059584515222 39.4506
27.38797455070062 39.5239
27.410890633481237 39.5438
27.433807833936918 39.3879
27.456905206923906 39.5584
27.47982465472398 39.5208
27.502745223449743 39.5307
27.525666914182825 39.6901
27.548768816912457 39.6079
27.571692763693633 39.6526
27.59461783573812 39.5195
27.617723149491244 39.3166
27.640650484125285 39.357
27.66357894728264 39.2796
27.686508540048052 39.2722
27.709618414237887 39.139
27.732550278321757 38.9333
27.755483275279115 38.8441
27.778417406196485 39.0169
27.801531858397514 38.9975
27.824468269376716 38.8832
27.847405817586786 38.8295
27.870344504116094 39.1709
27.893463551932008 39.1548
27.916404527281053 39.3506
27.93934664422563 39.3913
27.962289903855886 39.4437
27.98541356491974 39.6291
28.00835912214229 39.711999999999996
28.03130582533231 39.959
28.054253675581805 40.156
28.077381967556104 40.1263
28.100332124185126 40.0234
28.123283431160893 40.0644
28.146235889577238 39.911
28.169368830154156 39.6307
28.192323603752033 39.6005
28.215279532083304 39.2402
28.238415973016764 39.0412
28.261374223145094 38.9143
28.284333631303806 38.6273
28.307294198589954 38.5063
28.330435319167677 38.2167
28.353398217078915 37.9154
28.376362277420153 37.7699
28.39932750129032 37.6152
28.422473319286713 37.4743
28.44544088262495 37.3988
28.468409612800283 37.3365
28.491379510913497 36.9886
28.51453004413313 36.9154
28.53750229057244 36.8875
28.56047570826344 36.8068
28.583450298308804 36.9378
28.606605564586562 36.6054
28.629582511831156 36.6663
28.65256063474956 36.6549
28.675539934446338 36.6959
28.698699951647605 36.5752
28.72168161743193 36.5278
28.74466446331978 36.4331
28.767648490417624 36.4718
28.790813276438353 36.3866
28.813799678527303 36.4312
28.836787265157085 36.29
28.859955641890075 36.4398
28.882945610203045 36.4444
28.905936766392035 36.1872
28.928929111566863 36.2121
28.952102288520145 36.1866
28.975097024308607 36.0814
28.998092952423807 35.9621
29.021090073977508 35.856
29.04426806913204 35.7712
29.067267590245258 35.677
29.090268308143695 35.5874
29.11327022394099 35.5757
29.13645305530891 35.4421
29.159457379627167 35.3895
29.18246290519685 35.1996
29.20546963313352 35.2468
29.22865731875826 35.376
29.25166646419296 35.3513
29.27467681535305 35.1257
29.29768837335608 35.3061
29.320880931312562 35.2465
29.34389491580634 35.1167
29.366910110507334 35.1322
29.38992651653503 35.1107
29.41312396492981 35.0963
29.436142806456754 35.1272
29.45916286268059 34.9806
29.48236399319994 34.8701
29.50538649169417 34.7331
29.528410208259935 34.7033
29.55143514402014 34.5491
29.574641196749695 34.3593
29.597668583816574 34.2717
29.6206971934585 34.0534
29.64372702680042 34.0518
29.666938019934474 33.9424
29.689970313635285 33.8968
29.713003834422636 33.908
29.73603858342347 33.8137
29.759254535188578 33.6802
29.78229175361658 33.7701
29.80533020365064 33.8127
29.82836988641968 33.7845
29.85159081507472 33.6652
29.874632976355343 33.5804
29.89767637376955 33.7296
29.920721008448314 33.5654
29.9439469322847 33.5712
29.96699405457564 33.4093
29.9900424175358 33.5085
30.013092022298157 33.3658
30.03632295963995 33.326
30.059375061131373 33.3823
30.08242840783577 33.4153
30.105483000888153 33.4459
30.128718970092244 33.2223
30.151776069006917 33.1674
30.17483441768648 33.3131
30.198074175317235 33.297
30.221135036724256 33.398
30.24419715131772 33.2232
30.267260520236203 33.1306
30.290505341942243 33.1899
30.313571232750228 33.2884
30.336638381310948 33.2917
30.35970678876503 33.2341
30.38295669299435 33.0278
30.40602763151657 33.0879
30.429099832366074 33.1028
30.452173296685572 32.9543
30.47542830191959 33.0234
30.498504306502497 32.9135
30.521581577995562 32.9507
30.544660117543582 33.0096
30.56792024229725 32.9899
30.59100133132069 33.0711
30.614083691845494 33.0944
30.637167325018545 33.0283
30.660432587840603 33.0895
30.683518779717886 33.0629
30.70660624769615 33.1878
30.729694992924372 33.1286
30.75296541239743 33.080999999999996
30.77605672557558 32.9916
30.799149319462742 33.0205
30.8224236211637 32.9117
30.845518789950724 32.6561
30.868615242910597 32.6829
30.891712981195973 32.5436
30.91499247215866 32.5369
30.938092794619365 32.5098
30.96119440587579 32.4075
30.984297307082752 32.2819
31.00758200598383 32.2176
31.030687500658694 32.0894
31.053794288760695 32.0022
31.076902371446767 31.9405
31.100192296997445 31.9916
31.12330298246119 31.9325
31.14641496599209 31.8399
31.169528248749216 31.899
31.19282341969534 31.6791
31.215939314557186 31.7552
31.239056512134788 31.8378
31.262175013589378 31.8498
31.28547544871168 31.6756
31.30859657161541 31.5287
31.331719001892175 31.6172
31.35484274070538 31.761
31.378148458819545 31.7756
31.401274828443725 31.7947
31.424402510106933 31.6911
31.447712205419993 31.7904
31.470842524931633 31.5676
31.493974159989783 31.5929
31.51710711176168 31.7561
31.54042212308802 31.5904
31.563557722100917 31.5807
31.586694641341655 31.5016
31.609832881979628 31.31
31.63315322823208 31.2915
31.656294125521327 31.2013
31.679436347728515 31.1994
31.70257989602529 31.1162
31.725905596152327 31.0295
31.74905181052835 30.9181
31.772199354521323 30.973000000000003
31.79534822930507 31.0286
31.818679302290967 30.9041
31.84183085259981 30.8545
31.864983737233473 30.9722
31.88813795736804 31.0498
31.911474422233013 30.8744
31.934631327356435 30.9005
31.9577895715215 30.8451
31.980949155906522 30.7423
32.004291031706956 30.805999999999997
32.027453310562606 30.7156
32.05061693318573 30.5861
32.07396288236386 30.6495
32.09712920658542 30.4904
32.12029687812702 30.4403
32.14346589817093 30.4059
32.166817291729984 30.3213
32.18998902288583 30.287
32.21316210610336 30.1507
32.23633654256711 30.0478
32.259693399663725 30.005
32.282870556771144 29.994
32.30604907069099 29.8957
32.329228942610065 29.8646
32.35259128243769 29.8218
32.375773884550505 29.8274
32.398957848235646 29.738000000000003
32.422143174682176 29.6587
32.445511016471215 29.5375
32.468699082679954 29.566999999999997
32.49188851523011 29.4896
32.51507931531304 29.3602
32.538452678331 29.4766
32.56164622776311 29.3269
32.58484114831493 29.3374
32.60803744118015 29.2973
32.631416344731896 29.3407
32.654615396551876 29.3247
32.67781582427913 29.1673
32.701198898634416 29.1396
32.72440209253756 29.0278
32.747606665947124 29.0407
32.77081262006088 28.9614
32.79420126883317 28.9844
32.81740999876112 28.9372
32.840620112999424 28.8833
32.86383161274818 28.7951
32.88722585534586 28.8202
32.91044014056596 28.8314
32.933655814909734 28.7622
32.95687287957963 28.7932
32.98027273544904 28.7035
33.00349259526636 28.6946
33.026713849030116 28.639
33.04993649794511 28.5762
33.073341986570746 28.5537
33.09656744032826 28.5697
33.11979429286444 28.5493
33.14302254538647 28.5244
33.166433686291185 28.464000000000002
33.18966475336992 28.4058
33.212897224069096 28.2565
33.23613109959831 28.3397
33.259547912343415 28.3336
33.2827846121627 28.2916
33.306022720453775 28.2124
33.32926223842861 28.1439
33.352684742614166 28.0971
33.37592709463173 28.1158
33.399170859982064 28.1045
33.422597648419426 28.0151
33.44584425514446 27.895
33.46909227885668 27.8535
33.4923417207723 27.7839
33.51577423505344 27.7589
33.539026528130385 27.6715
33.56228024307245 27.6752
33.585535381098246 27.4703
33.60897364093058 27.4822
33.63223163992385 27.5074
33.6554910656699 27.4957
33.678751919389796 27.4579
33.702195944520106 27.3373
33.72545966903325 27.3341
33.74872482519663 27.2713
33.771991414233746 27.279
33.79544122444841 27.2595
33.81871069412428 27.1031
33.84198160035767 27.1434
33.86525394437455 27.0812
33.88870955949969 27.0636
33.911984794020626 27.0119
33.93526147001624 27.0327
33.958539588715006 26.9402
33.98200102861669 26.7533
34.0052820477047 26.7234
34.02856451319451 26.7942
34.05203033759056 26.6493
34.07531571090147 26.6365
34.09860253431845 26.6747
34.121890809074316 26.6323
34.145362493118924 26.5725
34.16865368561615 26.5008
34.191946333164054 26.4237
34.21524043699793 26.4581
34.23871800066799 26.451999999999998
34.26201503218366 26.3207
34.28531352370466 26.3212
34.30861347646881 26.1669
34.33209693978188 26.2637
34.3553998301885 26.275
34.378704185565205 26.1062
34.402010007152356 26.037
34.42549939016683 26.0868
34.44880815937748 25.9576
34.472118398533134 26.0065
34.49543010887669 25.9233
34.51892543169198 25.8502
34.54224009966052 25.8585
34.56555624255917 25.8505
34.58887386163339 25.7724
34.61237514439016 25.7416
34.6356957311114 25.6877
34.65901779775809 25.6336
34.68252356662995 25.624000000000002
34.705848608458616 25.5812
34.72917513396849 25.4943
34.75250314440949 25.4778
34.77601490857862 25.3435
34.799345904259795 25.3812
34.82267838863559 25.3464
34.846012362958525 25.3916
34.869530142679984 25.3165
34.89286711232212 25.244
34.91620557568269 25.2925
34.93954553401677 25.2458
34.9630693495876 25.1903
34.986412313340814 25.2591
35.00975677584668 25.1231
35.033102738362956 25.1129
35.05663261012228 25.0775
35.0799815881786 24.9332
35.10333207003229 24.9271
35.12668405694369 24.9782
35.150220005273056 24.9615
35.17357501786656 24.9178
35.19693153931268 24.8173
35.220289570874385 24.7655
35.24383161619786 24.7726
35.267192683604904 24.7736
35.290555264930376 24.8063
35.314101899412165 24.7446
35.33746752422433 24.711
35.36083466676374 24.7043
35.38420332829803 24.6285
35.407756095629054 24.6282
35.43112781085063 24.6503
35.45450104888391 24.5037
35.477875810999194 24.5367
35.50143473172161 24.4828
35.52481255774625 24.4804
35.54819191167777 24.4603
35.57157279478914 24.3679
35.595137889488406 24.3742
35.61852184675279 24.3585
35.641907337029984 24.2651
35.665294361595684 24.2027
35.68886565090076 24.1701
35.7122557598848 24.0689
35.73564740699838 24.1127
35.759040593519934 24.1307
35.78261809810353 24.1368
35.80601437933051 23.9221
35.829412203814705 23.8859
35.85281157283719 23.8101
35.876395313415884 23.9391
35.8997977874528 23.7934
35.92320180988546 23.8061
35.946790244133936 23.7055
35.97019737933222 23.7452
35.993606066789866 23.6987
36.01701630779276 23.6967
36.04061101440684 23.6118
36.06402437852291 23.5931
36.08743930005611 23.5958
36.1108557802951 23.4828
36.13445678011326 23.5024
36.15787639383515 23.4409
36.18129757014299 23.4028
36.20472031032821 23.3491
36.22832762423364 23.3229
36.25175350829375 23.3284
36.275180960119776 23.2124
36.298609981005924 23.2785
36.32222362992669 23.2475
36.34565580510207 23.1845
36.36908955323448 23.1327
36.39252487562093 23.0501
36.416144880530226 23.0299
36.43958336764275 22.9224
36.463023432914625 22.9813
36.486465077645676 22.9198
36.51009145956204 23.0148
36.53353627947859 22.9528
36.55698268276811 22.9121
36.58043067073321 22.8452
36.60406345072071 22.7612
36.62751462435344 22.7492
36.65096738658405 22.7559
36.67460498210655 22.7628
36.69806093788647 22.7694
36.72151848619297 22.612
36.744977628333636 22.6753
36.76862165890998 22.63
36.79208400512205 22.5169
36.81554794910557 22.5603
36.83901349217101 22.4869
36.862663978991606 22.4107
36.88613273667352 22.4456
36.90960309738324 22.4518
36.933075062434064 22.2383
36.95673202673572 22.3336
36.98020721697122 22.2038
37.003684015502365 22.1996
37.027162423645365 22.2063
37.050825886711465 22.1595
37.07430753063053 22.0039
37.09779078812467 22.0439
37.121275660513014 22.073
37.144945643673694 21.9996
37.16843376245278 21.9916
37.19192350009803 21.9959
37.215414857931435 21.910999999999998
37.239091382563885 21.8094
37.262585997426164 21.8607
37.28608223645736 21.7791
37.309763684451696 21.7802
37.33326318851098 21.6987
37.356764320726555 21.6771
37.380267082425526 21.6289
37.40395510942588 21.6142
37.42746114683234 21.5924
37.45096881771841 21.6065
37.474478123414166 21.5581
37.49817275092816 21.4832
37.52168534303452 21.4445
37.54519957395567 21.3958
37.568715445024665 21.4249
37.592416694607714 21.4083
37.61593586281424 21.3071
37.63945667518264 21.3662
37.66297913304891 21.2784
37.68668702630454 21.2957
37.710212792059274 21.1898
37.733740207334854 21.2587
37.757269273470364 21.1094
37.780983832050374 21.093000000000004
37.80451621684926 21.0828
37.82805025654007 21.0191
37.851585952464795 20.9109
37.8753071980695 20.9302
37.89884622345676 20.9209
37.92238690911902 20.9133
37.94611318753442 20.8434
37.969657210779765 20.8086
37.99320289834801 20.7962
38.016750251586465 20.7605
38.04048325513017 20.7006
38.06403395679343 20.6562
38.087586328183946 20.6134
38.11114037065203 20.683000000000003
38.13488012115898 20.6131
38.1584375229181 20.5314
38.181996599821 20.5352
38.205557353221124 20.4131
38.229303872575656 20.4816
38.2528679961576 20.4586
38.27643380031219 20.4234
38.30000128639589 20.3738
38.32375459653193 20.2994
38.34732546371299 20.2671
38.37089801690786 20.1768
38.39447225747609 20.1497
38.418232380377425 20.1202
38.441810012983396 20.1567
38.46538933705673 20.1079
38.488970353960084 20.1333
38.51273731166058 20.1624
38.536321731567014 20.0361
38.55990784840681 19.9925
38.58367995004091 19.9443
38.60726947812959 19.9079
38.63086070726198 19.9664
38.654453638806274 19.9366
38.678232613930824 19.8179
38.70182896773327 19.7925
38.72542702806741 19.7565
38.7490267963045 19.8306
38.77281266709232 19.789
38.79641586862214 19.7339
38.8200207821842 19.6523
38.843627409152944 19.6515
38.86742019782782 19.6065
38.891030269149255 19.5234
38.914642058016156 19.5736
38.938255565806124 19.5011
38.96205529464307 19.4604
38.98567225787121 19.4468
39.00929094417078 19.4184
39.03291135492255 19.4352
39.05671804624804 19.3249
39.080341923549106 19.349
39.103967529460334 19.2573
39.127594865365744 19.1511
39.15140854155791 19.2169
39.17503935514948 19.1939
39.19867190290282 19.1723
39.22249083587951 19.132
39.24612686969409 19.1668
39.269764641845306 19.1573
39.293404153722804 19.1758
39.317230110864074 19.0817
39.34087311998506 18.9671
39.36451787301696 18.9534
39.388164371352595 18.9018
39.41199737518003 18.8217
39.43564738196752 18.7506
39.45929913825317 18.7914
39.48295264543308 18.8401
39.506792718520884 18.7249
39.530449745387216 18.7058
39.55410852735203 18.6543
39.57776906581474 18.6752
39.60161623079 18.6679
39.625280300200025 18.6671
39.64894613032202 18.6125
39.67261372255866 18.5529
39.6964680021016 18.589000000000002
39.72013913657293 18.5234
39.74381203738292 18.4609
39.76748670593756 18.4332
39.79134812278169 18.4207
39.81502634488497 18.3258
39.83870633896685 18.4046
39.862388106436654 18.3412
39.88625668336918 18.3417
39.90994201572829 18.3552
39.933629125719285 18.2097
39.957503091207826 18.172
39.9811937746168 18.2257
40.00488623990914 18.1685
40.02858048850006 18.1383
40.05246165409549 18.1086
40.076159487492085 18.0482
40.099859108448875 18.0905
40.123560518384345 18.0284
40.1474489070226 18.0025
40.171153913178564 17.9508
40.194860712584955 17.9217
40.2185693066637 17.9193
40.242464941335314 17.854
40.26617714307655 17.8654
40.289891143772046 17.7808
40.3136069448471 17.8143
40.33750984859743 17.7832
40.3612292688043 17.7303
40.3849504936829 17.6731
40.40867352466194 17.7302
40.43258372059144 17.6492
40.45631038219906 17.6425
40.48003885420956 17.5665
40.503769138055105 17.565
40.52768664931955 17.5399
40.55142057531802 17.5329
40.57515631746428 17.4587
40.599079334038514 17.4878
40.62281872700477 17.4
40.64655994043941 17.3885
40.67030297578061 17.3837
40.69423334835778 17.3435
40.71798004609188 17.2799
40.74172857006355 17.3145
40.76547892171441 17.3276
40.7894166736039 17.265
40.813170699248566 17.2002
40.83692655691388 17.1574
40.86068424804498 17.1914
40.884629402612525 17.1376
40.908390779366385 17.152
40.932153993938 17.096
40.95591904777605 17.1016
40.979871628443995 17.0632
41.003640379561936 17.0034
41.02741097430883 17.0021
41.05118341413683 16.9466
41.075143444384416 16.9007
41.098919593177826 16.9062
41.1226975914255 16.8882
41.14647744058318 16.825
41.170444943946755 16.8194
41.19422851378379 16.8012
41.218013938914645 16.7458
41.24198706625173 16.6599
41.26577622087193 16.6495
41.289567235177785 16.6607
41.31336011063129 16.6376
41.337340752422875 16.5467
41.361137369129835 16.5366
41.38493585138705 16.5595
41.40873620066004 16.5151
41.43272438060107 16.5486
41.45652848292052 16.4224
41.48033445666918 16.3417
41.50414230331616 16.3853
41.528138045159764 16.4162
41.551949656675205 16.3504
41.575763145513235 16.2593
41.59957851314666 16.3193
41.62358184070442 16.2521
41.64740098505737 16.211
41.6712220126409 16.195999999999998
41.69504492493139 16.1898
41.71905586207357 16.1438
41.74288256296395 16.1177
41.766711153007456 16.1047
41.79054163368412 16.1233
41.814560204340054 16.0656
41.838394485526365 16.0548
41.86223066180303 15.9691
41.88625497706819 16.0309
41.910094962812 16.0128
41.93393684811168 15.9364
41.95778063445365 15.8869
41.981812625263366 15.8559
42.00566023303407 15.8081
42.029509746323676 15.7655
42.05336116662236 15.7854
42.077400857069705 15.8051
42.10125611078846 15.757
42.12511327600405 15.7267
42.14897235421036 15.6508
42.173019768448455 15.6622
42.19688269209613 15.6214
42.22074753323349 15.628
42.24461429335818 15.5875
42.268669455600495 15.5185
42.292540073217886 15.5173
42.31641261433284 15.4545
42.34028708044675 15.4321
42.36435001496739 15.445
42.38822835065557 15.4181
42.41210861586426 15.4035
42.4359908120986 15.3809
42.46006154323262 15.3264
42.48394762115317 15.308
42.507835634632315 15.3246
42.531912233047436 15.2692
42.55580413732265 15.2637
42.579697981698 15.2389
42.60359376768525 15.1996
42.62767820545945 15.169
42.65157789440821 15.1595
42.67547952952185 15.1758
42.699383112316 15.0926
42.72347541395347 15.107999999999999
42.74738291190531 15.0251
42.771292362102166 15.007
42.795203766063516 14.9853
42.819303956130405 14.9556
42.843219287476536 14.9344
42.86713657716324 14.8873
42.89105582671383 14.8922
42.91516392983864 14.8712
42.939087119032166 14.8172
42.963012272677304 14.7943
42.98693939230129 14.8576
43.01105543317513 14.7594
43.034986504731386 14.77
43.05891954686589 14.6936
43.08285456110972 14.6995
43.10697856448665 14.6493
43.130917542983475 14.6205
43.15485849820081 14.6149
43.17880143167367 14.5954
43.20293342237094 14.5143
43.226880332449 14.5295
43.25082922540554 14.5287
43.27496722682525 14.5243
43.29892010567796 14.4599
43.32287497204102 14.4187
43.34683182745632 14.4021
43.370977859791836 14.3282
43.39493871351105 14.3047
43.41890156092628 14.3135
43.44286640358341 14.2748
43.46702049182749 14.247
43.49098934522816 14.2139
43.51496019852649 14.2147
43.5389330532723 14.2372
43.56309522248204 14.1915
43.58707210044314 14.1729
43.61105098451946 14.1437
43.63503187626491 14.1032
43.659202151562134 14.0557
43.68318707902681 13.9908
43.70717401884041 13.9882
43.731162972560874 13.9634
43.75534137913236 13.9429
43.779334381108384 13.9515
43.803329401683186 13.9567
43.82732644241872 13.9188
43.8515130055166 13.8662
43.87551410707659 13.8197
43.89951723350145 13.8366
43.923709934595614 13.8431
43.94771713129917 13.7894
43.97172635758096 13.795
43.99573761501002 13.7527
44.0199385169922 13.7132
44.04395385732619 13.6565
44.067971233533086 13.6978
44.09199064718605 13.6604
44.11619977548961 13.618
44.14022328470671 13.5748
44.16424883610785 13.5859
44.18827643127035 13.5544
44.21249381139513 13.5278
44.236525514814076 13.5015
44.26055926674478 13.5217
44.28459506876863 13.5197
44.3088207262813 13.4501
44.33286064928722 13.3476
44.35690262714919 13.3783
44.38094666145278 13.3498
44.4051806219871 13.3392
44.42922879003185 13.3454
44.45327901929361 13.3114
44.477331311362136 13.2664
44.501573600619416 13.2164
44.525630039221795 13.2349
44.54968854541895 13.2147
44.573937102200176 13.2116
44.5979997645541 13.1846
44.622064499300315 13.1355
44.64613130803592 13.0766
44.67038823869318 13.0666
44.69445921643748 13.0583
44.718532272981385 13.0152
44.742607409926194 13.0212
44.76687274034801 12.9847
44.79095205918753 12.9788
44.81503346325094 12.9448
44.839116954143876 12.9551
44.86339071028742 12.9035
44.88747839599524 12.8985
44.91156817336837 12.8119
44.93566004401666 12.86
44.959942251908146 12.7605
44.984038330325966 12.7785
45.00813650686762 12.7264
45.03223678314731 12.7386
45.05652746888232 12.7101
45.08063196592069 12.7242
45.104738567558705 12.6461
45.128847275414856 12.6442
45.15314646515866 12.6217
45.17725940679741 12.5684
45.20137445952892 12.6234
45.22568004865265 12.5839
45.24979934496396 12.55
45.27392075725247 12.4704
45.29804428714431 12.5114
45.322358426247604 12.467
45.346486212804315 12.4362
45.370616121861914 12.3856
45.39474815505086 12.4008
45.41907087049246 12.3636
45.4432071734666 12.3627
45.46734560548283 12.3501
45.49148616817604 12.3444
45.51581748638564 12.3228
45.5399623320197 12.2594
45.56410931325473 12.2365
45.58825843173002 12.2911
45.61259837920865 12.2237
45.636751793816 12.1979
45.66090735060093 12.1752
45.68506505120716 12.1153
45.7094136545275 12.0387
45.73357566449271 12.0455
45.75773982322992 12.0846
45.78190613238733 12.1021
45.806263418194064 12.0238
45.83043404997326 12.0034
45.85460683713677 12.0079
45.87897065658495 11.9688
45.90314777634752 11.9389
45.92732705646868 11.9387
45.9515084986045 11.8887
45.97588104735473 11.8619
46.00006683541565 11.874
46.02425479047904 11.8098
46.04844491420549 11.8206
46.0728262191024 11.8594
46.09702070211635 11.787
46.12121735879483 11.7996
46.14541619080294 11.7394
46.169806278764455 11.7284
46.194009483459034 11.7141
46.21821486849841 11.6279
46.24242243555223 11.6034
46.266821333570014 11.6335
46.29103328674601 11.605
46.31524742696538 11.6056
46.33946375590237 11.5665
46.36387149104216 11.5544
46.38809221957392 11.4867
46.41231514186606 11.4843
46.436540259597464 11.4937
46.460956858999374 11.4385
46.48518638983522 11.4373
46.509418121166966 11.4309
46.533652054678114 11.4073
46.55807754555709 11.3785
46.58231590571962 11.3525
46.60655647313217 11.3294
46.630988654873654 11.3239
46.655233659129024 11.2751
46.67948087571551 11.2329
46.70373030632484 11.2253
46.72817142736393 11.2526
46.752425308428684 11.1901
46.77668140861147 11.1371
46.80093972960865 11.1294
46.82538981736788 11.1437
46.849652602470904 11.1046
46.87391761349769 11.0998
46.8981848521493 11.0328
46.9226439341274 11.0221
46.946915650573224 11.0534
46.97118959976749 11.0149
46.99546578341598 11.0243
47.019933887188216 10.9753
47.04421456235744 10.9685
47.06849747711879 10.9318
47.09278263318286 10.9092
47.11725978640143 10.8909
47.14154944775105 10.8777
47.165841355555656 10.8626
47.1901355115306 10.859000000000002
47.214621741924994 10.8387
47.23892041698887 10.8184
47.26322134538975 10.7648
47.28771440635075 10.7508
47.31201986422527 10.7223
47.33632758061436 10.7164
47.360637557241866 10.7135
47.38513974410611 10.7342
47.40945426407847 10.6514
47.43377104948137 10.6001
47.45809010204344 10.6517
47.48260144275502 10.6341
47.506925052572285 10.5871
47.53125093475548 10.545
47.55557909103813 10.5758
47.58009961361992 10.5098
47.60443234110732 10.4769
47.62876734791564 10.4931
47.65310463578333 10.4728
47.6776343683373 10.4752
47.7019762413987 10.3952
47.72632040075572 10.390999999999998
47.75066684815169 10.3932
47.77520581885936 10.3833
47.799556865477655 10.3725
47.823910205386 10.3438
47.84826584033272 10.3451
47.87281407745551 10.2662
47.89717432569297 10.2936
47.92153687423484 10.2998
47.94609208429692 10.2914
47.97045925671401 10.2338
47.99482873471275 10.2211
48.01920052005013 10.1937
48.04376504619224 10.1655
48.068141469543484 10.2076
48.09252020552573 10.1611
48.11690125590099 10.1153
48.1414751266064 10.0999
48.16586082917454 10.1139
48.19024885144316 10.0229
48.2146391951793 10.0871
48.239222439012764 10.0431
48.26361744916137 10.0012
48.28801478610016 9.99308
48.31241445160131 9.9799
48.337007097209366 9.92416
48.36141144338331 9.95439
48.38581812345755 9.88309
48.41022713920929 9.896410000000001
48.434829215320704 9.87551
48.45924292604658 9.837660000000001
48.48365897780325 9.8925
48.50807737237308 9.83048
48.532688907799276 9.813310000000001
48.55711201168574 9.782810000000001
48.581537463754074 9.77998
48.60615611725119 9.75958
48.63058628942721 9.72838
48.65501881516546 9.74488
48.6794536962573 9.73928
48.70408185970339 9.6784
48.72852147531801 9.64857
48.75296345168211 9.63407
48.77740779059232 9.65811
48.80204549302823 9.59804
48.82649458091802 9.64563
48.85094603676547 9.59062
48.87539986237231 9.53611
48.90004713292306 9.52406
48.92450572200832 9.55096
48.94896668628025 9.49698
48.97343002754588 9.50855
48.99808689542115 9.47586
49.02255501470614 9.47557
49.04702551642794 9.43724
49.0714984023988 9.39205
49.096164896893235 9.39148
49.120642575466796 9.41122
49.145122643748394 9.36125
49.16960510355558 9.33645
49.19428125404938 9.34415
49.2187685210852 9.30518
49.243258185121555 9.32133
49.26794160167084 9.272969999999999
49.2924360839405 9.26568
49.31693296869764 9.22717
49.34143225776915 9.21537
49.36612538195438 9.190710000000001
49.39062950396021 9.20448
49.41513603578346 9.15212
49.4396449792564 9.14663
49.46434784069503 9.1403
49.488861631846454 9.1049
49.513377840166804 9.115680000000001
49.537896467493745 9.04693
49.56260909589029 9.05906
49.587132585683285 9.02004
49.611658500018365 9.03967
49.636186840738596 9.01102
49.66090926588511 8.98413
49.685442483902584 8.948789999999999
49.70997813385706 8.95466
49.734516217597076 8.92647
49.75924846937352 8.94203
49.7837914452858 8.911389999999999
49.80833686055187 8.894680000000001
49.83288471702571 8.84998
49.85762682540054 8.86156
49.882179588965734 8.85622
49.9067347993235 8.80138
49.93129245833333 8.76984
49.95604445336378 8.78129
49.98060703442832 8.7459
50.005172069746266 8.73675
50.02993150438364 8.72529
50.05450147301533 8.719489999999999
50.07907390151433 8.705689999999999
50.10364879174981 8.68105
50.12841816587289 8.6827
50.1529980044635 8.64653
50.17758031042124 8.624239999999999
50.20216508562089 8.628110000000001
50.22694442953363 8.58628
50.25153416817468 8.56409
50.27612638170508 8.583730000000001
50.300721072005196 8.56294
50.325510416102105 8.5524
50.350110084975064 8.52743
50.37471223628208 8.54642
50.39931687190919 8.49648
50.424116246675766 8.469289999999999
50.44872587605249 8.44077
50.47333799543065 8.432789999999999
50.49795260670191 8.40507
50.52276204271512 8.39686
50.54738166295838 8.39795
50.57200378079314 8.38608
50.596628398116835 8.34837
50.62144792604559 8.336910000000001
50.646077567609396 8.31056
50.670709714377715 8.30133
50.69553683636198 8.27924
50.72017401885922 8.26545
50.7448137122895 8.286719999999999
50.76945591856022 8.25652
50.79429318636823 8.22376
50.818940443716784 8.2398
50.84359021965163 8.17655
50.868242516085964 8.15997
50.893089960641895 8.1483
50.917747323549435 8.1621
50.94240721271973 8.16733
50.96706963007175 8.10768
50.99192728239342 8.09164
51.01659478166073 8.10705
51.04126481489051 8.08845
51.06593738400761 8.08487
51.090805275207074 8.02842
51.11548294172845 7.99061
51.14016314993547 7.989160000000001
51.164845901758845 7.99455
51.18972406304274 7.9648
51.21441192780656 7.9303300000000005
51.23910234200271 7.94292
51.2637953075678 7.938789999999999
51.288683770237945 7.90158
51.31338186432707 7.8848899999999995
51.33808251561888 7.86142
51.362978729967345 7.8124
51.387684521509755 7.8114300000000005
51.41239287610203 7.84271
51.437103795691165 7.77922
51.46201036644977 7.82343
51.486726441956634 7.78428
51.51144508832545 7.77532
51.536166307509156 7.77825
51.56108326624387 7.73473
51.58580965706056 7.709219999999999
51.61053862657523 7.70356
51.635270176746864 7.640610000000001
51.66019755512065 7.649439999999999
51.68493429268881 7.652080000000001
51.70967361681515 7.61925
51.73441552946465 7.633089999999999
51.759353359237934 7.578810000000001
51.7841004750961 7.55254
51.80885018539685 7.56912
51.833602492111254 7.56389
51.8585508051424 7.531630000000001
51.883308330926425 7.51693
51.90806845906181 7.45869
51.932831191525715 7.4588399999999995
51.95779001977161 7.4569600000000005
51.98255798721516 7.43583
52.00732856494335 7.435810000000001
52.03229530577543 7.40725
52.057071130455945 7.4209
52.081849571391054 7.374230000000001
52.106630630568695 7.37529
52.13160794279417 7.3608
52.15639426492067 7.371289999999999
52.18118321127822 7.33332
52.205974783860896 7.277639999999999
52.23096269971011 7.287960000000001
52.255759551287994 7.2964899999999995
52.280559035098186 7.2595
52.30536115314103 7.24515
52.33035970494467 7.25086
52.35516711807904 7.22692
52.37997717147198 7.19084
52.40478986713005 7.21333
52.42979908731974 7.15022
52.454617094216 7.1584
52.47943774942214 7.133369999999999
52.50426105495102 7.13864
52.529280976059844 7.1214
52.554109609024096 7.10866
52.57894089837482 7.08592
52.60377484613117 7.05275
52.62880550079408 7.021160000000001
52.65364479223379 7.02235
52.67848674816189 7.0019100000000005
52.70352547971946 7.024380000000001
52.72837279155837 7.03097
52.753222773982785 6.986460000000001
52.778075429022984 6.991910000000001
52.80312495150885 6.96442
52.827982978797436 6.93852
52.85284368481815 6.9318800000000005
52.87770707160767 6.87893
52.90276741793998 6.9264
52.92763619336701 6.896310000000001
52.952507655698504 6.85036
52.977381806977576 6.88023
53.00245301017842 6.85037
53.02733256653592 6.85315
53.052214817996074 6.78143
53.077099766608484 6.78827
53.102181859804446 6.76584
53.127072229988265 6.77814
53.15196530349892 6.75316
53.17686108239249 6.74298
53.20195409881522 6.731
53.22685531582556 6.71778
53.25175924441303 6.67485
53.27666588664027 6.6852800000000006
53.30176985962693 6.64199
53.3266819565689 6.62588
53.35159677336455 6.652489999999999
53.376514312083096 6.60544
53.40162927507703 6.6570100000000005
53.42655228516116 6.6067
53.45147802340193 6.591189999999999
53.47660125628886 6.55883
53.50153247842639 6.566139999999999
53.52646643496923 6.5344
53.55140312799818 6.52653
53.576537409691696 6.5182400000000005
53.60147960336152 6.50325
53.626424539786164 6.4501800000000005
53.65137222105307 6.486190000000001
53.67651758529126 6.46707
53.70147078399681 6.42413
53.72642673383343 6.40534
53.75138543689533 6.39887
53.776541917524526 6.41239
53.801506154876755 6.39621
53.826473151763246 6.37135
53.851442910284916 6.3385
53.87661054126026 6.342280000000001
53.9015858509782 6.35049
53.92656392866066 6.31384
53.95154477641532 6.32576
53.976723591801296 6.25087
54.00171000771266 6.293019999999999
54.02669920004598 6.28054
54.051691170915745 6.24455
54.076881204886796 6.2377199999999995
54.101878760928514 6.22233
54.12687910187696 6.237
54.152077577768296 6.23385
54.1770835166946 6.17125
54.20209224691339 6.17183
54.22710377055121 6.14229
54.25231352511594 6.13055
54.27733066384342 6.10112
54.30235060239643 6.11948
54.32737334290836 6.06578
54.35259441062629 6.0113199999999996
54.377622783395324 6.03086
54.40265396455061 6.040830000000001
54.42768795623251 6.02617
54.45292037169559 6.01961
54.477960012857906 5.9922
54.50300247099511 5.97167
54.52804774825457 5.94625
54.55329154616743 5.88462
54.57834249018678 5.91868
54.6033962597977 5.88739
54.6284528571545 5.859380000000001
54.653708072335164 5.81283
54.67877035378786 5.81316
54.70383546947698 5.765569999999999
54.72890342156389 5.7653
54.7541700889442 5.74432
54.77924374251975 5.73683
54.8043202390049 5.68991
54.82959552413022 5.73268
54.8546777351945 5.663069999999999
54.87976279569621 5.60051
54.90485070780914 5.67285
54.930137506558005 5.622380000000001
54.95523115074295 5.62995
54.98032765308844 5.59826
55.005427015775496 5.53503
55.03072536339621 5.4775599999999995
55.05583047570572 5.49892
55.080938454927676 5.46946
55.10604930325027 5.45886
55.131359235107396 5.51813
55.15647585066083 5.46389
55.181595341907496 5.40214
55.20671771104285 5.38802
55.232039262617704 5.37686
55.25716741665048 5.31745
55.28229845518636 5.3337
55.30743238042802 5.26309
55.33276558731939 5.2609699999999995
55.357905315183636 5.25741
55.383047936390035 5.23391
55.40819345314859 5.1532
55.433538351073295 5.20581
55.458689688238415 5.1879
55.483843927614096 5.12294
55.509197623043605 5.0987800000000005
55.53435769621134 5.13725
55.55952067826466 5.0164800000000005
55.5846865714265 5.07332
55.61005202069737 5.0283
55.63522376553902 4.98878
55.66039842818645 4.9523
55.68557601087004 4.98612
55.7109532500271 4.88438
55.73613670233794 4.96681
