TT I
1.2716486653135266 7.12372
1.2939594142134223 6.890160000000001
1.3162702121660406 6.48353
1.3385810600174564 6.77235
1.3608919586137629 7.0753699999999995
1.383202908801069 6.2442
1.405513911425503 5.52005
1.4278249673332093 6.17224
1.4501343378461518 6.2847
1.4724455028545926 6.3204199999999995
1.4947567236847858 5.4278
1.517068001182951 6.03567
1.5393793361953272 5.76511
1.5616907295681737 6.22395
1.5840021821477681 5.6709
1.60631369478041 5.16261
1.6286252683124185 5.1497
1.6509369035901333 4.98185
1.6732468618895553 5.07993
1.695558623192809 4.84286
1.7178704487808514 5.33
1.7401823395001077 5.502280000000001
1.7625012545597203 5.04819
1.7848028405262486 5.12248
1.8071218901122095 4.9312
1.8294236121921872 4.49629
1.8517427996910911 4.67989
1.8740620574440425 4.6474
1.8963639900671978 4.85374
1.9186833908139995 5.25286
1.9409854680117449 4.92517
1.9633050151394713 5.14511
1.9856246367570705 5.0096
2.0079269371922672 4.91394
2.03024671027244 4.27152
2.0525491637446027 4.28426
2.074869091674931 4.450069999999999
2.097171701569106 4.40851
2.1194917877373847 4.7175400000000005
2.141811954326636 5.09591
2.164114805233074 4.78342
2.186435135143035 5.42205
2.208738150935709 8.02929
2.231058647554722 12.2868
2.2533792288321184 10.272
2.275682498336085 6.48856
2.298003251406138 5.739719999999999
2.3203066942619714 6.0582199999999995
2.3426276225136022 5.92954
2.3649486396617507 5.38171
2.387252348930071 5.93952
2.4095735463442893 5.90704
2.4318774374315884 6.29293
2.4541988185014043 6.54021
2.476502894794693 7.2843
2.498824462909887 7.081989999999999
2.521146125856138 7.218039999999999
2.5434504863470337 7.78379
2.5657723414244717 7.743539999999999
2.588076895590662 7.84485
2.610398946189713 8.79134
2.6327210958598384 8.319510000000001
2.6550259469304716 8.16151
2.6773482972090137 8.084010000000001
2.6996533504259 8.26768
2.7219759047039602 8.20546
2.744298562293959 7.805560000000001
2.7666039251246595 7.82649
2.7889267918020164 7.989139999999999
2.8112323652516555 8.19937
2.833555444408179 8.50747
2.8558786311183852 8.40268
2.8781845268938557 8.789439999999999
2.9005079311721484 8.92112
2.9228140460410397 9.41894
2.9451376712799635 8.80372
2.967444008632326 9.194930000000001
2.9897678582247247 9.88505
3.0120918213106695 10.5744
3.0343984987899373 10.6099
3.0567226913198637 10.8115
3.079029599759726 11.5496
3.101354025127254 11.987
3.123678568232338 12.6367
3.145985829517914 13.6
3.16831061055229 13.8332
3.1906181112775593 14.4487
3.212943133635653 14.9526
3.2352682779763207 14.6782
3.2575761442691227 15.421
3.2799015350264273 15.7373
3.302209649240067 16.473
3.3245352898092655 16.961
3.3468436553365257 17.6455
3.369169549113219 17.4434
3.3914955708171384 17.9839
3.413804319727358 18.7973
3.4361305997334863 19.0444
3.4584396084414553 19.4966
3.4807661501462652 19.8853
3.503092824025881 20.6535
3.5254022288463154 20.5066
3.5477291695206588 21.2681
3.5700388426251948 21.9559
3.5923660534916446 22.8934
3.6146934007816114 28.2079
3.637003482731501 44.4688
3.6593311053109985 46.8584
3.681641464033634 33.6931
3.7039693653009733 25.9681
3.726297407241705 25.2708
3.7486081875460804 24.8787
3.7709365132734978 25.3214
3.793247578841633 26.1364
3.8155761917550093 26.6828
3.8378875459837216 26.6963
3.8602164494827234 27.0817
3.882545499606844 27.7348
3.9048572932539183 28.3847
3.9271866390645718 28.535
3.9494987298666713 29.0077
3.971828374764527 30.1971
3.9941581705403255 30.2429
4.016470713506008 30.8826
4.038800813471445 31.4462
4.061113662089144 32.2423
4.0834440696459176 32.9743
4.105774632334751 32.9578
4.128087945865126 34.3011
4.150418821249301 34.9102
4.172732448931298 35.4188
4.195063640413578 36.4257
4.2173775856475215 38.6662
4.239709096631102 51.6653
4.262040768704612 105.554
4.284355196706267 129.539
4.306687193387355 91.6424
4.329001947444346 53.9434
4.35133427213731 43.5477
4.373666762177566 42.765
4.395982011761091 43.1107
4.418314834921175 44.2118
4.44063041906622 47.6513
4.4629635787515625 51.9724
4.4852969080429785 52.9984
4.5076130004776225 52.3715
4.529946671403969 58.6155
4.552263106909177 63.361000000000004
4.574597122877047 59.5548
4.596931312711224 54.3516
4.619248269273446 53.547
4.6415828092605835 54.2261
4.663900117405352 55.3896
4.686235010953232 56.3204
4.708552674085913 58.2569
4.730887924602802 59.3597
4.753223354952695 61.5169
4.775541557023902 65.4792
4.797877349456786 69.3968
4.820195915032126 69.5151
4.842532072957498 68.8403
4.864868414979744 71.2225
4.88718753227192 75.7916
4.909524244902505 77.5883
4.931843734218147 76.9184
4.954180820867835 77.7025
4.976518095879839 80.6712
4.998838149695359 83.3707
5.021175803844231 86.7073
5.043496238205739 90.0992
5.065834274903528 94.5504
5.088172504230693 99.4704
5.1104935158799565 106.04
5.132832132875765 125.76299999999999
5.155153533596801 155.255
5.1774925416746225 196.845
5.199814334878411 409.38
5.2221537374521505 1032.46
5.244493338631803 2884.89
5.266815727034316 7967.75
5.289155727832427 12274.4
5.311478517248165 8177.35
5.333818921080011 2479.5
5.356159527788849 481.01199999999994
5.3784829252032536 194.46400000000003
5.400823940070432 154.381
5.423147747031976 130.542
5.445489173474152 120.238
5.467830807066149 120.706
5.490155234831516 121.775
5.512497285125229 114.057
5.534822130975162 106.461
5.557164601388673 102.197
5.579489868738879 99.0757
5.601832762690846 97.2113
5.6241758697774475 96.3059
5.646501775867269 95.7668
5.668845311622074 94.1145
5.691171647754637 93.3787
5.713515615597765 92.2901
5.735859800852677 92.4051
5.758186788542988 95.1309
5.780531411018185 99.1271
5.802858837297399 99.9534
5.825203900414495 100.009
5.8475491852224 104.059
5.869877275883075 102.64
5.892223006467101 97.5715
5.914551544266608 94.9971
5.936897724049891 97.3225
5.959244129804903 103.963
5.981573344815301 133.917
6.0039202049061 244.445
6.026249875609095 479.145
6.04859719346037 977.5269999999999
6.070927323278297 2334.32
6.093275102315365 4530.23
6.115623113320588 5207.6
6.137953938319995 2959.29
6.160302415650845 806.635
6.182633708324452 192.705
6.2049826554078376 105.31
6.227331838745022 88.5416
6.249663839443684 82.5827
6.27201349767565 79.3568
6.294345974611799 80.0182
6.316696111167083 81.8858
6.339046488263839 79.2789
6.361379686074702 73.3775
6.383730546639482 70.3599
6.406064229255215 69.8924
6.428415576718203 71.6923
6.450749747566656 70.4694
6.47310158535871 66.7522
6.495453669698332 64.7161
6.517788579421056 63.661
6.540141159237969 63.0377
6.562476565766648 62.7433
6.5848296444934045 62.3951
6.607182974060425 62.4588
6.6295191323281015 62.3422
6.651872965955752 62.9105
6.6742096296068985 70.1425
6.6965639707294615 84.4258
6.71891856698715 83.1
6.741255995248479 69.1634
6.763611104154477 60.74100000000001
6.785949046381137 58.7112
6.808304671371482 59.2363
6.8306605557940046 61.1649
6.852999275508618 60.126000000000005
6.875355681171544 57.8888
6.897694923437771 56.6035
6.92005185377892 56.1776
6.9423916220322655 55.3004
6.964749080490181 54.7744
6.987106804399774 54.887
7.009447368180821 56.0609
7.031805625367033 55.7825
7.054146723727803 55.0534
7.076505517631004 54.6395
7.098864581288365 54.408
7.121206488070854 54.4079
7.143566093607822 54.9601
7.165908543567245 55.8635
7.188268694426048 56.3234
7.2106291193438095 55.1373
7.232972390625943 54.8943
7.255333366030969 59.9079
7.277677189091925 75.9864
7.300038718428332 89.2642
7.322400526130865 81.2617
7.344745183422596 64.2756
7.367107550224791 55.6352
7.389452767901992 54.038999999999994
7.411815697249891 53.92
7.434161478756298 52.9568
7.456524974096713 53.1555
7.478888753837185 53.3725
7.501235387657368 53.6052
7.523599738562711 53.8636
7.545946944825532 54.3692
7.568311870344528 54.4209
7.5906770845765665 54.5208
7.613025156078678 55.0098
7.635390950099687 55.6939
7.657739602662809 55.6734
7.680105979923558 56.2317
7.702472650212829 57.1324
7.724822180948224 56.5661
7.747189439655568 56.2321
7.769539560075357 55.6618
7.791907410653562 56.4173
7.81425812420825 56.0201
7.836626570110925 55.9557
7.858995315087906 56.9674
7.881346924933401 56.9621
7.903716270417482 57.8947
7.926068482028405 58.1172
7.948438431475253 58.3954
7.9708086843180235 59.2407
7.993161805171116 60.2502
8.015532667162402 60.6465
8.037886398416653 61.6409
8.060257873014221 62.3012
8.082629655331942 63.2309
8.104984308787587 63.8883
8.127356708900503 66.3396
8.149711981398308 70.6177
8.172085002766314 72.5518
8.194458336181368 70.8702
8.216814543847752 68.8395
8.23918850371002 68.7196
8.26154533906492 69.6222
8.283919928836452 71.2448
8.306277395339652 72.1447
8.328652618483376 73.7006
8.351028159736202 75.7243
8.373386579575245 78.1573
8.395762759396959 79.9257
8.418121819038275 83.0852
8.440498640894003 90.006
8.462875785192262 101.399
8.485235811156207 127.444
8.507613602688501 180.15200000000002
8.529974277114228 261.796
8.552352719347912 388.67199999999997
8.574731488360351 672.5089999999999
8.59709314210385 1224.07
8.619472567021075 1939.24
8.64183487789147 2168.19
8.664214962183097 1709.73
8.686577933647762 824.439
8.708958680784317 311.91200000000003
8.731339760774953 145.934
8.753703729764451 105.95700000000001
8.77608547780821 96.4611
8.798450116065078 93.7009
8.820832535634787 92.1739
8.843215292401656 92.5433
8.865580941199045 93.0476
8.887964374703538 92.9483
8.910330701447199 92.6334
8.932714815164482 92.266
8.955099270424924 89.2552
8.977466620733543 86.5283
8.999851761421976 85.1067
9.022219798361645 83.8854
9.04460562795561 83.4743
9.066991803441677 83.7449
9.089360876979615 84.6505
9.111747746589993 84.4322
9.13411751544971 82.7604
9.156505082664324 81.9023
9.178875550323522 81.7427
9.20126381862328 81.7408
9.223652438908596 81.7363
9.246023961427412 81.7289
9.26841328802173 81.8012
9.290785518039224 82.2327
9.313175554425882 84.8437
9.335565947154315 87.3051
9.357939245086508 87.2493
9.380330352834827 86.7746
9.40270436697103 86.2968
9.425096193225055 85.4615
9.447488380180165 85.0605
9.469863475295412 84.4654
9.492256385987508 84.7751
9.514632206018318 85.3049
9.537025843935714 85.5067
9.559402392368193 86.7297
9.581796761000229 89.415
9.604191496441521 92.0246
9.626569144158516 95.1987
9.648964615551032 95.9928
9.671343000390081 94.7877
9.693739211225699 92.7768
9.716135793237463 92.4051
9.738515290448102 92.7252
9.760912617143402 94.8534
9.783292860202891 97.2699
9.805690935076182 99.9495
9.828089385495742 100.62700000000001
9.850470754023561 101.23
9.872869957865444 104.21
9.89525208097539 110.544
9.917652041736662 117.445
9.940052382417589 126.135
9.962435644102392 152.093
9.984836746950979 192.459
10.007220771957746 249.287
10.029622640473708 348.005
10.052007432299963 529.994
10.074410069984072 845.985
10.096813093716005 1325.01
10.119199042482517 1817.62
10.141602840636468 1962.9
10.163989564971628 1493.6
10.186394141051062 795.039
10.208799107559706 343.85900000000004
10.231187001965623 167.25
10.253592751657669 119.565
10.275981430388155 109.986
10.298387966769793 108.14399999999999
10.320794897965431 108.199
10.343184759907361 106.836
10.36559248305461 104.19
10.387983138083852 104.575
10.410391656691655 111.149
10.432800574501677 122.163
10.455192425893369 137.1
10.47760214443012 162.819
10.499994797678786 210.58
10.522405320453982 299.259
10.54479877906917 433.517
10.567210109595656 540.212
10.5896218454736 583.221
10.612016518879773 490.472
10.634429067781074 316.737
10.656824555333241 179.595
10.679237920773568 114.50200000000001
10.701651695961992 93.2418
10.724048411481384 87.9834
10.746463008485165 85.615
10.768860546937125 84.119
10.791275969274796 82.5058
10.81369180576079 81.4193
10.836090585366925 80.4933
10.858507252467449 79.1201
10.88090686379991 78.4006
10.903324365036394 78.0058
10.925724811614439 77.2102
10.948143150509463 77.7845
10.970561909719066 77.5531
10.992963615930844 76.7349
11.015383218085756 75.0996
11.037785768347074 73.2465
11.06020621697282 72.5005
11.082627090322113 71.775
11.105030913430326 71.1967
11.12745263854165 70.72399999999999
11.149857314510728 71.3387
11.172279894912576 73.0479
11.194702904450653 72.5299
11.217108866490921 70.5852
11.239532736615194 69.2021
11.26193956033512 68.2856
11.284364294577085 67.6667
11.306789462371718 66.9297
11.329197585398376 66.4802
11.351623622610898 66.3979
11.37403261614354 65.6033
11.396459526308487 65.5863
11.418869393879497 64.7718
11.441297180532617 64.5892
11.463725406927658 64.1856
11.486136592353875 64.0467
11.508565700543707 64.0696
11.530977768845315 64.8055
11.553407762368774 64.5785
11.575838200059769 64.2223
11.598251599479612 63.3633
11.620682927815501 63.1072
11.64309721895548 62.8685
11.665529441478206 62.6546
11.687962112597958 62.3937
11.710377748130886 62.1292
11.732811318753434 62.1647
11.755227854859067 62.1395
11.777662328529495 62.0566
11.800079768750786 62.0365
11.822515149015453 62.3098
11.844950984084935 62.6171
11.867369787303163 62.1181
11.889806534289491 61.8662
11.912226250487029 62.2619
11.934663912939751 62.5988
11.9571020346363 62.8655
11.979523127133968 62.8295
12.001962169624331 64.2464
12.024384183972964 65.6578
12.046824150809913 68.5466
12.069264581333726 72.8615
12.091687985297767 78.3028
12.11412934550045 87.3627
12.136553680195208 104.15100000000001
12.158995973632788 129.506
12.181438735204349 162.69
12.20386447284199 194.47099999999998
12.226308172985636 216.90599999999998
12.24873485024193 200.206
12.271179492516982 160.19799999999998
12.293607112949127 115.59
12.316052700916226 84.9361
12.338498763250042 71.0819
12.360927805303868 65.7812
12.383374818673879 64.0822
12.405804812803074 63.3626
12.428252780773262 63.2605
12.45070122756722 63.7631
12.473132656675375 63.8693
12.49558206341869 64.6532
12.518014453510101 64.5218
12.540464823770117 64.703
12.562915677315177 64.3442
12.58534951575545 64.7266
12.607801338171472 65.3127
12.630236146511358 67.1403
12.652688941369085 68.895
12.675124723177234 69.4441
12.697578494048786 68.6712
12.720032754458185 67.0928
12.742470003354093 66.7619
12.764925245138771 67.3026
12.787363476431278 67.081
12.809819703166806 67.9064
12.83227642391173 68.8805
12.854716135692716 69.4228
12.877173846755147 70.7071
12.899614549869717 70.9526
12.9220732548287 72.1447
12.94453245827299 72.6915
12.966974655289818 73.5906
12.989434858002571 74.3254
13.011878055298721 74.712
13.034339260862497 75.4788
13.056800969391883 76.9155
13.079245674017244 80.3636
13.101708390774869 84.4583
13.12415410463411 92.6383
13.146617833206086 101.781
13.169064559883248 111.238
13.191529303857127 126.255
13.213994557076367 150.55
13.236442809902437 190.59900000000002
13.258909083908291 251.36700000000002
13.28135835851934 318.30400000000003
13.30382565690295 391.474
13.326293469022952 427.42699999999996
13.348744283242008 411.18300000000005
13.371213125129904 326.872
13.39366497011003 230.53799999999998
13.416134845360597 153.89600000000002
13.438605238843131 116.22
13.46105863690397 104.91799999999999
13.483530069144786 105.98899999999999
13.505984506951902 110.13799999999999
13.528456981549432 120.265
13.550929978879088 135.75
13.573385983253365 162.912
13.595860028340867 203.577
13.618317081455832 260.716
13.64079217790333 320.675
13.663250283359057 369.671
13.685726434770173 377.191
13.708203115221277 325.807
13.730662806148091 243.918
13.75314054697177 166.312
13.775601299246777 117.09899999999999
13.798080104050406 93.0041
13.820559442405358 83.5849
13.843021793671388 80.6964
13.865502201420897 79.3935
13.887965623051947 78.9027
13.910447103807167 78.0484
13.932929122629764 76.7246
13.955394156785959 76.1761
13.977877254034569 75.3849
14.000343367582113 74.3309
14.022827546871707 73.5803
14.045294743423524 73.2426
14.06778000837062 72.6205
14.090265817715476 72.1906
14.112734645763819 71.7009
14.13522154619454 71.4588
14.157691466286913 71.0967
14.180179461423874 71.0709
14.202668005486178 70.7088
14.22513957064374 70.1931
14.247629214846473 69.8193
14.270101881097517 69.4008
14.29259262906496 69.5319
14.315083930490205 69.5778
14.337558255389705 69.3654
14.360050666019726 69.387
14.382526101071944 68.8366
14.405019624534942 68.719
14.427513705993134 68.2458
14.449990813291825 68.377
14.47248601302899 68.2624
14.49496423954951 68.2088
14.517460561197822 68.1857
14.539939910570322 67.8946
14.562437357763558 68.3591
14.58493536931253 68.8731
14.607416409993311 69.1498
14.62991555254159 69.7415
14.652397725157423 69.9409
14.674898002342799 70.0512
14.697398848433282 70.1255
14.719882725991326 71.6056
14.74238471217934 73.7439
14.764869730765593 76.9501
14.787372860692983 79.3395
14.809876564079925 83.3581
14.83236330125751 88.9711
14.854868153850365 98.0638
14.877356041159485 112.64200000000001
14.899862046604186 133.485
14.922351087688757 160.636
14.944858249632887 191.415
14.967365991421232 218.109
14.989856770231246 227.354
15.012365673994204 216.785
15.03485761569738 183.981
15.05736768508665 138.70600000000002
15.07987833888692 105.809
15.102372032001655 85.0923
15.124883856909658 74.7236
15.14737872204565 71.4439
15.169891721717274 70.0265
15.192405310371893 69.5822
15.214901940621196 69.3144
15.237416709527137 68.6323
15.259914520936249 68.7293
15.282430473753607 67.8737
15.304947020131227 67.1387
15.327446610371178 66.9317
15.349964346154254 66.3418
15.372465126703139 66.1414
15.394984055556009 66.0589
15.417486030076159 65.8245
15.44000615566487 65.3625
15.462526881230803 64.9966
15.485030653812652 65.132
15.507552581617434 65.1989
15.530057557334603 65.2768
15.55258069104857 65.3278
15.575104429329837 65.587
15.597611216864632 65.3274
15.620136166564563 66.1526
15.6426441664095 67.9189
15.665170331202765 70.1115
15.687697105158826 72.6549
15.710206930593545 75.68
15.732734925158933 79.6176
15.755245972089478 86.0133
15.77777519094324 96.0378
15.800287463046663 110.581
15.822817909869592 131.251
15.84534897229804 153.675
15.867863089299354 179.813
15.890395385222186 196.175
15.912910736597423 196.75
15.935444269699861 177.61900000000003
15.957978423016485 145.695
15.980495633101265 111.98899999999999
16.003031029129367 88.1077
16.02554948280019 72.0505
16.048086125229432 65.3739
16.070623392487107 63.2667
16.09314371869582 62.2653
16.11568223789321 61.3365
16.13820381691126 60.7136
16.160743591742527 60.0274
16.183283996022084 59.6267
16.205807461423195 58.6808
16.228349126881973 58.0296
16.25087385432698 58.257
16.27341678466365 57.651
16.29594277784926 57.2267
16.31848697676433 57.089
16.341031811604868 56.9888
16.36355971058487 57.0023
16.3861058195587 56.8783
16.40863499352978 55.9707
16.431182380342005 55.7078
16.453730407713202 55.387
16.476261501364792 55.28
16.498810812136167 54.9834
16.52134319004079 54.8795
16.54389378792203 54.8369
16.566445031001553 54.7639
16.588979342490088 54.498999999999995
16.61153187824822 54.5519
16.634067483263312 54.3116
16.656621315414416 54.2047
16.679175797408888 54.0363
16.701713349928728 54.0157
16.72426913389191 54.0803
16.74680798922351 54.1674
16.76936507887444 54.1959
16.791905240734874 54.1512
16.814463639794468 53.9584
16.837022695210294 54.1634
16.859564824093756 54.3846
16.882125194503903 54.684
16.904668639217885 54.8991
16.927230328348003 54.9298
16.949792678493612 55.0621
16.972338104193863 54.8132
16.994901778652235 54.9331
17.017448529496576 55.0027
17.040013531998152 55.6394
17.06257920018044 56.2316
17.0851279459922 56.8716
17.107694947817667 57.4877
17.130245028099072 58.2191
17.15281336730298 59.4621
17.17536478578733 61.168
17.19793446610687 63.6831
17.220504818648422 67.0989
17.243058251703697 70.6336
17.265629950971032 75.1908
17.288184731571736 80.1601
17.310757781306908 83.2826
17.33333150794385 83.3836
17.355888317140174 80.6679
17.37846339986244 74.7314
17.401021565958885 68.1482
17.42359800851343 63.2779
17.44617513265564 60.5862
17.468735341390783 59.2191
17.491261035594565 58.7409
17.51396340099364 58.5489
17.536490463869136 58.6896
17.559018209820174 58.5894
17.58154663977963 58.7168
17.604251766089718 58.9298
17.626781572227713 59.0867
17.64931206518155 59.2265
17.671843245885103 59.7687
17.69455114821572 59.6853
17.717083712612634 60.1865
17.739616967569667 60.4236
17.762150914021706 60.8444
17.78486160749854 60.9418
17.807396945166804 62.2174
17.829932977143503 63.3996
17.85246970436452 64.8238
17.875183204129467 66.2175
17.897721330097664 67.8713
17.920260154126645 70.1523
17.942799677153296 73.3776
17.9655159983646 77.2093
17.988056927677544 83.0191
18.010598558807683 91.7537
18.033140892692916 102.34200000000001
18.05586005052525 114.15899999999999
18.07840379824407 126.242
18.10094825154059 136.251
18.12366954819864 141.819
18.146215420998306 137.18200000000002
18.16876200220057 126.366
18.191309292745153 110.90299999999999
18.214033452627167 98.3107
18.236582170236648 88.3824
18.259131600016456 84.56
18.281681742907335 86.0829
18.304408781233683 91.3698
18.32696035875955 97.2443
18.349512652227624 101.911
18.372065662579683 105.31299999999999
18.394795594587553 104.76
18.41735004715306 99.1951
18.43990521943684 91.0069
18.46246111238171 81.9195
18.485193953325208 73.6211
18.507751296070428 67.3681
18.530309362314178 64.3311
18.552868153000343 62.4694
18.57560391815056 61.4674
18.59816416623245 61.1973
18.620725141597372 60.4658
18.643286845190268 60.001000000000005
18.666025549835414 59.6129
18.688588718427933 59.2076
18.711152618092243 58.9629
18.73389353884365 58.9444
18.75645890921984 58.3742
18.77902501351406 58.0982
18.801591852673102 58.0783
18.824335739722738 57.4732
18.846904057212626 57.6031
18.8694731124168 57.1261
18.89204290628315 57.2287
18.914789774966803 57.152
18.937361054791623 56.8842
18.959933076131318 56.688
18.982505839934877 56.5555
19.00525570560582 56.3416
19.027829963004184 56.3469
19.05040496572238 56.3552
19.072980714710468 56.3282
19.095733592739563 56.5292
19.11831084296757 56.6962
19.140888842324735 57.0496
19.16346759176222 57.0578
19.18622349753803 57.8637
19.208803755869358 58.8499
19.231384767143577 60.0435
19.253966532312948 61.7503
19.276725481241822 64.1244
19.29930876296784 66.7407
19.3218928014549 69.6165
19.34465404436217 72.4904
19.36723960516257 75.0534
19.389825925592426 75.1138
19.412413006605938 73.4509
19.43517731967805 69.4727
19.457765930683355 64.8882
19.48035530514408 60.6137
19.50294544401556 57.5135
19.525712842708348 55.3623
19.54830451925909 54.3247
19.570896963095727 53.458
19.593490175174704 53.255
19.616260674962184 53.2652
19.638855432416964 52.9492
19.661450960992624 53.05
19.68404726164677 53.0658
19.706820878021247 52.9362
19.729418731756834 53.1505
19.752017360452857 52.9862
19.77461676506804 53.1363
19.797393513540218 53.2602
19.819994478951667 53.3939
19.84259622316767 53.8409
19.8651987471481 54.2793
19.887978643247177 54.4627
19.91058273574792 54.9214
19.933187610901943 55.7513
19.955969879466828 57.1042
19.97857632894404 58.5783
20.00118356396599 60.5992
20.023791585494575 62.7467
20.046577028914875 65.7109
20.069186632506966 67.9513
20.091797025500632 69.6967
20.114408208858933 69.7296
20.137196842715273 68.9806
20.159809615886765 66.6289
20.18242318232135 63.949
20.20503754298326 62.1465
20.227829382875154 61.4521
20.250445341109344 61.8089
20.27306209647285 62.6524
20.29567964993108 64.0138
20.31847471147704 64.9884
20.34109387027612 65.2632
20.363713830075454 64.4521
20.386334591841646 62.5132
20.409132890679302 59.864
20.431755265564437 56.497
20.454378445325528 53.7803
20.477002430930366 52.1128
20.499803982716553 51.118
20.522429589228004 50.4307
20.54505600449589 50.0752
20.567683229489194 49.8756
20.590488049900088 49.7089
20.61311690359731 49.5897
20.63574656993626 49.4523
20.658553853717297 49.0804
20.681185154618298 49.1374
20.703817271080066 48.7825
20.72645020407368 48.5553
20.749260783967177 48.4974
20.771895359337133 48.492
20.794530754161617 48.4326
20.817166969412938 48.5298
20.83998086114876 48.3638
20.86261872660049 48.3212
20.885257415405402 48.3931
20.90789692853701 48.2377
20.930714147864748 48.2065
20.953355319030678 48.1377
20.97599731745334 48.2499
20.99864014410749 48.1887
21.021460706796564 48.0922
21.044105199328826 48.4994
21.06675052302631 48.6157
21.089396678865015 48.7854
21.112220600704806 48.975
21.134868430275347 49.4072
21.15751709492456 49.7582
21.180166595629693 50.1076
21.202993892429635 50.6337
21.22564507473034 50.7401
21.24829709602816 51.0306
21.27112693608965 50.9973
21.293780644891275 50.7966
21.316435195634053 50.1225
21.339090589297417 49.1993
21.361923832041875 48.8098
21.384580921090404 48.286
21.407238856007325 47.9185
21.429897637773326 47.8623
21.45273429906592 48.0087
21.475394784108598 47.7668
21.498056118951983 47.8703
21.520718304578022 48.1475
21.543558400304388 48.24
21.566222297108816 48.4887
21.58888704765135 48.6738
21.61155265291521 48.9729
21.63439619898156 49.2038
21.657063523335786 49.4354
21.67973170537063 49.9264
21.7024007460706 50.3908
21.72524775840385 51.1538
21.747918526116475 52.5401
21.770590155457388 53.651
21.79326264741238 55.3796
21.816113141960237 57.2278
21.838787368860547 59.3901
21.861462461341976 61.0873
21.884315579735777 62.7907
21.90699241312273 63.5616
21.92967011506078 63.7287
21.95234868653799 63.141000000000005
21.9752053151131 61.2976
21.997885635446785 59.5734
22.020566828293532 57.761
22.04324889464272 56.5561
22.066109049404666 55.6641
22.088792872571794 55.4854
22.111477572219204 55.7363
22.1341631493376 55.5949
22.157026846313123 55.2124
22.179714188221507 54.1999
22.202402410582668 53.0671
22.22509151438863 51.6593
22.24795876962584 50.3285
22.270649646204486 49.498000000000005
22.293341407213727 49.0285
22.316034053646906 48.7495
22.338904883215342 48.468999999999994
22.36159931041458 48.2424
22.38429462602756 48.2356
22.40699083104897 48.0589
22.429865251039757 48.1196
22.452563244831367 48.2257
22.47526213102522 48.1508
22.49813925616515 48.1056
22.520839937143307 48.0736
22.543541513520587 48.2426
22.56624398629403 48.0966
22.589124730075895 48.0857
22.611829005656723 48.2526
22.63453418063466 48.201
22.657240256008077 48.597
22.680124634582935 48.4786
22.70283252079775 48.7839
22.725541310413075 48.9903
22.74825100442868 49.097
22.771139033969575 49.708999999999996
22.79385054687155 49.9482
22.81656296718292 50.8152
22.83927629590484 51.5837
22.862167992606945 52.7726
22.88488314827121 54.0537
22.907599215359284 55.1114
22.93031619487366 56.1179
22.953211574954405 56.8802
22.975930389478226 57.3129
22.998650119445763 57.4042
23.02137076586092 56.3591
23.044269845560063 54.8932
23.06699233506288 53.2288
23.089715744034912 51.4163
23.112617610931565 50.0837
23.135342869061212 49.0572
23.158069049684816 48.4997
23.1807961538087 48.3046
23.20370174880544 48.2123
23.226430710184808 48.4188
23.249160598093425 48.4274
23.271891413539002 48.3164
23.294800752937697 48.398
23.31753343374794 48.6221
23.340267045128353 48.635
23.36300158808808 49.0669
23.38591468821339 49.2134
23.408651104658304 49.746
23.431388455719986 50.5213
23.454126742409 51.2391
23.4770436196085 52.6117
23.499783787914662 53.6863
23.522524894889884 54.8306
23.54526694154616 55.9607
23.56818761219047 56.8489
23.59093154860734 57.3436
23.613676427751283 57.1988
23.636422250635754 55.7482
23.659346731118656 54.071999999999996
23.68209445191868 52.0402
23.704843119509587 50.1677
23.72759273490623 48.3156
23.750521041644767 47.29
23.77327256312355 46.523
23.796025035462787 46.07
23.818956224555475 45.5663
23.841710609113413 45.5557
23.86446594758979 45.3232
23.887222241002014 44.9464
23.910157285144578 44.6131
23.932915498962537 44.702
23.955674670778713 44.5428
23.978434801611975 44.4428
24.001373717286125 44.1939
24.024135776723917 44.2497
24.046898798245582 43.9158
24.06966278287146 43.8464
24.092605586582614 43.75
24.115371508023642 43.4796
24.1381383956401 43.5708
24.16090625045381 43.3888
24.183852958731244 43.4232
24.206622758582608 43.2731
24.229393528706886 43.0563
24.252165270127392 43.2276
24.27511589952438 43.1385
24.297889594216997 43.0436
24.32066426328598 42.8105
24.34343990775613 42.8682
24.36639447485003 42.7072
24.38917208083877 42.6216
24.41195066531332 42.6
24.43490819850244 42.5725
24.457688750692377 42.5186
24.48047028445616 42.4734
24.503252800821233 42.7296
24.526214300784112 42.8897
24.548998793132213 42.6329
24.57178427117417 42.4805
24.59457073593893 42.5767
24.617536219319863 42.4652
24.64032466834748 42.397
24.663114107195035 42.3071
24.685904536893013 41.98
24.708874020360852 41.9268
24.731666442613744 41.8859
24.754459858818787 41.8417
24.777254270007962 41.8506
24.80022777025625 41.7511
24.82302418230472 41.9026
24.845821592443674 41.8233
24.86862000170663 41.7026
24.891597535453727 41.6122
24.914397953892728 41.8726
24.93719937456671 41.8614
24.96000179851076 42.0064
24.98298338249997 42.2959
25.00578782394922 42.4315
25.028593271784167 42.54600000000001
25.05157790644186 42.937
25.07438537804115 42.8817
25.097193859145293 43.1307
25.120003350792075 43.4334
25.142992065061257 43.8653
25.165803588823465 44.0356
25.18861612625217 44.1121
25.211429678386736 44.2491
25.234422489079968 44.3135
25.257238081693636 44.2973
25.280054692141732 44.3335
25.3028723214652 44.4298
25.325869245420463 44.5797
25.348688923599397 44.6867
25.371509623787006 44.3585
25.394331347025812 43.9691
25.41733240110666 43.4763
25.440156181590016 42.7013
25.46298098826268 42.185
25.48580682216873 41.8081
25.50881202326435 41.1529
25.53163992281684 40.8654
25.55446885274561 40.6829
25.577298814096377 40.3172
25.600308179121807 40.4455
25.623140214533745 40.421
25.64597328451537 40.2912
25.66898578564376 40.1334
25.691820936010206 40.1939
25.714657124097695 40.131
25.737494350954734 40.1267
25.760511045684957 40.0004
25.783350361364224 40.1608
25.806190718969255 40.0805
25.82903211955018 40.1118
25.852053024868923 40.121
25.874896522722523 40.2029
25.897741066713106 40.2938
25.920586657892454 40.3455
25.943611790812668 40.5002
25.966459487728237 40.4547
25.989308234998564 40.6279
26.01215803367705 41.05
26.03518741123814 41.1654
26.05803932412957 41.3453
26.080892291600094 41.3973
26.10374631470478 41.3123
26.12677995397268 41.2079
26.14963609978026 41.1521
26.172493304397875 40.8615
26.19535156888223 40.6486
26.218389486949604 40.1128
26.241249882640123 39.9595
26.26411134137826 39.8668
26.28715248187403 39.8438
26.31001607820869 39.6366
26.3328807407756 39.5775
26.35574647063438 39.7202
26.37879191991473 39.5367
26.401659795896734 39.741
26.424528742360263 39.8799
26.447398760366614 40.0396
26.470448535598294 40.1992
26.49332070826805 40.2913
26.516193955675355 40.749
26.53906827888316 41.0177
26.562122397260108 41.1391
26.584998883685063 41.3225
26.607876449110325 41.6243
26.63075509460056 41.8026
26.65381357334404 41.7961
26.67669439061878 41.6321
26.699576291163382 41.5049
26.722459276044212 41.4437
26.745522132402975 41.0815
26.768407297649354 40.7827
26.791293550442003 40.4666
26.814180891848974 40.3647
26.837248143099337 39.9645
26.860137673466657 40.0337
26.88302829566349 39.6088
26.90592001075963 39.4527
26.92899167420566 39.4484
26.951885586870763 38.9729
26.974780595655517 38.7964
26.99785558178161 38.7549
27.020752794605112 38.6309
27.043651106772522 38.4401
27.06655051935668 38.3887
27.089629948036183 38.3214
27.112531573292053 38.2851
27.135434302194138 38.3672
27.158338135817015 38.1985
27.181422024430987 38.2245
27.204328079372566 38.0018
27.22723524226965 38.0725
27.250143514198573 38.1847
27.273231880156334 38.0863
27.296142382065014 37.9378
27.319053996245536 37.8663
27.341966723775965 38.0365
27.365059584515222 38.11
27.38797455070062 38.202
27.410890633481237 38.0524
27.433807833936918 37.9697
27.456905206923906 38.1342
27.47982465472398 38.1872
27.502745223449743 38.1732
27.525666914182825 38.2822
27.548768816912457 38.1515
27.571692763693633 38.05
27.59461783573812 37.8625
27.617723149491244 37.7261
27.640650484125285 37.6552
27.66357894728264 37.5783
27.686508540048052 37.5031
27.709618414237887 37.5137
27.732550278321757 37.4354
27.755483275279115 37.4297
27.778417406196485 37.4905
27.801531858397514 37.4491
27.824468269376716 37.4772
27.847405817586786 37.4426
27.870344504116094 37.6932
27.893463551932008 37.8059
27.916404527281053 37.9799
27.93934664422563 37.9928
27.962289903855886 38.054
27.98541356491974 38.3779
28.00835912214229 38.5177
28.03130582533231 38.6574
28.054253675581805 38.6449
28.077381967556104 38.6029
28.100332124185126 38.576
28.123283431160893 38.479
28.146235889577238 38.3326
28.169368830154156 38.1151
28.192323603752033 37.9212
28.215279532083304 37.7179
28.238415973016764 37.4542
28.261374223145094 37.455
28.284333631303806 37.0629
28.307294198589954 36.9356
28.330435319167677 36.6629
28.353398217078915 36.4781
28.376362277420153 36.2337
28.39932750129032 36.1579
28.422473319286713 35.9028
28.44544088262495 35.8645
28.468409612800283 35.7499
28.491379510913497 35.7581
28.51453004413313 35.6508
28.53750229057244 35.6459
28.56047570826344 35.4408
28.583450298308804 35.4947
28.606605564586562 35.3475
28.629582511831156 35.3375
28.65256063474956 35.1614
28.675539934446338 35.3122
28.698699951647605 35.2581
28.72168161743193 35.1393
28.74466446331978 35.1075
28.767648490417624 35.0496
28.790813276438353 34.9634
28.813799678527303 35.0973
28.836787265157085 35.2167
28.859955641890075 35.1207
28.882945610203045 35.0719
28.905936766392035 35.0212
28.928929111566863 34.8182
28.952102288520145 34.8497
28.975097024308607 34.6793
28.998092952423807 34.5847
29.021090073977508 34.4632
29.04426806913204 34.3868
29.067267590245258 34.2521
29.090268308143695 34.3149
29.11327022394099 34.1424
29.13645305530891 34.0686
29.159457379627167 34.075
29.18246290519685 34.024
29.20546963313352 34.0132
29.22865731875826 34.0262
29.25166646419296 33.9875
29.27467681535305 33.8039
29.29768837335608 33.9395
29.320880931312562 34.0269
29.34389491580634 33.8629
29.366910110507334 33.900999999999996
29.38992651653503 33.8461
29.41312396492981 33.7954
29.436142806456754 33.7774
29.45916286268059 33.6696
29.48236399319994 33.5036
29.50538649169417 33.3653
29.528410208259935 33.2736
29.55143514402014 33.044000000000004
29.574641196749695 32.9889
29.597668583816574 32.8989
29.6206971934585 32.7146
29.64372702680042 32.8751
29.666938019934474 32.7346
29.689970313635285 32.6621
29.713003834422636 32.6696
29.73603858342347 32.5275
29.759254535188578 32.4366
29.78229175361658 32.4547
29.80533020365064 32.5091
29.82836988641968 32.5227
29.85159081507472 32.461999999999996
29.874632976355343 32.3632
29.89767637376955 32.4412
29.920721008448314 32.2206
29.9439469322847 32.2852
29.96699405457564 32.2707
29.9900424175358 32.1941
30.013092022298157 32.1019
30.03632295963995 32.0433
30.059375061131373 32.1518
30.08242840783577 32.14
30.105483000888153 32.1289
30.128718970092244 32.0562
30.151776069006917 32.0973
30.17483441768648 32.0487
30.198074175317235 32.0432
30.221135036724256 32.0638
30.24419715131772 31.9548
30.267260520236203 31.879
30.290505341942243 32.041
30.313571232750228 32.0856
30.336638381310948 31.9878
30.35970678876503 31.8707
30.38295669299435 31.7922
30.40602763151657 31.8412
30.429099832366074 31.7089
30.452173296685572 31.6999
30.47542830191959 31.6671
30.498504306502497 31.6813
30.521581577995562 31.7488
30.544660117543582 31.8864
30.56792024229725 31.9332
30.59100133132069 31.8074
30.614083691845494 31.7962
30.637167325018545 31.9483
30.660432587840603 31.9752
30.683518779717886 31.7333
30.70660624769615 31.9371
30.729694992924372 31.8911
30.75296541239743 31.7168
30.77605672557558 31.7144
30.799149319462742 31.7073
30.8224236211637 31.6206
30.845518789950724 31.3913
30.868615242910597 31.3522
30.891712981195973 31.3013
30.91499247215866 31.2922
30.938092794619365 31.3326
30.96119440587579 31.1377
30.984297307082752 31.0036
31.00758200598383 30.9778
31.030687500658694 30.8715
31.053794288760695 30.8627
31.076902371446767 30.7455
31.100192296997445 30.8011
31.12330298246119 30.6778
31.14641496599209 30.5183
31.169528248749216 30.6465
31.19282341969534 30.573
31.215939314557186 30.5782
31.239056512134788 30.5829
31.262175013589378 30.5886
31.28547544871168 30.5694
31.30859657161541 30.5362
31.331719001892175 30.5082
31.35484274070538 30.6507
31.378148458819545 30.616
31.401274828443725 30.5748
31.424402510106933 30.6007
31.447712205419993 30.6646
31.470842524931633 30.5161
31.493974159989783 30.4228
31.51710711176168 30.3731
31.54042212308802 30.485
31.563557722100917 30.3761
31.586694641341655 30.1931
31.609832881979628 30.086
31.63315322823208 30.0067
31.656294125521327 29.9972
31.679436347728515 30.0659
31.70257989602529 29.833000000000002
31.725905596152327 29.8408
31.74905181052835 29.8152
31.772199354521323 29.8664
31.79534822930507 29.8636
31.818679302290967 29.7934
31.84183085259981 29.7775
31.864983737233473 29.8423
31.88813795736804 29.85
31.911474422233013 29.7243
31.934631327356435 29.7164
31.9577895715215 29.7722
31.980949155906522 29.7177
32.004291031706956 29.6327
32.027453310562606 29.6055
32.05061693318573 29.4657
32.07396288236386 29.3862
32.09712920658542 29.3148
32.12029687812702 29.3324
32.14346589817093 29.2037
32.166817291729984 29.1425
32.18998902288583 29.0655
32.21316210610336 29.085
32.23633654256711 28.9488
32.259693399663725 28.8578
32.282870556771144 28.7828
32.30604907069099 28.8249
32.329228942610065 28.7397
32.35259128243769 28.5993
32.375773884550505 28.5912
32.398957848235646 28.5792
32.422143174682176 28.5841
32.445511016471215 28.3701
32.468699082679954 28.2933
32.49188851523011 28.3486
32.51507931531304 28.3226
32.538452678331 28.2788
32.56164622776311 28.1976
32.58484114831493 28.1544
32.60803744118015 28.1162
32.631416344731896 28.2059
32.654615396551876 28.1972
32.67781582427913 28.0804
32.701198898634416 27.9671
32.72440209253756 27.9324
32.747606665947124 28.0219
32.77081262006088 27.8032
32.79420126883317 27.7995
32.81740999876112 27.8609
32.840620112999424 27.7736
32.86383161274818 27.6445
32.88722585534586 27.6857
32.91044014056596 27.7792
32.933655814909734 27.6621
32.95687287957963 27.6465
32.98027273544904 27.5816
33.00349259526636 27.5095
33.026713849030116 27.548000000000002
33.04993649794511 27.53
33.073341986570746 27.4992
33.09656744032826 27.423000000000002
33.11979429286444 27.5823
33.14302254538647 27.4839
33.166433686291185 27.4226
33.18966475336992 27.3675
33.212897224069096 27.3369
33.23613109959831 27.3439
33.259547912343415 27.2046
33.2827846121627 27.2553
33.306022720453775 27.1463
33.32926223842861 27.059
33.352684742614166 27.1184
33.37592709463173 27.0439
33.399170859982064 26.9635
33.422597648419426 26.886
33.44584425514446 26.7648
33.46909227885668 26.7542
33.4923417207723 26.6503
33.51577423505344 26.7483
33.539026528130385 26.6241
33.56228024307245 26.5902
33.585535381098246 26.5143
33.60897364093058 26.3877
33.63223163992385 26.427
33.6554910656699 26.3741
33.678751919389796 26.3837
33.702195944520106 26.2863
33.72545966903325 26.4182
33.74872482519663 26.271
33.771991414233746 26.2865
33.79544122444841 26.1992
33.81871069412428 26.0428
33.84198160035767 26.0835
33.86525394437455 26.0601
33.88870955949969 26.0471
33.911984794020626 26.0225
33.93526147001624 25.9945
33.958539588715006 25.9147
33.98200102861669 25.843000000000004
34.0052820477047 25.7507
34.02856451319451 25.7815
34.05203033759056 25.677
34.07531571090147 25.6517
34.09860253431845 25.6476
34.121890809074316 25.6507
34.145362493118924 25.6118
34.16865368561615 25.5832
34.191946333164054 25.5213
34.21524043699793 25.4732
34.23871800066799 25.3178
34.26201503218366 25.3332
34.28531352370466 25.3055
34.30861347646881 25.2987
34.33209693978188 25.1539
34.3553998301885 25.2342
34.378704185565205 25.1391
34.402010007152356 25.1228
34.42549939016683 25.0864
34.44880815937748 25.0582
34.472118398533134 24.9869
34.49543010887669 24.9992
34.51892543169198 24.8489
34.54224009966052 24.8766
34.56555624255917 24.8348
34.58887386163339 24.8165
34.61237514439016 24.7564
34.6356957311114 24.6341
34.65901779775809 24.6866
34.68252356662995 24.5694
34.705848608458616 24.6601
34.72917513396849 24.587
34.75250314440949 24.5191
34.77601490857862 24.3999
34.799345904259795 24.3365
34.82267838863559 24.4163
34.846012362958525 24.3563
34.869530142679984 24.3544
34.89286711232212 24.3531
34.91620557568269 24.2387
34.93954553401677 24.1994
34.9630693495876 24.1755
34.986412313340814 24.2526
35.00975677584668 24.2821
35.033102738362956 24.1913
35.05663261012228 24.0798
35.0799815881786 24.0757
35.10333207003229 23.9703
35.12668405694369 24.0349
35.150220005273056 23.9436
35.17357501786656 23.9889
35.19693153931268 23.8833
35.220289570874385 23.8891
35.24383161619786 23.9284
35.267192683604904 23.8854
35.290555264930376 23.8356
35.314101899412165 23.8231
35.33746752422433 23.7334
35.36083466676374 23.7937
35.38420332829803 23.6994
35.407756095629054 23.7009
35.43112781085063 23.7748
35.45450104888391 23.6635
35.477875810999194 23.6587
35.50143473172161 23.5811
35.52481255774625 23.5794
35.54819191167777 23.4889
35.57157279478914 23.5074
35.595137889488406 23.4722
35.61852184675279 23.4156
35.641907337029984 23.2916
35.665294361595684 23.2651
35.68886565090076 23.2541
35.7122557598848 23.3563
35.73564740699838 23.2704
35.759040593519934 23.2722
35.78261809810353 23.1524
35.80601437933051 23.0904
35.829412203814705 23.0418
35.85281157283719 23.0033
35.876395313415884 22.9918
35.8997977874528 22.9309
35.92320180988546 22.9174
35.946790244133936 22.8183
35.97019737933222 22.8738
35.993606066789866 22.8633
36.01701630779276 22.7808
36.04061101440684 22.7454
36.06402437852291 22.7191
36.08743930005611 22.7271
36.1108557802951 22.6323
36.13445678011326 22.6561
36.15787639383515 22.6169
36.18129757014299 22.6118
36.20472031032821 22.5644
36.22832762423364 22.4676
36.25175350829375 22.4423
36.275180960119776 22.3422
36.298609981005924 22.4425
36.32222362992669 22.4069
36.34565580510207 22.3617
36.36908955323448 22.323
36.39252487562093 22.2914
36.416144880530226 22.1941
36.43958336764275 22.1623
36.463023432914625 22.1309
36.486465077645676 22.0272
36.51009145956204 22.2135
36.53353627947859 22.1313
36.55698268276811 22.1376
36.58043067073321 22.1027
36.60406345072071 21.9709
36.62751462435344 21.9648
36.65096738658405 21.9478
36.67460498210655 21.9261
36.69806093788647 21.8273
36.72151848619297 21.8443
36.744977628333636 21.7985
36.76862165890998 21.7058
36.79208400512205 21.7447
36.81554794910557 21.6454
36.83901349217101 21.6343
36.862663978991606 21.5812
36.88613273667352 21.5605
36.90960309738324 21.5274
36.933075062434064 21.3965
36.95673202673572 21.416999999999998
36.98020721697122 21.4384
37.003684015502365 21.4015
37.027162423645365 21.3647
37.050825886711465 21.3618
37.07430753063053 21.2504
37.09779078812467 21.2655
37.121275660513014 21.204
37.144945643673694 21.1389
37.16843376245278 21.1475
37.19192350009803 21.1
37.215414857931435 21.0981
37.239091382563885 21.0679
37.262585997426164 21.0212
37.28608223645736 20.9996
37.309763684451696 20.9118
37.33326318851098 20.9245
37.356764320726555 20.8212
37.380267082425526 20.9018
37.40395510942588 20.8659
37.42746114683234 20.7582
37.45096881771841 20.7805
37.474478123414166 20.8002
37.49817275092816 20.7013
37.52168534303452 20.6969
37.54519957395567 20.5795
37.568715445024665 20.6254
37.592416694607714 20.5092
37.61593586281424 20.5419
37.63945667518264 20.5668
37.66297913304891 20.5307
37.68668702630454 20.4898
37.710212792059274 20.362000000000002
37.733740207334854 20.3567
37.757269273470364 20.3689
37.780983832050374 20.3571
37.80451621684926 20.2648
37.82805025654007 20.2326
37.851585952464795 20.1402
37.8753071980695 20.1696
37.89884622345676 20.0837
37.92238690911902 20.1184
37.94611318753442 20.1165
37.969657210779765 20.0419
37.99320289834801 20.0335
38.016750251586465 19.9952
38.04048325513017 19.947
38.06403395679343 19.9637
38.087586328183946 19.9442
38.11114037065203 19.8793
38.13488012115898 19.8684
38.1584375229181 19.7589
38.181996599821 19.7126
38.205557353221124 19.6624
38.229303872575656 19.6642
38.2528679961576 19.7185
38.27643380031219 19.6172
38.30000128639589 19.5746
38.32375459653193 19.5777
38.34732546371299 19.5927
38.37089801690786 19.4838
38.39447225747609 19.4867
38.418232380377425 19.4518
38.441810012983396 19.4061
38.46538933705673 19.3812
38.488970353960084 19.3487
38.51273731166058 19.3043
38.536321731567014 19.3425
38.55990784840681 19.2658
38.58367995004091 19.1718
38.60726947812959 19.1828
38.63086070726198 19.1495
38.654453638806274 19.1793
38.678232613930824 19.0681
38.70182896773327 19.0217
38.72542702806741 19.070999999999998
38.7490267963045 19.0786
38.77281266709232 18.9847
38.79641586862214 18.92
38.8200207821842 18.879
38.843627409152944 18.9986
38.86742019782782 18.855
38.891030269149255 18.8229
38.914642058016156 18.8475
38.938255565806124 18.8423
38.96205529464307 18.7683
38.98567225787121 18.7759
39.00929094417078 18.7358
39.03291135492255 18.6653
39.05671804624804 18.666
39.080341923549106 18.6151
39.103967529460334 18.5952
39.127594865365744 18.517
39.15140854155791 18.4971
39.17503935514948 18.5427
39.19867190290282 18.5092
39.22249083587951 18.4077
39.24612686969409 18.3679
39.269764641845306 18.3212
39.293404153722804 18.3223
39.317230110864074 18.2992
39.34087311998506 18.3038
39.36451787301696 18.2782
39.388164371352595 18.2128
39.41199737518003 18.2098
39.43564738196752 18.1582
39.45929913825317 18.1186
39.48295264543308 18.0609
39.506792718520884 18.0385
39.530449745387216 18.0814
39.55410852735203 17.9939
39.57776906581474 18.0054
39.60161623079 17.9927
39.625280300200025 18.0002
39.64894613032202 17.8695
39.67261372255866 17.8785
39.6964680021016 17.8436
39.72013913657293 17.7786
39.74381203738292 17.798
39.76748670593756 17.7825
39.79134812278169 17.7449
39.81502634488497 17.7557
39.83870633896685 17.6315
39.862388106436654 17.6199
39.88625668336918 17.5976
39.90994201572829 17.6821
39.933629125719285 17.5607
39.957503091207826 17.5188
39.9811937746168 17.5387
40.00488623990914 17.5126
40.02858048850006 17.415
40.05246165409549 17.4511
40.076159487492085 17.424
40.099859108448875 17.3799
40.123560518384345 17.3303
40.1474489070226 17.3166
40.171153913178564 17.2498
40.194860712584955 17.267
40.2185693066637 17.2716
40.242464941335314 17.2452
40.26617714307655 17.1997
40.289891143772046 17.139
40.3136069448471 17.0913
40.33750984859743 17.1229
40.3612292688043 17.1237
40.3849504936829 17.0673
40.40867352466194 17.0428
40.43258372059144 16.9634
40.45631038219906 16.9313
40.48003885420956 16.9298
40.503769138055105 17.0131
40.52768664931955 16.9014
40.55142057531802 16.8963
40.57515631746428 16.8987
40.599079334038514 16.8032
40.62281872700477 16.7919
40.64655994043941 16.7251
40.67030297578061 16.689
40.69423334835778 16.6538
40.71798004609188 16.6215
40.74172857006355 16.6646
40.76547892171441 16.6447
40.7894166736039 16.6101
40.813170699248566 16.617
40.83692655691388 16.4958
40.86068424804498 16.5483
40.884629402612525 16.5052
40.908390779366385 16.437
40.932153993938 16.4389
40.95591904777605 16.4177
40.979871628443995 16.4192
41.003640379561936 16.4268
41.02741097430883 16.3605
41.05118341413683 16.2979
41.075143444384416 16.2537
41.098919593177826 16.2614
41.1226975914255 16.3032
41.14647744058318 16.2661
41.170444943946755 16.1658
41.19422851378379 16.1619
41.218013938914645 16.1065
41.24198706625173 16.101
41.26577622087193 16.0199
41.289567235177785 16.0317
41.31336011063129 16.0385
41.337340752422875 15.953
41.361137369129835 15.9281
41.38493585138705 15.9094
41.40873620066004 15.8519
41.43272438060107 15.8486
41.45652848292052 15.829
41.48033445666918 15.7749
41.50414230331616 15.818
41.528138045159764 15.7618
41.551949656675205 15.7671
41.575763145513235 15.7557
41.59957851314666 15.7397
41.62358184070442 15.67
41.64740098505737 15.6472
41.6712220126409 15.5908
41.69504492493139 15.5853
41.71905586207357 15.5663
41.74288256296395 15.5216
41.766711153007456 15.475999999999999
41.79054163368412 15.4967
41.814560204340054 15.4973
41.838394485526365 15.4367
41.86223066180303 15.3877
41.88625497706819 15.3874
41.910094962812 15.3308
41.93393684811168 15.3059
41.95778063445365 15.2558
41.981812625263366 15.24
42.00566023303407 15.2618
42.029509746323676 15.2267
42.05336116662236 15.1848
42.077400857069705 15.2041
42.10125611078846 15.1392
42.12511327600405 15.1207
42.14897235421036 15.1047
42.173019768448455 15.0537
42.19688269209613 14.9859
42.22074753323349 15.0381
42.24461429335818 14.9904
42.268669455600495 14.9725
42.292540073217886 14.9385
42.31641261433284 14.8947
42.34028708044675 14.867
42.36435001496739 14.8452
42.38822835065557 14.8336
42.41210861586426 14.7371
42.4359908120986 14.8371
42.46006154323262 14.6989
42.48394762115317 14.7161
42.507835634632315 14.7689
42.531912233047436 14.6957
42.55580413732265 14.6723
42.579697981698 14.6583
42.60359376768525 14.5799
42.62767820545945 14.6011
42.65157789440821 14.5493
42.67547952952185 14.5579
42.699383112316 14.5009
42.72347541395347 14.4529
42.74738291190531 14.4525
42.771292362102166 14.4881
42.795203766063516 14.4153
42.819303956130405 14.384
42.843219287476536 14.4171
42.86713657716324 14.3715
42.89105582671383 14.3204
42.91516392983864 14.3162
42.939087119032166 14.3148
42.963012272677304 14.2595
42.98693939230129 14.2445
43.01105543317513 14.1837
43.034986504731386 14.1687
43.05891954686589 14.1965
43.08285456110972 14.1796
43.10697856448665 14.0966
43.130917542983475 14.0187
43.15485849820081 14.0556
43.17880143167367 13.9937
43.20293342237094 14.0157
43.226880332449 14.017000000000001
43.25082922540554 13.981
43.27496722682525 13.9311
43.29892010567796 13.8891
43.32287497204102 13.9097
43.34683182745632 13.8378
43.370977859791836 13.8212
43.39493871351105 13.878
43.41890156092628 13.7965
43.44286640358341 13.7084
43.46702049182749 13.7743
43.49098934522816 13.6911
43.51496019852649 13.6852
43.5389330532723 13.6662
43.56309522248204 13.6014
43.58707210044314 13.6404
43.61105098451946 13.6019
43.63503187626491 13.5362
43.659202151562134 13.5545
43.68318707902681 13.5278
43.70717401884041 13.5068
43.731162972560874 13.4942
43.75534137913236 13.4738
43.779334381108384 13.4383
43.803329401683186 13.3978
43.82732644241872 13.4285
43.8515130055166 13.4023
43.87551410707659 13.3156
43.89951723350145 13.3156
43.923709934595614 13.2603
43.94771713129917 13.2785
43.97172635758096 13.2419
43.99573761501002 13.2473
44.0199385169922 13.2136
44.04395385732619 13.1953
44.067971233533086 13.1831
44.09199064718605 13.1375
44.11619977548961 13.0904
44.14022328470671 13.0635
44.16424883610785 13.0919
44.18827643127035 13.0749
44.21249381139513 13.0663
44.236525514814076 13.0254
44.26055926674478 12.9943
44.28459506876863 12.9691
44.3088207262813 12.9234
44.33286064928722 12.8752
44.35690262714919 12.895
44.38094666145278 12.9114
44.4051806219871 12.857999999999999
44.42922879003185 12.8542
44.45327901929361 12.8294
44.477331311362136 12.7793
44.501573600619416 12.7489
44.525630039221795 12.7093
44.54968854541895 12.695
44.573937102200176 12.6818
44.5979997645541 12.6801
44.622064499300315 12.6407
44.64613130803592 12.564
44.67038823869318 12.6129
44.69445921643748 12.5823
44.718532272981385 12.5574
44.742607409926194 12.550999999999998
44.76687274034801 12.5099
44.79095205918753 12.4947
44.81503346325094 12.4501
44.839116954143876 12.4623
44.86339071028742 12.4326
44.88747839599524 12.4191
44.91156817336837 12.36
44.93566004401666 12.3615
44.959942251908146 12.338
44.984038330325966 12.2806
45.00813650686762 12.2673
45.03223678314731 12.2582
45.05652746888232 12.2284
45.08063196592069 12.248
45.104738567558705 12.2285
45.128847275414856 12.2076
45.15314646515866 12.1485
45.17725940679741 12.1321
45.20137445952892 12.1414
45.22568004865265 12.0889
45.24979934496396 12.0599
45.27392075725247 12.0212
45.29804428714431 12.0371
45.322358426247604 12.0145
45.346486212804315 12.003
45.370616121861914 12.0276
45.39474815505086 11.9912
45.41907087049246 11.92
45.4432071734666 11.9145
45.46734560548283 11.9123
45.49148616817604 11.8765
45.51581748638564 11.8681
45.5399623320197 11.8342
45.56410931325473 11.7897
45.58825843173002 11.8062
45.61259837920865 11.7648
45.636751793816 11.7482
45.66090735060093 11.7201
45.68506505120716 11.6822
45.7094136545275 11.7087
45.73357566449271 11.6297
45.75773982322992 11.6041
45.78190613238733 11.6558
45.806263418194064 11.5822
45.83043404997326 11.5795
45.85460683713677 11.5706
45.87897065658495 11.5153
45.90314777634752 11.4717
45.92732705646868 11.5231
45.9515084986045 11.5005
45.97588104735473 11.4674
46.00006683541565 11.4543
46.02425479047904 11.4052
46.04844491420549 11.4329
46.0728262191024 11.4333
46.09702070211635 11.384
46.12121735879483 11.3254
46.14541619080294 11.318
46.169806278764455 11.3363
46.194009483459034 11.2696
46.21821486849841 11.2619
46.24242243555223 11.2369
46.266821333570014 11.2013
46.29103328674601 11.2055
46.31524742696538 11.1882
46.33946375590237 11.1654
46.36387149104216 11.1399
46.38809221957392 11.0672
46.41231514186606 11.0815
46.436540259597464 11.0701
46.460956858999374 11.034
46.48518638983522 11.0219
46.509418121166966 10.9824
46.533652054678114 10.9841
46.55807754555709 10.9416
46.58231590571962 10.9875
46.60655647313217 10.9169
46.630988654873654 10.9496
46.655233659129024 10.9119
46.67948087571551 10.8731
46.70373030632484 10.8684
46.72817142736393 10.8933
46.752425308428684 10.8191
46.77668140861147 10.7793
46.80093972960865 10.7487
46.82538981736788 10.7263
46.849652602470904 10.7109
46.87391761349769 10.681
46.8981848521493 10.7059
46.9226439341274 10.6595
46.946915650573224 10.6303
46.97118959976749 10.6127
46.99546578341598 10.5853
47.019933887188216 10.5761
47.04421456235744 10.5275
47.06849747711879 10.5038
47.09278263318286 10.5281
47.11725978640143 10.5016
47.14154944775105 10.4962
47.165841355555656 10.4649
47.1901355115306 10.4815
47.214621741924994 10.4461
47.23892041698887 10.4154
47.26322134538975 10.3565
47.28771440635075 10.352
47.31201986422527 10.3552
47.33632758061436 10.3124
47.360637557241866 10.3304
47.38513974410611 10.3198
47.40945426407847 10.269
47.43377104948137 10.3217
47.45809010204344 10.2449
47.48260144275502 10.2458
47.506925052572285 10.2293
47.53125093475548 10.1746
47.55557909103813 10.1294
47.58009961361992 10.1102
47.60443234110732 10.1125
47.62876734791564 10.0707
47.65310463578333 10.1104
47.6776343683373 10.0799
47.7019762413987 10.0407
47.72632040075572 9.99349
47.75066684815169 10.0128
47.77520581885936 9.99658
47.799556865477655 9.96359
47.823910205386 9.971210000000001
47.84826584033272 9.938039999999999
47.87281407745551 9.9257
47.89717432569297 9.933760000000001
47.92153687423484 9.89513
47.94609208429692 9.86712
47.97045925671401 9.847660000000001
47.99482873471275 9.81927
48.01920052005013 9.85004
48.04376504619224 9.82344
48.068141469543484 9.79474
48.09252020552573 9.78814
48.11690125590099 9.77603
48.1414751266064 9.753739999999999
48.16586082917454 9.721169999999999
48.19024885144316 9.67365
48.2146391951793 9.67034
48.239222439012764 9.67864
48.26361744916137 9.63894
48.28801478610016 9.63914
48.31241445160131 9.63443
48.337007097209366 9.59272
48.36141144338331 9.57875
48.38581812345755 9.52798
48.41022713920929 9.58949
48.434829215320704 9.56259
48.45924292604658 9.51165
48.48365897780325 9.50687
48.50807737237308 9.46389
48.532688907799276 9.49693
48.55711201168574 9.45991
48.581537463754074 9.44016
48.60615611725119 9.437619999999999
48.63058628942721 9.40167
48.65501881516546 9.356760000000001
48.6794536962573 9.387039999999999
48.70408185970339 9.34103
48.72852147531801 9.31321
48.75296345168211 9.27091
48.77740779059232 9.29105
48.80204549302823 9.279689999999999
48.82649458091802 9.27069
48.85094603676547 9.21429
48.87539986237231 9.2078
48.90004713292306 9.189119999999999
48.92450572200832 9.17495
48.94896668628025 9.15737
48.97343002754588 9.178460000000001
48.99808689542115 9.14568
49.02255501470614 9.138160000000001
49.04702551642794 9.082239999999999
49.0714984023988 9.062439999999999
49.096164896893235 9.05679
49.120642575466796 9.043289999999999
49.145122643748394 9.026110000000001
49.16960510355558 8.99705
49.19428125404938 8.99138
49.2187685210852 8.97139
49.243258185121555 8.98137
49.26794160167084 8.918
49.2924360839405 8.91216
49.31693296869764 8.870510000000001
49.34143225776915 8.865219999999999
49.36612538195438 8.87002
49.39062950396021 8.85915
49.41513603578346 8.837489999999999
49.4396449792564 8.82023
49.46434784069503 8.82253
49.488861631846454 8.74836
49.513377840166804 8.77181
49.537896467493745 8.74092
49.56260909589029 8.71147
49.587132585683285 8.733319999999999
49.611658500018365 8.6867
49.636186840738596 8.669989999999999
49.66090926588511 8.67884
49.685442483902584 8.62786
49.70997813385706 8.62769
49.734516217597076 8.61562
49.75924846937352 8.60213
49.7837914452858 8.54547
49.80833686055187 8.53583
49.83288471702571 8.5554
49.85762682540054 8.5209
49.882179588965734 8.50561
49.9067347993235 8.51532
49.93129245833333 8.49642
49.95604445336378 8.45759
49.98060703442832 8.44538
50.005172069746266 8.424430000000001
50.02993150438364 8.418330000000001
50.05450147301533 8.353760000000001
50.07907390151433 8.36968
50.10364879174981 8.35127
50.12841816587289 8.3593
50.1529980044635 8.35338
50.17758031042124 8.31611
50.20216508562089 8.28227
50.22694442953363 8.2894
50.25153416817468 8.27383
50.27612638170508 8.28252
50.300721072005196 8.2242
50.325510416102105 8.225660000000001
50.350110084975064 8.22555
50.37471223628208 8.20115
50.39931687190919 8.19534
50.424116246675766 8.15162
50.44872587605249 8.1439
50.47333799543065 8.17106
50.49795260670191 8.12331
50.52276204271512 8.08865
50.54738166295838 8.07735
50.57200378079314 8.06344
50.596628398116835 8.04612
50.62144792604559 8.070689999999999
50.646077567609396 8.04664
50.670709714377715 7.996810000000001
50.69553683636198 7.994339999999999
50.72017401885922 7.9637
50.7448137122895 7.98097
50.76945591856022 7.929239999999999
50.79429318636823 7.92415
50.818940443716784 7.91104
50.84359021965163 7.890810000000001
50.868242516085964 7.87812
50.893089960641895 7.87627
50.917747323549435 7.859319999999999
50.94240721271973 7.830089999999999
50.96706963007175 7.8149
50.99192728239342 7.81158
51.01659478166073 7.8032
51.04126481489051 7.77008
51.06593738400761 7.76244
51.090805275207074 7.757619999999999
51.11548294172845 7.73358
51.14016314993547 7.702260000000001
51.164845901758845 7.67583
51.18972406304274 7.684260000000001
51.21441192780656 7.630330000000001
51.23910234200271 7.64633
51.2637953075678 7.61613
51.288683770237945 7.611389999999999
51.31338186432707 7.60423
51.33808251561888 7.58063
51.362978729967345 7.579339999999999
51.387684521509755 7.5682
51.41239287610203 7.5437199999999995
51.437103795691165 7.52313
51.46201036644977 7.54165
51.486726441956634 7.4551300000000005
51.51144508832545 7.47668
51.536166307509156 7.45944
51.56108326624387 7.46253
51.58580965706056 7.4019699999999995
51.61053862657523 7.421460000000001
51.635270176746864 7.41748
51.66019755512065 7.429539999999999
51.68493429268881 7.35568
51.70967361681515 7.35578
51.73441552946465 7.3933800000000005
51.759353359237934 7.347060000000001
51.7841004750961 7.31699
51.80885018539685 7.31607
51.833602492111254 7.270630000000001
51.8585508051424 7.26893
51.883308330926425 7.2445699999999995
51.90806845906181 7.23838
51.932831191525715 7.2126
51.95779001977161 7.187060000000001
51.98255798721516 7.156839999999999
52.00732856494335 7.1597800000000005
52.03229530577543 7.164
52.057071130455945 7.1163300000000005
52.081849571391054 7.11535
52.106630630568695 7.11494
52.13160794279417 7.11578
52.15639426492067 7.10668
52.18118321127822 7.118530000000001
52.205974783860896 7.017810000000001
52.23096269971011 7.01918
52.255759551287994 7.031000000000001
52.280559035098186 7.02728
52.30536115314103 7.0183800000000005
52.33035970494467 7.00223
52.35516711807904 6.962860000000001
52.37997717147198 6.93883
52.40478986713005 6.924910000000001
52.42979908731974 6.93138
52.454617094216 6.879739999999999
52.47943774942214 6.871739999999999
52.50426105495102 6.888789999999999
52.529280976059844 6.85832
52.554109609024096 6.85561
52.57894089837482 6.840160000000001
52.60377484613117 6.81602
52.62880550079408 6.813
52.65364479223379 6.807360000000001
52.67848674816189 6.75095
52.70352547971946 6.708239999999999
52.72837279155837 6.753839999999999
52.753222773982785 6.74368
52.778075429022984 6.75316
52.80312495150885 6.72892
52.827982978797436 6.68478
52.85284368481815 6.67506
52.87770707160767 6.64582
52.90276741793998 6.680339999999999
52.92763619336701 6.65543
52.952507655698504 6.62436
52.977381806977576 6.640510000000001
53.00245301017842 6.6265
53.02733256653592 6.5923
53.052214817996074 6.54789
53.077099766608484 6.56038
53.102181859804446 6.5389
53.127072229988265 6.5522
53.15196530349892 6.52931
53.17686108239249 6.463830000000001
53.20195409881522 6.47845
53.22685531582556 6.47816
53.25175924441303 6.48309
53.27666588664027 6.48056
53.30176985962693 6.42534
53.3266819565689 6.44944
53.35159677336455 6.42261
53.376514312083096 6.40025
53.40162927507703 6.39806
53.42655228516116 6.380719999999999
53.45147802340193 6.32834
53.47660125628886 6.31851
53.50153247842639 6.3217
53.52646643496923 6.31294
53.55140312799818 6.29354
53.576537409691696 6.294569999999999
53.60147960336152 6.26452
53.626424539786164 6.27474
53.65137222105307 6.2415199999999995
53.67651758529126 6.25859
53.70147078399681 6.24465
53.72642673383343 6.18459
53.75138543689533 6.22743
53.776541917524526 6.1996199999999995
53.801506154876755 6.20947
53.826473151763246 6.161580000000001
53.851442910284916 6.10468
53.87661054126026 6.12541
53.9015858509782 6.13764
53.92656392866066 6.079940000000001
53.95154477641532 6.07057
53.976723591801296 6.07773
54.00171000771266 6.04284
54.02669920004598 6.0610800000000005
54.051691170915745 6.0355099999999995
54.076881204886796 6.0026
54.101878760928514 6.02286
54.12687910187696 5.982130000000001
54.152077577768296 5.94761
54.1770835166946 5.9448300000000005
54.20209224691339 6.00481
54.22710377055121 5.94572
54.25231352511594 5.88604
54.27733066384342 5.90013
54.30235060239643 5.90152
54.32737334290836 5.83019
54.35259441062629 5.84669
54.377622783395324 5.8756
54.40265396455061 5.81157
54.42768795623251 5.80195
54.45292037169559 5.76221
54.477960012857906 5.80551
54.50300247099511 5.7356
54.52804774825457 5.73426
54.55329154616743 5.72624
54.57834249018678 5.69503
54.6033962597977 5.64752
54.6284528571545 5.66261
54.653708072335164 5.63553
54.67877035378786 5.60504
54.70383546947698 5.57455
54.72890342156389 5.54415
54.7541700889442 5.52306
54.77924374251975 5.54285
54.8043202390049 5.51435
54.82959552413022 5.51066
54.8546777351945 5.46694
54.87976279569621 5.436730000000001
54.90485070780914 5.44869
54.930137506558005 5.412000000000001
54.95523115074295 5.4339
54.98032765308844 5.34796
55.005427015775496 5.36798
55.03072536339621 5.35392
55.05583047570572 5.30655
55.080938454927676 5.26965
55.10604930325027 5.2954300000000005
55.131359235107396 5.33045
55.15647585066083 5.24833
55.181595341907496 5.22635
55.20671771104285 5.1843
55.232039262617704 5.16413
55.25716741665048 5.1302900000000005
55.28229845518636 5.1191
55.30743238042802 5.06338
55.33276558731939 5.06133
55.357905315183636 5.05778
55.383047936390035 5.04031
55.40819345314859 4.99029
55.433538351073295 4.997719999999999
55.458689688238415 4.99366
55.483843927614096 4.937
55.509197623043605 4.92662
55.53435769621134 4.88652
55.55952067826466 4.86186
55.5846865714265 4.85818
55.61005202069737 4.81893
55.63522376553902 4.87665
55.66039842818645 4.867290000000001
55.68557601087004 4.837
55.7109532500271 4.7237
55.73613670233794 4.79437
