TT I
1.2716486653135266 7.362710000000001
1.2939594142134223 6.69953
1.3162702121660406 6.39176
1.3385810600174564 5.8466
1.3608919586137629 6.263719999999999
1.383202908801069 6.3327599999999995
1.405513911425503 5.88373
1.4278249673332093 6.683269999999999
1.4501343378461518 6.712839999999999
1.4724455028545926 5.965990000000001
1.4947567236847858 5.98919
1.517068001182951 5.92139
1.5393793361953272 6.08256
1.5616907295681737 5.35973
1.5840021821477681 5.3299
1.60631369478041 5.03244
1.6286252683124185 4.82156
1.6509369035901333 3.95117
1.6732468618895553 4.676130000000001
1.695558623192809 4.05682
1.7178704487808514 4.4182
1.7401823395001077 4.76738
1.7625012545597203 4.71556
1.7848028405262486 4.4319
1.8071218901122095 4.49681
1.8294236121921872 3.9825199999999996
1.8517427996910911 4.59111
1.8740620574440425 4.91183
1.8963639900671978 4.7615
1.9186833908139995 5.2005099999999995
1.9409854680117449 4.47176
1.9633050151394713 4.548019999999999
1.9856246367570705 4.86961
2.0079269371922672 4.69718
2.03024671027244 4.2467
2.0525491637446027 4.43711
2.074869091674931 4.75122
2.097171701569106 4.53594
2.1194917877373847 5.07603
2.141811954326636 5.02635
2.164114805233074 4.61606
2.186435135143035 5.38943
2.208738150935709 8.6852
2.231058647554722 12.7087
2.2533792288321184 10.9871
2.275682498336085 7.25741
2.298003251406138 5.67813
2.3203066942619714 5.89911
2.3426276225136022 6.17218
2.3649486396617507 5.24635
2.387252348930071 6.33005
2.4095735463442893 6.29113
2.4318774374315884 6.25875
2.4541988185014043 6.781969999999999
2.476502894794693 7.6154
2.498824462909887 6.93543
2.521146125856138 7.66688
2.5434504863470337 7.446280000000001
2.5657723414244717 7.1021
2.588076895590662 8.0505
2.610398946189713 8.7518
2.6327210958598384 8.31285
2.6550259469304716 8.24337
2.6773482972090137 8.64093
2.6996533504259 8.90434
2.7219759047039602 7.94406
2.744298562293959 8.88297
2.7666039251246595 8.526589999999999
2.7889267918020164 8.27497
2.8112323652516555 7.6355699999999995
2.833555444408179 8.19156
2.8558786311183852 8.27203
2.8781845268938557 9.21013
2.9005079311721484 9.21435
2.9228140460410397 8.97678
2.9451376712799635 9.60881
2.967444008632326 9.7025
2.9897678582247247 10.0043
3.0120918213106695 10.6596
3.0343984987899373 11.2719
3.0567226913198637 10.9175
3.079029599759726 11.7333
3.101354025127254 12.4343
3.123678568232338 12.8446
3.145985829517914 12.6017
3.16831061055229 13.7434
3.1906181112775593 14.0266
3.212943133635653 14.8906
3.2352682779763207 15.3031
3.2575761442691227 15.3672
3.2799015350264273 15.4239
3.302209649240067 15.7313
3.3245352898092655 16.7598
3.3468436553365257 17.2408
3.369169549113219 17.8981
3.3914955708171384 18.8658
3.413804319727358 18.7955
3.4361305997334863 18.7686
3.4584396084414553 19.3464
3.4807661501462652 19.8758
3.503092824025881 20.4445
3.5254022288463154 21.0695
3.5477291695206588 21.6412
3.5700388426251948 21.8972
3.5923660534916446 23.305999999999997
3.6146934007816114 28.6408
3.637003482731501 46.5153
3.6593311053109985 50.4298
3.681641464033634 35.4126
3.7039693653009733 26.5608
3.726297407241705 25.1017
3.7486081875460804 24.9265
3.7709365132734978 25.7019
3.793247578841633 26.1156
3.8155761917550093 26.2886
3.8378875459837216 26.5286
3.8602164494827234 26.9691
3.882545499606844 28.0491
3.9048572932539183 28.5756
3.9271866390645718 28.9313
3.9494987298666713 29.2971
3.971828374764527 29.4716
3.9941581705403255 30.3307
4.016470713506008 30.9214
4.038800813471445 31.5487
4.061113662089144 32.2652
4.0834440696459176 33.3019
4.105774632334751 33.2989
4.128087945865126 34.1045
4.150418821249301 34.7971
4.172732448931298 35.6498
4.195063640413578 36.4684
4.2173775856475215 38.2743
4.239709096631102 51.3089
4.262040768704612 111.382
4.284355196706267 137.08
4.306687193387355 97.6869
4.329001947444346 55.345
4.35133427213731 43.5526
4.373666762177566 42.2821
4.395982011761091 42.9611
4.418314834921175 44.2843
4.44063041906622 47.9349
4.4629635787515625 51.8971
4.4852969080429785 52.9362
4.5076130004776225 52.6447
4.529946671403969 58.022
4.552263106909177 62.3273
4.574597122877047 58.4704
4.596931312711224 54.208999999999996
4.619248269273446 53.2026
4.6415828092605835 54.1145
4.663900117405352 55.0563
4.686235010953232 56.3856
4.708552674085913 57.6523
4.730887924602802 59.1766
4.753223354952695 60.8647
4.775541557023902 64.6971
4.797877349456786 68.4965
4.820195915032126 68.8663
4.842532072957498 67.5473
4.864868414979744 70.6798
4.88718753227192 75.4492
4.909524244902505 76.7356
4.931843734218147 75.7693
4.954180820867835 77.1838
4.976518095879839 79.7765
4.998838149695359 82.7957
5.021175803844231 86.1571
5.043496238205739 89.4806
5.065834274903528 93.40700000000001
5.088172504230693 98.1881
5.1104935158799565 104.53
5.132832132875765 124.28299999999999
5.155153533596801 153.208
5.1774925416746225 190.942
5.199814334878411 368.19599999999997
5.2221537374521505 943.8480000000001
5.244493338631803 2758.24
5.266815727034316 8038.96
5.289155727832427 13569.1
5.311478517248165 8863.36
5.333818921080011 2683.37
5.356159527788849 503.11400000000003
5.3784829252032536 193.695
5.400823940070432 154.159
5.423147747031976 129.112
5.445489173474152 118.74799999999999
5.467830807066149 119.52
5.490155234831516 120.26100000000001
5.512497285125229 112.905
5.534822130975162 105.03200000000001
5.557164601388673 100.37
5.579489868738879 97.6266
5.601832762690846 96.5782
5.6241758697774475 95.6183
5.646501775867269 94.823
5.668845311622074 93.355
5.691171647754637 93.4734
5.713515615597765 91.9715
5.735859800852677 91.6462
5.758186788542988 93.729
5.780531411018185 98.6828
5.802858837297399 99.0065
5.825203900414495 98.1757
5.8475491852224 102.17
5.869877275883075 101.399
5.892223006467101 96.4586
5.914551544266608 93.7619
5.936897724049891 95.4964
5.959244129804903 102.76
5.981573344815301 127.48
6.0039202049061 226.016
6.026249875609095 441.408
6.04859719346037 907.6489999999999
6.070927323278297 2205.77
6.093275102315365 4678.52
6.115623113320588 5210.76
6.137953938319995 3016.98
6.160302415650845 825.0260000000001
6.182633708324452 194.47299999999998
6.2049826554078376 104.76700000000001
6.227331838745022 87.5972
6.249663839443684 81.8059
6.27201349767565 78.735
6.294345974611799 79.2591
6.316696111167083 81.8942
6.339046488263839 79.4404
6.361379686074702 72.8444
6.383730546639482 69.605
6.406064229255215 69.2243
6.428415576718203 71.2293
6.450749747566656 69.4541
6.47310158535871 66.786
6.495453669698332 64.5477
6.517788579421056 63.4346
6.540141159237969 62.549
6.562476565766648 61.9037
6.5848296444934045 62.2868
6.607182974060425 62.3896
6.6295191323281015 62.4691
6.651872965955752 62.6626
6.6742096296068985 71.3095
6.6965639707294615 86.8828
6.71891856698715 85.8419
6.741255995248479 69.9677
6.763611104154477 60.8809
6.785949046381137 58.5663
6.808304671371482 58.8408
6.8306605557940046 61.1489
6.852999275508618 59.8972
6.875355681171544 57.6192
6.897694923437771 56.0758
6.92005185377892 55.5945
6.9423916220322655 55.4053
6.964749080490181 54.8852
6.987106804399774 55.0851
7.009447368180821 55.427
7.031805625367033 55.4157
7.054146723727803 54.8229
7.076505517631004 54.1063
7.098864581288365 53.8955
7.121206488070854 54.32899999999999
7.143566093607822 54.6339
7.165908543567245 55.9754
7.188268694426048 56.0496
7.2106291193438095 54.9024
7.232972390625943 54.4225
7.255333366030969 59.4491
7.277677189091925 78.3294
7.300038718428332 93.8909
7.322400526130865 85.4516
7.344745183422596 66.0395
7.367107550224791 55.8986
7.389452767901992 53.6565
7.411815697249891 53.50899999999999
7.434161478756298 52.9408
7.456524974096713 53.1706
7.478888753837185 52.6378
7.501235387657368 53.4427
7.523599738562711 53.4858
7.545946944825532 53.7523
7.568311870344528 54.0175
7.5906770845765665 54.0758
7.613025156078678 54.6341
7.635390950099687 55.6595
7.657739602662809 54.9809
7.680105979923558 55.2568
7.702472650212829 56.2562
7.724822180948224 56.2472
7.747189439655568 55.9067
7.769539560075357 55.2307
7.791907410653562 55.4769
7.81425812420825 55.3826
7.836626570110925 55.9301
7.858995315087906 56.4988
7.881346924933401 56.6887
7.903716270417482 57.0811
7.926068482028405 57.5419
7.948438431475253 58.6122
7.9708086843180235 58.4665
7.993161805171116 59.3185
8.015532667162402 59.9928
8.037886398416653 61.4549
8.060257873014221 61.8974
8.082629655331942 62.5794
8.104984308787587 63.2742
8.127356708900503 65.8192
8.149711981398308 70.523
8.172085002766314 72.3855
8.194458336181368 70.1779
8.216814543847752 68.0864
8.23918850371002 68.4756
8.26154533906492 69.1955
8.283919928836452 70.6498
8.306277395339652 71.8422
8.328652618483376 73.01899999999999
8.351028159736202 75.1454
8.373386579575245 77.4369
8.395762759396959 78.8495
8.418121819038275 82.4195
8.440498640894003 89.2139
8.462875785192262 99.6111
8.485235811156207 122.54700000000001
8.507613602688501 168.83900000000003
8.529974277114228 241.817
8.552352719347912 361.64
8.574731488360351 616.899
8.59709314210385 1205.55
8.619472567021075 1944.67
8.64183487789147 2226.7
8.664214962183097 1712.36
8.686577933647762 844.908
8.708958680784317 298.633
8.731339760774953 139.541
8.753703729764451 104.12
8.77608547780821 95.8095
8.798450116065078 92.8698
8.820832535634787 90.9237
8.843215292401656 91.7087
8.865580941199045 92.1868
8.887964374703538 91.9418
8.910330701447199 91.959
8.932714815164482 91.5214
8.955099270424924 88.959
8.977466620733543 86.2194
8.999851761421976 84.2027
9.022219798361645 83.1819
9.04460562795561 83.2057
9.066991803441677 83.1425
9.089360876979615 83.4198
9.111747746589993 83.431
9.13411751544971 82.0743
9.156505082664324 80.8348
9.178875550323522 80.8896
9.20126381862328 80.9645
9.223652438908596 80.9034
9.246023961427412 80.9862
9.26841328802173 81.1208
9.290785518039224 81.7205
9.313175554425882 84.0124
9.335565947154315 85.8219
9.357939245086508 86.1097
9.380330352834827 85.8586
9.40270436697103 85.5042
9.425096193225055 84.8611
9.447488380180165 84.7162
9.469863475295412 83.7477
9.492256385987508 83.5906
9.514632206018318 84.037
9.537025843935714 84.7612
9.559402392368193 85.8605
9.581796761000229 88.8743
9.604191496441521 91.14299999999999
9.626569144158516 93.7031
9.648964615551032 95.4014
9.671343000390081 94.6732
9.693739211225699 92.8571
9.716135793237463 91.7656
9.738515290448102 92.2057
9.760912617143402 93.8489
9.783292860202891 96.2301
9.805690935076182 98.8017
9.828089385495742 99.397
9.850470754023561 100.581
9.872869957865444 103.59100000000001
9.89525208097539 110.075
9.917652041736662 117.056
9.940052382417589 123.99
9.962435644102392 147.106
9.984836746950979 183.747
10.007220771957746 237.518
10.029622640473708 327.741
10.052007432299963 504.454
10.074410069984072 820.347
10.096813093716005 1305.53
10.119199042482517 1856.83
10.141602840636468 1984.04
10.163989564971628 1475.38
10.186394141051062 768.802
10.208799107559706 326.937
10.231187001965623 162.713
10.253592751657669 118.09299999999999
10.275981430388155 108.82799999999999
10.298387966769793 107.40799999999999
10.320794897965431 107.555
10.343184759907361 106.05
10.36559248305461 103.414
10.387983138083852 103.277
10.410391656691655 109.226
10.432800574501677 119.015
10.455192425893369 132.16
10.47760214443012 157.44799999999998
10.499994797678786 202.572
10.522405320453982 287.99
10.54479877906917 409.96
10.567210109595656 543.34
10.5896218454736 597.798
10.612016518879773 485.07300000000004
10.634429067781074 315.784
10.656824555333241 178.53400000000002
10.679237920773568 111.81
10.701651695961992 91.99
10.724048411481384 87.0053
10.746463008485165 84.75299999999999
10.768860546937125 83.4018
10.791275969274796 81.6681
10.81369180576079 80.7859
10.836090585366925 79.5752
10.858507252467449 78.6531
10.88090686379991 77.8224
10.903324365036394 77.391
10.925724811614439 76.7044
10.948143150509463 77.5547
10.970561909719066 76.8144
10.992963615930844 76.1823
11.015383218085756 74.4805
11.037785768347074 72.9571
11.06020621697282 72.0529
11.082627090322113 71.0189
11.105030913430326 70.2603
11.12745263854165 70.0026
11.149857314510728 70.7651
11.172279894912576 72.7431
11.194702904450653 72.5128
11.217108866490921 70.8419
11.239532736615194 69.0633
11.26193956033512 68.00399999999999
11.284364294577085 67.2823
11.306789462371718 66.5024
11.329197585398376 65.8306
11.351623622610898 65.6712
11.37403261614354 65.1618
11.396459526308487 64.9931
11.418869393879497 64.5863
11.441297180532617 64.1654
11.463725406927658 63.8304
11.486136592353875 63.521
11.508565700543707 63.6199
11.530977768845315 64.3524
11.553407762368774 64.3695
11.575838200059769 64.0869
11.598251599479612 63.1377
11.620682927815501 62.5574
11.64309721895548 62.19
11.665529441478206 61.8083
11.687962112597958 61.7414
11.710377748130886 61.8869
11.732811318753434 61.6197
11.755227854859067 61.5494
11.777662328529495 61.3965
11.800079768750786 61.5249
11.822515149015453 61.6483
11.844950984084935 62.0958
11.867369787303163 61.4671
11.889806534289491 61.4595
11.912226250487029 61.7277
11.934663912939751 61.979
11.9571020346363 62.1672
11.979523127133968 62.4733
12.001962169624331 63.3191
12.024384183972964 64.874
12.046824150809913 67.5511
12.069264581333726 71.4136
12.091687985297767 76.5879
12.11412934550045 85.7377
12.136553680195208 101.083
12.158995973632788 126.087
12.181438735204349 160.279
12.20386447284199 188.895
12.226308172985636 211.683
12.24873485024193 202.207
12.271179492516982 154.238
12.293607112949127 114.074
12.316052700916226 86.2042
12.338498763250042 70.9758
12.360927805303868 65.6044
12.383374818673879 63.8003
12.405804812803074 62.8126
12.428252780773262 62.887
12.45070122756722 63.0303
12.473132656675375 63.4024
12.49558206341869 63.8615
12.518014453510101 63.8787
12.540464823770117 64.1673
12.562915677315177 63.808
12.58534951575545 64.2989
12.607801338171472 64.4733
12.630236146511358 66.6695
12.652688941369085 68.741
12.675124723177234 69.2279
12.697578494048786 68.3638
12.720032754458185 66.8579
12.742470003354093 66.565
12.764925245138771 66.7434
12.787363476431278 67.126
12.809819703166806 67.2813
12.83227642391173 68.2362
12.854716135692716 68.7505
12.877173846755147 70.1003
12.899614549869717 70.5747
12.9220732548287 71.5711
12.94453245827299 72.0771
12.966974655289818 72.9375
12.989434858002571 73.551
13.011878055298721 74.1079
13.034339260862497 74.6722
13.056800969391883 76.4026
13.079245674017244 79.2594
13.101708390774869 83.2125
13.12415410463411 90.8116
13.146617833206086 99.4886
13.169064559883248 108.44200000000001
13.191529303857127 122.346
13.213994557076367 145.013
13.236442809902437 184.445
13.258909083908291 245.43599999999998
13.28135835851934 315.574
13.30382565690295 391.298
13.326293469022952 446.39099999999996
13.348744283242008 419.626
13.371213125129904 335.29900000000004
13.39366497011003 229.622
13.416134845360597 153.06
13.438605238843131 114.566
13.46105863690397 103.023
13.483530069144786 103.823
13.505984506951902 108.001
13.528456981549432 117.189
13.550929978879088 132.381
13.573385983253365 157.207
13.595860028340867 199.801
13.618317081455832 258.384
13.64079217790333 322.759
13.663250283359057 370.901
13.685726434770173 380.958
13.708203115221277 325.76099999999997
13.730662806148091 241.041
13.75314054697177 166.585
13.775601299246777 115.604
13.798080104050406 91.9827
13.820559442405358 83.0955
13.843021793671388 80.038
13.865502201420897 78.4618
13.887965623051947 78.3525
13.910447103807167 77.6516
13.932929122629764 76.1404
13.955394156785959 75.3999
13.977877254034569 74.5001
14.000343367582113 73.5668
14.022827546871707 72.8628
14.045294743423524 72.4219
14.06778000837062 71.6414
14.090265817715476 71.5839
14.112734645763819 71.1902
14.13522154619454 70.9358
14.157691466286913 70.6289
14.180179461423874 70.7718
14.202668005486178 70.039
14.22513957064374 69.6926
14.247629214846473 69.0346
14.270101881097517 68.9932
14.29259262906496 68.7478
14.315083930490205 69.0163
14.337558255389705 69.1207
14.360050666019726 69.0639
14.382526101071944 68.6364
14.405019624534942 68.3996
14.427513705993134 67.7607
14.449990813291825 67.8265
14.47248601302899 67.8092
14.49496423954951 67.7187
14.517460561197822 67.6112
14.539939910570322 67.7359
14.562437357763558 67.8475
14.58493536931253 68.5621
14.607416409993311 68.7491
14.62991555254159 69.2393
14.652397725157423 69.3713
14.674898002342799 69.1009
14.697398848433282 69.37100000000001
14.719882725991326 70.8946
14.74238471217934 72.5971
14.764869730765593 75.8057
14.787372860692983 78.183
14.809876564079925 81.5721
14.83236330125751 87.1656
14.854868153850365 95.865
14.877356041159485 110.209
14.899862046604186 130.537
14.922351087688757 158.365
14.944858249632887 191.671
14.967365991421232 219.201
14.989856770231246 230.18900000000002
15.012365673994204 214.61900000000003
15.03485761569738 179.59099999999998
15.05736768508665 137.968
15.07987833888692 103.96700000000001
15.102372032001655 84.193
15.124883856909658 73.9945
15.14737872204565 70.6526
15.169891721717274 69.1311
15.192405310371893 68.9186
15.214901940621196 68.7869
15.237416709527137 68.3288
15.259914520936249 68.4808
15.282430473753607 67.4733
15.304947020131227 66.6335
15.327446610371178 66.1388
15.349964346154254 65.8151
15.372465126703139 65.684
15.394984055556009 65.4366
15.417486030076159 65.312
15.44000615566487 64.7944
15.462526881230803 64.8747
15.485030653812652 64.7448
15.507552581617434 64.6316
15.530057557334603 64.8855
15.55258069104857 64.6968
15.575104429329837 65.0242
15.597611216864632 64.8628
15.620136166564563 65.5744
15.6426441664095 66.6929
15.665170331202765 69.0193
15.687697105158826 71.6782
15.710206930593545 74.3112
15.732734925158933 78.368
15.755245972089478 84.3384
15.77777519094324 93.7969
15.800287463046663 107.281
15.822817909869592 127.86
15.84534897229804 152.83700000000002
15.867863089299354 177.922
15.890395385222186 196.21200000000002
15.912910736597423 196.158
15.935444269699861 177.80700000000002
15.957978423016485 146.394
15.980495633101265 112.027
16.003031029129367 87.3616
16.02554948280019 71.5752
16.048086125229432 64.6179
16.070623392487107 62.6495
16.09314371869582 61.9139
16.11568223789321 60.9183
16.13820381691126 60.4512
16.160743591742527 60.0145
16.183283996022084 58.9401
16.205807461423195 58.1407
16.228349126881973 57.5945
16.25087385432698 57.6182
16.27341678466365 57.1586
16.29594277784926 56.8837
16.31848697676433 56.9877
16.341031811604868 56.6129
16.36355971058487 56.6603
16.3861058195587 56.4544
16.40863499352978 55.7872
16.431182380342005 55.242
16.453730407713202 54.9228
16.476261501364792 54.8262
16.498810812136167 54.49
16.52134319004079 54.5773
16.54389378792203 54.4236
16.566445031001553 54.2984
16.588979342490088 54.1728
16.61153187824822 54.1248
16.634067483263312 53.9023
16.656621315414416 53.7049
16.679175797408888 53.4128
16.701713349928728 53.5107
16.72426913389191 53.5805
16.74680798922351 53.5743
16.76936507887444 53.7751
16.791905240734874 53.6
16.814463639794468 53.6128
16.837022695210294 53.7262
16.859564824093756 54.047
16.882125194503903 54.2486
16.904668639217885 54.5008
16.927230328348003 54.4216
16.949792678493612 54.5317
16.972338104193863 54.6139
16.994901778652235 54.3393
17.017448529496576 54.4617
17.040013531998152 55.0089
17.06257920018044 55.4212
17.0851279459922 56.1327
17.107694947817667 57.0121
17.130245028099072 57.4639
17.15281336730298 58.9269
17.17536478578733 60.5579
17.19793446610687 62.9776
17.220504818648422 66.0707
17.243058251703697 70.043
17.265629950971032 74.7815
17.288184731571736 80.0948
17.310757781306908 83.1903
17.33333150794385 83.1124
17.355888317140174 80.2913
17.37846339986244 74.1544
17.401021565958885 67.6726
17.42359800851343 62.9512
17.44617513265564 60.2617
17.468735341390783 58.8292
17.491261035594565 58.205
17.51396340099364 57.8979
17.536490463869136 58.2742
17.559018209820174 58.1015
17.58154663977963 58.2153
17.604251766089718 58.3872
17.626781572227713 58.5092
17.64931206518155 58.8048
17.671843245885103 59.2704
17.69455114821572 59.2225
17.717083712612634 59.6827
17.739616967569667 59.7235
17.762150914021706 60.2537
17.78486160749854 60.6088
17.807396945166804 61.4848
17.829932977143503 62.5914
17.85246970436452 63.9833
17.875183204129467 65.3282
17.897721330097664 66.9402
17.920260154126645 69.2473
17.942799677153296 72.2889
17.9655159983646 76.0953
17.988056927677544 81.7039
18.010598558807683 90.1682
18.033140892692916 100.969
18.05586005052525 113.603
18.07840379824407 126.16799999999999
18.10094825154059 136.295
18.12366954819864 140.523
18.146215420998306 136.674
18.16876200220057 126.04700000000001
18.191309292745153 110.95
18.214033452627167 97.0431
18.236582170236648 86.8451
18.259131600016456 83.6602
18.281681742907335 85.3066
18.304408781233683 90.618
18.32696035875955 96.6365
18.349512652227624 101.581
18.372065662579683 106.109
18.394795594587553 105.22
18.41735004715306 99.2766
18.43990521943684 91.0339
18.46246111238171 81.3005
18.485193953325208 72.8577
18.507751296070428 66.9117
18.530309362314178 63.7174
18.552868153000343 61.9189
18.57560391815056 60.9469
18.59816416623245 60.4961
18.620725141597372 60.0182
18.643286845190268 59.5897
18.666025549835414 59.2018
18.688588718427933 58.7496
18.711152618092243 58.3696
18.73389353884365 58.3586
18.75645890921984 58.0772
18.77902501351406 57.8773
18.801591852673102 57.5645
18.824335739722738 57.0132
18.846904057212626 56.8621
18.8694731124168 56.5677
18.89204290628315 56.815
18.914789774966803 56.5135
18.937361054791623 56.3923
18.959933076131318 56.0316
18.982505839934877 55.9986
19.00525570560582 55.6455
19.027829963004184 55.8839
19.05040496572238 56.1061
19.072980714710468 56.051
19.095733592739563 56.0728
19.11831084296757 56.1868
19.140888842324735 56.5176
19.16346759176222 56.7401
19.18622349753803 57.1269
19.208803755869358 58.1596
19.231384767143577 59.3756
19.253966532312948 61.0852
19.276725481241822 63.2996
19.29930876296784 66.0584
19.3218928014549 69.3242
19.34465404436217 72.2589
19.36723960516257 74.9067
19.389825925592426 74.8675
19.412413006605938 73.4168
19.43517731967805 69.1273
19.457765930683355 64.5698
19.48035530514408 60.2339
19.50294544401556 57.0189
19.525712842708348 54.8993
19.54830451925909 53.7086
19.570896963095727 52.9388
19.593490175174704 52.9174
19.616260674962184 52.8464
19.638855432416964 52.489
19.661450960992624 52.8508
19.68404726164677 52.5269
19.706820878021247 52.3961
19.729418731756834 52.6805
19.752017360452857 52.2514
19.77461676506804 52.663999999999994
19.797393513540218 52.7815
19.819994478951667 53.0326
19.84259622316767 53.379
19.8651987471481 53.6968
19.887978643247177 53.995
19.91058273574792 54.4481
19.933187610901943 55.3367
19.955969879466828 56.5109
19.97857632894404 58.1349
20.00118356396599 59.9156
20.023791585494575 62.5653
20.046577028914875 65.1736
20.069186632506966 67.4267
20.091797025500632 69.3434
20.114408208858933 69.7148
20.137196842715273 68.4007
20.159809615886765 66.425
20.18242318232135 63.4934
20.20503754298326 61.5438
20.227829382875154 60.961999999999996
20.250445341109344 61.5712
20.27306209647285 62.8218
20.29567964993108 64.3349
20.31847471147704 65.381
20.34109387027612 65.3401
20.363713830075454 64.3865
20.386334591841646 62.2654
20.409132890679302 59.3805
20.431755265564437 56.1277
20.454378445325528 53.5724
20.477002430930366 51.6463
20.499803982716553 50.742
20.522429589228004 50.0408
20.54505600449589 49.7796
20.567683229489194 49.6946
20.590488049900088 49.4281
20.61311690359731 49.2159
20.63574656993626 49.1
20.658553853717297 48.8187
20.681185154618298 48.7923
20.703817271080066 48.5647
20.72645020407368 48.1647
20.749260783967177 48.2556
20.771895359337133 48.1717
20.794530754161617 48.2618
20.817166969412938 48.1555
20.83998086114876 47.9888
20.86261872660049 47.9944
20.885257415405402 47.8179
20.90789692853701 47.9343
20.930714147864748 47.8475
20.953355319030678 47.8535
20.97599731745334 47.7959
20.99864014410749 47.6265
21.021460706796564 47.7656
21.044105199328826 48.0174
21.06675052302631 48.3415
21.089396678865015 48.3334
21.112220600704806 48.5479
21.134868430275347 48.8596
21.15751709492456 49.3692
21.180166595629693 49.676
21.202993892429635 50.2447
21.22564507473034 50.6099
21.24829709602816 50.6474
21.27112693608965 50.6145
21.293780644891275 50.4935
21.316435195634053 49.7389
21.339090589297417 48.9507
21.361923832041875 48.4934
21.384580921090404 47.8524
21.407238856007325 47.5215
21.429897637773326 47.3851
21.45273429906592 47.3999
21.475394784108598 47.6348
21.498056118951983 47.5939
21.520718304578022 47.7337
21.543558400304388 48.0521
21.566222297108816 48.2334
21.58888704765135 48.2381
21.61155265291521 48.5285
21.63439619898156 48.8434
21.657063523335786 49.1019
21.67973170537063 49.5763
21.7024007460706 50.0326
21.72524775840385 50.7094
21.747918526116475 51.7645
21.770590155457388 53.071999999999996
21.79326264741238 54.8496
21.816113141960237 57.0976
21.838787368860547 59.0724
21.861462461341976 60.9756
21.884315579735777 63.1999
21.90699241312273 64.1403
21.92967011506078 64.2112
21.95234868653799 63.2223
21.9752053151131 61.4535
21.997885635446785 59.3026
22.020566828293532 57.5156
22.04324889464272 56.0907
22.066109049404666 55.2683
22.088792872571794 55.4384
22.111477572219204 55.4603
22.1341631493376 55.4765
22.157026846313123 55.1201
22.179714188221507 54.0416
22.202402410582668 52.7428
22.22509151438863 51.3748
22.24795876962584 49.9986
22.270649646204486 49.1369
22.293341407213727 48.5994
22.316034053646906 48.3002
22.338904883215342 48.202
22.36159931041458 47.9516
22.38429462602756 47.8712
22.40699083104897 47.6766
22.429865251039757 47.6995
22.452563244831367 47.7347
22.47526213102522 47.845
22.49813925616515 47.8334
22.520839937143307 47.7417
22.543541513520587 47.7738
22.56624398629403 47.7365
22.589124730075895 47.7189
22.611829005656723 47.9051
22.63453418063466 47.8823
22.657240256008077 48.032
22.680124634582935 48.0921
22.70283252079775 48.343999999999994
22.725541310413075 48.5517
22.74825100442868 48.7573
22.771139033969575 49.4083
22.79385054687155 49.6355
22.81656296718292 50.2849
22.83927629590484 51.3343
22.862167992606945 52.4666
22.88488314827121 53.6316
22.907599215359284 54.7456
22.93031619487366 56.0798
22.953211574954405 56.8454
22.975930389478226 57.4394
22.998650119445763 57.281000000000006
23.02137076586092 56.2566
23.044269845560063 54.5353
23.06699233506288 52.813
23.089715744034912 51.2184
23.112617610931565 49.6435
23.135342869061212 48.6649
23.158069049684816 48.2563
23.1807961538087 47.9784
23.20370174880544 47.9756
23.226430710184808 47.8271
23.249160598093425 47.9066
23.271891413539002 47.8329
23.294800752937697 48.0202
23.31753343374794 48.1004
23.340267045128353 48.1891
23.36300158808808 48.6386
23.38591468821339 48.9175
23.408651104658304 49.4428
23.431388455719986 49.9386
23.454126742409 50.891999999999996
23.4770436196085 52.0828
23.499783787914662 53.4934
23.522524894889884 54.7305
23.54526694154616 55.8382
23.56818761219047 57.0141
23.59093154860734 57.4617
23.613676427751283 57.3174
23.636422250635754 56.0438
23.659346731118656 54.1663
23.68209445191868 52.1132
23.704843119509587 50.1055
23.72759273490623 48.3341
23.750521041644767 46.964
23.77327256312355 46.0973
23.796025035462787 45.6007
23.818956224555475 45.2453
23.841710609113413 45.1612
23.86446594758979 45.096000000000004
23.887222241002014 44.6424
23.910157285144578 44.3672
23.932915498962537 44.547
23.955674670778713 44.2375
23.978434801611975 44.053000000000004
24.001373717286125 44.036
24.024135776723917 43.7635
24.046898798245582 43.6928
24.06966278287146 43.6486
24.092605586582614 43.4852
24.115371508023642 43.3812
24.1381383956401 43.2351
24.16090625045381 43.0282
24.183852958731244 43.0572
24.206622758582608 42.8968
24.229393528706886 42.7721
24.252165270127392 42.9307
24.27511589952438 42.9975
24.297889594216997 42.7353
24.32066426328598 42.5339
24.34343990775613 42.5815
24.36639447485003 42.5104
24.38917208083877 42.3874
24.41195066531332 42.3116
24.43490819850244 42.4672
24.457688750692377 42.358000000000004
24.48047028445616 42.3716
24.503252800821233 42.381
24.526214300784112 42.3877
24.548998793132213 42.2889
24.57178427117417 42.291000000000004
24.59457073593893 42.3115
24.617536219319863 42.2277
24.64032466834748 42.1024
24.663114107195035 42.0578
24.685904536893013 41.7601
24.708874020360852 41.7305
24.731666442613744 41.735
24.754459858818787 41.6509
24.777254270007962 41.5568
24.80022777025625 41.5668
24.82302418230472 41.5232
24.845821592443674 41.4647
24.86862000170663 41.5228
24.891597535453727 41.3323
24.914397953892728 41.5233
24.93719937456671 41.5522
24.96000179851076 41.6566
24.98298338249997 41.8942
25.00578782394922 42.0656
25.028593271784167 42.1106
25.05157790644186 42.4066
25.07438537804115 42.6058
25.097193859145293 42.978
25.120003350792075 43.2855
25.142992065061257 43.6383
25.165803588823465 43.72
25.18861612625217 44.0021
25.211429678386736 43.9403
25.234422489079968 43.9495
25.257238081693636 44.0925
25.280054692141732 44.3991
25.3028723214652 44.364
25.325869245420463 44.4091
25.348688923599397 44.273
25.371509623787006 44.2166
25.394331347025812 43.8578
25.41733240110666 43.0831
25.440156181590016 42.4743
25.46298098826268 41.9072
25.48580682216873 41.4496
25.50881202326435 41.0339
25.53163992281684 40.6352
25.55446885274561 40.3873
25.577298814096377 40.1534
25.600308179121807 39.9185
25.623140214533745 40.1982
25.64597328451537 40.1414
25.66898578564376 39.8788
25.691820936010206 39.8572
25.714657124097695 39.8352
25.737494350954734 39.8082
25.760511045684957 39.7615
25.783350361364224 39.7557
25.806190718969255 39.7572
25.82903211955018 39.7318
25.852053024868923 39.7893
25.874896522722523 40.0396
25.897741066713106 39.8809
25.920586657892454 39.9426
25.943611790812668 40.2163
25.966459487728237 40.2986
25.989308234998564 40.2982
26.01215803367705 40.7669
26.03518741123814 40.9548
26.05803932412957 41.0647
26.080892291600094 41.0142
26.10374631470478 40.9806
26.12677995397268 41.1597
26.14963609978026 41.0128
26.172493304397875 40.6344
26.19535156888223 40.4896
26.218389486949604 40.0688
26.241249882640123 39.7549
26.26411134137826 39.4972
26.28715248187403 39.6476
26.31001607820869 39.3282
26.3328807407756 39.3021
26.35574647063438 39.4644
26.37879191991473 39.3657
26.401659795896734 39.4253
26.424528742360263 39.5191
26.447398760366614 39.6313
26.470448535598294 39.8137
26.49332070826805 40.0887
26.516193955675355 40.3545
26.53906827888316 40.6112
26.562122397260108 40.8808
26.584998883685063 41.1859
26.607876449110325 41.4744
26.63075509460056 41.5709
26.65381357334404 41.6289
26.67669439061878 41.5882
26.699576291163382 41.4586
26.722459276044212 41.1547
26.745522132402975 40.8244
26.768407297649354 40.6799
26.791293550442003 40.3289
26.814180891848974 40.0293
26.837248143099337 39.7765
26.860137673466657 39.7452
26.88302829566349 39.4248
26.90592001075963 39.2166
26.92899167420566 39.1183
26.951885586870763 38.8199
26.974780595655517 38.6586
26.99785558178161 38.4904
27.020752794605112 38.4729
27.043651106772522 38.2628
27.06655051935668 38.2585
27.089629948036183 38.0346
27.112531573292053 38.0453
27.135434302194138 38.0958
27.158338135817015 37.8775
27.181422024430987 38.0637
27.204328079372566 37.8647
27.22723524226965 37.8196
27.250143514198573 37.89
27.273231880156334 37.9602
27.296142382065014 37.7625
27.319053996245536 37.7482
27.341966723775965 37.7209
27.365059584515222 37.7587
27.38797455070062 37.8932
27.410890633481237 37.7111
27.433807833936918 37.8127
27.456905206923906 37.9975
27.47982465472398 37.9499
27.502745223449743 37.8832
27.525666914182825 38.0247
27.548768816912457 38.137
27.571692763693633 37.882
27.59461783573812 37.7974
27.617723149491244 37.6178
27.640650484125285 37.5162
27.66357894728264 37.6457
27.686508540048052 37.4923
27.709618414237887 37.3556
27.732550278321757 37.2671
27.755483275279115 37.2284
27.778417406196485 37.2873
27.801531858397514 37.3207
27.824468269376716 37.1493
27.847405817586786 37.0883
27.870344504116094 37.4998
27.893463551932008 37.5823
27.916404527281053 37.718
27.93934664422563 37.7884
27.962289903855886 37.8706
27.98541356491974 38.3046
28.00835912214229 38.2589
28.03130582533231 38.4572
28.054253675581805 38.5908
28.077381967556104 38.5131
28.100332124185126 38.5715
28.123283431160893 38.3034
28.146235889577238 38.1661
28.169368830154156 37.9149
28.192323603752033 37.8432
28.215279532083304 37.4921
28.238415973016764 37.3999
28.261374223145094 37.3131
28.284333631303806 37.0483
28.307294198589954 36.983000000000004
28.330435319167677 36.5231
28.353398217078915 36.2029
28.376362277420153 36.0388
28.39932750129032 35.9152
28.422473319286713 35.6963
28.44544088262495 35.6379
28.468409612800283 35.5838
28.491379510913497 35.4043
28.51453004413313 35.3016
28.53750229057244 35.4147
28.56047570826344 35.2588
28.583450298308804 35.2384
28.606605564586562 34.9145
28.629582511831156 35.086
28.65256063474956 35.1141
28.675539934446338 35.0918
28.698699951647605 35.0643
28.72168161743193 34.9141
28.74466446331978 34.9573
28.767648490417624 34.9386
28.790813276438353 34.8695
28.813799678527303 34.8048
28.836787265157085 34.8587
28.859955641890075 34.9
28.882945610203045 34.8805
28.905936766392035 34.6456
28.928929111566863 34.708
28.952102288520145 34.5935
28.975097024308607 34.598
28.998092952423807 34.3637
29.021090073977508 34.3535
29.04426806913204 34.1818
29.067267590245258 34.0957
29.090268308143695 34.1286
29.11327022394099 33.9344
29.13645305530891 33.7564
29.159457379627167 33.8068
29.18246290519685 33.8534
29.20546963313352 33.8582
29.22865731875826 33.6924
29.25166646419296 33.76
29.27467681535305 33.7056
29.29768837335608 33.8191
29.320880931312562 33.7558
29.34389491580634 33.7043
29.366910110507334 33.7971
29.38992651653503 33.8322
29.41312396492981 33.7266
29.436142806456754 33.536
29.45916286268059 33.4966
29.48236399319994 33.295
29.50538649169417 33.2387
29.528410208259935 33.0607
29.55143514402014 32.9616
29.574641196749695 32.817
29.597668583816574 32.7376
29.6206971934585 32.5936
29.64372702680042 32.5762
29.666938019934474 32.4886
29.689970313635285 32.5262
29.713003834422636 32.4402
29.73603858342347 32.3553
29.759254535188578 32.2911
29.78229175361658 32.2375
29.80533020365064 32.3284
29.82836988641968 32.3642
29.85159081507472 32.29
29.874632976355343 32.1409
29.89767637376955 32.3254
29.920721008448314 32.051
29.9439469322847 32.0835
29.96699405457564 31.9806
29.9900424175358 32.0523
30.013092022298157 32.014
30.03632295963995 31.8978
30.059375061131373 31.9975
30.08242840783577 31.9408
30.105483000888153 31.9408
30.128718970092244 32.0215
30.151776069006917 31.9064
30.17483441768648 31.9305
30.198074175317235 31.9098
30.221135036724256 31.9785
30.24419715131772 31.8375
30.267260520236203 31.784000000000002
30.290505341942243 31.7628
30.313571232750228 31.758000000000003
30.336638381310948 31.8431
30.35970678876503 31.7202
30.38295669299435 31.5076
30.40602763151657 31.6108
30.429099832366074 31.5949
30.452173296685572 31.5528
30.47542830191959 31.5524
30.498504306502497 31.5161
30.521581577995562 31.5386
30.544660117543582 31.6892
30.56792024229725 31.6824
30.59100133132069 31.5185
30.614083691845494 31.6174
30.637167325018545 31.7421
30.660432587840603 31.7536
30.683518779717886 31.6556
30.70660624769615 31.7323
30.729694992924372 31.7138
30.75296541239743 31.6549
30.77605672557558 31.4528
30.799149319462742 31.448
30.8224236211637 31.353
30.845518789950724 31.3641
30.868615242910597 31.3775
30.891712981195973 31.2094
30.91499247215866 31.090999999999998
30.938092794619365 30.9891
30.96119440587579 31.0159
30.984297307082752 30.9644
31.00758200598383 30.8519
31.030687500658694 30.7008
31.053794288760695 30.5973
31.076902371446767 30.5107
31.100192296997445 30.7157
31.12330298246119 30.6412
31.14641496599209 30.4458
31.169528248749216 30.4845
31.19282341969534 30.4313
31.215939314557186 30.399
31.239056512134788 30.4657
31.262175013589378 30.4171
31.28547544871168 30.458000000000002
31.30859657161541 30.3247
31.331719001892175 30.4038
31.35484274070538 30.4925
31.378148458819545 30.4302
31.401274828443725 30.4253
31.424402510106933 30.3985
31.447712205419993 30.5353
31.470842524931633 30.3671
31.493974159989783 30.3298
31.51710711176168 30.3075
31.54042212308802 30.3913
31.563557722100917 30.2169
31.586694641341655 30.0945
31.609832881979628 29.9172
31.63315322823208 30.0592
31.656294125521327 29.8428
31.679436347728515 29.7681
31.70257989602529 29.7128
31.725905596152327 29.7332
31.74905181052835 29.6486
31.772199354521323 29.74
31.79534822930507 29.6641
31.818679302290967 29.6892
31.84183085259981 29.6665
31.864983737233473 29.5741
31.88813795736804 29.6721
31.911474422233013 29.5744
31.934631327356435 29.6552
31.9577895715215 29.5452
31.980949155906522 29.535
32.004291031706956 29.531999999999996
32.027453310562606 29.4296
32.05061693318573 29.3087
32.07396288236386 29.3034
32.09712920658542 29.2559
32.12029687812702 29.1638
32.14346589817093 29.0689
32.166817291729984 28.9446
32.18998902288583 28.8418
32.21316210610336 28.9349
32.23633654256711 28.6804
32.259693399663725 28.6635
32.282870556771144 28.633000000000003
32.30604907069099 28.6949
32.329228942610065 28.741999999999997
32.35259128243769 28.5452
32.375773884550505 28.5828
32.398957848235646 28.4844
32.422143174682176 28.3869
32.445511016471215 28.369
32.468699082679954 28.2685
32.49188851523011 28.285
32.51507931531304 28.1992
32.538452678331 28.1319
32.56164622776311 28.0474
32.58484114831493 27.9943
32.60803744118015 27.9898
32.631416344731896 28.0507
32.654615396551876 27.9856
32.67781582427913 27.9369
32.701198898634416 27.8843
32.72440209253756 27.8902
32.747606665947124 27.8442
32.77081262006088 27.7106
32.79420126883317 27.7156
32.81740999876112 27.7577
32.840620112999424 27.6173
32.86383161274818 27.5712
32.88722585534586 27.5452
32.91044014056596 27.6413
32.933655814909734 27.5217
32.95687287957963 27.5585
32.98027273544904 27.4157
33.00349259526636 27.3887
33.026713849030116 27.4109
33.04993649794511 27.3816
33.073341986570746 27.3463
33.09656744032826 27.2649
33.11979429286444 27.2914
33.14302254538647 27.3302
33.166433686291185 27.2687
33.18966475336992 27.2806
33.212897224069096 27.1019
33.23613109959831 27.164
33.259547912343415 27.0904
33.2827846121627 27.0985
33.306022720453775 27.1063
33.32926223842861 26.9367
33.352684742614166 26.9316
33.37592709463173 26.8845
33.399170859982064 26.8516
33.422597648419426 26.7348
33.44584425514446 26.6738
33.46909227885668 26.6735
33.4923417207723 26.5208
33.51577423505344 26.5222
33.539026528130385 26.4425
33.56228024307245 26.4192
33.585535381098246 26.288
33.60897364093058 26.2474
33.63223163992385 26.3068
33.6554910656699 26.2744
33.678751919389796 26.2523
33.702195944520106 26.12
33.72545966903325 26.1725
33.74872482519663 26.0355
33.771991414233746 26.1367
33.79544122444841 26.1651
33.81871069412428 26.035
33.84198160035767 25.9401
33.86525394437455 25.9283
33.88870955949969 25.833000000000002
33.911984794020626 25.874000000000002
33.93526147001624 25.8323
33.958539588715006 25.7529
33.98200102861669 25.5926
34.0052820477047 25.6895
34.02856451319451 25.6493
34.05203033759056 25.5285
34.07531571090147 25.5362
34.09860253431845 25.5702
34.121890809074316 25.5083
34.145362493118924 25.4852
34.16865368561615 25.3503
34.191946333164054 25.3846
34.21524043699793 25.3614
34.23871800066799 25.3152
34.26201503218366 25.22
34.28531352370466 25.2066
34.30861347646881 25.1285
34.33209693978188 25.0621
34.3553998301885 25.0887
34.378704185565205 25.0318
34.402010007152356 24.9882
34.42549939016683 24.9145
34.44880815937748 24.8936
34.472118398533134 24.8517
34.49543010887669 24.8517
34.51892543169198 24.7403
34.54224009966052 24.7209
34.56555624255917 24.7746
34.58887386163339 24.6172
34.61237514439016 24.4605
34.6356957311114 24.5194
34.65901779775809 24.4731
34.68252356662995 24.4604
34.705848608458616 24.4153
34.72917513396849 24.4015
34.75250314440949 24.3845
34.77601490857862 24.3317
34.799345904259795 24.3042
34.82267838863559 24.2513
34.846012362958525 24.2458
34.869530142679984 24.1682
34.89286711232212 24.1521
34.91620557568269 24.1396
34.93954553401677 24.1508
34.9630693495876 24.1282
34.986412313340814 24.1063
35.00975677584668 24.0513
35.033102738362956 24.0313
35.05663261012228 23.9472
35.0799815881786 24.0331
35.10333207003229 23.8493
35.12668405694369 23.8963
35.150220005273056 23.8487
35.17357501786656 23.9093
35.19693153931268 23.7734
35.220289570874385 23.7552
35.24383161619786 23.7703
35.267192683604904 23.7444
35.290555264930376 23.6686
35.314101899412165 23.6262
35.33746752422433 23.6574
35.36083466676374 23.713
35.38420332829803 23.6121
35.407756095629054 23.5656
35.43112781085063 23.6245
35.45450104888391 23.5485
35.477875810999194 23.5982
35.50143473172161 23.5312
35.52481255774625 23.5637
35.54819191167777 23.3367
35.57157279478914 23.3866
35.595137889488406 23.3295
35.61852184675279 23.3799
35.641907337029984 23.2295
35.665294361595684 23.2589
35.68886565090076 23.2448
35.7122557598848 23.1457
35.73564740699838 23.2319
35.759040593519934 23.0798
35.78261809810353 23.0425
35.80601437933051 22.9605
35.829412203814705 22.9036
35.85281157283719 22.8037
35.876395313415884 22.7943
35.8997977874528 22.7724
35.92320180988546 22.8335
35.946790244133936 22.7487
35.97019737933222 22.7659
35.993606066789866 22.6726
36.01701630779276 22.6585
36.04061101440684 22.5738
36.06402437852291 22.6602
36.08743930005611 22.6211
36.1108557802951 22.5885
36.13445678011326 22.4943
36.15787639383515 22.4601
36.18129757014299 22.4735
36.20472031032821 22.3354
36.22832762423364 22.2956
36.25175350829375 22.3456
36.275180960119776 22.2497
36.298609981005924 22.3844
36.32222362992669 22.337
36.34565580510207 22.2999
36.36908955323448 22.1637
36.39252487562093 22.0923
36.416144880530226 22.0812
36.43958336764275 22.0936
36.463023432914625 22.0926
36.486465077645676 21.9934
36.51009145956204 22.1085
36.53353627947859 22.0152
36.55698268276811 21.9547
36.58043067073321 21.8819
36.60406345072071 21.8234
36.62751462435344 21.7879
36.65096738658405 21.8742
36.67460498210655 21.7901
36.69806093788647 21.7655
36.72151848619297 21.787
36.744977628333636 21.7405
36.76862165890998 21.5854
36.79208400512205 21.5537
36.81554794910557 21.6198
36.83901349217101 21.6027
36.862663978991606 21.4422
36.88613273667352 21.4538
36.90960309738324 21.399
36.933075062434064 21.3422
36.95673202673572 21.3731
36.98020721697122 21.3672
37.003684015502365 21.2663
37.027162423645365 21.2285
37.050825886711465 21.1941
37.07430753063053 21.1505
37.09779078812467 21.1712
37.121275660513014 21.1245
37.144945643673694 21.128
37.16843376245278 21.1293
37.19192350009803 21.1046
37.215414857931435 20.9976
37.239091382563885 20.9125
37.262585997426164 20.9054
37.28608223645736 20.9426
37.309763684451696 20.8861
37.33326318851098 20.7723
37.356764320726555 20.7902
37.380267082425526 20.8401
37.40395510942588 20.7798
37.42746114683234 20.6716
37.45096881771841 20.6098
37.474478123414166 20.5971
37.49817275092816 20.5855
37.52168534303452 20.6454
37.54519957395567 20.4596
37.568715445024665 20.4967
37.592416694607714 20.4382
37.61593586281424 20.4903
37.63945667518264 20.5041
37.66297913304891 20.3733
37.68668702630454 20.3853
37.710212792059274 20.3206
37.733740207334854 20.2004
37.757269273470364 20.1598
37.780983832050374 20.211
37.80451621684926 20.1492
37.82805025654007 20.1997
37.851585952464795 20.1016
37.8753071980695 20.0577
37.89884622345676 20.0646
37.92238690911902 20.0135
37.94611318753442 19.9279
37.969657210779765 19.9522
37.99320289834801 19.9586
38.016750251586465 19.9396
38.04048325513017 19.8604
38.06403395679343 19.826
38.087586328183946 19.7593
38.11114037065203 19.7729
38.13488012115898 19.7669
38.1584375229181 19.6677
38.181996599821 19.636
38.205557353221124 19.6442
38.229303872575656 19.5743
38.2528679961576 19.5841
38.27643380031219 19.5073
38.30000128639589 19.4824
38.32375459653193 19.4955
38.34732546371299 19.4893
38.37089801690786 19.3982
38.39447225747609 19.3496
38.418232380377425 19.348
38.441810012983396 19.317999999999998
38.46538933705673 19.2444
38.488970353960084 19.2461
38.51273731166058 19.2709
38.536321731567014 19.229
38.55990784840681 19.2029
38.58367995004091 19.1909
38.60726947812959 19.0793
38.63086070726198 19.1175
38.654453638806274 19.0673
38.678232613930824 18.9912
38.70182896773327 18.9297
38.72542702806741 18.9377
38.7490267963045 18.94
38.77281266709232 18.8981
38.79641586862214 18.8356
38.8200207821842 18.8139
38.843627409152944 18.8336
38.86742019782782 18.7544
38.891030269149255 18.7093
38.914642058016156 18.682000000000002
38.938255565806124 18.6622
38.96205529464307 18.6256
38.98567225787121 18.6416
39.00929094417078 18.6137
39.03291135492255 18.5722
39.05671804624804 18.517
39.080341923549106 18.4624
39.103967529460334 18.4521
39.127594865365744 18.3933
39.15140854155791 18.4267
39.17503935514948 18.4115
39.19867190290282 18.3135
39.22249083587951 18.3175
39.24612686969409 18.332
39.269764641845306 18.2761
39.293404153722804 18.2004
39.317230110864074 18.1137
39.34087311998506 18.1794
39.36451787301696 18.127
39.388164371352595 18.0862
39.41199737518003 18.0738
39.43564738196752 18.0617
39.45929913825317 17.9887
39.48295264543308 18.0709
39.506792718520884 17.9853
39.530449745387216 17.9541
39.55410852735203 17.9426
39.57776906581474 17.8995
39.60161623079 17.8839
39.625280300200025 17.8086
39.64894613032202 17.7881
39.67261372255866 17.7607
39.6964680021016 17.7672
39.72013913657293 17.7201
39.74381203738292 17.7193
39.76748670593756 17.7414
39.79134812278169 17.6464
39.81502634488497 17.6263
39.83870633896685 17.5579
39.862388106436654 17.5789
39.88625668336918 17.5493
39.90994201572829 17.5601
39.933629125719285 17.4908
39.957503091207826 17.369
39.9811937746168 17.41
40.00488623990914 17.3145
40.02858048850006 17.3218
40.05246165409549 17.3285
40.076159487492085 17.2979
40.099859108448875 17.3174
40.123560518384345 17.2226
40.1474489070226 17.2136
40.171153913178564 17.1672
40.194860712584955 17.1518
40.2185693066637 17.1297
40.242464941335314 17.1782
40.26617714307655 17.0657
40.289891143772046 17.0619
40.3136069448471 17.0764
40.33750984859743 17.0135
40.3612292688043 16.9977
40.3849504936829 17.0114
40.40867352466194 16.9284
40.43258372059144 16.8651
40.45631038219906 16.904
40.48003885420956 16.8721
40.503769138055105 16.8156
40.52768664931955 16.7769
40.55142057531802 16.7679
40.57515631746428 16.7558
40.599079334038514 16.7327
40.62281872700477 16.7049
40.64655994043941 16.7082
40.67030297578061 16.6912
40.69423334835778 16.5934
40.71798004609188 16.608
40.74172857006355 16.5298
40.76547892171441 16.5486
40.7894166736039 16.5303
40.813170699248566 16.5036
40.83692655691388 16.4706
40.86068424804498 16.4781
40.884629402612525 16.3951
40.908390779366385 16.3844
40.932153993938 16.3622
40.95591904777605 16.3101
40.979871628443995 16.33
41.003640379561936 16.2628
41.02741097430883 16.2891
41.05118341413683 16.1966
41.075143444384416 16.1548
41.098919593177826 16.1718
41.1226975914255 16.1988
41.14647744058318 16.1319
41.170444943946755 16.1368
41.19422851378379 16.108
41.218013938914645 16.0201
41.24198706625173 15.9747
41.26577622087193 15.9251
41.289567235177785 15.9592
41.31336011063129 15.9773
41.337340752422875 15.887
41.361137369129835 15.9014
41.38493585138705 15.8545
41.40873620066004 15.823
41.43272438060107 15.7542
41.45652848292052 15.7064
41.48033445666918 15.6935
41.50414230331616 15.7404
41.528138045159764 15.7223
41.551949656675205 15.6505
41.575763145513235 15.6375
41.59957851314666 15.6267
41.62358184070442 15.6111
41.64740098505737 15.5713
41.6712220126409 15.4848
41.69504492493139 15.4903
41.71905586207357 15.4674
41.74288256296395 15.4196
41.766711153007456 15.4403
41.79054163368412 15.4194
41.814560204340054 15.3758
41.838394485526365 15.4117
41.86223066180303 15.3509
41.88625497706819 15.2676
41.910094962812 15.2413
41.93393684811168 15.2792
41.95778063445365 15.2093
41.981812625263366 15.1836
42.00566023303407 15.1619
42.029509746323676 15.1508
42.05336116662236 15.1266
42.077400857069705 15.107999999999999
42.10125611078846 15.0193
42.12511327600405 15.0089
42.14897235421036 15.0151
42.173019768448455 15.0156
42.19688269209613 15.0093
42.22074753323349 14.9821
42.24461429335818 14.8913
42.268669455600495 14.8649
42.292540073217886 14.8533
42.31641261433284 14.8673
42.34028708044675 14.8609
42.36435001496739 14.7977
42.38822835065557 14.7857
42.41210861586426 14.7263
42.4359908120986 14.7114
42.46006154323262 14.6792
42.48394762115317 14.6596
42.507835634632315 14.7107
42.531912233047436 14.6222
42.55580413732265 14.5567
42.579697981698 14.5572
42.60359376768525 14.527000000000001
42.62767820545945 14.5292
42.65157789440821 14.4833
42.67547952952185 14.497
42.699383112316 14.4903
42.72347541395347 14.4062
42.74738291190531 14.3783
42.771292362102166 14.3616
42.795203766063516 14.3656
42.819303956130405 14.3355
42.843219287476536 14.308
42.86713657716324 14.2507
42.89105582671383 14.2055
42.91516392983864 14.1867
42.939087119032166 14.1289
42.963012272677304 14.1498
42.98693939230129 14.1241
43.01105543317513 14.0761
43.034986504731386 14.1145
43.05891954686589 14.0396
43.08285456110972 14.0961
43.10697856448665 14.0499
43.130917542983475 13.9666
43.15485849820081 13.9986
43.17880143167367 13.9469
43.20293342237094 13.921
43.226880332449 13.880999999999998
43.25082922540554 13.9232
43.27496722682525 13.8778
43.29892010567796 13.8252
43.32287497204102 13.8186
43.34683182745632 13.7205
43.370977859791836 13.7444
43.39493871351105 13.7543
43.41890156092628 13.6956
43.44286640358341 13.7086
43.46702049182749 13.6911
43.49098934522816 13.6598
43.51496019852649 13.5757
43.5389330532723 13.5604
43.56309522248204 13.5539
43.58707210044314 13.5362
43.61105098451946 13.5146
43.63503187626491 13.5173
43.659202151562134 13.4563
43.68318707902681 13.4083
43.70717401884041 13.4543
43.731162972560874 13.3991
43.75534137913236 13.3461
43.779334381108384 13.3457
43.803329401683186 13.3284
43.82732644241872 13.3245
43.8515130055166 13.3587
43.87551410707659 13.3003
43.89951723350145 13.2329
43.923709934595614 13.1831
43.94771713129917 13.1933
43.97172635758096 13.1503
43.99573761501002 13.1457
44.0199385169922 13.1167
44.04395385732619 13.0885
44.067971233533086 13.0811
44.09199064718605 13.0591
44.11619977548961 13.0059
44.14022328470671 12.9701
44.16424883610785 13.0331
44.18827643127035 13.0062
44.21249381139513 12.9023
44.236525514814076 12.8942
44.26055926674478 12.9135
44.28459506876863 12.9158
44.3088207262813 12.8282
44.33286064928722 12.8334
44.35690262714919 12.8015
44.38094666145278 12.7925
44.4051806219871 12.8046
44.42922879003185 12.7273
44.45327901929361 12.7442
44.477331311362136 12.7847
44.501573600619416 12.6627
44.525630039221795 12.6439
44.54968854541895 12.6522
44.573937102200176 12.6225
44.5979997645541 12.6459
44.622064499300315 12.5875
44.64613130803592 12.5587
44.67038823869318 12.5535
44.69445921643748 12.4858
44.718532272981385 12.4406
44.742607409926194 12.429
44.76687274034801 12.4133
44.79095205918753 12.4003
44.81503346325094 12.3512
44.839116954143876 12.3736
44.86339071028742 12.3579
44.88747839599524 12.332
44.91156817336837 12.3027
44.93566004401666 12.2961
44.959942251908146 12.2745
44.984038330325966 12.2455
45.00813650686762 12.2069
45.03223678314731 12.2233
45.05652746888232 12.1723
45.08063196592069 12.2238
45.104738567558705 12.1124
45.128847275414856 12.1169
45.15314646515866 12.0031
45.17725940679741 12.0408
45.20137445952892 12.0577
45.22568004865265 12.0193
45.24979934496396 12.0273
45.27392075725247 12.0148
45.29804428714431 11.9755
45.322358426247604 11.9767
45.346486212804315 11.9645
45.370616121861914 11.8959
45.39474815505086 11.8744
45.41907087049246 11.8629
45.4432071734666 11.8471
45.46734560548283 11.8413
45.49148616817604 11.8279
45.51581748638564 11.8133
45.5399623320197 11.7639
45.56410931325473 11.7107
45.58825843173002 11.7088
45.61259837920865 11.6697
45.636751793816 11.6803
45.66090735060093 11.6264
45.68506505120716 11.6185
45.7094136545275 11.6176
45.73357566449271 11.6124
45.75773982322992 11.5872
45.78190613238733 11.5239
45.806263418194064 11.5196
45.83043404997326 11.5702
45.85460683713677 11.5207
45.87897065658495 11.4747
45.90314777634752 11.4558
45.92732705646868 11.4651
45.9515084986045 11.3585
45.97588104735473 11.4089
46.00006683541565 11.3596
46.02425479047904 11.3492
46.04844491420549 11.3141
46.0728262191024 11.3037
46.09702070211635 11.2945
46.12121735879483 11.2793
46.14541619080294 11.2906
46.169806278764455 11.234000000000002
46.194009483459034 11.1964
46.21821486849841 11.1939
46.24242243555223 11.1285
46.266821333570014 11.1154
46.29103328674601 11.1385
46.31524742696538 11.158
46.33946375590237 11.1153
46.36387149104216 11.0627
46.38809221957392 11.03
46.41231514186606 10.9802
46.436540259597464 10.9765
46.460956858999374 10.9511
46.48518638983522 10.9605
46.509418121166966 10.9669
46.533652054678114 10.9303
46.55807754555709 10.888
46.58231590571962 10.8864
46.60655647313217 10.8709
46.630988654873654 10.831
46.655233659129024 10.8156
46.67948087571551 10.7951
46.70373030632484 10.775
46.72817142736393 10.7801
46.752425308428684 10.7336
46.77668140861147 10.7334
46.80093972960865 10.7048
46.82538981736788 10.6845
46.849652602470904 10.6623
46.87391761349769 10.6118
46.8981848521493 10.6508
46.9226439341274 10.5716
46.946915650573224 10.5842
46.97118959976749 10.5606
46.99546578341598 10.5506
47.019933887188216 10.5584
47.04421456235744 10.5332
47.06849747711879 10.4885
47.09278263318286 10.4735
47.11725978640143 10.4457
47.14154944775105 10.4144
47.165841355555656 10.4094
47.1901355115306 10.3892
47.214621741924994 10.4175
47.23892041698887 10.4095
47.26322134538975 10.3542
47.28771440635075 10.3271
47.31201986422527 10.3251
47.33632758061436 10.2753
47.360637557241866 10.2572
47.38513974410611 10.2243
47.40945426407847 10.1865
47.43377104948137 10.212
47.45809010204344 10.1913
47.48260144275502 10.1663
47.506925052572285 10.1259
47.53125093475548 10.1083
47.55557909103813 10.074
47.58009961361992 10.0802
47.60443234110732 10.0609
47.62876734791564 10.085
47.65310463578333 10.0441
47.6776343683373 10.0082
47.7019762413987 9.957889999999999
47.72632040075572 9.982999999999999
47.75066684815169 9.955060000000001
47.77520581885936 9.9588
47.799556865477655 9.907110000000001
47.823910205386 9.902439999999999
47.84826584033272 9.91748
47.87281407745551 9.86797
47.89717432569297 9.87562
47.92153687423484 9.85561
47.94609208429692 9.79959
47.97045925671401 9.77529
47.99482873471275 9.7404
48.01920052005013 9.746039999999999
48.04376504619224 9.75866
48.068141469543484 9.7767
48.09252020552573 9.76494
48.11690125590099 9.695260000000001
48.1414751266064 9.71096
48.16586082917454 9.68219
48.19024885144316 9.62224
48.2146391951793 9.617510000000001
48.239222439012764 9.61943
48.26361744916137 9.5901
48.28801478610016 9.57618
48.31241445160131 9.57873
48.337007097209366 9.55609
48.36141144338331 9.509139999999999
48.38581812345755 9.4894
48.41022713920929 9.47935
48.434829215320704 9.4735
48.45924292604658 9.490310000000001
48.48365897780325 9.44851
48.50807737237308 9.40094
48.532688907799276 9.4048
48.55711201168574 9.35314
48.581537463754074 9.3632
48.60615611725119 9.365260000000001
48.63058628942721 9.37082
48.65501881516546 9.35582
48.6794536962573 9.31023
48.70408185970339 9.3241
48.72852147531801 9.24092
48.75296345168211 9.23088
48.77740779059232 9.244710000000001
48.80204549302823 9.21563
48.82649458091802 9.208210000000001
48.85094603676547 9.16295
48.87539986237231 9.13593
48.90004713292306 9.100530000000001
48.92450572200832 9.11789
48.94896668628025 9.09631
48.97343002754588 9.073039999999999
48.99808689542115 9.050989999999999
49.02255501470614 9.09401
49.04702551642794 9.04364
49.0714984023988 9.0066
49.096164896893235 9.00647
49.120642575466796 8.99779
49.145122643748394 8.986369999999999
49.16960510355558 8.94668
49.19428125404938 8.95728
49.2187685210852 8.90217
49.243258185121555 8.88908
49.26794160167084 8.87097
49.2924360839405 8.87612
49.31693296869764 8.81821
49.34143225776915 8.81232
49.36612538195438 8.8019
49.39062950396021 8.79428
49.41513603578346 8.7822
49.4396449792564 8.76729
49.46434784069503 8.72218
49.488861631846454 8.714
49.513377840166804 8.71787
49.537896467493745 8.6652
49.56260909589029 8.64387
49.587132585683285 8.666360000000001
49.611658500018365 8.66333
49.636186840738596 8.612110000000001
49.66090926588511 8.64103
49.685442483902584 8.60207
49.70997813385706 8.55569
49.734516217597076 8.55524
49.75924846937352 8.56719
49.7837914452858 8.52352
49.80833686055187 8.536
49.83288471702571 8.46148
49.85762682540054 8.47471
49.882179588965734 8.4766
49.9067347993235 8.440610000000001
49.93129245833333 8.43207
49.95604445336378 8.4123
49.98060703442832 8.39725
50.005172069746266 8.377089999999999
50.02993150438364 8.34935
50.05450147301533 8.32375
50.07907390151433 8.28375
50.10364879174981 8.327010000000001
50.12841816587289 8.27956
50.1529980044635 8.24955
50.17758031042124 8.28839
50.20216508562089 8.26299
50.22694442953363 8.233139999999999
50.25153416817468 8.235489999999999
50.27612638170508 8.18834
50.300721072005196 8.166089999999999
50.325510416102105 8.196660000000001
50.350110084975064 8.136519999999999
50.37471223628208 8.1616
50.39931687190919 8.1357
50.424116246675766 8.16275
50.44872587605249 8.102730000000001
50.47333799543065 8.10159
50.49795260670191 8.08042
50.52276204271512 8.06221
50.54738166295838 8.03647
50.57200378079314 8.05359
50.596628398116835 8.03555
50.62144792604559 8.020380000000001
50.646077567609396 7.993239999999999
50.670709714377715 7.993539999999999
50.69553683636198 7.94338
50.72017401885922 7.893860000000001
50.7448137122895 7.9171
50.76945591856022 7.89438
50.79429318636823 7.8628
50.818940443716784 7.87513
50.84359021965163 7.84477
50.868242516085964 7.85341
50.893089960641895 7.8013699999999995
50.917747323549435 7.7888
50.94240721271973 7.8042300000000004
50.96706963007175 7.764760000000001
50.99192728239342 7.742889999999999
51.01659478166073 7.770339999999999
51.04126481489051 7.7485100000000005
51.06593738400761 7.7077800000000005
51.090805275207074 7.700060000000001
51.11548294172845 7.681539999999999
51.14016314993547 7.68664
51.164845901758845 7.647239999999999
51.18972406304274 7.629510000000001
51.21441192780656 7.60188
51.23910234200271 7.59753
51.2637953075678 7.543839999999999
51.288683770237945 7.578069999999999
51.31338186432707 7.54725
51.33808251561888 7.53817
51.362978729967345 7.512010000000001
51.387684521509755 7.517760000000001
51.41239287610203 7.51635
51.437103795691165 7.472569999999999
51.46201036644977 7.4403
51.486726441956634 7.4219800000000005
51.51144508832545 7.42123
51.536166307509156 7.41926
51.56108326624387 7.39958
51.58580965706056 7.4161399999999995
51.61053862657523 7.3374
51.635270176746864 7.3308
51.66019755512065 7.339460000000001
51.68493429268881 7.36947
51.70967361681515 7.3083800000000005
51.73441552946465 7.30578
51.759353359237934 7.297960000000001
51.7841004750961 7.285989999999999
51.80885018539685 7.2811
51.833602492111254 7.20995
51.8585508051424 7.211639999999999
51.883308330926425 7.21507
51.90806845906181 7.23348
51.932831191525715 7.188389999999999
51.95779001977161 7.18964
51.98255798721516 7.127389999999999
52.00732856494335 7.1294699999999995
52.03229530577543 7.12758
52.057071130455945 7.103
52.081849571391054 7.099
52.106630630568695 7.08812
52.13160794279417 7.092210000000001
52.15639426492067 7.06283
52.18118321127822 7.04437
52.205974783860896 6.99293
52.23096269971011 7.002089999999999
52.255759551287994 6.98458
52.280559035098186 6.9779
52.30536115314103 6.96793
52.33035970494467 6.934060000000001
52.35516711807904 6.929530000000001
52.37997717147198 6.92842
52.40478986713005 6.91527
52.42979908731974 6.86809
52.454617094216 6.870419999999999
52.47943774942214 6.86817
52.50426105495102 6.82844
52.529280976059844 6.840739999999999
52.554109609024096 6.79235
52.57894089837482 6.7814
52.60377484613117 6.79858
52.62880550079408 6.77532
52.65364479223379 6.75741
52.67848674816189 6.7335899999999995
52.70352547971946 6.71378
52.72837279155837 6.70445
52.753222773982785 6.687360000000001
52.778075429022984 6.7135
52.80312495150885 6.702189999999999
52.827982978797436 6.69349
52.85284368481815 6.6739999999999995
52.87770707160767 6.649719999999999
52.90276741793998 6.650589999999999
52.92763619336701 6.61008
52.952507655698504 6.616110000000001
52.977381806977576 6.5728800000000005
53.00245301017842 6.570869999999999
53.02733256653592 6.51138
53.052214817996074 6.56062
53.077099766608484 6.51689
53.102181859804446 6.50059
53.127072229988265 6.5285
53.15196530349892 6.50994
53.17686108239249 6.4538
53.20195409881522 6.4224
53.22685531582556 6.47507
53.25175924441303 6.43882
53.27666588664027 6.38854
53.30176985962693 6.39374
53.3266819565689 6.35208
53.35159677336455 6.37156
53.376514312083096 6.36797
53.40162927507703 6.36005
53.42655228516116 6.33664
53.45147802340193 6.31527
53.47660125628886 6.296
53.50153247842639 6.29755
53.52646643496923 6.26308
53.55140312799818 6.27922
53.576537409691696 6.25249
53.60147960336152 6.2334
53.626424539786164 6.24349
53.65137222105307 6.16477
53.67651758529126 6.2105
53.70147078399681 6.19215
53.72642673383343 6.18973
53.75138543689533 6.1681099999999995
53.776541917524526 6.1598
53.801506154876755 6.163930000000001
53.826473151763246 6.0695
53.851442910284916 6.0491
53.87661054126026 6.07735
53.9015858509782 6.08551
53.92656392866066 6.06797
53.95154477641532 6.079940000000001
53.976723591801296 6.03407
54.00171000771266 6.012580000000001
54.02669920004598 6.00411
54.051691170915745 6.02682
54.076881204886796 5.96725
54.101878760928514 5.98022
54.12687910187696 5.92689
54.152077577768296 5.9152
54.1770835166946 5.936719999999999
54.20209224691339 5.89521
54.22710377055121 5.92549
54.25231352511594 5.926130000000001
54.27733066384342 5.85499
54.30235060239643 5.89498
54.32737334290836 5.81816
54.35259441062629 5.810169999999999
54.377622783395324 5.80251
54.40265396455061 5.792730000000001
54.42768795623251 5.77234
54.45292037169559 5.797680000000001
54.477960012857906 5.75354
54.50300247099511 5.7651900000000005
54.52804774825457 5.7096800000000005
54.55329154616743 5.6775199999999995
54.57834249018678 5.65988
54.6033962597977 5.64818
54.6284528571545 5.63086
54.653708072335164 5.60274
54.67877035378786 5.58711
54.70383546947698 5.5775
54.72890342156389 5.5484599999999995
54.7541700889442 5.525119999999999
54.77924374251975 5.55729
54.8043202390049 5.4943599999999995
54.82959552413022 5.452319999999999
54.8546777351945 5.44362
54.87976279569621 5.41027
54.90485070780914 5.412640000000001
54.930137506558005 5.37973
54.95523115074295 5.4085
54.98032765308844 5.33677
55.005427015775496 5.3570400000000005
55.03072536339621 5.34748
55.05583047570572 5.2994
55.080938454927676 5.353619999999999
55.10604930325027 5.2649300000000006
55.131359235107396 5.27695
55.15647585066083 5.20908
55.181595341907496 5.260330000000001
55.20671771104285 5.191730000000001
55.232039262617704 5.19269
55.25716741665048 5.10225
55.28229845518636 5.0671
55.30743238042802 5.05451
55.33276558731939 5.05428
55.357905315183636 5.09762
55.383047936390035 5.006819999999999
55.40819345314859 4.98109
55.433538351073295 4.96014
55.458689688238415 4.91835
55.483843927614096 4.93089
55.509197623043605 4.93982
55.53435769621134 4.86805
55.55952067826466 4.84668
55.5846865714265 4.79723
55.61005202069737 4.84065
55.63522376553902 4.8146
55.66039842818645 4.77813
55.68557601087004 4.75531
55.7109532500271 4.693309999999999
55.73613670233794 4.7302800000000005
