TT I
1.2716486653135266 7.07224
1.2939594142134223 7.24521
1.3162702121660406 6.16717
1.3385810600174564 6.91622
1.3608919586137629 6.40433
1.383202908801069 5.962219999999999
1.405513911425503 5.44691
1.4278249673332093 6.27086
1.4501343378461518 5.91219
1.4724455028545926 5.90653
1.4947567236847858 6.3765
1.517068001182951 5.82768
1.5393793361953272 5.50556
1.5616907295681737 5.9044
1.5840021821477681 5.79831
1.60631369478041 5.3792800000000005
1.6286252683124185 5.4914
1.6509369035901333 5.3739300000000005
1.6732468618895553 5.6421
1.695558623192809 4.54191
1.7178704487808514 5.33823
1.7401823395001077 5.19206
1.7625012545597203 4.84695
1.7848028405262486 4.962219999999999
1.8071218901122095 4.62135
1.8294236121921872 4.644769999999999
1.8517427996910911 4.527430000000001
1.8740620574440425 4.85801
1.8963639900671978 4.23462
1.9186833908139995 4.4261
1.9409854680117449 5.24491
1.9633050151394713 4.69752
1.9856246367570705 4.6961699999999995
2.0079269371922672 4.87871
2.03024671027244 4.81151
2.0525491637446027 4.94485
2.074869091674931 4.69169
2.097171701569106 4.6264400000000006
2.1194917877373847 5.13435
2.141811954326636 4.81758
2.164114805233074 4.88237
2.186435135143035 5.5216199999999995
2.208738150935709 11.4933
2.231058647554722 22.6836
2.2533792288321184 16.9733
2.275682498336085 8.86041
2.298003251406138 6.05882
2.3203066942619714 5.4798599999999995
2.3426276225136022 5.40618
2.3649486396617507 5.8326199999999995
2.387252348930071 6.06383
2.4095735463442893 6.36659
2.4318774374315884 5.95338
2.4541988185014043 6.104019999999999
2.476502894794693 7.08632
2.498824462909887 7.0812100000000004
2.521146125856138 7.6834
2.5434504863470337 7.16805
2.5657723414244717 7.88426
2.588076895590662 7.83138
2.610398946189713 8.257769999999999
2.6327210958598384 8.17039
2.6550259469304716 8.13223
2.6773482972090137 8.60803
2.6996533504259 7.97635
2.7219759047039602 8.48215
2.744298562293959 8.49948
2.7666039251246595 8.36295
2.7889267918020164 7.79325
2.8112323652516555 8.217210000000001
2.833555444408179 8.598519999999999
2.8558786311183852 8.46464
2.8781845268938557 9.21158
2.9005079311721484 9.46055
2.9228140460410397 8.87636
2.9451376712799635 8.966569999999999
2.967444008632326 9.64343
2.9897678582247247 9.92882
3.0120918213106695 10.2722
3.0343984987899373 10.7685
3.0567226913198637 11.7803
3.079029599759726 11.6298
3.101354025127254 12.5708
3.123678568232338 12.8347
3.145985829517914 13.1048
3.16831061055229 13.6179
3.1906181112775593 14.6201
3.212943133635653 15.16
3.2352682779763207 15.0914
3.2575761442691227 15.652999999999999
3.2799015350264273 15.7709
3.302209649240067 16.0971
3.3245352898092655 16.7648
3.3468436553365257 17.58
3.369169549113219 17.813
3.3914955708171384 18.6279
3.413804319727358 18.7007
3.4361305997334863 18.9937
3.4584396084414553 19.4332
3.4807661501462652 20.2016
3.503092824025881 20.2904
3.5254022288463154 20.8117
3.5477291695206588 21.6573
3.5700388426251948 22.313000000000002
3.5923660534916446 23.5904
3.6146934007816114 35.2091
3.637003482731501 72.0125
3.6593311053109985 79.8287
3.681641464033634 48.324
3.7039693653009733 28.7396
3.726297407241705 25.3949
3.7486081875460804 25.2854
3.7709365132734978 26.0041
3.793247578841633 26.5441
3.8155761917550093 26.906
3.8378875459837216 26.7867
3.8602164494827234 27.17
3.882545499606844 28.1551
3.9048572932539183 28.7519
3.9271866390645718 28.9507
3.9494987298666713 29.2162
3.971828374764527 29.8777
3.9941581705403255 30.6431
4.016470713506008 30.8973
4.038800813471445 32.0936
4.061113662089144 32.7693
4.0834440696459176 33.5762
4.105774632334751 33.5305
4.128087945865126 34.3633
4.150418821249301 35.4242
4.172732448931298 36.3243
4.195063640413578 38.228
4.2173775856475215 41.2586
4.239709096631102 66.3599
4.262040768704612 187.50900000000001
4.284355196706267 248.387
4.306687193387355 162.634
4.329001947444346 70.471
4.35133427213731 46.1689
4.373666762177566 43.9974
4.395982011761091 43.7034
4.418314834921175 44.9607
4.44063041906622 51.0445
4.4629635787515625 59.2982
4.4852969080429785 59.7141
4.5076130004776225 52.46
4.529946671403969 50.3359
4.552263106909177 50.5241
4.574597122877047 51.59
4.596931312711224 52.2799
4.619248269273446 53.0316
4.6415828092605835 53.966
4.663900117405352 54.7394
4.686235010953232 56.2387
4.708552674085913 57.4178
4.730887924602802 58.9169
4.753223354952695 60.6583
4.775541557023902 62.4376
4.797877349456786 64.1437
4.820195915032126 65.6591
4.842532072957498 66.5336
4.864868414979744 68.5656
4.88718753227192 71.1484
4.909524244902505 72.6234
4.931843734218147 74.5823
4.954180820867835 76.8988
4.976518095879839 80.0249
4.998838149695359 82.8994
5.021175803844231 86.1688
5.043496238205739 89.6648
5.065834274903528 93.8176
5.088172504230693 98.5092
5.1104935158799565 104.182
5.132832132875765 123.53299999999999
5.155153533596801 159.44899999999998
5.1774925416746225 193.24
5.199814334878411 350.504
5.2221537374521505 978.9010000000001
5.244493338631803 2823.32
5.266815727034316 7883.25
5.289155727832427 12641.8
5.311478517248165 8486.87
5.333818921080011 2590.01
5.356159527788849 485.911
5.3784829252032536 175.50599999999997
5.400823940070432 140.834
5.423147747031976 124.76299999999999
5.445489173474152 116.31700000000001
5.467830807066149 111.524
5.490155234831516 108.08200000000001
5.512497285125229 104.945
5.534822130975162 102.727
5.557164601388673 101.10799999999999
5.579489868738879 98.6855
5.601832762690846 97.6209
5.6241758697774475 96.8067
5.646501775867269 95.5519
5.668845311622074 93.8511
5.691171647754637 93.2951
5.713515615597765 92.1279
5.735859800852677 91.632
5.758186788542988 91.2342
5.780531411018185 91.4738
5.802858837297399 90.8516
5.825203900414495 90.9747
5.8475491852224 91.5059
5.869877275883075 92.0524
5.892223006467101 92.6788
5.914551544266608 93.2413
5.936897724049891 95.4402
5.959244129804903 101.95299999999999
5.981573344815301 122.04799999999999
6.0039202049061 211.97
6.026249875609095 453.327
6.04859719346037 952.8560000000001
6.070927323278297 2224.23
6.093275102315365 4537.77
6.115623113320588 5292.34
6.137953938319995 3151.75
6.160302415650845 890.666
6.182633708324452 208.041
6.2049826554078376 108.109
6.227331838745022 89.7361
6.249663839443684 83.3191
6.27201349767565 80.4526
6.294345974611799 84.7331
6.316696111167083 93.1174
6.339046488263839 88.421
6.361379686074702 76.8803
6.383730546639482 70.3249
6.406064229255215 68.2518
6.428415576718203 67.6036
6.450749747566656 66.6157
6.47310158535871 65.1508
6.495453669698332 64.2208
6.517788579421056 63.7066
6.540141159237969 63.114
6.562476565766648 62.2653
6.5848296444934045 61.9453
6.607182974060425 61.898
6.6295191323281015 62.2313
6.651872965955752 64.5844
6.6742096296068985 84.369
6.6965639707294615 118.069
6.71891856698715 117.885
6.741255995248479 85.766
6.763611104154477 65.3408
6.785949046381137 59.2089
6.808304671371482 57.795
6.8306605557940046 57.5905
6.852999275508618 56.7351
6.875355681171544 56.1006
6.897694923437771 56.0175
6.92005185377892 56.092
6.9423916220322655 55.778
6.964749080490181 55.3404
6.987106804399774 54.9906
7.009447368180821 54.9816
7.031805625367033 54.7281
7.054146723727803 55.0055
7.076505517631004 54.5387
7.098864581288365 54.675
7.121206488070854 54.5007
7.143566093607822 54.3173
7.165908543567245 54.6956
7.188268694426048 54.5697
7.2106291193438095 54.3959
7.232972390625943 55.4939
7.255333366030969 65.9207
7.277677189091925 106.066
7.300038718428332 140.78
7.322400526130865 121.294
7.344745183422596 79.6425
7.367107550224791 59.3092
7.389452767901992 55.5582
7.411815697249891 54.2786
7.434161478756298 53.4368
7.456524974096713 53.6597
7.478888753837185 53.898999999999994
7.501235387657368 54.0223
7.523599738562711 54.027
7.545946944825532 54.2337
7.568311870344528 54.5556
7.5906770845765665 55.2023
7.613025156078678 55.7375
7.635390950099687 56.7913
7.657739602662809 56.1565
7.680105979923558 55.1755
7.702472650212829 55.568999999999996
7.724822180948224 55.5238
7.747189439655568 55.3147
7.769539560075357 55.578
7.791907410653562 55.9671
7.81425812420825 55.8325
7.836626570110925 56.4208
7.858995315087906 57.2007
7.881346924933401 57.1509
7.903716270417482 57.7038
7.926068482028405 58.1649
7.948438431475253 58.8152
7.9708086843180235 59.0193
7.993161805171116 60.0021
8.015532667162402 60.2069
8.037886398416653 61.2413
8.060257873014221 61.4883
8.082629655331942 62.0348
8.104984308787587 63.2355
8.127356708900503 66.0893
8.149711981398308 70.3873
8.172085002766314 72.7457
8.194458336181368 70.3645
8.216814543847752 68.639
8.23918850371002 68.7572
8.26154533906492 69.643
8.283919928836452 71.2785
8.306277395339652 71.9986
8.328652618483376 73.3453
8.351028159736202 75.5671
8.373386579575245 77.6912
8.395762759396959 79.618
8.418121819038275 83.9421
8.440498640894003 95.0025
8.462875785192262 107.79299999999999
8.485235811156207 122.363
8.507613602688501 167.074
8.529974277114228 253.273
8.552352719347912 381.337
8.574731488360351 650.8340000000001
8.59709314210385 1208.24
8.619472567021075 1934.86
8.64183487789147 2194.09
8.664214962183097 1720.14
8.686577933647762 841.988
8.708958680784317 313.566
8.731339760774953 148.056
8.753703729764451 106.87200000000001
8.77608547780821 96.7728
8.798450116065078 93.9984
8.820832535634787 91.5185
8.843215292401656 89.7342
8.865580941199045 88.4128
8.887964374703538 87.8113
8.910330701447199 88.4559
8.932714815164482 89.8623
8.955099270424924 89.0241
8.977466620733543 86.6901
8.999851761421976 84.53200000000001
9.022219798361645 82.8687
9.04460562795561 82.941
9.066991803441677 82.2028
9.089360876979615 82.2945
9.111747746589993 81.8959
9.13411751544971 81.6406
9.156505082664324 81.3121
9.178875550323522 81.1394
9.20126381862328 81.51
9.223652438908596 81.5677
9.246023961427412 81.3659
9.26841328802173 81.2955
9.290785518039224 81.2324
9.313175554425882 81.916
9.335565947154315 81.8863
9.357939245086508 82.2206
9.380330352834827 82.4886
9.40270436697103 82.2187
9.425096193225055 82.306
9.447488380180165 83.1234
9.469863475295412 83.4154
9.492256385987508 83.3857
9.514632206018318 84.074
9.537025843935714 84.5491
9.559402392368193 85.3587
9.581796761000229 86.6283
9.604191496441521 87.7472
9.626569144158516 90.4349
9.648964615551032 93.9617
9.671343000390081 94.9563
9.693739211225699 93.8135
9.716135793237463 91.9243
9.738515290448102 91.8954
9.760912617143402 92.9013
9.783292860202891 94.2816
9.805690935076182 95.6888
9.828089385495742 96.6955
9.850470754023561 98.8481
9.872869957865444 105.226
9.89525208097539 116.973
9.917652041736662 127.34700000000001
9.940052382417589 130.17
9.962435644102392 141.515
9.984836746950979 177.635
10.007220771957746 240.782
10.029622640473708 340.55300000000005
10.052007432299963 512.815
10.074410069984072 819.576
10.096813093716005 1285.03
10.119199042482517 1770.61
10.141602840636468 1964.48
10.163989564971628 1508.38
10.186394141051062 805.9739999999999
10.208799107559706 345.019
10.231187001965623 166.778
10.253592751657669 119.897
10.275981430388155 110.455
10.298387966769793 109.579
10.320794897965431 111.215
10.343184759907361 110.4
10.36559248305461 106.083
10.387983138083852 103.171
10.410391656691655 106.846
10.432800574501677 118.27
10.455192425893369 135.425
10.47760214443012 160.217
10.499994797678786 204.75900000000001
10.522405320453982 288.797
10.54479877906917 415.319
10.567210109595656 534.591
10.5896218454736 577.806
10.612016518879773 482.91900000000004
10.634429067781074 323.14
10.656824555333241 184.139
10.679237920773568 114.71600000000001
10.701651695961992 93.3973
10.724048411481384 87.7572
10.746463008485165 85.2184
10.768860546937125 83.8869
10.791275969274796 82.01799999999999
10.81369180576079 81.319
10.836090585366925 80.0193
10.858507252467449 78.8153
10.88090686379991 77.7212
10.903324365036394 77.2473
10.925724811614439 77.0312
10.948143150509463 77.9713
10.970561909719066 76.9498
10.992963615930844 75.5008
11.015383218085756 73.6841
11.037785768347074 72.5073
11.06020621697282 71.9337
11.082627090322113 71.1544
11.105030913430326 70.7237
11.12745263854165 71.1184
11.149857314510728 73.6198
11.172279894912576 78.3018
11.194702904450653 78.1408
11.217108866490921 75.1225
11.239532736615194 71.7906
11.26193956033512 70.1128
11.284364294577085 68.8004
11.306789462371718 67.1423
11.329197585398376 66.3866
11.351623622610898 65.9658
11.37403261614354 65.2926
11.396459526308487 65.1698
11.418869393879497 64.4947
11.441297180532617 64.6476
11.463725406927658 64.2489
11.486136592353875 63.7844
11.508565700543707 64.3793
11.530977768845315 65.6214
11.553407762368774 66.3949
11.575838200059769 65.9978
11.598251599479612 64.3332
11.620682927815501 63.2578
11.64309721895548 62.8408
11.665529441478206 62.3979
11.687962112597958 62.1673
11.710377748130886 62.1409
11.732811318753434 62.044
11.755227854859067 61.9736
11.777662328529495 62.0746
11.800079768750786 61.8664
11.822515149015453 61.5789
11.844950984084935 62.0666
11.867369787303163 61.7554
11.889806534289491 61.8342
11.912226250487029 61.9282
11.934663912939751 62.2032
11.9571020346363 62.2997
11.979523127133968 62.4615
12.001962169624331 63.3023
12.024384183972964 64.5459
12.046824150809913 67.2933
12.069264581333726 72.5726
12.091687985297767 77.7177
12.11412934550045 86.2787
12.136553680195208 101.64
12.158995973632788 125.524
12.181438735204349 157.75
12.20386447284199 194.387
12.226308172985636 214.07299999999998
12.24873485024193 202.42
12.271179492516982 166.738
12.293607112949127 119.37100000000001
12.316052700916226 88.7431
12.338498763250042 74.2467
12.360927805303868 67.9197
12.383374818673879 65.2253
12.405804812803074 63.7147
12.428252780773262 63.2219
12.45070122756722 63.3943
12.473132656675375 63.4892
12.49558206341869 63.632
12.518014453510101 63.6397
12.540464823770117 63.5454
12.562915677315177 63.9079
12.58534951575545 64.4711
12.607801338171472 66.3217
12.630236146511358 70.2508
12.652688941369085 73.6709
12.675124723177234 73.7889
12.697578494048786 71.2352
12.720032754458185 68.6383
12.742470003354093 67.0036
12.764925245138771 66.8147
12.787363476431278 67.335
12.809819703166806 67.5294
12.83227642391173 68.1151
12.854716135692716 68.9319
12.877173846755147 69.8356
12.899614549869717 70.1611
12.9220732548287 70.9741
12.94453245827299 71.4907
12.966974655289818 72.4149
12.989434858002571 73.556
13.011878055298721 74.1768
13.034339260862497 75.024
13.056800969391883 76.4061
13.079245674017244 78.553
13.101708390774869 80.98899999999999
13.12415410463411 87.98
13.146617833206086 99.8046
13.169064559883248 110.62899999999999
13.191529303857127 124.87
13.213994557076367 147.594
13.236442809902437 185.458
13.258909083908291 243.74
13.28135835851934 314.77099999999996
13.30382565690295 385.69300000000004
13.326293469022952 435.61800000000005
13.348744283242008 422.897
13.371213125129904 345.36199999999997
13.39366497011003 243.21599999999998
13.416134845360597 159.759
13.438605238843131 117.024
13.46105863690397 103.13600000000001
13.483530069144786 104.486
13.505984506951902 109.757
13.528456981549432 118.898
13.550929978879088 133.41899999999998
13.573385983253365 157.796
13.595860028340867 198.368
13.618317081455832 254.426
13.64079217790333 314.518
13.663250283359057 360.32300000000004
13.685726434770173 380.254
13.708203115221277 331.775
13.730662806148091 247.857
13.75314054697177 167.52900000000002
13.775601299246777 117.49600000000001
13.798080104050406 92.4345
13.820559442405358 83.3132
13.843021793671388 80.2985
13.865502201420897 78.8137
13.887965623051947 78.5673
13.910447103807167 77.4642
13.932929122629764 76.3159
13.955394156785959 75.9291
13.977877254034569 74.8616
14.000343367582113 74.0217
14.022827546871707 73.4104
14.045294743423524 72.71300000000001
14.06778000837062 72.2108
14.090265817715476 71.999
14.112734645763819 71.4137
14.13522154619454 71.28399999999999
14.157691466286913 71.4058
14.180179461423874 71.0742
14.202668005486178 70.2259
14.22513957064374 69.9797
14.247629214846473 69.6729
14.270101881097517 69.3901
14.29259262906496 69.5871
14.315083930490205 70.0314
14.337558255389705 70.1257
14.360050666019726 69.9922
14.382526101071944 69.0996
14.405019624534942 68.6238
14.427513705993134 68.1308
14.449990813291825 68.0662
14.47248601302899 67.7765
14.49496423954951 68.0238
14.517460561197822 68.1559
14.539939910570322 67.8463
14.562437357763558 68.0685
14.58493536931253 69.0317
14.607416409993311 69.6108
14.62991555254159 70.4513
14.652397725157423 70.4022
14.674898002342799 69.9498
14.697398848433282 69.832
14.719882725991326 70.5984
14.74238471217934 71.4302
14.764869730765593 75.0041
14.787372860692983 78.439
14.809876564079925 82.5946
14.83236330125751 88.1942
14.854868153850365 96.4084
14.877356041159485 110.36200000000001
14.899862046604186 129.681
14.922351087688757 156.999
14.944858249632887 187.142
14.967365991421232 215.071
14.989856770231246 228.109
15.012365673994204 221.02200000000002
15.03485761569738 185.94
15.05736768508665 142.309
15.07987833888692 107.56
15.102372032001655 85.7258
15.124883856909658 74.8065
15.14737872204565 71.0065
15.169891721717274 69.4611
15.192405310371893 69.3577
15.214901940621196 69.7138
15.237416709527137 69.4706
15.259914520936249 69.5464
15.282430473753607 68.5189
15.304947020131227 67.5591
15.327446610371178 66.957
15.349964346154254 66.4532
15.372465126703139 66.1868
15.394984055556009 65.6423
15.417486030076159 65.3785
15.44000615566487 65.2564
15.462526881230803 65.172
15.485030653812652 65.3839
15.507552581617434 65.2358
15.530057557334603 65.3996
15.55258069104857 65.2157
15.575104429329837 65.2083
15.597611216864632 65.0748
15.620136166564563 65.391
15.6426441664095 66.2483
15.665170331202765 68.6903
15.687697105158826 71.6301
15.710206930593545 75.0026
15.732734925158933 78.7477
15.755245972089478 84.7701
15.77777519094324 93.8337
15.800287463046663 108.064
15.822817909869592 128.154
15.84534897229804 151.958
15.867863089299354 178.424
15.890395385222186 196.16299999999998
15.912910736597423 199.799
15.935444269699861 181.359
15.957978423016485 148.102
15.980495633101265 115.113
16.003031029129367 89.1897
16.02554948280019 72.658
16.048086125229432 65.5223
16.070623392487107 63.615
16.09314371869582 62.843999999999994
16.11568223789321 62.328
16.13820381691126 61.253
16.160743591742527 60.4575
16.183283996022084 59.7252
16.205807461423195 58.7601
16.228349126881973 58.1203
16.25087385432698 58.0891
16.27341678466365 57.7217
16.29594277784926 57.5305
16.31848697676433 57.6072
16.341031811604868 57.7811
16.36355971058487 57.9263
16.3861058195587 57.7973
16.40863499352978 56.5879
16.431182380342005 55.8609
16.453730407713202 55.5027
16.476261501364792 55.1939
16.498810812136167 54.7832
16.52134319004079 54.9232
16.54389378792203 54.7537
16.566445031001553 54.6969
16.588979342490088 54.6505
16.61153187824822 54.1873
16.634067483263312 54.1728
16.656621315414416 54.1555
16.679175797408888 53.8333
16.701713349928728 53.93600000000001
16.72426913389191 54.3435
16.74680798922351 54.2015
16.76936507887444 54.1725
16.791905240734874 54.2119
16.814463639794468 54.0117
16.837022695210294 54.0488
16.859564824093756 54.3984
16.882125194503903 54.9662
16.904668639217885 55.4865
16.927230328348003 55.5808
16.949792678493612 55.8357
16.972338104193863 55.2944
16.994901778652235 55.0119
17.017448529496576 55.1531
17.040013531998152 55.3184
17.06257920018044 55.722
17.0851279459922 56.3511
17.107694947817667 57.2662
17.130245028099072 58.1051
17.15281336730298 59.3095
17.17536478578733 61.023999999999994
17.19793446610687 63.2824
17.220504818648422 66.5331
17.243058251703697 69.8991
17.265629950971032 75.0841
17.288184731571736 79.9382
17.310757781306908 83.3948
17.33333150794385 83.4054
17.355888317140174 81.3838
17.37846339986244 75.5274
17.401021565958885 68.9106
17.42359800851343 63.8405
17.44617513265564 60.7163
17.468735341390783 58.9371
17.491261035594565 58.31
17.51396340099364 58.1367
17.536490463869136 58.3453
17.559018209820174 58.4703
17.58154663977963 58.4738
17.604251766089718 58.6582
17.626781572227713 58.8727
17.64931206518155 59.0897
17.671843245885103 59.5161
17.69455114821572 59.6714
17.717083712612634 60.0747
17.739616967569667 60.2741
17.762150914021706 60.586999999999996
17.78486160749854 60.6669
17.807396945166804 61.3372
17.829932977143503 62.1399
17.85246970436452 63.7769
17.875183204129467 65.643
17.897721330097664 67.5545
17.920260154126645 69.868
17.942799677153296 72.8221
17.9655159983646 76.6656
17.988056927677544 82.1849
18.010598558807683 90.0998
18.033140892692916 100.728
18.05586005052525 112.82700000000001
18.07840379824407 125.179
18.10094825154059 135.194
18.12366954819864 141.736
18.146215420998306 138.613
18.16876200220057 127.303
18.191309292745153 112.389
18.214033452627167 98.585
18.236582170236648 88.0196
18.259131600016456 84.46
18.281681742907335 85.6615
18.304408781233683 90.75299999999999
18.32696035875955 96.3917
18.349512652227624 101.54299999999999
18.372065662579683 105.85799999999999
18.394795594587553 105.816
18.41735004715306 101.008
18.43990521943684 92.8507
18.46246111238171 83.34200000000001
18.485193953325208 74.2543
18.507751296070428 67.8472
18.530309362314178 64.5472
18.552868153000343 62.5529
18.57560391815056 61.2485
18.59816416623245 60.9519
18.620725141597372 60.3853
18.643286845190268 59.7585
18.666025549835414 59.5176
18.688588718427933 58.9761
18.711152618092243 58.9519
18.73389353884365 58.6965
18.75645890921984 58.1307
18.77902501351406 57.9082
18.801591852673102 57.946999999999996
18.824335739722738 57.4172
18.846904057212626 57.3952
18.8694731124168 57.1743
18.89204290628315 56.9008
18.914789774966803 56.6973
18.937361054791623 56.4329
18.959933076131318 56.3996
18.982505839934877 56.4574
19.00525570560582 56.4696
19.027829963004184 56.258
19.05040496572238 56.2618
19.072980714710468 56.2414
19.095733592739563 56.4478
19.11831084296757 56.9233
19.140888842324735 57.1138
19.16346759176222 57.3828
19.18622349753803 57.9188
19.208803755869358 58.6906
19.231384767143577 59.9577
19.253966532312948 61.5702
19.276725481241822 63.7004
19.29930876296784 66.4845
19.3218928014549 69.5334
19.34465404436217 72.75
19.36723960516257 75.3417
19.389825925592426 75.9751
19.412413006605938 74.6754
19.43517731967805 70.4902
19.457765930683355 65.9744
19.48035530514408 61.2326
19.50294544401556 57.894
19.525712842708348 55.4124
19.54830451925909 54.3931
19.570896963095727 53.3419
19.593490175174704 53.2127
19.616260674962184 53.1194
19.638855432416964 52.7743
19.661450960992624 53.114
19.68404726164677 52.8645
19.706820878021247 52.6579
19.729418731756834 52.941
19.752017360452857 52.8176
19.77461676506804 52.8941
19.797393513540218 53.1179
19.819994478951667 53.3222
19.84259622316767 53.7437
19.8651987471481 54.1396
19.887978643247177 54.3814
19.91058273574792 54.8895
19.933187610901943 55.5715
19.955969879466828 56.8005
19.97857632894404 58.2069
20.00118356396599 60.1192
20.023791585494575 62.4669
20.046577028914875 65.2446
20.069186632506966 67.7135
20.091797025500632 69.2149
20.114408208858933 69.7728
20.137196842715273 68.803
20.159809615886765 67.0953
20.18242318232135 64.2306
20.20503754298326 62.1814
20.227829382875154 61.3613
20.250445341109344 61.7191
20.27306209647285 62.5398
20.29567964993108 64.1568
20.31847471147704 65.1586
20.34109387027612 65.5112
20.363713830075454 64.6538
20.386334591841646 62.9739
20.409132890679302 60.1603
20.431755265564437 56.7017
20.454378445325528 53.9911
20.477002430930366 52.4461
20.499803982716553 51.4808
20.522429589228004 50.711999999999996
20.54505600449589 50.4876
20.567683229489194 50.2669
20.590488049900088 50.0102
20.61311690359731 49.6617
20.63574656993626 49.395
20.658553853717297 49.0606
20.681185154618298 49.01
20.703817271080066 49.0291
20.72645020407368 48.6063
20.749260783967177 48.4277
20.771895359337133 48.5644
20.794530754161617 48.2971
20.817166969412938 48.4312
20.83998086114876 48.2469
20.86261872660049 48.1704
20.885257415405402 48.4027
20.90789692853701 48.2148
20.930714147864748 47.9592
20.953355319030678 48.0164
20.97599731745334 48.0046
20.99864014410749 48.0522
21.021460706796564 48.1083
21.044105199328826 48.2451
21.06675052302631 48.3191
21.089396678865015 48.6418
21.112220600704806 48.9011
21.134868430275347 49.3479
21.15751709492456 49.555
21.180166595629693 49.9778
21.202993892429635 50.4855
21.22564507473034 50.8695
21.24829709602816 50.9225
21.27112693608965 51.0243
21.293780644891275 50.823
21.316435195634053 50.1342
21.339090589297417 49.2667
21.361923832041875 48.8166
21.384580921090404 48.2536
21.407238856007325 47.7657
21.429897637773326 47.9592
21.45273429906592 47.9846
21.475394784108598 47.7479
21.498056118951983 47.6596
21.520718304578022 48.0403
21.543558400304388 48.0525
21.566222297108816 48.2847
21.58888704765135 48.5016
21.61155265291521 48.7315
21.63439619898156 49.263999999999996
21.657063523335786 49.3108
21.67973170537063 49.9035
21.7024007460706 50.3113
21.72524775840385 51.0673
21.747918526116475 52.1243
21.770590155457388 53.5515
21.79326264741238 55.0051
21.816113141960237 57.1909
21.838787368860547 59.0628
21.861462461341976 60.9901
21.884315579735777 62.858000000000004
21.90699241312273 63.9682
21.92967011506078 64.2598
21.95234868653799 63.5243
21.9752053151131 61.926
21.997885635446785 59.8771
22.020566828293532 58.1816
22.04324889464272 56.7055
22.066109049404666 55.6866
22.088792872571794 55.5682
22.111477572219204 55.7177
22.1341631493376 55.7233
22.157026846313123 55.288999999999994
22.179714188221507 54.458999999999996
22.202402410582668 53.0347
22.22509151438863 51.9097
22.24795876962584 50.7979
22.270649646204486 49.924
22.293341407213727 49.0215
22.316034053646906 48.738
22.338904883215342 48.2901
22.36159931041458 48.6071
22.38429462602756 48.3955
22.40699083104897 48.07
22.429865251039757 48.1986
22.452563244831367 48.2704
22.47526213102522 48.3016
22.49813925616515 48.2634
22.520839937143307 48.273999999999994
22.543541513520587 48.089
22.56624398629403 47.9156
22.589124730075895 47.9395
22.611829005656723 48.1385
22.63453418063466 48.0519
22.657240256008077 48.3069
22.680124634582935 48.5361
22.70283252079775 48.8446
22.725541310413075 48.9819
22.74825100442868 49.1865
22.771139033969575 49.711000000000006
22.79385054687155 49.8727
22.81656296718292 50.718999999999994
22.83927629590484 51.5757
22.862167992606945 52.5959
22.88488314827121 53.7653
22.907599215359284 54.7168
22.93031619487366 56.06
22.953211574954405 56.8889
22.975930389478226 57.5788
22.998650119445763 57.5582
23.02137076586092 56.6629
23.044269845560063 55.0941
23.06699233506288 53.4722
23.089715744034912 51.5259
23.112617610931565 50.1268
23.135342869061212 49.1457
23.158069049684816 48.5917
23.1807961538087 48.2508
23.20370174880544 48.213
23.226430710184808 48.2406
23.249160598093425 48.461000000000006
23.271891413539002 48.3537
23.294800752937697 48.3989
23.31753343374794 48.5637
23.340267045128353 48.5241
23.36300158808808 49.0216
23.38591468821339 49.3381
23.408651104658304 49.5094
23.431388455719986 50.4299
23.454126742409 51.0994
23.4770436196085 52.235
23.499783787914662 53.6571
23.522524894889884 54.7315
23.54526694154616 56.0263
23.56818761219047 56.9449
23.59093154860734 57.308
23.613676427751283 57.5533
23.636422250635754 56.3101
23.659346731118656 54.566
23.68209445191868 52.5442
23.704843119509587 50.3642
23.72759273490623 48.7313
23.750521041644767 47.5585
23.77327256312355 46.5268
23.796025035462787 46.0948
23.818956224555475 45.4867
23.841710609113413 45.5597
23.86446594758979 45.2614
23.887222241002014 45.1115
23.910157285144578 44.7786
23.932915498962537 44.8393
23.955674670778713 44.6556
23.978434801611975 44.4184
24.001373717286125 44.2234
24.024135776723917 44.132
24.046898798245582 44.0195
24.06966278287146 43.8989
24.092605586582614 43.7271
24.115371508023642 43.5056
24.1381383956401 43.5376
24.16090625045381 43.4548
24.183852958731244 43.5131
24.206622758582608 43.2461
24.229393528706886 43.1816
24.252165270127392 43.2726
24.27511589952438 43.2497
24.297889594216997 42.9074
24.32066426328598 42.7513
24.34343990775613 42.8453
24.36639447485003 42.553000000000004
24.38917208083877 42.6748
24.41195066531332 42.6143
24.43490819850244 42.5717
24.457688750692377 42.4889
24.48047028445616 42.5163
24.503252800821233 42.5999
24.526214300784112 42.5412
24.548998793132213 42.6517
24.57178427117417 42.5084
24.59457073593893 42.5207
24.617536219319863 42.4706
24.64032466834748 42.4103
24.663114107195035 42.2891
24.685904536893013 42.0356
24.708874020360852 41.9989
24.731666442613744 41.9823
24.754459858818787 41.8874
24.777254270007962 41.89
24.80022777025625 41.698
24.82302418230472 41.8043
24.845821592443674 41.8804
24.86862000170663 41.7572
24.891597535453727 41.5267
24.914397953892728 41.8101
24.93719937456671 41.7276
24.96000179851076 41.923
24.98298338249997 42.1812
25.00578782394922 42.3839
25.028593271784167 42.5397
25.05157790644186 42.8549
25.07438537804115 42.9113
25.097193859145293 43.1788
25.120003350792075 43.4608
25.142992065061257 43.7374
25.165803588823465 44.0219
25.18861612625217 44.2379
25.211429678386736 44.1272
25.234422489079968 44.3836
25.257238081693636 44.3671
25.280054692141732 44.4334
25.3028723214652 44.2936
25.325869245420463 44.5121
25.348688923599397 44.6508
25.371509623787006 44.5
25.394331347025812 44.1934
25.41733240110666 43.5464
25.440156181590016 42.9384
25.46298098826268 42.4009
25.48580682216873 41.7427
25.50881202326435 41.3321
25.53163992281684 40.9273
25.55446885274561 40.7011
25.577298814096377 40.5834
25.600308179121807 40.2781
25.623140214533745 40.3862
25.64597328451537 40.3739
25.66898578564376 40.0258
25.691820936010206 40.1495
25.714657124097695 40.2592
25.737494350954734 40.1758
25.760511045684957 40.0157
25.783350361364224 40.0931
25.806190718969255 40.0097
25.82903211955018 40.2394
25.852053024868923 40.3203
25.874896522722523 40.3305
25.897741066713106 40.217
25.920586657892454 40.3031
25.943611790812668 40.4922
25.966459487728237 40.647
25.989308234998564 40.5205
26.01215803367705 40.8926
26.03518741123814 41.0409
26.05803932412957 41.2206
26.080892291600094 41.1926
26.10374631470478 41.2449
26.12677995397268 41.4359
26.14963609978026 41.0747
26.172493304397875 40.7743
26.19535156888223 40.5701
26.218389486949604 40.2571
26.241249882640123 40.0377
26.26411134137826 39.668
26.28715248187403 39.7272
26.31001607820869 39.603
26.3328807407756 39.4996
26.35574647063438 39.7105
26.37879191991473 39.7117
26.401659795896734 39.6899
26.424528742360263 39.8676
26.447398760366614 39.9756
26.470448535598294 40.0596
26.49332070826805 40.2987
26.516193955675355 40.5302
26.53906827888316 40.8376
26.562122397260108 40.8912
26.584998883685063 41.4282
26.607876449110325 41.6638
26.63075509460056 41.8284
26.65381357334404 41.8867
26.67669439061878 41.7929
26.699576291163382 41.6975
26.722459276044212 41.5537
26.745522132402975 41.1237
26.768407297649354 41.0579
26.791293550442003 40.6144
26.814180891848974 40.422
26.837248143099337 40.198
26.860137673466657 39.9541
26.88302829566349 39.7277
26.90592001075963 39.5696
26.92899167420566 39.4562
26.951885586870763 39.0251
26.974780595655517 38.7027
26.99785558178161 38.7559
27.020752794605112 38.7701
27.043651106772522 38.3944
27.06655051935668 38.4264
27.089629948036183 38.3781
27.112531573292053 38.3274
27.135434302194138 38.3773
27.158338135817015 38.0523
27.181422024430987 38.2819
27.204328079372566 38.0675
27.22723524226965 38.0855
27.250143514198573 38.1283
27.273231880156334 38.2542
27.296142382065014 38.0971
27.319053996245536 37.9484
27.341966723775965 38.0895
27.365059584515222 38.1411
27.38797455070062 38.114000000000004
27.410890633481237 38.0085
27.433807833936918 37.9709
27.456905206923906 38.187
27.47982465472398 38.0598
27.502745223449743 38.1009
27.525666914182825 38.2953
27.548768816912457 38.3226
27.571692763693633 38.2431
27.59461783573812 38.0696
27.617723149491244 37.9141
27.640650484125285 37.8072
27.66357894728264 37.6936
27.686508540048052 37.5806
27.709618414237887 37.5273
27.732550278321757 37.3283
27.755483275279115 37.4644
27.778417406196485 37.4643
27.801531858397514 37.4454
27.824468269376716 37.5314
27.847405817586786 37.3573
27.870344504116094 37.6015
27.893463551932008 37.7198
27.916404527281053 37.858000000000004
27.93934664422563 38.0124
27.962289903855886 37.9963
27.98541356491974 38.3678
28.00835912214229 38.4964
28.03130582533231 38.709
28.054253675581805 38.7928
28.077381967556104 38.794000000000004
28.100332124185126 38.6713
28.123283431160893 38.5466
28.146235889577238 38.3751
28.169368830154156 38.2103
28.192323603752033 38.0322
28.215279532083304 37.6057
28.238415973016764 37.3965
28.261374223145094 37.3093
28.284333631303806 37.0997
28.307294198589954 36.9843
28.330435319167677 36.6392
28.353398217078915 36.445
28.376362277420153 36.1903
28.39932750129032 36.214
28.422473319286713 35.9232
28.44544088262495 35.9624
28.468409612800283 35.7576
28.491379510913497 35.6573
28.51453004413313 35.6517
28.53750229057244 35.5892
28.56047570826344 35.4618
28.583450298308804 35.4583
28.606605564586562 35.3381
28.629582511831156 35.4285
28.65256063474956 35.1332
28.675539934446338 35.3456
28.698699951647605 35.1609
28.72168161743193 35.1658
28.74466446331978 35.1272
28.767648490417624 34.9411
28.790813276438353 35.0614
28.813799678527303 34.9932
28.836787265157085 35.1645
28.859955641890075 35.0615
28.882945610203045 34.9576
28.905936766392035 34.9257
28.928929111566863 34.924
28.952102288520145 34.9225
28.975097024308607 34.7632
28.998092952423807 34.6333
29.021090073977508 34.5188
29.04426806913204 34.469
29.067267590245258 34.3456
29.090268308143695 34.2493
29.11327022394099 34.1832
29.13645305530891 34.0715
29.159457379627167 34.1959
29.18246290519685 33.9805
29.20546963313352 33.9642
29.22865731875826 34.0495
29.25166646419296 34.0755
29.27467681535305 33.9673
29.29768837335608 33.9514
29.320880931312562 34.0169
29.34389491580634 34.021
29.366910110507334 33.9323
29.38992651653503 33.9265
29.41312396492981 33.8896
29.436142806456754 33.7872
29.45916286268059 33.6238
29.48236399319994 33.5166
29.50538649169417 33.4172
29.528410208259935 33.3929
29.55143514402014 33.1716
29.574641196749695 33.0626
29.597668583816574 32.9401
29.6206971934585 32.8588
29.64372702680042 32.8851
29.666938019934474 32.799
29.689970313635285 32.7045
29.713003834422636 32.5932
29.73603858342347 32.5483
29.759254535188578 32.5198
29.78229175361658 32.4277
29.80533020365064 32.5234
29.82836988641968 32.5271
29.85159081507472 32.4071
29.874632976355343 32.4485
29.89767637376955 32.4643
29.920721008448314 32.2704
29.9439469322847 32.2243
29.96699405457564 32.1963
29.9900424175358 32.2857
30.013092022298157 32.2386
30.03632295963995 32.0878
30.059375061131373 32.1014
30.08242840783577 32.2385
30.105483000888153 32.2499
30.128718970092244 32.0451
30.151776069006917 32.0907
30.17483441768648 32.0921
30.198074175317235 32.0359
30.221135036724256 31.9966
30.24419715131772 32.0407
30.267260520236203 31.8755
30.290505341942243 31.9668
30.313571232750228 32.0892
30.336638381310948 31.8876
30.35970678876503 31.8447
30.38295669299435 31.8111
30.40602763151657 31.7489
30.429099832366074 31.83
30.452173296685572 31.7419
30.47542830191959 31.7202
30.498504306502497 31.7447
30.521581577995562 31.8073
30.544660117543582 31.845
30.56792024229725 31.8947
30.59100133132069 31.8095
30.614083691845494 31.8402
30.637167325018545 31.9731
30.660432587840603 32.0285
30.683518779717886 31.8868
30.70660624769615 32.0422
30.729694992924372 31.9122
30.75296541239743 31.8651
30.77605672557558 31.7775
30.799149319462742 31.7976
30.8224236211637 31.6669
30.845518789950724 31.5827
30.868615242910597 31.5355
30.891712981195973 31.4136
30.91499247215866 31.2284
30.938092794619365 31.3377
30.96119440587579 31.1766
30.984297307082752 31.1393
31.00758200598383 31.017
31.030687500658694 30.8971
31.053794288760695 30.804000000000002
31.076902371446767 30.7109
31.100192296997445 30.8508
31.12330298246119 30.7586
31.14641496599209 30.6622
31.169528248749216 30.726
31.19282341969534 30.57
31.215939314557186 30.5813
31.239056512134788 30.6873
31.262175013589378 30.526
31.28547544871168 30.5344
31.30859657161541 30.4414
31.331719001892175 30.5351
31.35484274070538 30.6437
31.378148458819545 30.5852
31.401274828443725 30.5273
31.424402510106933 30.5858
31.447712205419993 30.6713
31.470842524931633 30.6265
31.493974159989783 30.6201
31.51710711176168 30.5905
31.54042212308802 30.5209
31.563557722100917 30.4651
31.586694641341655 30.2971
31.609832881979628 30.1937
31.63315322823208 30.0763
31.656294125521327 29.9426
31.679436347728515 30.0146
31.70257989602529 29.9627
31.725905596152327 29.8794
31.74905181052835 29.7902
31.772199354521323 29.9491
31.79534822930507 29.8428
31.818679302290967 29.9086
31.84183085259981 29.7848
31.864983737233473 29.7905
31.88813795736804 29.9526
31.911474422233013 29.6884
31.934631327356435 29.7767
31.9577895715215 29.7167
31.980949155906522 29.7179
32.004291031706956 29.7109
32.027453310562606 29.5503
32.05061693318573 29.4425
32.07396288236386 29.4536
32.09712920658542 29.4341
32.12029687812702 29.2673
32.14346589817093 29.2504
32.166817291729984 29.1784
32.18998902288583 29.0537
32.21316210610336 29.0748
32.23633654256711 28.9666
32.259693399663725 28.9273
32.282870556771144 28.8572
32.30604907069099 28.8505
32.329228942610065 28.7496
32.35259128243769 28.6144
32.375773884550505 28.6949
32.398957848235646 28.6608
32.422143174682176 28.5428
32.445511016471215 28.5176
32.468699082679954 28.471999999999998
32.49188851523011 28.3474
32.51507931531304 28.2767
32.538452678331 28.3098
32.56164622776311 28.3139
32.58484114831493 28.241999999999997
32.60803744118015 28.2108
32.631416344731896 28.2661
32.654615396551876 28.2149
32.67781582427913 28.0994
32.701198898634416 28.078000000000003
32.72440209253756 27.9776
32.747606665947124 27.9983
32.77081262006088 27.8349
32.79420126883317 27.7962
32.81740999876112 27.8247
32.840620112999424 27.8085
32.86383161274818 27.8528
32.88722585534586 27.6976
32.91044014056596 27.8172
32.933655814909734 27.7283
32.95687287957963 27.7633
32.98027273544904 27.6016
33.00349259526636 27.5585
33.026713849030116 27.6974
33.04993649794511 27.6515
33.073341986570746 27.5013
33.09656744032826 27.5496
33.11979429286444 27.5559
33.14302254538647 27.5395
33.166433686291185 27.3797
33.18966475336992 27.4016
33.212897224069096 27.2752
33.23613109959831 27.3327
33.259547912343415 27.2891
33.2827846121627 27.3099
33.306022720453775 27.2111
33.32926223842861 27.1039
33.352684742614166 27.1842
33.37592709463173 27.0743
33.399170859982064 26.997
33.422597648419426 26.9845
33.44584425514446 26.7818
33.46909227885668 26.8605
33.4923417207723 26.7452
33.51577423505344 26.7771
33.539026528130385 26.616999999999997
33.56228024307245 26.6634
33.585535381098246 26.5812
33.60897364093058 26.4046
33.63223163992385 26.4235
33.6554910656699 26.3529
33.678751919389796 26.409000000000002
33.702195944520106 26.3292
33.72545966903325 26.2564
33.74872482519663 26.1683
33.771991414233746 26.2464
33.79544122444841 26.194000000000003
33.81871069412428 26.1236
33.84198160035767 26.0682
33.86525394437455 26.1069
33.88870955949969 26.0627
33.911984794020626 26.0216
33.93526147001624 25.9425
33.958539588715006 25.9636
33.98200102861669 25.9022
34.0052820477047 25.7728
34.02856451319451 25.7488
34.05203033759056 25.6458
34.07531571090147 25.7465
34.09860253431845 25.6635
34.121890809074316 25.6667
34.145362493118924 25.6429
34.16865368561615 25.5834
34.191946333164054 25.5046
34.21524043699793 25.4413
34.23871800066799 25.4167
34.26201503218366 25.3861
34.28531352370466 25.3839
34.30861347646881 25.2873
34.33209693978188 25.2069
34.3553998301885 25.2001
34.378704185565205 25.1865
34.402010007152356 25.1459
34.42549939016683 25.1009
34.44880815937748 24.9868
34.472118398533134 24.9789
34.49543010887669 25.0218
34.51892543169198 24.8981
34.54224009966052 24.9841
34.56555624255917 24.9073
34.58887386163339 24.7937
34.61237514439016 24.7252
34.6356957311114 24.8038
34.65901779775809 24.7513
34.68252356662995 24.6596
34.705848608458616 24.6129
34.72917513396849 24.5726
34.75250314440949 24.578000000000003
34.77601490857862 24.4749
34.799345904259795 24.4441
34.82267838863559 24.3971
34.846012362958525 24.4495
34.869530142679984 24.3737
34.89286711232212 24.3428
34.91620557568269 24.3108
34.93954553401677 24.2445
34.9630693495876 24.258000000000003
34.986412313340814 24.3178
35.00975677584668 24.2439
35.033102738362956 24.1195
35.05663261012228 24.0847
35.0799815881786 24.1461
35.10333207003229 24.059
35.12668405694369 24.0425
35.150220005273056 23.945
35.17357501786656 24.0029
35.19693153931268 23.9513
35.220289570874385 23.9573
35.24383161619786 23.932
35.267192683604904 23.9456
35.290555264930376 23.8903
35.314101899412165 23.8412
35.33746752422433 23.8181
35.36083466676374 23.758000000000003
35.38420332829803 23.7542
35.407756095629054 23.8467
35.43112781085063 23.8364
35.45450104888391 23.6793
35.477875810999194 23.7096
35.50143473172161 23.5661
35.52481255774625 23.5714
35.54819191167777 23.6179
35.57157279478914 23.4959
35.595137889488406 23.5176
35.61852184675279 23.52
35.641907337029984 23.4595
35.665294361595684 23.3765
35.68886565090076 23.3709
35.7122557598848 23.3375
35.73564740699838 23.2452
35.759040593519934 23.2107
35.78261809810353 23.1964
35.80601437933051 23.1989
35.829412203814705 23.0478
35.85281157283719 22.9973
35.876395313415884 23.0428
35.8997977874528 22.9551
35.92320180988546 22.9671
35.946790244133936 22.8843
35.97019737933222 22.9322
35.993606066789866 22.7739
36.01701630779276 22.7614
36.04061101440684 22.8246
36.06402437852291 22.8357
36.08743930005611 22.723000000000003
36.1108557802951 22.6152
36.13445678011326 22.647
36.15787639383515 22.5944
36.18129757014299 22.6501
36.20472031032821 22.5224
36.22832762423364 22.468000000000004
36.25175350829375 22.4433
36.275180960119776 22.4578
36.298609981005924 22.4818
36.32222362992669 22.4155
36.34565580510207 22.3129
36.36908955323448 22.2859
36.39252487562093 22.2104
36.416144880530226 22.2109
36.43958336764275 22.219
36.463023432914625 22.1869
36.486465077645676 22.1298
36.51009145956204 22.2093
36.53353627947859 22.221999999999998
36.55698268276811 22.1006
36.58043067073321 22.019000000000002
36.60406345072071 21.921
36.62751462435344 21.9955
36.65096738658405 21.9689
36.67460498210655 21.9194
36.69806093788647 21.820999999999998
36.72151848619297 21.7794
36.744977628333636 21.8039
36.76862165890998 21.6885
36.79208400512205 21.7031
36.81554794910557 21.7075
36.83901349217101 21.6766
36.862663978991606 21.5708
36.88613273667352 21.5438
36.90960309738324 21.5838
36.933075062434064 21.4749
36.95673202673572 21.5187
36.98020721697122 21.4005
37.003684015502365 21.3497
37.027162423645365 21.3505
37.050825886711465 21.3354
37.07430753063053 21.2793
37.09779078812467 21.291
37.121275660513014 21.2777
37.144945643673694 21.2299
37.16843376245278 21.1844
37.19192350009803 21.2237
37.215414857931435 21.1643
37.239091382563885 21.0573
37.262585997426164 21.0558
37.28608223645736 21.031999999999996
37.309763684451696 20.9173
37.33326318851098 20.8472
37.356764320726555 20.855
37.380267082425526 20.9275
37.40395510942588 20.8918
37.42746114683234 20.916
37.45096881771841 20.8312
37.474478123414166 20.8005
37.49817275092816 20.750999999999998
37.52168534303452 20.7928
37.54519957395567 20.6187
37.568715445024665 20.5769
37.592416694607714 20.5077
37.61593586281424 20.5698
37.63945667518264 20.6255
37.66297913304891 20.5274
37.68668702630454 20.5363
37.710212792059274 20.3583
37.733740207334854 20.3459
37.757269273470364 20.3267
37.780983832050374 20.2976
37.80451621684926 20.2471
37.82805025654007 20.2212
37.851585952464795 20.2557
37.8753071980695 20.2509
37.89884622345676 20.1995
37.92238690911902 20.1372
37.94611318753442 20.0542
37.969657210779765 20.0696
37.99320289834801 20.0371
38.016750251586465 19.984
38.04048325513017 19.9521
38.06403395679343 19.9506
38.087586328183946 19.8471
38.11114037065203 19.9134
38.13488012115898 19.8562
38.1584375229181 19.8384
38.181996599821 19.8119
38.205557353221124 19.8009
38.229303872575656 19.775
38.2528679961576 19.7115
38.27643380031219 19.6235
38.30000128639589 19.6709
38.32375459653193 19.6407
38.34732546371299 19.5691
38.37089801690786 19.4387
38.39447225747609 19.4632
38.418232380377425 19.4253
38.441810012983396 19.4928
38.46538933705673 19.4794
38.488970353960084 19.4474
38.51273731166058 19.3832
38.536321731567014 19.3195
38.55990784840681 19.2782
38.58367995004091 19.2255
38.60726947812959 19.1875
38.63086070726198 19.2228
38.654453638806274 19.2093
38.678232613930824 19.1328
38.70182896773327 19.0627
38.72542702806741 19.0659
38.7490267963045 19.051
38.77281266709232 18.9648
38.79641586862214 18.9767
38.8200207821842 18.9099
38.843627409152944 19.0136
38.86742019782782 18.9189
38.891030269149255 18.8013
38.914642058016156 18.8406
38.938255565806124 18.7988
38.96205529464307 18.8067
38.98567225787121 18.7955
39.00929094417078 18.7645
39.03291135492255 18.7274
39.05671804624804 18.6493
39.080341923549106 18.675
39.103967529460334 18.6388
39.127594865365744 18.5509
39.15140854155791 18.5053
39.17503935514948 18.4261
39.19867190290282 18.5031
39.22249083587951 18.3991
39.24612686969409 18.3999
39.269764641845306 18.4145
39.293404153722804 18.355999999999998
39.317230110864074 18.2776
39.34087311998506 18.2136
39.36451787301696 18.2783
39.388164371352595 18.1892
39.41199737518003 18.2326
39.43564738196752 18.1911
39.45929913825317 18.144000000000002
39.48295264543308 18.1246
39.506792718520884 18.0731
39.530449745387216 18.0776
39.55410852735203 18.0515
39.57776906581474 18.0336
39.60161623079 17.9422
39.625280300200025 17.9313
39.64894613032202 17.8735
39.67261372255866 17.8693
39.6964680021016 17.8375
39.72013913657293 17.8581
39.74381203738292 17.8487
39.76748670593756 17.7926
39.79134812278169 17.7895
39.81502634488497 17.6942
39.83870633896685 17.7115
39.862388106436654 17.6655
39.88625668336918 17.6502
39.90994201572829 17.6256
39.933629125719285 17.5651
39.957503091207826 17.5834
39.9811937746168 17.5724
40.00488623990914 17.4671
40.02858048850006 17.4614
40.05246165409549 17.4399
40.076159487492085 17.3696
40.099859108448875 17.3928
40.123560518384345 17.3257
40.1474489070226 17.3553
40.171153913178564 17.2998
40.194860712584955 17.2396
40.2185693066637 17.2194
40.242464941335314 17.1546
40.26617714307655 17.2035
40.289891143772046 17.2176
40.3136069448471 17.1574
40.33750984859743 17.1711
40.3612292688043 17.0932
40.3849504936829 16.9912
40.40867352466194 17.0003
40.43258372059144 16.9932
40.45631038219906 17.0059
40.48003885420956 16.9489
40.503769138055105 16.9707
40.52768664931955 16.9696
40.55142057531802 16.8528
40.57515631746428 16.8253
40.599079334038514 16.8144
40.62281872700477 16.7892
40.64655994043941 16.7943
40.67030297578061 16.7684
40.69423334835778 16.7524
40.71798004609188 16.6683
40.74172857006355 16.655
40.76547892171441 16.6515
40.7894166736039 16.6038
40.813170699248566 16.5626
40.83692655691388 16.5508
40.86068424804498 16.5744
40.884629402612525 16.5497
40.908390779366385 16.4969
40.932153993938 16.4343
40.95591904777605 16.4531
40.979871628443995 16.417
41.003640379561936 16.3559
41.02741097430883 16.3834
41.05118341413683 16.3326
41.075143444384416 16.3005
41.098919593177826 16.3244
41.1226975914255 16.2951
41.14647744058318 16.1757
41.170444943946755 16.1341
41.19422851378379 16.1788
41.218013938914645 16.1207
41.24198706625173 16.0622
41.26577622087193 16.0758
41.289567235177785 16.0932
41.31336011063129 16.0457
41.337340752422875 15.9621
41.361137369129835 15.9956
41.38493585138705 15.9534
41.40873620066004 15.8776
41.43272438060107 15.8942
41.45652848292052 15.8907
41.48033445666918 15.8158
41.50414230331616 15.8206
41.528138045159764 15.7675
41.551949656675205 15.7233
41.575763145513235 15.6907
41.59957851314666 15.6959
41.62358184070442 15.6599
41.64740098505737 15.6694
41.6712220126409 15.6094
41.69504492493139 15.6312
41.71905586207357 15.5426
41.74288256296395 15.5319
41.766711153007456 15.4986
41.79054163368412 15.4623
41.814560204340054 15.4567
41.838394485526365 15.482000000000001
41.86223066180303 15.3966
41.88625497706819 15.388
41.910094962812 15.3646
41.93393684811168 15.3829
41.95778063445365 15.3152
41.981812625263366 15.2664
42.00566023303407 15.235999999999999
42.029509746323676 15.1653
42.05336116662236 15.1713
42.077400857069705 15.1888
42.10125611078846 15.1837
42.12511327600405 15.0799
42.14897235421036 15.0817
42.173019768448455 15.0756
42.19688269209613 15.07
42.22074753323349 15.0239
42.24461429335818 15.0276
42.268669455600495 14.9849
42.292540073217886 14.9597
42.31641261433284 14.9841
42.34028708044675 14.9198
42.36435001496739 14.844000000000001
42.38822835065557 14.8849
42.41210861586426 14.84
42.4359908120986 14.8421
42.46006154323262 14.8082
42.48394762115317 14.7742
42.507835634632315 14.7945
42.531912233047436 14.7372
42.55580413732265 14.7531
42.579697981698 14.6734
42.60359376768525 14.599
42.62767820545945 14.6253
42.65157789440821 14.5885
42.67547952952185 14.5831
42.699383112316 14.4993
42.72347541395347 14.5119
42.74738291190531 14.4943
42.771292362102166 14.4761
42.795203766063516 14.4439
42.819303956130405 14.3945
42.843219287476536 14.3633
42.86713657716324 14.4049
42.89105582671383 14.389000000000001
42.91516392983864 14.3382
42.939087119032166 14.2483
42.963012272677304 14.2746
42.98693939230129 14.2734
43.01105543317513 14.2375
43.034986504731386 14.1901
43.05891954686589 14.1941
43.08285456110972 14.1652
43.10697856448665 14.1645
43.130917542983475 14.0774
43.15485849820081 14.0758
43.17880143167367 14.0776
43.20293342237094 14.0039
43.226880332449 13.9876
43.25082922540554 14.0067
43.27496722682525 13.9709
43.29892010567796 13.8946
43.32287497204102 13.8444
43.34683182745632 13.8585
43.370977859791836 13.8256
43.39493871351105 13.8322
43.41890156092628 13.8115
43.44286640358341 13.7709
43.46702049182749 13.7543
43.49098934522816 13.7447
43.51496019852649 13.718
43.5389330532723 13.7199
43.56309522248204 13.6792
43.58707210044314 13.6725
43.61105098451946 13.6082
43.63503187626491 13.5761
43.659202151562134 13.5433
43.68318707902681 13.5351
43.70717401884041 13.5333
43.731162972560874 13.4969
43.75534137913236 13.5103
43.779334381108384 13.4765
43.803329401683186 13.4327
43.82732644241872 13.3759
43.8515130055166 13.3708
43.87551410707659 13.3434
43.89951723350145 13.3333
43.923709934595614 13.2925
43.94771713129917 13.3212
43.97172635758096 13.3023
43.99573761501002 13.273
44.0199385169922 13.2053
44.04395385732619 13.2328
44.067971233533086 13.1819
44.09199064718605 13.1126
44.11619977548961 13.100999999999999
44.14022328470671 13.0844
44.16424883610785 13.0824
44.18827643127035 13.095
44.21249381139513 13.064
44.236525514814076 13.0317
44.26055926674478 12.9986
44.28459506876863 12.9992
44.3088207262813 12.9719
44.33286064928722 12.922
44.35690262714919 12.8877
44.38094666145278 12.8753
44.4051806219871 12.8984
44.42922879003185 12.8874
44.45327901929361 12.866
44.477331311362136 12.8449
44.501573600619416 12.773
44.525630039221795 12.7056
44.54968854541895 12.745999999999999
44.573937102200176 12.7556
44.5979997645541 12.6723
44.622064499300315 12.7146
44.64613130803592 12.696
44.67038823869318 12.6395
44.69445921643748 12.5686
44.718532272981385 12.5478
44.742607409926194 12.5346
44.76687274034801 12.5119
44.79095205918753 12.4849
44.81503346325094 12.5182
44.839116954143876 12.503
44.86339071028742 12.4452
44.88747839599524 12.4263
44.91156817336837 12.3633
44.93566004401666 12.3816
44.959942251908146 12.3597
44.984038330325966 12.3414
45.00813650686762 12.2712
45.03223678314731 12.290999999999999
45.05652746888232 12.2711
45.08063196592069 12.2577
45.104738567558705 12.2183
45.128847275414856 12.195
45.15314646515866 12.1785
45.17725940679741 12.1545
45.20137445952892 12.1706
45.22568004865265 12.1522
45.24979934496396 12.0825
45.27392075725247 12.0533
45.29804428714431 12.0538
45.322358426247604 12.0625
45.346486212804315 11.9797
45.370616121861914 12.0042
45.39474815505086 11.9589
45.41907087049246 11.9157
45.4432071734666 11.9122
45.46734560548283 11.9264
45.49148616817604 11.8807
45.51581748638564 11.878
45.5399623320197 11.8531
45.56410931325473 11.8487
45.58825843173002 11.8446
45.61259837920865 11.7891
45.636751793816 11.7661
45.66090735060093 11.8014
45.68506505120716 11.7418
45.7094136545275 11.6648
45.73357566449271 11.6158
45.75773982322992 11.6837
45.78190613238733 11.6616
45.806263418194064 11.5955
45.83043404997326 11.5924
45.85460683713677 11.5583
45.87897065658495 11.5553
45.90314777634752 11.5159
45.92732705646868 11.5243
45.9515084986045 11.512
45.97588104735473 11.5005
46.00006683541565 11.4354
46.02425479047904 11.4503
46.04844491420549 11.3988
46.0728262191024 11.4113
46.09702070211635 11.3633
46.12121735879483 11.3558
46.14541619080294 11.3765
46.169806278764455 11.3055
46.194009483459034 11.2827
46.21821486849841 11.274000000000001
46.24242243555223 11.2573
46.266821333570014 11.2139
46.29103328674601 11.1907
46.31524742696538 11.2042
46.33946375590237 11.1474
46.36387149104216 11.1444
46.38809221957392 11.1022
46.41231514186606 11.0753
46.436540259597464 11.1122
46.460956858999374 11.1143
46.48518638983522 11.0746
46.509418121166966 11.0349
46.533652054678114 10.9583
46.55807754555709 10.9691
46.58231590571962 10.9491
46.60655647313217 10.9486
46.630988654873654 10.933
46.655233659129024 10.9222
46.67948087571551 10.8846
46.70373030632484 10.8664
46.72817142736393 10.828
46.752425308428684 10.8254
46.77668140861147 10.8242
46.80093972960865 10.7746
46.82538981736788 10.7695
46.849652602470904 10.7069
46.87391761349769 10.7424
46.8981848521493 10.6714
46.9226439341274 10.6974
46.946915650573224 10.6551
46.97118959976749 10.6574
46.99546578341598 10.6071
47.019933887188216 10.6085
47.04421456235744 10.5679
47.06849747711879 10.5792
47.09278263318286 10.5723
47.11725978640143 10.5302
47.14154944775105 10.4748
47.165841355555656 10.5048
47.1901355115306 10.4661
47.214621741924994 10.4717
47.23892041698887 10.4136
47.26322134538975 10.3566
47.28771440635075 10.3979
47.31201986422527 10.3639
47.33632758061436 10.3492
47.360637557241866 10.3221
47.38513974410611 10.2961
47.40945426407847 10.2793
47.43377104948137 10.2737
47.45809010204344 10.2265
47.48260144275502 10.2329
47.506925052572285 10.2545
47.53125093475548 10.1688
47.55557909103813 10.1694
47.58009961361992 10.1164
47.60443234110732 10.142000000000001
47.62876734791564 10.138
47.65310463578333 10.1028
47.6776343683373 10.0937
47.7019762413987 10.0669
47.72632040075572 10.067
47.75066684815169 10.0134
47.77520581885936 10.0416
47.799556865477655 10.0066
47.823910205386 9.99929
47.84826584033272 9.979569999999999
47.87281407745551 9.9297
47.89717432569297 9.94172
47.92153687423484 9.91644
47.94609208429692 9.88246
47.97045925671401 9.82821
47.99482873471275 9.80317
48.01920052005013 9.822000000000001
48.04376504619224 9.79813
48.068141469543484 9.82124
48.09252020552573 9.785919999999999
48.11690125590099 9.762139999999999
48.1414751266064 9.7492
48.16586082917454 9.69561
48.19024885144316 9.7071
48.2146391951793 9.74416
48.239222439012764 9.71461
48.26361744916137 9.65376
48.28801478610016 9.64827
48.31241445160131 9.65283
48.337007097209366 9.60575
48.36141144338331 9.59662
48.38581812345755 9.52785
48.41022713920929 9.566189999999999
48.434829215320704 9.54093
48.45924292604658 9.52726
48.48365897780325 9.522210000000001
48.50807737237308 9.46237
48.532688907799276 9.43373
48.55711201168574 9.425510000000001
48.581537463754074 9.40232
48.60615611725119 9.43892
48.63058628942721 9.43549
48.65501881516546 9.38667
48.6794536962573 9.422310000000001
48.70408185970339 9.35684
48.72852147531801 9.323360000000001
48.75296345168211 9.26545
48.77740779059232 9.32289
48.80204549302823 9.29848
48.82649458091802 9.28054
48.85094603676547 9.246739999999999
48.87539986237231 9.25618
48.90004713292306 9.21596
48.92450572200832 9.22457
48.94896668628025 9.15467
48.97343002754588 9.18105
48.99808689542115 9.18135
49.02255501470614 9.10505
49.04702551642794 9.093919999999999
49.0714984023988 9.09579
49.096164896893235 9.11155
49.120642575466796 9.04942
49.145122643748394 9.06351
49.16960510355558 9.032689999999999
49.19428125404938 9.00191
49.2187685210852 9.014380000000001
49.243258185121555 8.959439999999999
49.26794160167084 8.92259
49.2924360839405 8.94791
49.31693296869764 8.909889999999999
49.34143225776915 8.88447
49.36612538195438 8.86052
49.39062950396021 8.87771
49.41513603578346 8.85645
49.4396449792564 8.838610000000001
49.46434784069503 8.82593
49.488861631846454 8.79546
49.513377840166804 8.76908
49.537896467493745 8.77219
49.56260909589029 8.72333
49.587132585683285 8.71296
49.611658500018365 8.65953
49.636186840738596 8.71257
49.66090926588511 8.7196
49.685442483902584 8.657860000000001
49.70997813385706 8.60979
49.734516217597076 8.59121
49.75924846937352 8.58273
49.7837914452858 8.567680000000001
49.80833686055187 8.54193
49.83288471702571 8.525260000000001
49.85762682540054 8.583169999999999
49.882179588965734 8.52449
49.9067347993235 8.456010000000001
49.93129245833333 8.49955
49.95604445336378 8.48475
49.98060703442832 8.452760000000001
50.005172069746266 8.4414
50.02993150438364 8.4224
50.05450147301533 8.458210000000001
50.07907390151433 8.39156
50.10364879174981 8.3764
50.12841816587289 8.349730000000001
50.1529980044635 8.34727
50.17758031042124 8.3313
50.20216508562089 8.30214
50.22694442953363 8.265989999999999
50.25153416817468 8.248460000000001
50.27612638170508 8.23349
50.300721072005196 8.23912
50.325510416102105 8.2549
50.350110084975064 8.24094
50.37471223628208 8.1881
50.39931687190919 8.21067
50.424116246675766 8.18488
50.44872587605249 8.16863
50.47333799543065 8.13912
50.49795260670191 8.13658
50.52276204271512 8.11173
50.54738166295838 8.11946
50.57200378079314 8.08407
50.596628398116835 8.06917
50.62144792604559 8.03383
50.646077567609396 8.03528
50.670709714377715 8.01255
50.69553683636198 8.03145
50.72017401885922 7.991060000000001
50.7448137122895 7.96485
50.76945591856022 7.952160000000001
50.79429318636823 7.95028
50.818940443716784 7.94233
50.84359021965163 7.886310000000001
50.868242516085964 7.8849800000000005
50.893089960641895 7.85768
50.917747323549435 7.853739999999999
50.94240721271973 7.862
50.96706963007175 7.8389999999999995
50.99192728239342 7.7975
51.01659478166073 7.8163
51.04126481489051 7.818980000000001
51.06593738400761 7.780289999999999
51.090805275207074 7.72859
51.11548294172845 7.7317800000000005
51.14016314993547 7.75853
51.164845901758845 7.71413
51.18972406304274 7.678210000000001
51.21441192780656 7.68047
51.23910234200271 7.6662300000000005
51.2637953075678 7.65723
51.288683770237945 7.64345
51.31338186432707 7.610180000000001
51.33808251561888 7.58409
51.362978729967345 7.5784199999999995
51.387684521509755 7.562810000000001
51.41239287610203 7.54754
51.437103795691165 7.528110000000001
51.46201036644977 7.4760100000000005
51.486726441956634 7.497210000000001
51.51144508832545 7.53413
51.536166307509156 7.475560000000001
51.56108326624387 7.451860000000001
51.58580965706056 7.4306
51.61053862657523 7.41523
51.635270176746864 7.36981
51.66019755512065 7.39335
51.68493429268881 7.3517399999999995
51.70967361681515 7.365069999999999
51.73441552946465 7.362539999999999
51.759353359237934 7.311910000000001
51.7841004750961 7.31526
51.80885018539685 7.295260000000001
51.833602492111254 7.2873
51.8585508051424 7.29128
51.883308330926425 7.30277
51.90806845906181 7.259930000000001
51.932831191525715 7.23336
51.95779001977161 7.21715
51.98255798721516 7.171689999999999
52.00732856494335 7.1529300000000005
52.03229530577543 7.1699
52.057071130455945 7.139139999999999
52.081849571391054 7.157489999999999
52.106630630568695 7.14675
52.13160794279417 7.096089999999999
52.15639426492067 7.06278
52.18118321127822 7.068860000000001
52.205974783860896 7.07852
52.23096269971011 7.070939999999999
52.255759551287994 7.04965
52.280559035098186 7.0514
52.30536115314103 6.9751
52.33035970494467 6.997510000000001
52.35516711807904 6.973560000000001
52.37997717147198 6.95178
52.40478986713005 6.963760000000001
52.42979908731974 6.95453
52.454617094216 6.93548
52.47943774942214 6.920030000000001
52.50426105495102 6.88819
52.529280976059844 6.8918800000000005
52.554109609024096 6.87103
52.57894089837482 6.869339999999999
52.60377484613117 6.8348
52.62880550079408 6.84432
52.65364479223379 6.82153
52.67848674816189 6.76628
52.70352547971946 6.7909
52.72837279155837 6.7608
52.753222773982785 6.74052
52.778075429022984 6.747210000000001
52.80312495150885 6.74677
52.827982978797436 6.747210000000001
52.85284368481815 6.68055
52.87770707160767 6.69717
52.90276741793998 6.633960000000001
52.92763619336701 6.68681
52.952507655698504 6.59455
52.977381806977576 6.6132100000000005
53.00245301017842 6.62115
53.02733256653592 6.58363
53.052214817996074 6.5785100000000005
53.077099766608484 6.56964
53.102181859804446 6.567089999999999
53.127072229988265 6.56192
53.15196530349892 6.52666
53.17686108239249 6.49285
53.20195409881522 6.49753
53.22685531582556 6.4831
53.25175924441303 6.49134
53.27666588664027 6.48284
53.30176985962693 6.40192
53.3266819565689 6.412999999999999
53.35159677336455 6.40859
53.376514312083096 6.40222
53.40162927507703 6.39113
53.42655228516116 6.41681
53.45147802340193 6.35233
53.47660125628886 6.3322199999999995
53.50153247842639 6.31352
53.52646643496923 6.2766
53.55140312799818 6.29094
53.576537409691696 6.31229
53.60147960336152 6.30235
53.626424539786164 6.26229
53.65137222105307 6.23459
53.67651758529126 6.2232
53.70147078399681 6.17619
53.72642673383343 6.18121
53.75138543689533 6.16981
53.776541917524526 6.179130000000001
53.801506154876755 6.1356
53.826473151763246 6.15638
53.851442910284916 6.07301
53.87661054126026 6.12943
53.9015858509782 6.1349
53.92656392866066 6.102469999999999
53.95154477641532 6.08331
53.976723591801296 6.059819999999999
54.00171000771266 6.06992
54.02669920004598 6.07091
54.051691170915745 6.042999999999999
54.076881204886796 6.03479
54.101878760928514 6.0058
54.12687910187696 5.97647
54.152077577768296 5.96753
54.1770835166946 5.94123
54.20209224691339 5.95615
54.22710377055121 5.94839
54.25231352511594 5.95812
54.27733066384342 5.9084
54.30235060239643 5.86805
54.32737334290836 5.88135
54.35259441062629 5.84808
54.377622783395324 5.82747
54.40265396455061 5.8338
54.42768795623251 5.82794
54.45292037169559 5.79171
54.477960012857906 5.79102
54.50300247099511 5.73183
54.52804774825457 5.73666
54.55329154616743 5.71809
54.57834249018678 5.7251199999999995
54.6033962597977 5.68933
54.6284528571545 5.64709
54.653708072335164 5.6105599999999995
54.67877035378786 5.6548099999999994
54.70383546947698 5.60902
54.72890342156389 5.6121
54.7541700889442 5.55513
54.77924374251975 5.51238
54.8043202390049 5.53889
54.82959552413022 5.49223
54.8546777351945 5.51015
54.87976279569621 5.46545
54.90485070780914 5.473730000000001
54.930137506558005 5.41426
54.95523115074295 5.41216
54.98032765308844 5.38525
55.005427015775496 5.38129
55.03072536339621 5.34884
55.05583047570572 5.30323
55.080938454927676 5.33108
55.10604930325027 5.30132
55.131359235107396 5.31811
55.15647585066083 5.21036
55.181595341907496 5.22171
55.20671771104285 5.18542
55.232039262617704 5.19665
55.25716741665048 5.16102
55.28229845518636 5.11499
55.30743238042802 5.14398
55.33276558731939 5.1531400000000005
55.357905315183636 5.02948
55.383047936390035 5.04495
55.40819345314859 5.05675
55.433538351073295 5.02452
55.458689688238415 5.01452
55.483843927614096 4.97876
55.509197623043605 4.94996
55.53435769621134 4.89267
55.55952067826466 4.87415
55.5846865714265 4.85498
55.61005202069737 4.83841
55.63522376553902 4.78841
55.66039842818645 4.79654
55.68557601087004 4.83159
55.7109532500271 4.77816
55.73613670233794 4.76135
