TT I
1.2716486653135266 7.068789999999999
1.2939594142134223 6.867380000000001
1.3162702121660406 6.77151
1.3385810600174564 6.43663
1.3608919586137629 6.48508
1.383202908801069 6.2750699999999995
1.405513911425503 6.53235
1.4278249673332093 6.3716099999999996
1.4501343378461518 5.42745
1.4724455028545926 5.584969999999999
1.4947567236847858 5.94238
1.517068001182951 6.08585
1.5393793361953272 5.6157900000000005
1.5616907295681737 5.54284
1.5840021821477681 5.56038
1.60631369478041 5.16515
1.6286252683124185 5.33521
1.6509369035901333 4.48456
1.6732468618895553 5.18193
1.695558623192809 4.32094
1.7178704487808514 4.70646
1.7401823395001077 4.89243
1.7625012545597203 4.83636
1.7848028405262486 4.59216
1.8071218901122095 4.997669999999999
1.8294236121921872 4.30984
1.8517427996910911 4.32682
1.8740620574440425 4.6357099999999996
1.8963639900671978 4.65535
1.9186833908139995 5.28493
1.9409854680117449 5.18757
1.9633050151394713 4.95576
1.9856246367570705 4.52738
2.0079269371922672 4.11838
2.03024671027244 5.17971
2.0525491637446027 4.79317
2.074869091674931 4.78656
2.097171701569106 4.68374
2.1194917877373847 4.49852
2.141811954326636 4.650440000000001
2.164114805233074 4.57572
2.186435135143035 5.567480000000001
2.208738150935709 9.09344
2.231058647554722 14.9627
2.2533792288321184 12.2355
2.275682498336085 7.33183
2.298003251406138 5.6644
2.3203066942619714 5.60358
2.3426276225136022 5.4554800000000006
2.3649486396617507 6.20259
2.387252348930071 6.11816
2.4095735463442893 5.46596
2.4318774374315884 6.50331
2.4541988185014043 7.0558
2.476502894794693 7.4344600000000005
2.498824462909887 6.512580000000001
2.521146125856138 7.272530000000001
2.5434504863470337 7.5585
2.5657723414244717 8.05733
2.588076895590662 7.54548
2.610398946189713 8.40109
2.6327210958598384 8.31649
2.6550259469304716 8.37306
2.6773482972090137 8.51675
2.6996533504259 8.92929
2.7219759047039602 8.48144
2.744298562293959 8.14969
2.7666039251246595 8.21856
2.7889267918020164 8.91843
2.8112323652516555 8.849210000000001
2.833555444408179 8.39305
2.8558786311183852 8.3792
2.8781845268938557 8.92433
2.9005079311721484 9.24318
2.9228140460410397 8.24216
2.9451376712799635 8.82121
2.967444008632326 9.62855
2.9897678582247247 10.3005
3.0120918213106695 10.7762
3.0343984987899373 10.5783
3.0567226913198637 10.7813
3.079029599759726 11.9894
3.101354025127254 12.5304
3.123678568232338 13.6697
3.145985829517914 13.1875
3.16831061055229 13.9064
3.1906181112775593 15.1405
3.212943133635653 15.4183
3.2352682779763207 15.837
3.2575761442691227 16.0059
3.2799015350264273 15.8437
3.302209649240067 16.221
3.3245352898092655 17.0237
3.3468436553365257 17.3721
3.369169549113219 17.4472
3.3914955708171384 18.0434
3.413804319727358 18.7026
3.4361305997334863 19.125
3.4584396084414553 19.6078
3.4807661501462652 19.6266
3.503092824025881 20.451
3.5254022288463154 20.8858
3.5477291695206588 21.8279
3.5700388426251948 22.351
3.5923660534916446 23.2784
3.6146934007816114 30.6861
3.637003482731501 51.8554
3.6593311053109985 55.168
3.681641464033634 38.2452
3.7039693653009733 27.2587
3.726297407241705 25.4062
3.7486081875460804 25.3476
3.7709365132734978 25.9013
3.793247578841633 25.969
3.8155761917550093 26.4991
3.8378875459837216 27.0292
3.8602164494827234 26.8337
3.882545499606844 27.8329
3.9048572932539183 28.3881
3.9271866390645718 28.9086
3.9494987298666713 28.9591
3.971828374764527 29.8228
3.9941581705403255 30.0502
4.016470713506008 30.9124
4.038800813471445 31.7882
4.061113662089144 32.0777
4.0834440696459176 32.9367
4.105774632334751 33.3849
4.128087945865126 34.3608
4.150418821249301 35.042
4.172732448931298 36.0192
4.195063640413578 37.2534
4.2173775856475215 40.3822
4.239709096631102 56.4103
4.262040768704612 127.585
4.284355196706267 160.863
4.306687193387355 112.094
4.329001947444346 59.118
4.35133427213731 45.8433
4.373666762177566 44.7964
4.395982011761091 44.3266
4.418314834921175 44.68600000000001
4.44063041906622 49.136
4.4629635787515625 53.6818
4.4852969080429785 54.2515
4.5076130004776225 52.4265
4.529946671403969 55.385
4.552263106909177 58.994
4.574597122877047 56.7371
4.596931312711224 53.9667
4.619248269273446 53.3756
4.6415828092605835 53.7018
4.663900117405352 55.086000000000006
4.686235010953232 56.3702
4.708552674085913 57.5115
4.730887924602802 58.6685
4.753223354952695 60.9453
4.775541557023902 64.2438
4.797877349456786 67.2762
4.820195915032126 67.668
4.842532072957498 67.0514
4.864868414979744 69.8738
4.88718753227192 73.8887
4.909524244902505 75.7022
4.931843734218147 75.3368
4.954180820867835 77.1206
4.976518095879839 80.0754
4.998838149695359 82.9019
5.021175803844231 87.2645
5.043496238205739 91.1181
5.065834274903528 94.7828
5.088172504230693 98.2002
5.1104935158799565 103.86399999999999
5.132832132875765 121.868
5.155153533596801 152.039
5.1774925416746225 178.979
5.199814334878411 316.30400000000003
5.2221537374521505 878.956
5.244493338631803 2678.97
5.266815727034316 7846.24
5.289155727832427 13423.9
5.311478517248165 9057.84
5.333818921080011 2841.36
5.356159527788849 535.06
5.3784829252032536 191.325
5.400823940070432 149.72899999999998
5.423147747031976 128.15200000000002
5.445489173474152 118.045
5.467830807066149 117.54299999999999
5.490155234831516 116.97399999999999
5.512497285125229 110.512
5.534822130975162 104.434
5.557164601388673 101.012
5.579489868738879 97.8519
5.601832762690846 96.9989
5.6241758697774475 95.5545
5.646501775867269 94.7072
5.668845311622074 93.6756
5.691171647754637 93.3052
5.713515615597765 92.2552
5.735859800852677 91.2897
5.758186788542988 92.564
5.780531411018185 96.5926
5.802858837297399 96.1802
5.825203900414495 95.7036
5.8475491852224 98.79899999999999
5.869877275883075 98.2772
5.892223006467101 94.5635
5.914551544266608 93.26299999999999
5.936897724049891 94.7293
5.959244129804903 99.5226
5.981573344815301 116.77
6.0039202049061 199.937
6.026249875609095 419.61199999999997
6.04859719346037 895.2130000000001
6.070927323278297 2190.42
6.093275102315365 4510.02
6.115623113320588 5231.3
6.137953938319995 3105.21
6.160302415650845 894.666
6.182633708324452 212.77700000000002
6.2049826554078376 107.088
6.227331838745022 88.4167
6.249663839443684 81.7843
6.27201349767565 78.9483
6.294345974611799 81.0143
6.316696111167083 84.3868
6.339046488263839 81.4091
6.361379686074702 73.7334
6.383730546639482 69.9633
6.406064229255215 68.7243
6.428415576718203 70.1349
6.450749747566656 68.6696
6.47310158535871 66.0931
6.495453669698332 64.3719
6.517788579421056 63.4407
6.540141159237969 62.7151
6.562476565766648 62.0707
6.5848296444934045 61.842
6.607182974060425 61.9858
6.6295191323281015 62.0967
6.651872965955752 62.7894
6.6742096296068985 74.1294
6.6965639707294615 93.8649
6.71891856698715 92.2965
6.741255995248479 73.7612
6.763611104154477 62.3234
6.785949046381137 58.3629
6.808304671371482 58.7217
6.8306605557940046 59.7824
6.852999275508618 58.8096
6.875355681171544 57.095
6.897694923437771 55.9408
6.92005185377892 55.6106
6.9423916220322655 55.4548
6.964749080490181 54.8537
6.987106804399774 54.8281
7.009447368180821 55.5678
7.031805625367033 55.3924
7.054146723727803 54.9383
7.076505517631004 54.2904
7.098864581288365 54.7925
7.121206488070854 55.1115
7.143566093607822 55.8721
7.165908543567245 56.3424
7.188268694426048 56.1907
7.2106291193438095 55.2315
7.232972390625943 54.8768
7.255333366030969 61.1893
7.277677189091925 84.6491
7.300038718428332 104.43
7.322400526130865 92.1437
7.344745183422596 68.9983
7.367107550224791 57.1023
7.389452767901992 54.4856
7.411815697249891 53.8203
7.434161478756298 53.1593
7.456524974096713 53.17100000000001
7.478888753837185 53.1764
7.501235387657368 53.6951
7.523599738562711 53.563
7.545946944825532 53.6722
7.568311870344528 54.2145
7.5906770845765665 54.3509
7.613025156078678 54.9396
7.635390950099687 55.4756
7.657739602662809 55.1894
7.680105979923558 55.3535
7.702472650212829 55.833
7.724822180948224 55.8478
7.747189439655568 55.4702
7.769539560075357 55.3792
7.791907410653562 55.5788
7.81425812420825 55.5541
7.836626570110925 55.7573
7.858995315087906 56.7225
7.881346924933401 56.9183
7.903716270417482 57.3588
7.926068482028405 57.7841
7.948438431475253 58.3863
7.9708086843180235 58.8798
7.993161805171116 59.6432
8.015532667162402 60.0541
8.037886398416653 61.2998
8.060257873014221 61.8355
8.082629655331942 62.2583
8.104984308787587 63.1301
8.127356708900503 65.8424
8.149711981398308 70.1211
8.172085002766314 72.0215
8.194458336181368 69.9917
8.216814543847752 67.9874
8.23918850371002 68.3675
8.26154533906492 69.2573
8.283919928836452 70.7331
8.306277395339652 71.6995
8.328652618483376 73.1853
8.351028159736202 74.9921
8.373386579575245 77.6048
8.395762759396959 79.1431
8.418121819038275 82.436
8.440498640894003 89.8461
8.462875785192262 98.9025
8.485235811156207 113.35600000000001
8.507613602688501 154.386
8.529974277114228 234.545
8.552352719347912 361.898
8.574731488360351 619.614
8.59709314210385 1165.05
8.619472567021075 1869.77
8.64183487789147 2178.96
8.664214962183097 1775.58
8.686577933647762 921.154
8.708958680784317 348.055
8.731339760774953 156.194
8.753703729764451 107.86
8.77608547780821 96.7046
8.798450116065078 93.3068
8.820832535634787 90.9428
8.843215292401656 91.0174
8.865580941199045 90.9436
8.887964374703538 90.5059
8.910330701447199 90.9076
8.932714815164482 91.0715
8.955099270424924 88.5671
8.977466620733543 85.6573
8.999851761421976 84.0877
9.022219798361645 82.8545
9.04460562795561 82.6918
9.066991803441677 82.9327
9.089360876979615 83.1301
9.111747746589993 82.8696
9.13411751544971 81.6173
9.156505082664324 81.0262
9.178875550323522 80.9015
9.20126381862328 80.6677
9.223652438908596 80.9947
9.246023961427412 81.391
9.26841328802173 80.8099
9.290785518039224 81.319
9.313175554425882 83.1453
9.335565947154315 84.4673
9.357939245086508 85.3466
9.380330352834827 84.4551
9.40270436697103 84.6045
9.425096193225055 83.8683
9.447488380180165 83.854
9.469863475295412 83.2838
9.492256385987508 83.3506
9.514632206018318 84.1565
9.537025843935714 84.3401
9.559402392368193 85.649
9.581796761000229 87.8031
9.604191496441521 90.4554
9.626569144158516 93.1571
9.648964615551032 94.7893
9.671343000390081 94.3193
9.693739211225699 92.5914
9.716135793237463 91.4671
9.738515290448102 91.3875
9.760912617143402 93.2229
9.783292860202891 95.273
9.805690935076182 97.5534
9.828089385495742 98.7348
9.850470754023561 99.9998
9.872869957865444 103.331
9.89525208097539 111.039
9.917652041736662 117.751
9.940052382417589 120.71600000000001
9.962435644102392 135.759
9.984836746950979 170.97299999999998
10.007220771957746 230.6
10.029622640473708 326.78700000000003
10.052007432299963 507.244
10.074410069984072 815.472
10.096813093716005 1264.92
10.119199042482517 1767.72
10.141602840636468 1940.78
10.163989564971628 1510.16
10.186394141051062 845.5830000000001
10.208799107559706 379.725
10.231187001965623 180.56900000000002
10.253592751657669 123.67299999999999
10.275981430388155 110.649
10.298387966769793 108.007
10.320794897965431 108.086
10.343184759907361 107.133
10.36559248305461 103.91799999999999
10.387983138083852 102.135
10.410391656691655 105.619
10.432800574501677 115.115
10.455192425893369 129.965
10.47760214443012 155.983
10.499994797678786 202.803
10.522405320453982 285.47
10.54479877906917 403.339
10.567210109595656 527.867
10.5896218454736 565.77
10.612016518879773 486.532
10.634429067781074 329.965
10.656824555333241 190.017
10.679237920773568 118.87299999999999
10.701651695961992 93.9858
10.724048411481384 87.5147
10.746463008485165 85.096
10.768860546937125 83.5287
10.791275969274796 81.8392
10.81369180576079 80.7669
10.836090585366925 79.7714
10.858507252467449 78.4835
10.88090686379991 77.6141
10.903324365036394 77.0904
10.925724811614439 77.0501
10.948143150509463 77.9486
10.970561909719066 77.1314
10.992963615930844 75.7171
11.015383218085756 74.2432
11.037785768347074 72.8174
11.06020621697282 71.9498
11.082627090322113 71.0603
11.105030913430326 70.524
11.12745263854165 70.5239
11.149857314510728 71.5279
11.172279894912576 74.0252
11.194702904450653 74.0146
11.217108866490921 71.8663
11.239532736615194 69.4041
11.26193956033512 68.3607
11.284364294577085 67.5051
11.306789462371718 66.6709
11.329197585398376 66.0237
11.351623622610898 66.1542
11.37403261614354 65.1104
11.396459526308487 64.9334
11.418869393879497 64.6275
11.441297180532617 64.2808
11.463725406927658 63.6591
11.486136592353875 63.4751
11.508565700543707 63.4604
11.530977768845315 64.4041
11.553407762368774 64.639
11.575838200059769 64.5111
11.598251599479612 63.4125
11.620682927815501 62.5308
11.64309721895548 62.1253
11.665529441478206 61.6469
11.687962112597958 61.6958
11.710377748130886 62.0663
11.732811318753434 61.7418
11.755227854859067 61.8497
11.777662328529495 61.4828
11.800079768750786 61.8244
11.822515149015453 61.7398
11.844950984084935 61.9059
11.867369787303163 61.558
11.889806534289491 61.4844
11.912226250487029 61.5346
11.934663912939751 61.7779
11.9571020346363 61.7827
11.979523127133968 62.0175
12.001962169624331 62.806000000000004
12.024384183972964 63.7251
12.046824150809913 66.9253
12.069264581333726 71.2467
12.091687985297767 76.9428
12.11412934550045 86.0086
12.136553680195208 101.992
12.158995973632788 126.85799999999999
12.181438735204349 157.121
12.20386447284199 186.388
12.226308172985636 204.979
12.24873485024193 196.563
12.271179492516982 157.434
12.293607112949127 119.262
12.316052700916226 90.8474
12.338498763250042 73.2007
12.360927805303868 66.6746
12.383374818673879 64.2679
12.405804812803074 63.0307
12.428252780773262 62.7625
12.45070122756722 62.9816
12.473132656675375 63.1144
12.49558206341869 63.7178
12.518014453510101 63.8336
12.540464823770117 63.8068
12.562915677315177 63.8915
12.58534951575545 64.2803
12.607801338171472 65.1468
12.630236146511358 67.63
12.652688941369085 69.6355
12.675124723177234 69.9108
12.697578494048786 68.5887
12.720032754458185 66.8644
12.742470003354093 66.4799
12.764925245138771 66.6798
12.787363476431278 67.0414
12.809819703166806 67.0721
12.83227642391173 68.2361
12.854716135692716 69.2255
12.877173846755147 70.1245
12.899614549869717 70.1553
12.9220732548287 70.9584
12.94453245827299 71.597
12.966974655289818 72.8686
12.989434858002571 73.5239
13.011878055298721 73.9928
13.034339260862497 74.7683
13.056800969391883 75.9982
13.079245674017244 78.2156
13.101708390774869 80.9054
13.12415410463411 87.3483
13.146617833206086 97.4723
13.169064559883248 107.569
13.191529303857127 122.024
13.213994557076367 145.216
13.236442809902437 183.732
13.258909083908291 242.62599999999998
13.28135835851934 308.89099999999996
13.30382565690295 381.83099999999996
13.326293469022952 427.80199999999996
13.348744283242008 419.814
13.371213125129904 348.415
13.39366497011003 245.012
13.416134845360597 166.424
13.438605238843131 119.853
13.46105863690397 103.25299999999999
13.483530069144786 102.84100000000001
13.505984506951902 107.531
13.528456981549432 116.79700000000001
13.550929978879088 132.316
13.573385983253365 157.16899999999998
13.595860028340867 199.31599999999997
13.618317081455832 255.951
13.64079217790333 314.195
13.663250283359057 361.782
13.685726434770173 374.92800000000005
13.708203115221277 327.35400000000004
13.730662806148091 253.30200000000002
13.75314054697177 179.385
13.775601299246777 123.667
13.798080104050406 94.7864
13.820559442405358 84.0688
13.843021793671388 80.6364
13.865502201420897 78.7327
13.887965623051947 78.3326
13.910447103807167 77.4601
13.932929122629764 76.0362
13.955394156785959 75.6045
13.977877254034569 74.3798
14.000343367582113 73.8719
14.022827546871707 73.3411
14.045294743423524 72.4512
14.06778000837062 72.0012
14.090265817715476 71.8064
14.112734645763819 71.2795
14.13522154619454 70.9116
14.157691466286913 70.9001
14.180179461423874 70.5991
14.202668005486178 70.2577
14.22513957064374 69.6761
14.247629214846473 69.1957
14.270101881097517 69.1883
14.29259262906496 69.1001
14.315083930490205 69.2735
14.337558255389705 69.2982
14.360050666019726 69.0408
14.382526101071944 68.5615
14.405019624534942 68.1211
14.427513705993134 67.7957
14.449990813291825 67.7004
14.47248601302899 67.6987
14.49496423954951 67.7184
14.517460561197822 67.6475
14.539939910570322 67.5558
14.562437357763558 67.8798
14.58493536931253 68.6889
14.607416409993311 69.1008
14.62991555254159 69.293
14.652397725157423 69.4942
14.674898002342799 69.3162
14.697398848433282 69.3686
14.719882725991326 70.2012
14.74238471217934 71.0983
14.764869730765593 74.2577
14.787372860692983 77.1398
14.809876564079925 81.3685
14.83236330125751 87.0754
14.854868153850365 95.8777
14.877356041159485 110.18299999999999
14.899862046604186 129.335
14.922351087688757 157.46200000000002
14.944858249632887 187.513
14.967365991421232 212.521
14.989856770231246 223.537
15.012365673994204 214.792
15.03485761569738 183.514
15.05736768508665 144.692
15.07987833888692 109.899
15.102372032001655 88.1162
15.124883856909658 75.5476
15.14737872204565 71.3356
15.169891721717274 69.8236
15.192405310371893 69.0471
15.214901940621196 68.9317
15.237416709527137 68.2903
15.259914520936249 68.4389
15.282430473753607 67.5158
15.304947020131227 66.9558
15.327446610371178 66.3536
15.349964346154254 66.0091
15.372465126703139 65.5658
15.394984055556009 65.4854
15.417486030076159 65.3148
15.44000615566487 65.0797
15.462526881230803 64.83800000000001
15.485030653812652 64.9563
15.507552581617434 64.9398
15.530057557334603 64.8954
15.55258069104857 64.7926
15.575104429329837 64.8021
15.597611216864632 64.6583
15.620136166564563 64.9627
15.6426441664095 65.6235
15.665170331202765 68.0678
15.687697105158826 70.8336
15.710206930593545 74.1653
15.732734925158933 78.3526
15.755245972089478 84.8782
15.77777519094324 94.0205
15.800287463046663 107.686
15.822817909869592 127.902
15.84534897229804 150.227
15.867863089299354 174.55700000000002
15.890395385222186 190.77
15.912910736597423 193.392
15.935444269699861 179.71400000000003
15.957978423016485 150.392
15.980495633101265 118.565
16.003031029129367 93.2926
16.02554948280019 74.7999
16.048086125229432 66.0904
16.070623392487107 63.3525
16.09314371869582 62.3967
16.11568223789321 61.4412
16.13820381691126 60.4668
16.160743591742527 59.8453
16.183283996022084 59.1791
16.205807461423195 58.2888
16.228349126881973 57.9313
16.25087385432698 57.762
16.27341678466365 57.1467
16.29594277784926 57.2618
16.31848697676433 57.1106
16.341031811604868 56.7282
16.36355971058487 56.8389
16.3861058195587 56.6776
16.40863499352978 55.8721
16.431182380342005 55.4117
16.453730407713202 55.1007
16.476261501364792 54.7203
16.498810812136167 54.5238
16.52134319004079 54.6253
16.54389378792203 54.5697
16.566445031001553 54.3587
16.588979342490088 54.2753
16.61153187824822 54.2078
16.634067483263312 54.0574
16.656621315414416 53.853
16.679175797408888 53.6735
16.701713349928728 53.6061
16.72426913389191 53.6589
16.74680798922351 53.9821
16.76936507887444 53.7174
16.791905240734874 53.6139
16.814463639794468 53.7482
16.837022695210294 53.8475
16.859564824093756 54.0722
16.882125194503903 54.3667
16.904668639217885 54.7042
16.927230328348003 54.623999999999995
16.949792678493612 54.8924
16.972338104193863 54.6387
16.994901778652235 54.3515
17.017448529496576 54.3913
17.040013531998152 54.6211
17.06257920018044 55.3406
17.0851279459922 56.0769
17.107694947817667 56.882
17.130245028099072 57.5553
17.15281336730298 59.0017
17.17536478578733 60.5039
17.19793446610687 62.8596
17.220504818648422 65.8646
17.243058251703697 69.7933
17.265629950971032 74.4374
17.288184731571736 79.0765
17.310757781306908 82.5021
17.33333150794385 82.3825
17.355888317140174 80.1064
17.37846339986244 74.8195
17.401021565958885 69.0403
17.42359800851343 64.2768
17.44617513265564 60.9135
17.468735341390783 59.0864
17.491261035594565 58.1379
17.51396340099364 57.913999999999994
17.536490463869136 57.9748
17.559018209820174 58.0065
17.58154663977963 58.2289
17.604251766089718 58.4091
17.626781572227713 58.629
17.64931206518155 58.9016
17.671843245885103 59.201
17.69455114821572 59.2886
17.717083712612634 59.7036
17.739616967569667 59.7962
17.762150914021706 60.1358
17.78486160749854 60.1922
17.807396945166804 61.0362
17.829932977143503 62.077
17.85246970436452 63.3384
17.875183204129467 64.8869
17.897721330097664 66.7335
17.920260154126645 69.1035
17.942799677153296 72.4694
17.9655159983646 76.1463
17.988056927677544 81.656
18.010598558807683 89.8069
18.033140892692916 100.635
18.05586005052525 111.84100000000001
18.07840379824407 123.34700000000001
18.10094825154059 132.463
18.12366954819864 137.16899999999998
18.146215420998306 135.02
18.16876200220057 126.47399999999999
18.191309292745153 113.345
18.214033452627167 100.494
18.236582170236648 90.0794
18.259131600016456 85.4156
18.281681742907335 85.9227
18.304408781233683 90.5147
18.32696035875955 95.6634
18.349512652227624 100.182
18.372065662579683 104.02799999999999
18.394795594587553 104.26899999999999
18.41735004715306 99.4605
18.43990521943684 92.4753
18.46246111238171 83.4119
18.485193953325208 74.9274
18.507751296070428 68.5212
18.530309362314178 64.6933
18.552868153000343 62.4136
18.57560391815056 61.2522
18.59816416623245 60.7538
18.620725141597372 60.3543
18.643286845190268 59.7507
18.666025549835414 59.3449
18.688588718427933 58.8226
18.711152618092243 58.72
18.73389353884365 58.4997
18.75645890921984 58.0991
18.77902501351406 57.7262
18.801591852673102 57.5422
18.824335739722738 57.0036
18.846904057212626 57.1298
18.8694731124168 56.6851
18.89204290628315 56.7326
18.914789774966803 56.4765
18.937361054791623 56.3126
18.959933076131318 56.0686
18.982505839934877 55.8587
19.00525570560582 55.9646
19.027829963004184 55.9514
19.05040496572238 55.7083
19.072980714710468 55.8593
19.095733592739563 56.0077
19.11831084296757 56.3084
19.140888842324735 56.8526
19.16346759176222 56.9949
19.18622349753803 57.3282
19.208803755869358 58.3369
19.231384767143577 59.5482
19.253966532312948 61.1084
19.276725481241822 63.3452
19.29930876296784 66.0432
19.3218928014549 68.7525
19.34465404436217 71.3668
19.36723960516257 73.6711
19.389825925592426 74.1257
19.412413006605938 73.0225
19.43517731967805 69.7618
19.457765930683355 65.548
19.48035530514408 61.5228
19.50294544401556 57.9139
19.525712842708348 55.3806
19.54830451925909 54.1693
19.570896963095727 53.1471
19.593490175174704 52.9288
19.616260674962184 52.8933
19.638855432416964 52.4815
19.661450960992624 52.9303
19.68404726164677 52.7954
19.706820878021247 52.2918
19.729418731756834 52.663000000000004
19.752017360452857 52.3463
19.77461676506804 52.5832
19.797393513540218 52.6364
19.819994478951667 53.07899999999999
19.84259622316767 53.4584
19.8651987471481 53.7152
19.887978643247177 53.9314
19.91058273574792 54.4581
19.933187610901943 55.4832
19.955969879466828 56.5373
19.97857632894404 57.9954
20.00118356396599 59.761
20.023791585494575 61.9299
20.046577028914875 64.6868
20.069186632506966 66.8019
20.091797025500632 68.1968
20.114408208858933 69.2505
20.137196842715273 68.1876
20.159809615886765 67.1145
20.18242318232135 64.4857
20.20503754298326 62.5484
20.227829382875154 61.5581
20.250445341109344 61.5974
20.27306209647285 62.4502
20.29567964993108 63.8291
20.31847471147704 64.3592
20.34109387027612 64.6316
20.363713830075454 64.2105
20.386334591841646 62.5424
20.409132890679302 59.8005
20.431755265564437 56.6684
20.454378445325528 54.1959
20.477002430930366 52.3523
20.499803982716553 51.1621
20.522429589228004 50.2824
20.54505600449589 49.9893
20.567683229489194 49.9387
20.590488049900088 49.5077
20.61311690359731 49.4237
20.63574656993626 49.1452
20.658553853717297 48.7633
20.681185154618298 48.7961
20.703817271080066 48.787
20.72645020407368 48.3613
20.749260783967177 48.3156
20.771895359337133 48.1966
20.794530754161617 48.2254
20.817166969412938 48.0729
20.83998086114876 48.0564
20.86261872660049 47.8443
20.885257415405402 47.9237
20.90789692853701 48.0142
20.930714147864748 47.9468
20.953355319030678 47.7218
20.97599731745334 47.7347
20.99864014410749 47.7674
21.021460706796564 47.8188
21.044105199328826 48.1315
21.06675052302631 48.1809
21.089396678865015 48.25
21.112220600704806 48.4909
21.134868430275347 48.9999
21.15751709492456 49.3967
21.180166595629693 49.661
21.202993892429635 50.1235
21.22564507473034 50.4712
21.24829709602816 50.6665
21.27112693608965 50.5066
21.293780644891275 50.4288
21.316435195634053 49.9272
21.339090589297417 49.1415
21.361923832041875 48.7354
21.384580921090404 48.1574
21.407238856007325 47.6483
21.429897637773326 47.4371
21.45273429906592 47.4553
21.475394784108598 47.5734
21.498056118951983 47.6561
21.520718304578022 47.8327
21.543558400304388 47.9902
21.566222297108816 48.0629
21.58888704765135 48.1086
21.61155265291521 48.3783
21.63439619898156 48.8952
21.657063523335786 49.0307
21.67973170537063 49.5452
21.7024007460706 49.9377
21.72524775840385 50.6512
21.747918526116475 51.806000000000004
21.770590155457388 53.0387
21.79326264741238 54.8068
21.816113141960237 56.6354
21.838787368860547 58.4787
21.861462461341976 60.6769
21.884315579735777 62.6242
21.90699241312273 63.4176
21.92967011506078 63.5652
21.95234868653799 63.1691
21.9752053151131 61.7169
21.997885635446785 59.8355
22.020566828293532 58.2523
22.04324889464272 56.8194
22.066109049404666 55.7795
22.088792872571794 55.5372
22.111477572219204 55.3416
22.1341631493376 55.2933
22.157026846313123 55.0422
22.179714188221507 54.1613
22.202402410582668 53.2271
22.22509151438863 51.5985
22.24795876962584 50.5193
22.270649646204486 49.7077
22.293341407213727 48.9065
22.316034053646906 48.4339
22.338904883215342 48.3434
22.36159931041458 48.1669
22.38429462602756 48.0501
22.40699083104897 47.888000000000005
22.429865251039757 47.9047
22.452563244831367 47.9251
22.47526213102522 47.9186
22.49813925616515 47.6459
22.520839937143307 47.7737
22.543541513520587 47.8947
22.56624398629403 47.6773
22.589124730075895 47.5682
22.611829005656723 47.7035
22.63453418063466 47.798
22.657240256008077 48.0261
22.680124634582935 48.0884
22.70283252079775 48.3266
22.725541310413075 48.7332
22.74825100442868 48.9309
22.771139033969575 49.3292
22.79385054687155 49.6684
22.81656296718292 50.4081
22.83927629590484 51.3435
22.862167992606945 52.3701
22.88488314827121 53.321999999999996
22.907599215359284 54.481
22.93031619487366 55.5478
22.953211574954405 56.4477
22.975930389478226 56.9582
22.998650119445763 56.8623
23.02137076586092 56.1139
23.044269845560063 54.7755
23.06699233506288 53.3018
23.089715744034912 51.5492
23.112617610931565 50.1673
23.135342869061212 49.0536
23.158069049684816 48.3633
23.1807961538087 48.0098
23.20370174880544 47.9102
23.226430710184808 47.9644
23.249160598093425 48.0045
23.271891413539002 47.9619
23.294800752937697 47.9725
23.31753343374794 48.2366
23.340267045128353 48.2004
23.36300158808808 48.6464
23.38591468821339 49.045
23.408651104658304 49.4069
23.431388455719986 49.9236
23.454126742409 50.906000000000006
23.4770436196085 52.2079
23.499783787914662 53.2695
23.522524894889884 54.3983
23.54526694154616 55.5329
23.56818761219047 56.6266
23.59093154860734 56.9048
23.613676427751283 57.0162
23.636422250635754 56.1309
23.659346731118656 54.3352
23.68209445191868 52.5897
23.704843119509587 50.5415
23.72759273490623 48.7609
23.750521041644767 47.3641
23.77327256312355 46.4961
23.796025035462787 45.8964
23.818956224555475 45.2461
23.841710609113413 45.1384
23.86446594758979 45.0366
23.887222241002014 44.7573
23.910157285144578 44.4294
23.932915498962537 44.4779
23.955674670778713 44.2602
23.978434801611975 44.093
24.001373717286125 43.8856
24.024135776723917 43.9339
24.046898798245582 43.8254
24.06966278287146 43.769
24.092605586582614 43.3787
24.115371508023642 43.3806
24.1381383956401 43.317
24.16090625045381 43.1029
24.183852958731244 43.2267
24.206622758582608 43.0947
24.229393528706886 42.7171
24.252165270127392 42.9125
24.27511589952438 42.9509
24.297889594216997 42.7362
24.32066426328598 42.44
24.34343990775613 42.6412
24.36639447485003 42.4949
24.38917208083877 42.3517
24.41195066531332 42.4574
24.43490819850244 42.3083
24.457688750692377 42.1162
24.48047028445616 42.2835
24.503252800821233 42.2885
24.526214300784112 42.4504
24.548998793132213 42.4109
24.57178427117417 42.3264
24.59457073593893 42.2574
24.617536219319863 42.1974
24.64032466834748 42.2426
24.663114107195035 42.2482
24.685904536893013 41.9411
24.708874020360852 41.768
24.731666442613744 41.8727
24.754459858818787 41.7827
24.777254270007962 41.6542
24.80022777025625 41.6407
24.82302418230472 41.5462
24.845821592443674 41.508
24.86862000170663 41.5354
24.891597535453727 41.4515
24.914397953892728 41.7215
24.93719937456671 41.5655
24.96000179851076 41.7755
24.98298338249997 42.0407
25.00578782394922 42.0437
25.028593271784167 42.1813
25.05157790644186 42.5492
25.07438537804115 42.7089
25.097193859145293 42.9281
25.120003350792075 43.0337
25.142992065061257 43.5095
25.165803588823465 43.6083
25.18861612625217 43.9588
25.211429678386736 43.9412
25.234422489079968 44.11600000000001
25.257238081693636 44.0968
25.280054692141732 44.3353
25.3028723214652 44.3035
25.325869245420463 44.3919
25.348688923599397 44.3136
25.371509623787006 44.1345
25.394331347025812 43.6767
25.41733240110666 43.3439
25.440156181590016 42.7225
25.46298098826268 42.1846
25.48580682216873 41.6026
25.50881202326435 41.038999999999994
25.53163992281684 40.5704
25.55446885274561 40.4704
25.577298814096377 40.3432
25.600308179121807 40.1957
25.623140214533745 40.3016
25.64597328451537 40.0868
25.66898578564376 39.7651
25.691820936010206 40.0281
25.714657124097695 39.7691
25.737494350954734 39.8645
25.760511045684957 39.7828
25.783350361364224 39.7515
25.806190718969255 39.8575
25.82903211955018 39.7599
25.852053024868923 39.8679
25.874896522722523 39.943000000000005
25.897741066713106 40.0388
25.920586657892454 40.0056
25.943611790812668 40.2528
25.966459487728237 40.3926
25.989308234998564 40.3453
26.01215803367705 40.8316
26.03518741123814 40.9112
26.05803932412957 41.0245
26.080892291600094 41.0152
26.10374631470478 40.8716
26.12677995397268 40.9853
26.14963609978026 40.9733
26.172493304397875 40.6213
26.19535156888223 40.441
26.218389486949604 40.1538
26.241249882640123 39.823
26.26411134137826 39.6605
26.28715248187403 39.4852
26.31001607820869 39.3074
26.3328807407756 39.3062
26.35574647063438 39.5549
26.37879191991473 39.4923
26.401659795896734 39.6036
26.424528742360263 39.5505
26.447398760366614 39.7066
26.470448535598294 39.88
26.49332070826805 40.0869
26.516193955675355 40.5284
26.53906827888316 40.6108
26.562122397260108 40.8035
26.584998883685063 41.1278
26.607876449110325 41.2249
26.63075509460056 41.5158
26.65381357334404 41.5167
26.67669439061878 41.4697
26.699576291163382 41.3499
26.722459276044212 41.2117
26.745522132402975 40.9929
26.768407297649354 40.7023
26.791293550442003 40.4067
26.814180891848974 40.2526
26.837248143099337 39.9167
26.860137673466657 39.8192
26.88302829566349 39.6048
26.90592001075963 39.4076
26.92899167420566 39.1323
26.951885586870763 38.8053
26.974780595655517 38.7205
26.99785558178161 38.5774
27.020752794605112 38.5034
27.043651106772522 38.1038
27.06655051935668 38.1896
27.089629948036183 38.1624
27.112531573292053 37.9412
27.135434302194138 38.1515
27.158338135817015 37.8897
27.181422024430987 37.9927
27.204328079372566 37.846
27.22723524226965 37.921
27.250143514198573 37.9439
27.273231880156334 37.8994
27.296142382065014 37.8764
27.319053996245536 37.7595
27.341966723775965 37.8924
27.365059584515222 37.9589
27.38797455070062 38.0063
27.410890633481237 37.7837
27.433807833936918 37.8711
27.456905206923906 37.9328
27.47982465472398 37.9162
27.502745223449743 38.0057
27.525666914182825 37.984
27.548768816912457 38.0124
27.571692763693633 37.8312
27.59461783573812 37.7752
27.617723149491244 37.6889
27.640650484125285 37.5698
27.66357894728264 37.5751
27.686508540048052 37.4946
27.709618414237887 37.4299
27.732550278321757 37.1685
27.755483275279115 37.2044
27.778417406196485 37.2656
27.801531858397514 37.3655
27.824468269376716 37.3186
27.847405817586786 37.2922
27.870344504116094 37.4321
27.893463551932008 37.5319
27.916404527281053 37.7411
27.93934664422563 37.9211
27.962289903855886 37.8984
27.98541356491974 38.0503
28.00835912214229 38.3237
28.03130582533231 38.4627
28.054253675581805 38.5633
28.077381967556104 38.5115
28.100332124185126 38.437
28.123283431160893 38.2964
28.146235889577238 38.1728
28.169368830154156 38.0579
28.192323603752033 37.9143
28.215279532083304 37.594
28.238415973016764 37.3063
28.261374223145094 37.3101
28.284333631303806 37.0067
28.307294198589954 36.8826
28.330435319167677 36.6408
28.353398217078915 36.4288
28.376362277420153 36.1252
28.39932750129032 35.9867
28.422473319286713 35.7378
28.44544088262495 35.8368
28.468409612800283 35.7041
28.491379510913497 35.4118
28.51453004413313 35.3627
28.53750229057244 35.3169
28.56047570826344 35.1989
28.583450298308804 35.3416
28.606605564586562 35.1216
28.629582511831156 35.2993
28.65256063474956 35.0558
28.675539934446338 35.196
28.698699951647605 35.0367
28.72168161743193 35.0139
28.74466446331978 34.8656
28.767648490417624 34.7953
28.790813276438353 34.8283
28.813799678527303 34.9525
28.836787265157085 34.9958
28.859955641890075 34.9565
28.882945610203045 34.8148
28.905936766392035 34.7789
28.928929111566863 34.7078
28.952102288520145 34.6858
28.975097024308607 34.6423
28.998092952423807 34.3815
29.021090073977508 34.3388
29.04426806913204 34.3622
29.067267590245258 34.1087
29.090268308143695 34.0857
29.11327022394099 33.9882
29.13645305530891 33.9028
29.159457379627167 33.8452
29.18246290519685 33.8066
29.20546963313352 33.8465
29.22865731875826 33.8916
29.25166646419296 33.8241
29.27467681535305 33.6787
29.29768837335608 33.8185
29.320880931312562 33.8036
29.34389491580634 33.7637
29.366910110507334 33.7111
29.38992651653503 33.6861
29.41312396492981 33.6794
29.436142806456754 33.6328
29.45916286268059 33.4618
29.48236399319994 33.382
29.50538649169417 33.2024
29.528410208259935 33.0933
29.55143514402014 32.9408
29.574641196749695 32.8466
29.597668583816574 32.7724
29.6206971934585 32.637
29.64372702680042 32.6804
29.666938019934474 32.5516
29.689970313635285 32.4654
29.713003834422636 32.4117
29.73603858342347 32.4972
29.759254535188578 32.2826
29.78229175361658 32.3541
29.80533020365064 32.2736
29.82836988641968 32.3065
29.85159081507472 32.1526
29.874632976355343 32.175
29.89767637376955 32.3499
29.920721008448314 32.1683
29.9439469322847 32.1483
29.96699405457564 32.0685
29.9900424175358 32.0191
30.013092022298157 32.028
30.03632295963995 31.9474
30.059375061131373 31.9816
30.08242840783577 32.025
30.105483000888153 31.9351
30.128718970092244 31.9412
30.151776069006917 31.8994
30.17483441768648 31.7773
30.198074175317235 31.8245
30.221135036724256 31.9207
30.24419715131772 31.8746
30.267260520236203 31.7271
30.290505341942243 31.8015
30.313571232750228 31.8445
30.336638381310948 31.7277
30.35970678876503 31.7258
30.38295669299435 31.6581
30.40602763151657 31.7116
30.429099832366074 31.6493
30.452173296685572 31.5593
30.47542830191959 31.5114
30.498504306502497 31.514
30.521581577995562 31.6485
30.544660117543582 31.6888
30.56792024229725 31.6543
30.59100133132069 31.6878
30.614083691845494 31.6902
30.637167325018545 31.7143
30.660432587840603 31.7719
30.683518779717886 31.6848
30.70660624769615 31.6526
30.729694992924372 31.6439
30.75296541239743 31.7337
30.77605672557558 31.6544
30.799149319462742 31.5885
30.8224236211637 31.351999999999997
30.845518789950724 31.3519
30.868615242910597 31.3106
30.891712981195973 31.1881
30.91499247215866 31.0533
30.938092794619365 31.0407
30.96119440587579 30.9227
30.984297307082752 30.8922
31.00758200598383 30.7285
31.030687500658694 30.7718
31.053794288760695 30.6487
31.076902371446767 30.5437
31.100192296997445 30.541
31.12330298246119 30.4659
31.14641496599209 30.4611
31.169528248749216 30.4756
31.19282341969534 30.3694
31.215939314557186 30.4504
31.239056512134788 30.5827
31.262175013589378 30.3748
31.28547544871168 30.399
31.30859657161541 30.3025
31.331719001892175 30.2699
31.35484274070538 30.4295
31.378148458819545 30.4069
31.401274828443725 30.3161
31.424402510106933 30.3755
31.447712205419993 30.4444
31.470842524931633 30.3492
31.493974159989783 30.388
31.51710711176168 30.3272
31.54042212308802 30.3015
31.563557722100917 30.2423
31.586694641341655 30.0368
31.609832881979628 30.0813
31.63315322823208 30.0322
31.656294125521327 29.8747
31.679436347728515 29.9333
31.70257989602529 29.8173
31.725905596152327 29.753
31.74905181052835 29.5883
31.772199354521323 29.6696
31.79534822930507 29.7046
31.818679302290967 29.6698
31.84183085259981 29.5911
31.864983737233473 29.5667
31.88813795736804 29.6414
31.911474422233013 29.5519
31.934631327356435 29.6161
31.9577895715215 29.5145
31.980949155906522 29.5915
32.004291031706956 29.5935
32.027453310562606 29.4368
32.05061693318573 29.2688
32.07396288236386 29.3409
32.09712920658542 29.1988
32.12029687812702 29.1095
32.14346589817093 29.0385
32.166817291729984 29.0612
32.18998902288583 28.9834
32.21316210610336 28.8767
32.23633654256711 28.7364
32.259693399663725 28.7865
32.282870556771144 28.7017
32.30604907069099 28.7791
32.329228942610065 28.6513
32.35259128243769 28.3929
32.375773884550505 28.4496
32.398957848235646 28.5388
32.422143174682176 28.454
32.445511016471215 28.2605
32.468699082679954 28.3486
32.49188851523011 28.3167
32.51507931531304 28.1375
32.538452678331 28.1537
32.56164622776311 28.0869
32.58484114831493 28.0876
32.60803744118015 28.094
32.631416344731896 28.015
32.654615396551876 28.0653
32.67781582427913 28.0172
32.701198898634416 27.8987
32.72440209253756 27.8207
32.747606665947124 27.8336
32.77081262006088 27.691
32.79420126883317 27.6523
32.81740999876112 27.7041
32.840620112999424 27.5743
32.86383161274818 27.586
32.88722585534586 27.5315
32.91044014056596 27.6114
32.933655814909734 27.6154
32.95687287957963 27.6621
32.98027273544904 27.4437
33.00349259526636 27.5053
33.026713849030116 27.4857
33.04993649794511 27.3979
33.073341986570746 27.3115
33.09656744032826 27.3748
33.11979429286444 27.3783
33.14302254538647 27.4131
33.166433686291185 27.3384
33.18966475336992 27.3032
33.212897224069096 27.2199
33.23613109959831 27.1468
33.259547912343415 27.1827
33.2827846121627 27.1007
33.306022720453775 27.0299
33.32926223842861 26.9359
33.352684742614166 26.8766
33.37592709463173 26.9369
33.399170859982064 26.7985
33.422597648419426 26.8247
33.44584425514446 26.8114
33.46909227885668 26.6884
33.4923417207723 26.5371
33.51577423505344 26.6362
33.539026528130385 26.5466
33.56228024307245 26.5296
33.585535381098246 26.3571
33.60897364093058 26.2798
33.63223163992385 26.3077
33.6554910656699 26.2131
33.678751919389796 26.1878
33.702195944520106 26.1403
33.72545966903325 26.1037
33.74872482519663 26.0689
33.771991414233746 26.1644
33.79544122444841 26.1441
33.81871069412428 26.0123
33.84198160035767 26.0296
33.86525394437455 26.018
33.88870955949969 25.9708
33.911984794020626 25.831999999999997
33.93526147001624 25.8343
33.958539588715006 25.8451
33.98200102861669 25.7737
34.0052820477047 25.6539
34.02856451319451 25.6468
34.05203033759056 25.5268
34.07531571090147 25.6163
34.09860253431845 25.576
34.121890809074316 25.5334
34.145362493118924 25.5296
34.16865368561615 25.42
34.191946333164054 25.4342
34.21524043699793 25.4149
34.23871800066799 25.3741
34.26201503218366 25.2741
34.28531352370466 25.1958
34.30861347646881 25.0942
34.33209693978188 25.1146
34.3553998301885 25.1477
34.378704185565205 25.0951
34.402010007152356 25.0093
34.42549939016683 24.924
34.44880815937748 24.9589
34.472118398533134 24.872
34.49543010887669 24.8615
34.51892543169198 24.6575
34.54224009966052 24.8132
34.56555624255917 24.8006
34.58887386163339 24.6559
34.61237514439016 24.6788
34.6356957311114 24.5585
34.65901779775809 24.5941
34.68252356662995 24.5194
34.705848608458616 24.5769
34.72917513396849 24.4994
34.75250314440949 24.4156
34.77601490857862 24.2691
34.799345904259795 24.2639
34.82267838863559 24.3268
34.846012362958525 24.308000000000003
34.869530142679984 24.2867
34.89286711232212 24.2808
34.91620557568269 24.2754
34.93954553401677 24.1083
34.9630693495876 24.1313
34.986412313340814 24.1247
35.00975677584668 24.1281
35.033102738362956 24.006
35.05663261012228 23.9532
35.0799815881786 24.0056
35.10333207003229 23.9506
35.12668405694369 23.8394
35.150220005273056 23.8292
35.17357501786656 23.8291
35.19693153931268 23.8304
35.220289570874385 23.7761
35.24383161619786 23.8437
35.267192683604904 23.7411
35.290555264930376 23.6038
35.314101899412165 23.7381
35.33746752422433 23.6663
35.36083466676374 23.6872
35.38420332829803 23.6335
35.407756095629054 23.627
35.43112781085063 23.5516
35.45450104888391 23.5277
35.477875810999194 23.544
35.50143473172161 23.5409
35.52481255774625 23.5244
35.54819191167777 23.4005
35.57157279478914 23.3698
35.595137889488406 23.3895
35.61852184675279 23.3412
35.641907337029984 23.2717
35.665294361595684 23.259
35.68886565090076 23.223000000000003
35.7122557598848 23.1276
35.73564740699838 23.2114
35.759040593519934 23.1079
35.78261809810353 23.1014
35.80601437933051 23.1406
35.829412203814705 23.0094
35.85281157283719 22.8432
35.876395313415884 22.8758
35.8997977874528 22.82
35.92320180988546 22.7752
35.946790244133936 22.7191
35.97019737933222 22.7478
35.993606066789866 22.709
36.01701630779276 22.6845
36.04061101440684 22.6339
36.06402437852291 22.5734
36.08743930005611 22.5686
36.1108557802951 22.535999999999998
36.13445678011326 22.5297
36.15787639383515 22.5103
36.18129757014299 22.4476
36.20472031032821 22.3895
36.22832762423364 22.3752
36.25175350829375 22.3509
36.275180960119776 22.343000000000004
36.298609981005924 22.33
36.32222362992669 22.3596
36.34565580510207 22.2889
36.36908955323448 22.2262
36.39252487562093 22.0977
36.416144880530226 22.0957
36.43958336764275 22.0843
36.463023432914625 22.1196
36.486465077645676 21.9857
36.51009145956204 22.0745
36.53353627947859 22.081999999999997
36.55698268276811 22.0385
36.58043067073321 21.9426
36.60406345072071 21.8037
36.62751462435344 21.8407
36.65096738658405 21.8855
36.67460498210655 21.7753
36.69806093788647 21.7404
36.72151848619297 21.6578
36.744977628333636 21.6766
36.76862165890998 21.5659
36.79208400512205 21.5985
36.81554794910557 21.609
36.83901349217101 21.4828
36.862663978991606 21.4625
36.88613273667352 21.4643
36.90960309738324 21.4673
36.933075062434064 21.465
36.95673202673572 21.4216
36.98020721697122 21.3058
37.003684015502365 21.2645
37.027162423645365 21.2246
37.050825886711465 21.2644
37.07430753063053 21.1759
37.09779078812467 21.1474
37.121275660513014 21.0827
37.144945643673694 21.0667
37.16843376245278 21.0669
37.19192350009803 21.0794
37.215414857931435 21.0138
37.239091382563885 20.9427
37.262585997426164 20.8998
37.28608223645736 20.874000000000002
37.309763684451696 20.8583
37.33326318851098 20.7495
37.356764320726555 20.753
37.380267082425526 20.7689
37.40395510942588 20.7063
37.42746114683234 20.6991
37.45096881771841 20.6347
37.474478123414166 20.574
37.49817275092816 20.5549
37.52168534303452 20.5837
37.54519957395567 20.5002
37.568715445024665 20.5255
37.592416694607714 20.4841
37.61593586281424 20.5026
37.63945667518264 20.5267
37.66297913304891 20.4235
37.68668702630454 20.451
37.710212792059274 20.2982
37.733740207334854 20.2766
37.757269273470364 20.2186
37.780983832050374 20.1826
37.80451621684926 20.1307
37.82805025654007 20.1407
37.851585952464795 20.1075
37.8753071980695 20.0667
37.89884622345676 20.0186
37.92238690911902 20.006
37.94611318753442 19.9365
37.969657210779765 19.9739
37.99320289834801 19.9562
38.016750251586465 19.8785
38.04048325513017 19.9024
38.06403395679343 19.8476
38.087586328183946 19.8077
38.11114037065203 19.8412
38.13488012115898 19.8521
38.1584375229181 19.707
38.181996599821 19.6322
38.205557353221124 19.6047
38.229303872575656 19.6482
38.2528679961576 19.5886
38.27643380031219 19.5298
38.30000128639589 19.4973
38.32375459653193 19.5528
38.34732546371299 19.4967
38.37089801690786 19.4399
38.39447225747609 19.3277
38.418232380377425 19.3491
38.441810012983396 19.3686
38.46538933705673 19.2713
38.488970353960084 19.305999999999997
38.51273731166058 19.2735
38.536321731567014 19.2068
38.55990784840681 19.1929
38.58367995004091 19.1473
38.60726947812959 19.0261
38.63086070726198 19.0609
38.654453638806274 19.0832
38.678232613930824 18.9488
38.70182896773327 18.9484
38.72542702806741 18.9697
38.7490267963045 18.9699
38.77281266709232 18.8707
38.79641586862214 18.9058
38.8200207821842 18.8343
38.843627409152944 18.8267
38.86742019782782 18.7687
38.891030269149255 18.7136
38.914642058016156 18.7345
38.938255565806124 18.6573
38.96205529464307 18.6339
38.98567225787121 18.5927
39.00929094417078 18.6268
39.03291135492255 18.6136
39.05671804624804 18.5622
39.080341923549106 18.5009
39.103967529460334 18.5246
39.127594865365744 18.4578
39.15140854155791 18.4048
39.17503935514948 18.3763
39.19867190290282 18.3618
39.22249083587951 18.4012
39.24612686969409 18.3577
39.269764641845306 18.3262
39.293404153722804 18.2509
39.317230110864074 18.1387
39.34087311998506 18.1687
39.36451787301696 18.1453
39.388164371352595 18.1091
39.41199737518003 18.0911
39.43564738196752 18.1009
39.45929913825317 18.0512
39.48295264543308 18.0344
39.506792718520884 17.9803
39.530449745387216 17.9149
39.55410852735203 17.8602
39.57776906581474 17.8474
39.60161623079 17.9075
39.625280300200025 17.8921
39.64894613032202 17.7904
39.67261372255866 17.8311
39.6964680021016 17.8265
39.72013913657293 17.7629
39.74381203738292 17.7458
39.76748670593756 17.6846
39.79134812278169 17.6972
39.81502634488497 17.6567
39.83870633896685 17.5829
39.862388106436654 17.5654
39.88625668336918 17.5447
39.90994201572829 17.5729
39.933629125719285 17.4884
39.957503091207826 17.4864
39.9811937746168 17.4264
40.00488623990914 17.3562
40.02858048850006 17.3419
40.05246165409549 17.3196
40.076159487492085 17.2671
40.099859108448875 17.253
40.123560518384345 17.2326
40.1474489070226 17.2488
40.171153913178564 17.1547
40.194860712584955 17.1466
40.2185693066637 17.1339
40.242464941335314 17.1244
40.26617714307655 17.0902
40.289891143772046 17.1027
40.3136069448471 17.0365
40.33750984859743 17.0422
40.3612292688043 17.0144
40.3849504936829 16.9648
40.40867352466194 16.9208
40.43258372059144 16.930999999999997
40.45631038219906 16.9397
40.48003885420956 16.7815
40.503769138055105 16.8019
40.52768664931955 16.8358
40.55142057531802 16.8145
40.57515631746428 16.739
40.599079334038514 16.7602
40.62281872700477 16.6668
40.64655994043941 16.6493
40.67030297578061 16.6687
40.69423334835778 16.5955
40.71798004609188 16.5542
40.74172857006355 16.5386
40.76547892171441 16.535
40.7894166736039 16.5731
40.813170699248566 16.532
40.83692655691388 16.439
40.86068424804498 16.4687
40.884629402612525 16.4238
40.908390779366385 16.4719
40.932153993938 16.3682
40.95591904777605 16.3662
40.979871628443995 16.3417
41.003640379561936 16.2958
41.02741097430883 16.2368
41.05118341413683 16.2547
41.075143444384416 16.2072
41.098919593177826 16.1927
41.1226975914255 16.1418
41.14647744058318 16.1365
41.170444943946755 16.0821
41.19422851378379 16.1
41.218013938914645 16.034000000000002
41.24198706625173 15.9889
41.26577622087193 15.997
41.289567235177785 16.0403
41.31336011063129 15.9424
41.337340752422875 15.9277
41.361137369129835 15.905
41.38493585138705 15.8831
41.40873620066004 15.8108
41.43272438060107 15.782
41.45652848292052 15.7698
41.48033445666918 15.7627
41.50414230331616 15.6946
41.528138045159764 15.7115
41.551949656675205 15.617
41.575763145513235 15.6006
41.59957851314666 15.6002
41.62358184070442 15.5305
41.64740098505737 15.5638
41.6712220126409 15.564
41.69504492493139 15.5169
41.71905586207357 15.4538
41.74288256296395 15.4731
41.766711153007456 15.4008
41.79054163368412 15.3626
41.814560204340054 15.4083
41.838394485526365 15.3661
41.86223066180303 15.3096
41.88625497706819 15.3509
41.910094962812 15.2687
41.93393684811168 15.2546
41.95778063445365 15.1997
41.981812625263366 15.2081
42.00566023303407 15.1965
42.029509746323676 15.1306
42.05336116662236 15.16
42.077400857069705 15.0976
42.10125611078846 15.1073
42.12511327600405 15.0202
42.14897235421036 14.975999999999999
42.173019768448455 15.0079
42.19688269209613 15.0018
42.22074753323349 14.9353
42.24461429335818 14.9178
42.268669455600495 14.894
42.292540073217886 14.8623
42.31641261433284 14.8836
42.34028708044675 14.8133
42.36435001496739 14.8133
42.38822835065557 14.8317
42.41210861586426 14.7678
42.4359908120986 14.7794
42.46006154323262 14.7346
42.48394762115317 14.7047
42.507835634632315 14.6615
42.531912233047436 14.6338
42.55580413732265 14.5964
42.579697981698 14.5882
42.60359376768525 14.5426
42.62767820545945 14.5581
42.65157789440821 14.5503
42.67547952952185 14.5063
42.699383112316 14.4584
42.72347541395347 14.4182
42.74738291190531 14.3882
42.771292362102166 14.3663
42.795203766063516 14.3668
42.819303956130405 14.3128
42.843219287476536 14.3198
42.86713657716324 14.2988
42.89105582671383 14.2538
42.91516392983864 14.2558
42.939087119032166 14.220999999999998
42.963012272677304 14.2065
42.98693939230129 14.1545
43.01105543317513 14.1211
43.034986504731386 14.0996
43.05891954686589 14.0854
43.08285456110972 14.1153
43.10697856448665 14.0306
43.130917542983475 13.9359
43.15485849820081 13.9883
43.17880143167367 13.9504
43.20293342237094 13.8911
43.226880332449 13.8942
43.25082922540554 13.8978
43.27496722682525 13.8789
43.29892010567796 13.892999999999999
43.32287497204102 13.8158
43.34683182745632 13.7374
43.370977859791836 13.79
43.39493871351105 13.7485
43.41890156092628 13.7671
43.44286640358341 13.7155
43.46702049182749 13.6904
43.49098934522816 13.651
43.51496019852649 13.6696
43.5389330532723 13.620999999999999
43.56309522248204 13.5454
43.58707210044314 13.5666
43.61105098451946 13.4902
43.63503187626491 13.5124
43.659202151562134 13.4972
43.68318707902681 13.493
43.70717401884041 13.4569
43.731162972560874 13.3812
43.75534137913236 13.3764
43.779334381108384 13.3243
43.803329401683186 13.3088
43.82732644241872 13.3433
43.8515130055166 13.2912
43.87551410707659 13.3029
43.89951723350145 13.3265
43.923709934595614 13.2683
43.94771713129917 13.2293
43.97172635758096 13.2536
43.99573761501002 13.1572
44.0199385169922 13.1758
44.04395385732619 13.1219
44.067971233533086 13.0763
44.09199064718605 13.0423
44.11619977548961 13.0132
44.14022328470671 13.005
44.16424883610785 13.0387
44.18827643127035 12.9807
44.21249381139513 12.9352
44.236525514814076 12.9235
44.26055926674478 12.9371
44.28459506876863 12.9509
44.3088207262813 12.895
44.33286064928722 12.8885
44.35690262714919 12.8387
44.38094666145278 12.777999999999999
44.4051806219871 12.8044
44.42922879003185 12.7454
44.45327901929361 12.7042
44.477331311362136 12.700999999999999
44.501573600619416 12.6893
44.525630039221795 12.6563
44.54968854541895 12.6565
44.573937102200176 12.6324
44.5979997645541 12.612
44.622064499300315 12.5806
44.64613130803592 12.5656
44.67038823869318 12.5412
44.69445921643748 12.4971
44.718532272981385 12.437000000000001
44.742607409926194 12.4746
44.76687274034801 12.4608
44.79095205918753 12.4241
44.81503346325094 12.3955
44.839116954143876 12.3906
44.86339071028742 12.3691
44.88747839599524 12.3997
44.91156817336837 12.3733
44.93566004401666 12.3226
44.959942251908146 12.2604
44.984038330325966 12.2591
45.00813650686762 12.2226
45.03223678314731 12.2341
45.05652746888232 12.1743
45.08063196592069 12.1475
45.104738567558705 12.1656
45.128847275414856 12.1364
45.15314646515866 12.1205
45.17725940679741 12.0773
45.20137445952892 12.0218
45.22568004865265 12.0857
45.24979934496396 12.0184
45.27392075725247 12.002
45.29804428714431 11.9403
45.322358426247604 11.9627
45.346486212804315 11.9069
45.370616121861914 11.8933
45.39474815505086 11.9098
45.41907087049246 11.8809
45.4432071734666 11.8813
45.46734560548283 11.8747
45.49148616817604 11.8189
45.51581748638564 11.8143
45.5399623320197 11.7618
45.56410931325473 11.7104
45.58825843173002 11.7448
45.61259837920865 11.6955
45.636751793816 11.7038
45.66090735060093 11.6702
45.68506505120716 11.6603
45.7094136545275 11.6283
45.73357566449271 11.5748
45.75773982322992 11.5459
45.78190613238733 11.5749
45.806263418194064 11.5522
45.83043404997326 11.509
45.85460683713677 11.5015
45.87897065658495 11.4801
45.90314777634752 11.4483
45.92732705646868 11.427
45.9515084986045 11.409
45.97588104735473 11.3662
46.00006683541565 11.3699
46.02425479047904 11.3685
46.04844491420549 11.3588
46.0728262191024 11.33
46.09702070211635 11.3313
46.12121735879483 11.3028
46.14541619080294 11.2629
46.169806278764455 11.2549
46.194009483459034 11.2264
46.21821486849841 11.2261
46.24242243555223 11.1884
46.266821333570014 11.1739
46.29103328674601 11.1273
46.31524742696538 11.1603
46.33946375590237 11.1052
46.36387149104216 11.0821
46.38809221957392 11.0531
46.41231514186606 11.0449
46.436540259597464 11.0337
46.460956858999374 11.0227
46.48518638983522 10.9607
46.509418121166966 10.9459
46.533652054678114 10.9278
46.55807754555709 10.935
46.58231590571962 10.9317
46.60655647313217 10.843
46.630988654873654 10.8495
46.655233659129024 10.8362
46.67948087571551 10.8323
46.70373030632484 10.8138
46.72817142736393 10.7825
46.752425308428684 10.7839
46.77668140861147 10.7238
46.80093972960865 10.6988
46.82538981736788 10.7293
46.849652602470904 10.6872
46.87391761349769 10.6764
46.8981848521493 10.6559
46.9226439341274 10.6338
46.946915650573224 10.5483
46.97118959976749 10.5889
46.99546578341598 10.5425
47.019933887188216 10.5423
47.04421456235744 10.5098
47.06849747711879 10.4602
47.09278263318286 10.4553
47.11725978640143 10.4783
47.14154944775105 10.4499
47.165841355555656 10.4123
47.1901355115306 10.3757
47.214621741924994 10.4001
47.23892041698887 10.3799
47.26322134538975 10.3259
47.28771440635075 10.3218
47.31201986422527 10.2882
47.33632758061436 10.2814
47.360637557241866 10.2354
47.38513974410611 10.2281
47.40945426407847 10.2187
47.43377104948137 10.2278
47.45809010204344 10.2097
47.48260144275502 10.1567
47.506925052572285 10.1295
47.53125093475548 10.1257
47.55557909103813 10.1037
47.58009961361992 10.0843
47.60443234110732 10.0342
47.62876734791564 10.0232
47.65310463578333 10.0147
47.6776343683373 10.0267
47.7019762413987 9.96393
47.72632040075572 9.9817
47.75066684815169 9.942860000000001
47.77520581885936 9.93013
47.799556865477655 9.91638
47.823910205386 9.9033
47.84826584033272 9.88622
47.87281407745551 9.80679
47.89717432569297 9.89095
47.92153687423484 9.852319999999999
47.94609208429692 9.77025
47.97045925671401 9.83446
47.99482873471275 9.795169999999999
48.01920052005013 9.76821
48.04376504619224 9.7187
48.068141469543484 9.741710000000001
48.09252020552573 9.7364
48.11690125590099 9.70761
48.1414751266064 9.66894
48.16586082917454 9.67398
48.19024885144316 9.64229
48.2146391951793 9.62428
48.239222439012764 9.631969999999999
48.26361744916137 9.59114
48.28801478610016 9.57575
48.31241445160131 9.60256
48.337007097209366 9.53265
48.36141144338331 9.50419
48.38581812345755 9.50187
48.41022713920929 9.50019
48.434829215320704 9.48046
48.45924292604658 9.469380000000001
48.48365897780325 9.428239999999999
48.50807737237308 9.41947
48.532688907799276 9.44943
48.55711201168574 9.41734
48.581537463754074 9.40461
48.60615611725119 9.44099
48.63058628942721 9.34137
48.65501881516546 9.355830000000001
48.6794536962573 9.335339999999999
48.70408185970339 9.257019999999999
48.72852147531801 9.249839999999999
48.75296345168211 9.24363
48.77740779059232 9.25141
48.80204549302823 9.2316
48.82649458091802 9.22141
48.85094603676547 9.17643
48.87539986237231 9.1324
48.90004713292306 9.15203
48.92450572200832 9.10805
48.94896668628025 9.12063
48.97343002754588 9.08078
48.99808689542115 9.08967
49.02255501470614 9.077639999999999
49.04702551642794 9.076080000000001
49.0714984023988 9.041839999999999
49.096164896893235 9.018460000000001
49.120642575466796 9.03295
49.145122643748394 8.99559
49.16960510355558 8.94228
49.19428125404938 8.949069999999999
49.2187685210852 8.92297
49.243258185121555 8.93016
49.26794160167084 8.89312
49.2924360839405 8.85326
49.31693296869764 8.854989999999999
49.34143225776915 8.86207
49.36612538195438 8.83998
49.39062950396021 8.81616
49.41513603578346 8.78462
49.4396449792564 8.78096
49.46434784069503 8.75182
49.488861631846454 8.71993
49.513377840166804 8.73883
49.537896467493745 8.71223
49.56260909589029 8.68084
49.587132585683285 8.665
49.611658500018365 8.64531
49.636186840738596 8.61997
49.66090926588511 8.6393
49.685442483902584 8.61006
49.70997813385706 8.569180000000001
49.734516217597076 8.57466
49.75924846937352 8.5436
49.7837914452858 8.54854
49.80833686055187 8.49371
49.83288471702571 8.512030000000001
49.85762682540054 8.49465
49.882179588965734 8.4679
49.9067347993235 8.445789999999999
49.93129245833333 8.44093
49.95604445336378 8.44614
49.98060703442832 8.411660000000001
50.005172069746266 8.39495
50.02993150438364 8.3538
50.05450147301533 8.379439999999999
50.07907390151433 8.35975
50.10364879174981 8.30633
50.12841816587289 8.30418
50.1529980044635 8.27018
50.17758031042124 8.275319999999999
50.20216508562089 8.27336
50.22694442953363 8.22686
50.25153416817468 8.20915
50.27612638170508 8.183810000000001
50.300721072005196 8.172360000000001
50.325510416102105 8.15922
50.350110084975064 8.157789999999999
50.37471223628208 8.13508
50.39931687190919 8.17853
50.424116246675766 8.126719999999999
50.44872587605249 8.13332
50.47333799543065 8.112919999999999
50.49795260670191 8.050360000000001
50.52276204271512 8.10534
50.54738166295838 8.072330000000001
50.57200378079314 8.017339999999999
50.596628398116835 7.99954
50.62144792604559 8.00812
50.646077567609396 8.01147
50.670709714377715 8.00506
50.69553683636198 7.9786399999999995
50.72017401885922 7.9433
50.7448137122895 7.93354
50.76945591856022 7.92766
50.79429318636823 7.8846
50.818940443716784 7.86745
50.84359021965163 7.85999
50.868242516085964 7.82655
50.893089960641895 7.81474
50.917747323549435 7.7989
50.94240721271973 7.78745
50.96706963007175 7.7739
50.99192728239342 7.7332600000000005
51.01659478166073 7.7525
51.04126481489051 7.74184
51.06593738400761 7.75178
51.090805275207074 7.716130000000001
51.11548294172845 7.72225
51.14016314993547 7.67554
51.164845901758845 7.67921
51.18972406304274 7.656219999999999
51.21441192780656 7.626930000000001
51.23910234200271 7.622789999999999
51.2637953075678 7.606260000000001
51.288683770237945 7.57442
51.31338186432707 7.5703
51.33808251561888 7.51302
51.362978729967345 7.51554
51.387684521509755 7.503760000000001
51.41239287610203 7.51618
51.437103795691165 7.46058
51.46201036644977 7.45065
51.486726441956634 7.46055
51.51144508832545 7.46254
51.536166307509156 7.4577800000000005
51.56108326624387 7.44486
51.58580965706056 7.403910000000001
51.61053862657523 7.38537
51.635270176746864 7.349419999999999
51.66019755512065 7.357469999999999
51.68493429268881 7.34835
51.70967361681515 7.32183
51.73441552946465 7.33795
51.759353359237934 7.313910000000001
51.7841004750961 7.263889999999999
51.80885018539685 7.290489999999999
51.833602492111254 7.24275
51.8585508051424 7.24202
51.883308330926425 7.225639999999999
51.90806845906181 7.18875
51.932831191525715 7.20145
51.95779001977161 7.158289999999999
51.98255798721516 7.166860000000001
52.00732856494335 7.138489999999999
52.03229530577543 7.13795
52.057071130455945 7.10429
52.081849571391054 7.07458
52.106630630568695 7.08027
52.13160794279417 7.0780899999999995
52.15639426492067 7.09203
52.18118321127822 7.04548
52.205974783860896 7.0036
52.23096269971011 7.023619999999999
52.255759551287994 7.01444
52.280559035098186 6.987430000000001
52.30536115314103 6.999619999999999
52.33035970494467 6.9704
52.35516711807904 6.945069999999999
52.37997717147198 6.89606
52.40478986713005 6.94031
52.42979908731974 6.955610000000001
52.454617094216 6.85929
52.47943774942214 6.84806
52.50426105495102 6.85303
52.529280976059844 6.83775
52.554109609024096 6.8166199999999995
52.57894089837482 6.7798
52.60377484613117 6.800160000000001
52.62880550079408 6.78414
52.65364479223379 6.735860000000001
52.67848674816189 6.753080000000001
52.70352547971946 6.743639999999999
52.72837279155837 6.72496
52.753222773982785 6.69065
52.778075429022984 6.7232899999999995
52.80312495150885 6.67783
52.827982978797436 6.63868
52.85284368481815 6.63877
52.87770707160767 6.615060000000001
52.90276741793998 6.627160000000001
52.92763619336701 6.6006100000000005
52.952507655698504 6.618639999999999
52.977381806977576 6.61585
53.00245301017842 6.6254800000000005
53.02733256653592 6.590910000000001
53.052214817996074 6.56303
53.077099766608484 6.56157
53.102181859804446 6.5396
53.127072229988265 6.52689
53.15196530349892 6.50873
53.17686108239249 6.45864
53.20195409881522 6.46194
53.22685531582556 6.47339
53.25175924441303 6.45587
53.27666588664027 6.39233
53.30176985962693 6.40461
53.3266819565689 6.40557
53.35159677336455 6.37829
53.376514312083096 6.3929
53.40162927507703 6.36961
53.42655228516116 6.37955
53.45147802340193 6.3160300000000005
53.47660125628886 6.30066
53.50153247842639 6.277880000000001
53.52646643496923 6.33132
53.55140312799818 6.30291
53.576537409691696 6.25293
53.60147960336152 6.2556199999999995
53.626424539786164 6.262919999999999
53.65137222105307 6.17866
53.67651758529126 6.20028
53.70147078399681 6.1854
53.72642673383343 6.19643
53.75138543689533 6.1522
53.776541917524526 6.15386
53.801506154876755 6.12387
53.826473151763246 6.15785
53.851442910284916 6.173430000000001
53.87661054126026 6.128480000000001
53.9015858509782 6.07169
53.92656392866066 6.08552
53.95154477641532 6.07405
53.976723591801296 6.05653
54.00171000771266 6.08362
54.02669920004598 6.05625
54.051691170915745 6.01596
54.076881204886796 6.0166699999999995
54.101878760928514 5.97573
54.12687910187696 5.941269999999999
54.152077577768296 5.9131800000000005
54.1770835166946 5.94091
54.20209224691339 5.94881
54.22710377055121 5.92483
54.25231352511594 5.9324900000000005
54.27733066384342 5.83381
54.30235060239643 5.8541
54.32737334290836 5.8848199999999995
54.35259441062629 5.8066
54.377622783395324 5.81033
54.40265396455061 5.80884
54.42768795623251 5.80004
54.45292037169559 5.75212
54.477960012857906 5.7211
54.50300247099511 5.7458599999999995
54.52804774825457 5.71974
54.55329154616743 5.70573
54.57834249018678 5.66746
54.6033962597977 5.671119999999999
54.6284528571545 5.64861
54.653708072335164 5.57201
54.67877035378786 5.59591
54.70383546947698 5.55432
54.72890342156389 5.56123
54.7541700889442 5.54849
54.77924374251975 5.5581
54.8043202390049 5.49863
54.82959552413022 5.4386
54.8546777351945 5.47728
54.87976279569621 5.4002099999999995
54.90485070780914 5.41394
54.930137506558005 5.39391
54.95523115074295 5.45868
54.98032765308844 5.38385
55.005427015775496 5.31975
55.03072536339621 5.26335
55.05583047570572 5.32595
55.080938454927676 5.30748
55.10604930325027 5.2851099999999995
55.131359235107396 5.25764
55.15647585066083 5.19232
55.181595341907496 5.1909
55.20671771104285 5.18415
55.232039262617704 5.1387599999999996
55.25716741665048 5.1416
55.28229845518636 5.05196
55.30743238042802 5.06294
55.33276558731939 5.09131
55.357905315183636 5.04104
55.383047936390035 5.02894
55.40819345314859 4.9891
55.433538351073295 4.99528
55.458689688238415 5.004580000000001
55.483843927614096 4.92036
55.509197623043605 4.92353
55.53435769621134 4.8213099999999995
55.55952067826466 4.8228599999999995
55.5846865714265 4.85288
55.61005202069737 4.804209999999999
55.63522376553902 4.76662
55.66039842818645 4.76915
55.68557601087004 4.80832
55.7109532500271 4.76283
55.73613670233794 4.78978
