TT I
1.2716486653135266 7.68889
1.2939594142134223 7.291119999999999
1.3162702121660406 7.08905
1.3385810600174564 6.87702
1.3608919586137629 6.914289999999999
1.383202908801069 6.53293
1.405513911425503 6.59088
1.4278249673332093 6.699339999999999
1.4501343378461518 6.05578
1.4724455028545926 5.97861
1.4947567236847858 6.4650300000000005
1.517068001182951 5.87208
1.5393793361953272 5.79295
1.5616907295681737 5.42511
1.5840021821477681 5.16771
1.60631369478041 5.72043
1.6286252683124185 5.12867
1.6509369035901333 4.7391
1.6732468618895553 4.94384
1.695558623192809 4.7536
1.7178704487808514 5.07576
1.7401823395001077 5.22005
1.7625012545597203 5.21203
1.7848028405262486 5.08587
1.8071218901122095 4.79885
1.8294236121921872 5.24404
1.8517427996910911 4.920640000000001
1.8740620574440425 4.864730000000001
1.8963639900671978 4.714580000000001
1.9186833908139995 5.05398
1.9409854680117449 5.394769999999999
1.9633050151394713 4.787640000000001
1.9856246367570705 4.64447
2.0079269371922672 4.903230000000001
2.03024671027244 4.72346
2.0525491637446027 3.8889199999999997
2.074869091674931 4.2884400000000005
2.097171701569106 4.37351
2.1194917877373847 4.52787
2.141811954326636 4.6488
2.164114805233074 4.51074
2.186435135143035 5.44319
2.208738150935709 10.889000000000001
2.231058647554722 19.7348
2.2533792288321184 15.9477
2.275682498336085 7.839580000000001
2.298003251406138 5.43551
2.3203066942619714 5.07734
2.3426276225136022 4.62259
2.3649486396617507 4.99798
2.387252348930071 5.09071
2.4095735463442893 4.78406
2.4318774374315884 5.2702800000000005
2.4541988185014043 5.51165
2.476502894794693 5.67065
2.498824462909887 6.12467
2.521146125856138 6.09751
2.5434504863470337 5.6968
2.5657723414244717 6.73212
2.588076895590662 7.01072
2.610398946189713 6.8255300000000005
2.6327210958598384 6.670380000000001
2.6550259469304716 6.57171
2.6773482972090137 6.804069999999999
2.6996533504259 7.39328
2.7219759047039602 7.67322
2.744298562293959 7.5687
2.7666039251246595 7.926989999999999
2.7889267918020164 7.72412
2.8112323652516555 7.5633
2.833555444408179 8.122860000000001
2.8558786311183852 7.81221
2.8781845268938557 8.09572
2.9005079311721484 8.824760000000001
2.9228140460410397 8.45069
2.9451376712799635 9.069289999999999
2.967444008632326 9.83566
2.9897678582247247 9.534139999999999
3.0120918213106695 10.4161
3.0343984987899373 10.3987
3.0567226913198637 10.7069
3.079029599759726 11.1751
3.101354025127254 12.1311
3.123678568232338 13.2799
3.145985829517914 13.3097
3.16831061055229 13.7161
3.1906181112775593 14.0407
3.212943133635653 14.629000000000001
3.2352682779763207 15.012
3.2575761442691227 15.7725
3.2799015350264273 15.99
3.302209649240067 16.653
3.3245352898092655 16.9284
3.3468436553365257 17.7226
3.369169549113219 17.817
3.3914955708171384 18.699
3.413804319727358 18.9364
3.4361305997334863 19.3274
3.4584396084414553 19.7357
3.4807661501462652 20.3719
3.503092824025881 20.7101
3.5254022288463154 21.2979
3.5477291695206588 21.6063
3.5700388426251948 22.6971
3.5923660534916446 24.0876
3.6146934007816114 34.0003
3.637003482731501 66.8896
3.6593311053109985 73.5896
3.681641464033634 45.6888
3.7039693653009733 28.9186
3.726297407241705 26.1611
3.7486081875460804 26.1356
3.7709365132734978 26.5967
3.793247578841633 27.011
3.8155761917550093 27.1988
3.8378875459837216 27.5201
3.8602164494827234 28.09
3.882545499606844 28.7292
3.9048572932539183 29.0203
3.9271866390645718 29.8336
3.9494987298666713 30.6737
3.971828374764527 31.0858
3.9941581705403255 31.4404
4.016470713506008 31.8658
4.038800813471445 32.3775
4.061113662089144 33.0048
4.0834440696459176 34.2336
4.105774632334751 34.3292
4.128087945865126 35.5035
4.150418821249301 36.165
4.172732448931298 36.797
4.195063640413578 38.8107
4.2173775856475215 42.1447
4.239709096631102 63.7193
4.262040768704612 170.62400000000002
4.284355196706267 224.68400000000003
4.306687193387355 149.077
4.329001947444346 68.0774
4.35133427213731 47.1251
4.373666762177566 44.9595
4.395982011761091 45.2542
4.418314834921175 46.2704
4.44063041906622 51.5831
4.4629635787515625 59.4442
4.4852969080429785 59.8019
4.5076130004776225 54.1117
4.529946671403969 52.2475
4.552263106909177 52.5045
4.574597122877047 52.6141
4.596931312711224 53.7965
4.619248269273446 54.9651
4.6415828092605835 56.003
4.663900117405352 57.1147
4.686235010953232 58.6879
4.708552674085913 60.1812
4.730887924602802 61.6967
4.753223354952695 62.9143
4.775541557023902 64.5547
4.797877349456786 66.6063
4.820195915032126 68.1566
4.842532072957498 69.5999
4.864868414979744 72.3965
4.88718753227192 74.6627
4.909524244902505 76.627
4.931843734218147 78.5171
4.954180820867835 80.9983
4.976518095879839 84.7522
4.998838149695359 87.8622
5.021175803844231 91.8216
5.043496238205739 96.0374
5.065834274903528 100.829
5.088172504230693 107.044
5.1104935158799565 115.257
5.132832132875765 138.678
5.155153533596801 177.76
5.1774925416746225 241.792
5.199814334878411 583.175
5.2221537374521505 1585.79
5.244493338631803 3630.1
5.266815727034316 7405.64
5.289155727832427 11400.9
5.311478517248165 8902.4
5.333818921080011 3485.72
5.356159527788849 759.908
5.3784829252032536 225.62900000000002
5.400823940070432 162.44299999999998
5.423147747031976 139.786
5.445489173474152 127.545
5.467830807066149 121.01299999999999
5.490155234831516 116.48299999999999
5.512497285125229 111.81700000000001
5.534822130975162 109.205
5.557164601388673 106.925
5.579489868738879 103.824
5.601832762690846 102.84700000000001
5.6241758697774475 100.96600000000001
5.646501775867269 100.26700000000001
5.668845311622074 99.2232
5.691171647754637 98.5617
5.713515615597765 97.1903
5.735859800852677 96.5303
5.758186788542988 95.7736
5.780531411018185 97.1806
5.802858837297399 96.1922
5.825203900414495 96.6387
5.8475491852224 97.8839
5.869877275883075 97.9098
5.892223006467101 99.3921
5.914551544266608 101.33200000000001
5.936897724049891 106.369
5.959244129804903 116.198
5.981573344815301 153.063
6.0039202049061 311.197
6.026249875609095 658.27
6.04859719346037 1269.01
6.070927323278297 2325.44
6.093275102315365 4072.64
6.115623113320588 4848.85
6.137953938319995 3424.25
6.160302415650845 1178.8
6.182633708324452 288.075
6.2049826554078376 128.445
6.227331838745022 100.26700000000001
6.249663839443684 90.1766
6.27201349767565 86.2358
6.294345974611799 88.5306
6.316696111167083 95.0978
6.339046488263839 90.2072
6.361379686074702 79.4684
6.383730546639482 73.7917
6.406064229255215 71.2233
6.428415576718203 70.7474
6.450749747566656 69.518
6.47310158535871 67.9958
6.495453669698332 67.0625
6.517788579421056 66.5138
6.540141159237969 65.4013
6.562476565766648 64.6514
6.5848296444934045 64.148
6.607182974060425 63.9401
6.6295191323281015 64.061
6.651872965955752 65.7606
6.6742096296068985 83.277
6.6965639707294615 112.706
6.71891856698715 112.99799999999999
6.741255995248479 83.8237
6.763611104154477 66.3795
6.785949046381137 60.9749
6.808304671371482 59.895
6.8306605557940046 60.0048
6.852999275508618 58.5954
6.875355681171544 58.5106
6.897694923437771 57.8598
6.92005185377892 58.0242
6.9423916220322655 57.7296
6.964749080490181 57.271
6.987106804399774 57.1906
7.009447368180821 57.2743
7.031805625367033 56.9099
7.054146723727803 56.9948
7.076505517631004 56.7014
7.098864581288365 56.5835
7.121206488070854 56.2936
7.143566093607822 56.0228
7.165908543567245 56.4527
7.188268694426048 56.4674
7.2106291193438095 56.2196
7.232972390625943 57.3607
7.255333366030969 66.1991
7.277677189091925 101.24799999999999
7.300038718428332 133.27100000000002
7.322400526130865 116.9
7.344745183422596 79.546
7.367107550224791 60.9647
7.389452767901992 57.0969
7.411815697249891 56.4893
7.434161478756298 55.6253
7.456524974096713 55.6104
7.478888753837185 55.0899
7.501235387657368 55.8486
7.523599738562711 55.8964
7.545946944825532 55.9614
7.568311870344528 56.4493
7.5906770845765665 56.5458
7.613025156078678 57.5248
7.635390950099687 58.6601
7.657739602662809 58.2021
7.680105979923558 57.403
7.702472650212829 57.5713
7.724822180948224 57.3762
7.747189439655568 57.5823
7.769539560075357 57.8322
7.791907410653562 58.4509
7.81425812420825 57.8707
7.836626570110925 58.0893
7.858995315087906 59.2671
7.881346924933401 59.1797
7.903716270417482 60.128
7.926068482028405 60.2084
7.948438431475253 61.0676
7.9708086843180235 61.4542
7.993161805171116 62.169
8.015532667162402 62.7113
8.037886398416653 63.5668
8.060257873014221 63.857
8.082629655331942 64.6647
8.104984308787587 65.7636
8.127356708900503 68.5429
8.149711981398308 72.6277
8.172085002766314 74.6774
8.194458336181368 72.7081
8.216814543847752 71.1571
8.23918850371002 71.8374
8.26154533906492 72.6987
8.283919928836452 74.4374
8.306277395339652 75.2827
8.328652618483376 76.8357
8.351028159736202 79.3936
8.373386579575245 81.8939
8.395762759396959 83.9888
8.418121819038275 88.5805
8.440498640894003 99.4842
8.462875785192262 114.694
8.485235811156207 143.282
8.507613602688501 219.332
8.529974277114228 338.44599999999997
8.552352719347912 493.894
8.574731488360351 748.883
8.59709314210385 1170.96
8.619472567021075 1677.84
8.64183487789147 2111.11
8.664214962183097 1826.39
8.686577933647762 1053.05
8.708958680784317 429.533
8.731339760774953 183.688
8.753703729764451 118.991
8.77608547780821 104.274
8.798450116065078 99.6874
8.820832535634787 96.2224
8.843215292401656 94.7187
8.865580941199045 93.1761
8.887964374703538 91.8861
8.910330701447199 92.2413
8.932714815164482 93.0154
8.955099270424924 92.0991
8.977466620733543 89.521
8.999851761421976 87.7053
9.022219798361645 86.2593
9.04460562795561 86.1162
9.066991803441677 85.7725
9.089360876979615 85.8931
9.111747746589993 85.2422
9.13411751544971 84.5341
9.156505082664324 84.0855
9.178875550323522 84.70200000000001
9.20126381862328 84.993
9.223652438908596 85.0796
9.246023961427412 84.9825
9.26841328802173 84.2743
9.290785518039224 84.5452
9.313175554425882 85.8022
9.335565947154315 85.5879
9.357939245086508 85.7978
9.380330352834827 86.06
9.40270436697103 86.0581
9.425096193225055 86.1021
9.447488380180165 86.7759
9.469863475295412 87.0963
9.492256385987508 87.2243
9.514632206018318 87.8771
9.537025843935714 88.3789
9.559402392368193 88.7236
9.581796761000229 90.3059
9.604191496441521 91.4221
9.626569144158516 93.9233
9.648964615551032 96.5964
9.671343000390081 98.7078
9.693739211225699 97.6045
9.716135793237463 96.1381
9.738515290448102 96.3331
9.760912617143402 97.4714
9.783292860202891 98.8942
9.805690935076182 99.8433
9.828089385495742 101.3
9.850470754023561 103.84100000000001
9.872869957865444 109.64299999999999
9.89525208097539 121.52
9.917652041736662 131.737
9.940052382417589 138.597
9.962435644102392 168.011
9.984836746950979 229.174
10.007220771957746 313.117
10.029622640473708 434.565
10.052007432299963 611.117
10.074410069984072 864.837
10.096813093716005 1210.63
10.119199042482517 1591.66
10.141602840636468 1855.24
10.163989564971628 1664.0
10.186394141051062 1037.93
10.208799107559706 484.68
10.231187001965623 216.067
10.253592751657669 136.489
10.275981430388155 118.815
10.298387966769793 116.066
10.320794897965431 116.805
10.343184759907361 115.33200000000001
10.36559248305461 111.141
10.387983138083852 110.13799999999999
10.410391656691655 117.743
10.432800574501677 135.139
10.455192425893369 156.55700000000002
10.47760214443012 185.763
10.499994797678786 229.60299999999998
10.522405320453982 296.138
10.54479877906917 382.665
10.567210109595656 484.915
10.5896218454736 540.508
10.612016518879773 528.39
10.634429067781074 373.93699999999995
10.656824555333241 217.274
10.679237920773568 131.878
10.701651695961992 100.661
10.724048411481384 92.3667
10.746463008485165 89.4846
10.768860546937125 87.9999
10.791275969274796 85.8231
10.81369180576079 84.6042
10.836090585366925 83.3213
10.858507252467449 82.0725
10.88090686379991 81.0946
10.903324365036394 80.5752
10.925724811614439 80.0315
10.948143150509463 80.8318
10.970561909719066 80.4891
10.992963615930844 78.7898
11.015383218085756 76.8166
11.037785768347074 75.2428
11.06020621697282 74.7685
11.082627090322113 74.2319
11.105030913430326 73.9911
11.12745263854165 73.9698
11.149857314510728 75.8647
11.172279894912576 79.7386
11.194702904450653 80.1415
11.217108866490921 77.1665
11.239532736615194 74.0144
11.26193956033512 72.723
11.284364294577085 71.5021
11.306789462371718 69.7155
11.329197585398376 69.0381
11.351623622610898 68.97399999999999
11.37403261614354 68.0239
11.396459526308487 67.8226
11.418869393879497 67.5041
11.441297180532617 66.9406
11.463725406927658 66.5417
11.486136592353875 66.5104
11.508565700543707 67.018
11.530977768845315 67.9247
11.553407762368774 68.4504
11.575838200059769 68.0961
11.598251599479612 66.6258
11.620682927815501 65.4205
11.64309721895548 65.483
11.665529441478206 64.9521
11.687962112597958 64.7409
11.710377748130886 65.0375
11.732811318753434 64.8113
11.755227854859067 64.4785
11.777662328529495 64.4336
11.800079768750786 64.4025
11.822515149015453 64.1811
11.844950984084935 64.6153
11.867369787303163 64.3334
11.889806534289491 64.4515
11.912226250487029 64.4621
11.934663912939751 64.6957
11.9571020346363 64.7635
11.979523127133968 65.1189
12.001962169624331 66.1891
12.024384183972964 68.497
12.046824150809913 73.38600000000001
12.069264581333726 79.7259
12.091687985297767 86.3494
12.11412934550045 95.9217
12.136553680195208 109.40799999999999
12.158995973632788 127.936
12.181438735204349 149.889
12.20386447284199 176.255
12.226308172985636 197.94099999999997
12.24873485024193 202.46599999999998
12.271179492516982 174.72400000000002
12.293607112949127 132.497
12.316052700916226 98.2184
12.338498763250042 79.9937
12.360927805303868 71.1723
12.383374818673879 67.7425
12.405804812803074 66.2753
12.428252780773262 66.2057
12.45070122756722 66.1337
12.473132656675375 66.0319
12.49558206341869 66.1468
12.518014453510101 66.3989
12.540464823770117 66.2021
12.562915677315177 66.5228
12.58534951575545 67.2519
12.607801338171472 68.422
12.630236146511358 71.9758
12.652688941369085 75.4802
12.675124723177234 76.1369
12.697578494048786 73.8919
12.720032754458185 70.9431
12.742470003354093 69.8723
12.764925245138771 69.8988
12.787363476431278 70.1962
12.809819703166806 70.3234
12.83227642391173 71.2552
12.854716135692716 71.9895
12.877173846755147 72.8747
12.899614549869717 73.2356
12.9220732548287 74.1424
12.94453245827299 74.5251
12.966974655289818 75.6845
12.989434858002571 76.7481
13.011878055298721 77.4434
13.034339260862497 78.4815
13.056800969391883 80.0565
13.079245674017244 83.176
13.101708390774869 87.4706
13.12415410463411 98.2211
13.146617833206086 112.72
13.169064559883248 126.818
13.191529303857127 143.67700000000002
13.213994557076367 167.438
13.236442809902437 200.608
13.258909083908291 245.519
13.28135835851934 292.93
13.30382565690295 349.94
13.326293469022952 402.01
13.348744283242008 422.245
13.371213125129904 372.213
13.39366497011003 281.843
13.416134845360597 189.235
13.438605238843131 133.327
13.46105863690397 115.723
13.483530069144786 117.601
13.505984506951902 124.486
13.528456981549432 135.59799999999998
13.550929978879088 151.455
13.573385983253365 173.355
13.595860028340867 204.604
13.618317081455832 243.014
13.64079217790333 287.279
13.663250283359057 331.00699999999995
13.685726434770173 360.74800000000005
13.708203115221277 344.168
13.730662806148091 277.623
13.75314054697177 201.873
13.775601299246777 137.399
13.798080104050406 102.645
13.820559442405358 88.7061
13.843021793671388 84.4239
13.865502201420897 82.8131
13.887965623051947 82.0912
13.910447103807167 80.6476
13.932929122629764 79.4118
13.955394156785959 79.0098
13.977877254034569 78.1975
14.000343367582113 77.2056
14.022827546871707 76.6626
14.045294743423524 75.9077
14.06778000837062 74.8825
14.090265817715476 75.1533
14.112734645763819 74.7962
14.13522154619454 74.2323
14.157691466286913 74.2911
14.180179461423874 73.9396
14.202668005486178 73.4209
14.22513957064374 73.0425
14.247629214846473 72.5597
14.270101881097517 72.2994
14.29259262906496 72.3747
14.315083930490205 72.9651
14.337558255389705 73.0304
14.360050666019726 72.6944
14.382526101071944 71.836
14.405019624534942 71.3625
14.427513705993134 70.9166
14.449990813291825 70.9785
14.47248601302899 70.8688
14.49496423954951 71.0402
14.517460561197822 70.9547
14.539939910570322 70.9945
14.562437357763558 71.1965
14.58493536931253 71.8848
14.607416409993311 72.5488
14.62991555254159 73.311
14.652397725157423 73.0482
14.674898002342799 73.0849
14.697398848433282 72.7139
14.719882725991326 74.0407
14.74238471217934 76.3007
14.764869730765593 81.4352
14.787372860692983 85.5553
14.809876564079925 91.1949
14.83236330125751 97.9426
14.854868153850365 106.821
14.877356041159485 119.25
14.899862046604186 134.635
14.922351087688757 154.254
14.944858249632887 176.175
14.967365991421232 198.98
14.989856770231246 216.157
15.012365673994204 219.386
15.03485761569738 194.925
15.05736768508665 155.877
15.07987833888692 122.21700000000001
15.102372032001655 95.3668
15.124883856909658 79.6271
15.14737872204565 74.6411
15.169891721717274 72.8363
15.192405310371893 72.4084
15.214901940621196 72.2863
15.237416709527137 72.1514
15.259914520936249 72.4063
15.282430473753607 71.679
15.304947020131227 70.7664
15.327446610371178 69.9049
15.349964346154254 69.185
15.372465126703139 68.8468
15.394984055556009 68.8237
15.417486030076159 68.5937
15.44000615566487 68.0883
15.462526881230803 68.1441
15.485030653812652 68.4546
15.507552581617434 68.0987
15.530057557334603 68.1755
15.55258069104857 68.2103
15.575104429329837 68.2585
15.597611216864632 67.913
15.620136166564563 68.721
15.6426441664095 70.7695
15.665170331202765 74.5346
15.687697105158826 78.3777
15.710206930593545 82.3516
15.732734925158933 87.09700000000001
15.755245972089478 93.4771
15.77777519094324 102.286
15.800287463046663 113.741
15.822817909869592 128.601
15.84534897229804 144.591
15.867863089299354 162.80700000000002
15.890395385222186 179.446
15.912910736597423 191.285
15.935444269699861 187.423
15.957978423016485 165.02
15.980495633101265 132.69899999999998
16.003031029129367 103.06200000000001
16.02554948280019 80.4843
16.048086125229432 70.2883
16.070623392487107 67.0277
16.09314371869582 65.8485
16.11568223789321 64.7806
16.13820381691126 63.916000000000004
16.160743591742527 63.117
16.183283996022084 62.2573
16.205807461423195 61.318999999999996
16.228349126881973 60.8286
16.25087385432698 60.7208
16.27341678466365 60.1257
16.29594277784926 59.922
16.31848697676433 59.9399
16.341031811604868 60.0735
16.36355971058487 60.1808
16.3861058195587 60.0126
16.40863499352978 59.1276
16.431182380342005 58.1105
16.453730407713202 57.7983
16.476261501364792 57.2592
16.498810812136167 57.1214
16.52134319004079 57.2687
16.54389378792203 57.1058
16.566445031001553 56.9153
16.588979342490088 56.7627
16.61153187824822 56.7201
16.634067483263312 56.4575
16.656621315414416 56.4448
16.679175797408888 55.9587
16.701713349928728 56.1291
16.72426913389191 56.4735
16.74680798922351 56.3983
16.76936507887444 56.5456
16.791905240734874 56.4783
16.814463639794468 56.3533
16.837022695210294 56.4815
16.859564824093756 56.76
16.882125194503903 57.143
16.904668639217885 57.6646
16.927230328348003 57.6852
16.949792678493612 57.9976
16.972338104193863 57.6069
16.994901778652235 57.3105
17.017448529496576 57.2895
17.040013531998152 57.8132
17.06257920018044 58.5251
17.0851279459922 59.4081
17.107694947817667 60.5896
17.130245028099072 61.4234
17.15281336730298 62.9009
17.17536478578733 64.5791
17.19793446610687 66.5277
17.220504818648422 69.0062
17.243058251703697 71.2767
17.265629950971032 74.9201
17.288184731571736 78.7825
17.310757781306908 83.1607
17.33333150794385 84.663
17.355888317140174 84.4207
17.37846339986244 80.0124
17.401021565958885 73.8317
17.42359800851343 68.4
17.44617513265564 64.4167
17.468735341390783 61.9233
17.491261035594565 61.0164
17.51396340099364 60.7055
17.536490463869136 60.9303
17.559018209820174 60.9157
17.58154663977963 61.153999999999996
17.604251766089718 61.3353
17.626781572227713 61.4584
17.64931206518155 61.7215
17.671843245885103 62.3939
17.69455114821572 62.4136
17.717083712612634 62.5498
17.739616967569667 62.84
17.762150914021706 63.2578
17.78486160749854 63.4005
17.807396945166804 64.3839
17.829932977143503 65.98100000000001
17.85246970436452 68.2942
17.875183204129467 70.561
17.897721330097664 73.0222
17.920260154126645 75.4112
17.942799677153296 78.8145
17.9655159983646 82.7533
17.988056927677544 87.5631
18.010598558807683 94.1657
18.033140892692916 102.14399999999999
18.05586005052525 110.055
18.07840379824407 119.685
18.10094825154059 130.215
18.12366954819864 140.203
18.146215420998306 144.16899999999998
18.16876200220057 138.115
18.191309292745153 124.779
18.214033452627167 111.04299999999999
18.236582170236648 98.1429
18.259131600016456 91.2875
18.281681742907335 89.4478
18.304408781233683 91.8229
18.32696035875955 95.1746
18.349512652227624 99.6191
18.372065662579683 104.059
18.394795594587553 106.37100000000001
18.41735004715306 105.225
18.43990521943684 99.2106
18.46246111238171 90.1501
18.485193953325208 80.3062
18.507751296070428 72.4315
18.530309362314178 67.8889
18.552868153000343 65.4648
18.57560391815056 64.1556
18.59816416623245 63.6092
18.620725141597372 63.0396
18.643286845190268 62.5551
18.666025549835414 62.1674
18.688588718427933 61.688
18.711152618092243 61.4266
18.73389353884365 61.0373
18.75645890921984 60.669
18.77902501351406 60.4689
18.801591852673102 60.3278
18.824335739722738 59.9708
18.846904057212626 59.817
18.8694731124168 59.5168
18.89204290628315 59.4622
18.914789774966803 59.277
18.937361054791623 59.0274
18.959933076131318 58.7934
18.982505839934877 58.653
19.00525570560582 58.7834
19.027829963004184 58.5916
19.05040496572238 58.708999999999996
19.072980714710468 58.9946
19.095733592739563 59.2589
19.11831084296757 59.6828
19.140888842324735 60.2595
19.16346759176222 60.4054
19.18622349753803 61.067
19.208803755869358 62.0682
19.231384767143577 63.0213
19.253966532312948 64.4042
19.276725481241822 66.0288
19.29930876296784 67.7579
19.3218928014549 70.2841
19.34465404436217 72.7591
19.36723960516257 75.2905
19.389825925592426 77.1452
19.412413006605938 77.1721
19.43517731967805 74.7752
19.457765930683355 70.3549
19.48035530514408 66.1379
19.50294544401556 62.0952
19.525712842708348 58.7337
19.54830451925909 56.967
19.570896963095727 55.9572
19.593490175174704 55.5154
19.616260674962184 55.4931
19.638855432416964 55.2992
19.661450960992624 55.3616
19.68404726164677 55.1302
19.706820878021247 55.0316
19.729418731756834 55.3492
19.752017360452857 54.9672
19.77461676506804 55.2937
19.797393513540218 55.4328
19.819994478951667 55.8836
19.84259622316767 56.5749
19.8651987471481 56.9859
19.887978643247177 57.2289
19.91058273574792 57.7101
19.933187610901943 58.5569
19.955969879466828 59.6694
19.97857632894404 61.0622
20.00118356396599 62.2035
20.023791585494575 64.0452
20.046577028914875 66.1681
20.069186632506966 67.9883
20.091797025500632 69.9914
20.114408208858933 71.3579
20.137196842715273 72.0888
20.159809615886765 71.0674
20.18242318232135 68.5359
20.20503754298326 66.3705
20.227829382875154 64.3934
20.250445341109344 63.7808
20.27306209647285 63.676
20.29567964993108 64.3481
20.31847471147704 65.6048
20.34109387027612 66.7011
20.363713830075454 66.7647
20.386334591841646 65.9753
20.409132890679302 63.5864
20.431755265564437 60.4405
20.454378445325528 57.6491
20.477002430930366 55.4394
20.499803982716553 53.8685
20.522429589228004 52.8978
20.54505600449589 52.4784
20.567683229489194 52.2779
20.590488049900088 51.8641
20.61311690359731 51.5264
20.63574656993626 51.537
20.658553853717297 51.3121
20.681185154618298 51.3207
20.703817271080066 50.945
20.72645020407368 50.5861
20.749260783967177 50.6962
20.771895359337133 50.4481
20.794530754161617 50.5513
20.817166969412938 50.4266
20.83998086114876 50.3743
20.86261872660049 50.2599
20.885257415405402 50.2594
20.90789692853701 50.1679
20.930714147864748 50.1913
20.953355319030678 50.2026
20.97599731745334 50.3637
20.99864014410749 50.1695
21.021460706796564 50.0877
21.044105199328826 50.2777
21.06675052302631 50.4987
21.089396678865015 50.843
21.112220600704806 51.1658
21.134868430275347 51.3188
21.15751709492456 51.4828
21.180166595629693 51.7236
21.202993892429635 52.1299
21.22564507473034 52.464
21.24829709602816 52.8089
21.27112693608965 52.8166
21.293780644891275 53.1341
21.316435195634053 52.5143
21.339090589297417 51.7419
21.361923832041875 51.4261
21.384580921090404 50.657
21.407238856007325 50.1353
21.429897637773326 50.1056
21.45273429906592 50.0448
21.475394784108598 50.0599
21.498056118951983 50.007
21.520718304578022 50.1502
21.543558400304388 50.2879
21.566222297108816 50.5436
21.58888704765135 50.8631
21.61155265291521 51.1764
21.63439619898156 51.5652
21.657063523335786 51.8689
21.67973170537063 52.4465
21.7024007460706 52.8791
21.72524775840385 53.828
21.747918526116475 54.7316
21.770590155457388 55.7579
21.79326264741238 57.0147
21.816113141960237 58.6693
21.838787368860547 60.1399
21.861462461341976 61.6332
21.884315579735777 63.657
21.90699241312273 65.1539
21.92967011506078 66.2665
21.95234868653799 66.5891
21.9752053151131 65.6885
21.997885635446785 63.8931
22.020566828293532 61.6868
22.04324889464272 59.4918
22.066109049404666 57.9911
22.088792872571794 57.236000000000004
22.111477572219204 57.4138
22.1341631493376 57.5235
22.157026846313123 57.4171
22.179714188221507 56.9559
22.202402410582668 55.9752
22.22509151438863 54.5861
22.24795876962584 53.028
22.270649646204486 52.0727
22.293341407213727 51.5396
22.316034053646906 50.9758
22.338904883215342 50.5761
22.36159931041458 50.5138
22.38429462602756 50.5119
22.40699083104897 50.3216
22.429865251039757 50.2132
22.452563244831367 50.2725
22.47526213102522 50.1534
22.49813925616515 50.2963
22.520839937143307 50.1994
22.543541513520587 50.2054
22.56624398629403 49.9942
22.589124730075895 50.0362
22.611829005656723 50.2262
22.63453418063466 50.4354
22.657240256008077 50.7544
22.680124634582935 50.6588
22.70283252079775 51.1477
22.725541310413075 51.4203
22.74825100442868 51.4389
22.771139033969575 52.1766
22.79385054687155 52.4562
22.81656296718292 52.8997
22.83927629590484 53.7039
22.862167992606945 54.5735
22.88488314827121 55.364
22.907599215359284 56.1248
22.93031619487366 57.0786
22.953211574954405 57.9399
22.975930389478226 59.0127
22.998650119445763 59.4941
23.02137076586092 58.9624
23.044269845560063 57.8477
23.06699233506288 56.4805
23.089715744034912 54.6847
23.112617610931565 53.0417
23.135342869061212 51.6253
23.158069049684816 50.8138
23.1807961538087 50.4163
23.20370174880544 50.5606
23.226430710184808 50.6675
23.249160598093425 50.7411
23.271891413539002 50.5287
23.294800752937697 50.4908
23.31753343374794 50.8835
23.340267045128353 50.9714
23.36300158808808 51.3298
23.38591468821339 51.6206
23.408651104658304 52.0313
23.431388455719986 52.5745
23.454126742409 53.3404
23.4770436196085 54.0186
23.499783787914662 54.9828
23.522524894889884 55.8135
23.54526694154616 56.7042
23.56818761219047 57.6658
23.59093154860734 58.466
23.613676427751283 59.13
23.636422250635754 58.6149
23.659346731118656 57.5217
23.68209445191868 55.7872
23.704843119509587 53.606
23.72759273490623 51.5766
23.750521041644767 49.8718
23.77327256312355 48.6111
23.796025035462787 47.9311
23.818956224555475 47.4942
23.841710609113413 47.2781
23.86446594758979 47.0557
23.887222241002014 46.8763
23.910157285144578 46.5385
23.932915498962537 46.5646
23.955674670778713 46.3814
23.978434801611975 46.1042
24.001373717286125 46.0111
24.024135776723917 45.8903
24.046898798245582 45.9618
24.06966278287146 45.8125
24.092605586582614 45.5641
24.115371508023642 45.4146
24.1381383956401 45.4078
24.16090625045381 45.3094
24.183852958731244 45.1644
24.206622758582608 45.177
24.229393528706886 45.016000000000005
24.252165270127392 44.9415
24.27511589952438 44.9014
24.297889594216997 44.7962
24.32066426328598 44.5458
24.34343990775613 44.5654
24.36639447485003 44.4302
24.38917208083877 44.428999999999995
24.41195066531332 44.3071
24.43490819850244 44.533
24.457688750692377 44.3229
24.48047028445616 44.3452
24.503252800821233 44.4518
24.526214300784112 44.4205
24.548998793132213 44.2015
24.57178427117417 44.3152
24.59457073593893 44.3075
24.617536219319863 44.2419
24.64032466834748 44.2782
24.663114107195035 44.2701
24.685904536893013 44.011
24.708874020360852 43.8021
24.731666442613744 43.6524
24.754459858818787 43.6492
24.777254270007962 43.6098
24.80022777025625 43.6601
24.82302418230472 43.6095
24.845821592443674 43.5262
24.86862000170663 43.6113
24.891597535453727 43.4325
24.914397953892728 43.7095
24.93719937456671 43.5829
24.96000179851076 43.6639
24.98298338249997 43.9748
25.00578782394922 44.1949
25.028593271784167 44.2612
25.05157790644186 44.5461
25.07438537804115 44.5954
25.097193859145293 44.7789
25.120003350792075 45.0796
25.142992065061257 45.5028
25.165803588823465 45.6047
25.18861612625217 45.8736
25.211429678386736 45.9095
25.234422489079968 46.0243
25.257238081693636 46.0553
25.280054692141732 46.1095
25.3028723214652 45.7679
25.325869245420463 45.8969
25.348688923599397 46.1372
25.371509623787006 46.1547
25.394331347025812 46.0046
25.41733240110666 45.6383
25.440156181590016 44.9907
25.46298098826268 44.3141
25.48580682216873 43.8414
25.50881202326435 43.2292
25.53163992281684 42.8155
25.55446885274561 42.2822
25.577298814096377 42.1017
25.600308179121807 42.1236
25.623140214533745 42.0976
25.64597328451537 41.9851
25.66898578564376 41.7509
25.691820936010206 41.8279
25.714657124097695 41.7582
25.737494350954734 41.8361
25.760511045684957 41.7905
25.783350361364224 41.7758
25.806190718969255 41.8055
25.82903211955018 42.0409
25.852053024868923 41.8056
25.874896522722523 41.8639
25.897741066713106 41.8914
25.920586657892454 42.0731
25.943611790812668 42.1036
25.966459487728237 42.1367
25.989308234998564 42.1548
26.01215803367705 42.3688
26.03518741123814 42.5868
26.05803932412957 42.6391
26.080892291600094 42.623000000000005
26.10374631470478 42.69
26.12677995397268 42.7584
26.14963609978026 42.8556
26.172493304397875 42.5831
26.19535156888223 42.452
26.218389486949604 42.1722
26.241249882640123 41.8962
26.26411134137826 41.5331
26.28715248187403 41.4979
26.31001607820869 41.4155
26.3328807407756 41.2656
26.35574647063438 41.2614
26.37879191991473 41.4163
26.401659795896734 41.3442
26.424528742360263 41.5695
26.447398760366614 41.6719
26.470448535598294 41.8466
26.49332070826805 42.0392
26.516193955675355 42.3134
26.53906827888316 42.3924
26.562122397260108 42.5648
26.584998883685063 42.6542
26.607876449110325 42.9159
26.63075509460056 43.0789
26.65381357334404 43.3575
26.67669439061878 43.358000000000004
26.699576291163382 43.3917
26.722459276044212 43.1356
26.745522132402975 42.8841
26.768407297649354 42.635
26.791293550442003 42.2531
26.814180891848974 42.0187
26.837248143099337 41.6608
26.860137673466657 41.6928
26.88302829566349 41.2694
26.90592001075963 41.2411
26.92899167420566 41.1086
26.951885586870763 40.6447
26.974780595655517 40.4054
26.99785558178161 40.394
27.020752794605112 40.2763
27.043651106772522 40.0789
27.06655051935668 40.0824
27.089629948036183 39.8291
27.112531573292053 39.8005
27.135434302194138 39.7957
27.158338135817015 39.705999999999996
27.181422024430987 39.7458
27.204328079372566 39.5869
27.22723524226965 39.6068
27.250143514198573 39.7168
27.273231880156334 39.7464
27.296142382065014 39.5901
27.319053996245536 39.4489
27.341966723775965 39.5781
27.365059584515222 39.678000000000004
27.38797455070062 39.5938
27.410890633481237 39.5365
27.433807833936918 39.481
27.456905206923906 39.66
27.47982465472398 39.6655
27.502745223449743 39.5861
27.525666914182825 39.8197
27.548768816912457 39.7164
27.571692763693633 39.6144
27.59461783573812 39.6126
27.617723149491244 39.5239
27.640650484125285 39.2889
27.66357894728264 39.1937
27.686508540048052 39.1878
27.709618414237887 39.1314
27.732550278321757 39.0186
27.755483275279115 38.9404
27.778417406196485 39.0254
27.801531858397514 38.9402
27.824468269376716 39.0317
27.847405817586786 39.0963
27.870344504116094 39.1907
27.893463551932008 39.1611
27.916404527281053 39.2995
27.93934664422563 39.4357
27.962289903855886 39.628
27.98541356491974 39.7437
28.00835912214229 39.8192
28.03130582533231 40.1077
28.054253675581805 40.1737
28.077381967556104 40.0798
28.100332124185126 40.1484
28.123283431160893 40.0674
28.146235889577238 39.9832
28.169368830154156 39.8077
28.192323603752033 39.5918
28.215279532083304 39.2471
28.238415973016764 39.0402
28.261374223145094 38.992
28.284333631303806 38.7326
28.307294198589954 38.6262
28.330435319167677 38.4136
28.353398217078915 38.0323
28.376362277420153 37.8158
28.39932750129032 37.7407
28.422473319286713 37.5631
28.44544088262495 37.4935
28.468409612800283 37.3625
28.491379510913497 36.9946
28.51453004413313 36.9073
28.53750229057244 36.9491
28.56047570826344 36.9484
28.583450298308804 36.9836
28.606605564586562 36.7791
28.629582511831156 36.9103
28.65256063474956 36.6621
28.675539934446338 36.6496
28.698699951647605 36.6119
28.72168161743193 36.539
28.74466446331978 36.5295
28.767648490417624 36.3394
28.790813276438353 36.4219
28.813799678527303 36.4488
28.836787265157085 36.4008
28.859955641890075 36.4424
28.882945610203045 36.4266
28.905936766392035 36.3557
28.928929111566863 36.3131
28.952102288520145 36.2757
28.975097024308607 36.2035
28.998092952423807 36.1341
29.021090073977508 36.0702
29.04426806913204 35.9175
29.067267590245258 35.7676
29.090268308143695 35.6829
29.11327022394099 35.583
29.13645305530891 35.5832
29.159457379627167 35.4698
29.18246290519685 35.2707
29.20546963313352 35.3681
29.22865731875826 35.3709
29.25166646419296 35.2441
29.27467681535305 35.1086
29.29768837335608 35.2614
29.320880931312562 35.3433
29.34389491580634 35.229
29.366910110507334 35.2337
29.38992651653503 35.2336
29.41312396492981 35.312
29.436142806456754 35.1141
29.45916286268059 34.9849
29.48236399319994 34.8813
29.50538649169417 34.8402
29.528410208259935 34.8231
29.55143514402014 34.4274
29.574641196749695 34.2674
29.597668583816574 34.3095
29.6206971934585 34.0953
29.64372702680042 34.1601
29.666938019934474 34.0278
29.689970313635285 34.0207
29.713003834422636 33.9455
29.73603858342347 33.924
29.759254535188578 33.7547
29.78229175361658 33.772
29.80533020365064 33.881
29.82836988641968 33.8727
29.85159081507472 33.7811
29.874632976355343 33.5875
29.89767637376955 33.7231
29.920721008448314 33.562
29.9439469322847 33.615
29.96699405457564 33.5478
29.9900424175358 33.4194
30.013092022298157 33.4104
30.03632295963995 33.3638
30.059375061131373 33.5047
30.08242840783577 33.4128
30.105483000888153 33.5086
30.128718970092244 33.4318
30.151776069006917 33.3874
30.17483441768648 33.4042
30.198074175317235 33.2496
30.221135036724256 33.338
30.24419715131772 33.3138
30.267260520236203 33.2293
30.290505341942243 33.3056
30.313571232750228 33.3354
30.336638381310948 33.291
30.35970678876503 33.2773
30.38295669299435 33.2678
30.40602763151657 33.2132
30.429099832366074 33.1184
30.452173296685572 33.0136
30.47542830191959 33.0884
30.498504306502497 33.0999
30.521581577995562 33.0306
30.544660117543582 33.0344
30.56792024229725 33.1894
30.59100133132069 33.094
30.614083691845494 33.1035
30.637167325018545 33.0729
30.660432587840603 33.0994
30.683518779717886 33.1307
30.70660624769615 33.1117
30.729694992924372 33.2479
30.75296541239743 33.1814
30.77605672557558 33.1241
30.799149319462742 33.0697
30.8224236211637 32.9438
30.845518789950724 32.8196
30.868615242910597 32.82
30.891712981195973 32.6241
30.91499247215866 32.4904
30.938092794619365 32.5073
30.96119440587579 32.4196
30.984297307082752 32.3447
31.00758200598383 32.1953
31.030687500658694 32.1825
31.053794288760695 32.1015
31.076902371446767 31.9593
31.100192296997445 32.034
31.12330298246119 31.9312
31.14641496599209 31.8895
31.169528248749216 31.8956
31.19282341969534 31.8169
31.215939314557186 31.9038
31.239056512134788 31.8992
31.262175013589378 31.8926
31.28547544871168 31.7608
31.30859657161541 31.7173
31.331719001892175 31.8235
31.35484274070538 31.8095
31.378148458819545 31.8091
31.401274828443725 31.6598
31.424402510106933 31.7711
31.447712205419993 31.9008
31.470842524931633 31.7258
31.493974159989783 31.6903
31.51710711176168 31.7302
31.54042212308802 31.6463
31.563557722100917 31.763
31.586694641341655 31.5036
31.609832881979628 31.4719
31.63315322823208 31.3798
31.656294125521327 31.3793
31.679436347728515 31.2454
31.70257989602529 31.1497
31.725905596152327 31.2014
31.74905181052835 31.0795
31.772199354521323 30.9582
31.79534822930507 30.9825
31.818679302290967 31.0249
31.84183085259981 31.0635
31.864983737233473 30.9162
31.88813795736804 30.9599
31.911474422233013 30.8481
31.934631327356435 31.0016
31.9577895715215 31.0118
31.980949155906522 30.9066
32.004291031706956 30.9459
32.027453310562606 30.7535
32.05061693318573 30.6347
32.07396288236386 30.7966
32.09712920658542 30.7274
32.12029687812702 30.5062
32.14346589817093 30.339000000000002
32.166817291729984 30.3576
32.18998902288583 30.3539
32.21316210610336 30.2345
32.23633654256711 30.1974
32.259693399663725 30.0614
32.282870556771144 30.0867
32.30604907069099 30.0567
32.329228942610065 29.9318
32.35259128243769 29.8475
32.375773884550505 29.8462
32.398957848235646 29.7442
32.422143174682176 29.7228
32.445511016471215 29.6679
32.468699082679954 29.7411
32.49188851523011 29.5327
32.51507931531304 29.4318
32.538452678331 29.4727
32.56164622776311 29.4572
32.58484114831493 29.3495
32.60803744118015 29.3904
32.631416344731896 29.3431
32.654615396551876 29.2924
32.67781582427913 29.3054
32.701198898634416 29.1302
32.72440209253756 29.1495
32.747606665947124 29.1084
32.77081262006088 28.9456
32.79420126883317 28.9646
32.81740999876112 28.9727
32.840620112999424 28.8406
32.86383161274818 28.8787
32.88722585534586 28.8383
32.91044014056596 28.8636
32.933655814909734 28.8884
32.95687287957963 28.8407
32.98027273544904 28.7569
33.00349259526636 28.6795
33.026713849030116 28.6734
33.04993649794511 28.6313
33.073341986570746 28.6092
33.09656744032826 28.5786
33.11979429286444 28.5484
33.14302254538647 28.6018
33.166433686291185 28.543000000000003
33.18966475336992 28.4354
33.212897224069096 28.3786
33.23613109959831 28.3952
33.259547912343415 28.3004
33.2827846121627 28.3372
33.306022720453775 28.2514
33.32926223842861 28.1528
33.352684742614166 28.1693
33.37592709463173 28.1462
33.399170859982064 28.1521
33.422597648419426 28.0836
33.44584425514446 27.8852
33.46909227885668 27.9439
33.4923417207723 27.7438
33.51577423505344 27.7903
33.539026528130385 27.7267
33.56228024307245 27.7355
33.585535381098246 27.5595
33.60897364093058 27.53
33.63223163992385 27.5728
33.6554910656699 27.4173
33.678751919389796 27.393
33.702195944520106 27.419
33.72545966903325 27.3672
33.74872482519663 27.2549
33.771991414233746 27.2725
33.79544122444841 27.2251
33.81871069412428 27.1178
33.84198160035767 27.0464
33.86525394437455 27.1075
33.88870955949969 27.0285
33.911984794020626 27.0486
33.93526147001624 26.9893
33.958539588715006 26.9383
33.98200102861669 26.9491
34.0052820477047 26.829
34.02856451319451 26.7874
34.05203033759056 26.7448
34.07531571090147 26.7508
34.09860253431845 26.7381
34.121890809074316 26.6494
34.145362493118924 26.6446
34.16865368561615 26.6605
34.191946333164054 26.4788
34.21524043699793 26.445
34.23871800066799 26.4901
34.26201503218366 26.351999999999997
34.28531352370466 26.2685
34.30861347646881 26.2126
34.33209693978188 26.2448
34.3553998301885 26.2922
34.378704185565205 26.1728
34.402010007152356 26.1588
34.42549939016683 26.1284
34.44880815937748 26.051
34.472118398533134 25.9619
34.49543010887669 25.9536
34.51892543169198 25.8613
34.54224009966052 25.8958
34.56555624255917 25.9613
34.58887386163339 25.8294
34.61237514439016 25.746
34.6356957311114 25.6631
34.65901779775809 25.6265
34.68252356662995 25.5918
34.705848608458616 25.5796
34.72917513396849 25.4973
34.75250314440949 25.5108
34.77601490857862 25.3957
34.799345904259795 25.406
34.82267838863559 25.4628
34.846012362958525 25.4482
34.869530142679984 25.2843
34.89286711232212 25.3557
34.91620557568269 25.3033
34.93954553401677 25.2461
34.9630693495876 25.178
34.986412313340814 25.1859
35.00975677584668 25.2177
35.033102738362956 25.1884
35.05663261012228 25.0523
35.0799815881786 25.1
35.10333207003229 24.9702
35.12668405694369 24.9783
35.150220005273056 24.9969
35.17357501786656 24.9884
35.19693153931268 24.9022
35.220289570874385 24.8467
35.24383161619786 24.8581
35.267192683604904 24.8208
35.290555264930376 24.7603
35.314101899412165 24.7253
35.33746752422433 24.6634
35.36083466676374 24.7375
35.38420332829803 24.7437
35.407756095629054 24.7062
35.43112781085063 24.6517
35.45450104888391 24.675
35.477875810999194 24.5982
35.50143473172161 24.546
35.52481255774625 24.5152
35.54819191167777 24.4348
35.57157279478914 24.5171
35.595137889488406 24.4083
35.61852184675279 24.4101
35.641907337029984 24.4228
35.665294361595684 24.2969
35.68886565090076 24.2216
35.7122557598848 24.1864
35.73564740699838 24.2149
35.759040593519934 24.1292
35.78261809810353 24.1285
35.80601437933051 23.9824
35.829412203814705 23.9258
35.85281157283719 23.8625
35.876395313415884 23.8895
35.8997977874528 23.8416
35.92320180988546 23.7904
35.946790244133936 23.7766
35.97019737933222 23.8395
35.993606066789866 23.7907
36.01701630779276 23.7957
36.04061101440684 23.7218
36.06402437852291 23.6992
36.08743930005611 23.6716
36.1108557802951 23.516
36.13445678011326 23.5707
36.15787639383515 23.4361
36.18129757014299 23.441999999999997
36.20472031032821 23.4904
36.22832762423364 23.4067
36.25175350829375 23.3445
36.275180960119776 23.2821
36.298609981005924 23.3239
36.32222362992669 23.316999999999997
36.34565580510207 23.2716
36.36908955323448 23.1415
36.39252487562093 23.0572
36.416144880530226 23.0737
36.43958336764275 23.1183
36.463023432914625 23.0753
36.486465077645676 22.9775
36.51009145956204 23.0421
36.53353627947859 23.0713
36.55698268276811 22.9419
36.58043067073321 22.8955
36.60406345072071 22.8224
36.62751462435344 22.8307
36.65096738658405 22.8069
36.67460498210655 22.8169
36.69806093788647 22.7414
36.72151848619297 22.6568
36.744977628333636 22.7262
36.76862165890998 22.5996
36.79208400512205 22.6028
36.81554794910557 22.5746
36.83901349217101 22.4863
36.862663978991606 22.4321
36.88613273667352 22.4402
36.90960309738324 22.4953
36.933075062434064 22.384
36.95673202673572 22.3412
36.98020721697122 22.2899
37.003684015502365 22.259
37.027162423645365 22.1651
37.050825886711465 22.1563
37.07430753063053 22.0776
37.09779078812467 22.0927
37.121275660513014 22.0365
37.144945643673694 22.0367
37.16843376245278 21.9937
37.19192350009803 22.0197
37.215414857931435 21.9608
37.239091382563885 21.941
37.262585997426164 21.9133
37.28608223645736 21.9186
37.309763684451696 21.7909
37.33326318851098 21.7751
37.356764320726555 21.7608
37.380267082425526 21.7872
37.40395510942588 21.7239
37.42746114683234 21.6981
37.45096881771841 21.5757
37.474478123414166 21.5889
37.49817275092816 21.478
37.52168534303452 21.5108
37.54519957395567 21.3811
37.568715445024665 21.4379
37.592416694607714 21.319000000000003
37.61593586281424 21.3643
37.63945667518264 21.4025
37.66297913304891 21.2996
37.68668702630454 21.2759
37.710212792059274 21.248
37.733740207334854 21.1889
37.757269273470364 21.1303
37.780983832050374 21.1013
37.80451621684926 21.1366
37.82805025654007 21.0859
37.851585952464795 21.0346
37.8753071980695 20.9792
37.89884622345676 20.9952
37.92238690911902 20.9262
37.94611318753442 20.8455
37.969657210779765 20.8445
37.99320289834801 20.8834
38.016750251586465 20.8378
38.04048325513017 20.7791
38.06403395679343 20.7432
38.087586328183946 20.6557
38.11114037065203 20.6466
38.13488012115898 20.6462
38.1584375229181 20.6142
38.181996599821 20.6227
38.205557353221124 20.535999999999998
38.229303872575656 20.4082
38.2528679961576 20.4368
38.27643380031219 20.5439
38.30000128639589 20.4718
38.32375459653193 20.4348
38.34732546371299 20.3644
38.37089801690786 20.2844
38.39447225747609 20.1982
38.418232380377425 20.2208
38.441810012983396 20.1764
38.46538933705673 20.2118
38.488970353960084 20.1942
38.51273731166058 20.1385
38.536321731567014 20.102
38.55990784840681 20.0594
38.58367995004091 20.0178
38.60726947812959 19.9525
38.63086070726198 19.9988
38.654453638806274 20.0058
38.678232613930824 19.8813
38.70182896773327 19.8343
38.72542702806741 19.8116
38.7490267963045 19.8233
38.77281266709232 19.7703
38.79641586862214 19.7489
38.8200207821842 19.6779
38.843627409152944 19.7025
38.86742019782782 19.6493
38.891030269149255 19.6234
38.914642058016156 19.6357
38.938255565806124 19.6179
38.96205529464307 19.4721
38.98567225787121 19.4868
39.00929094417078 19.4497
39.03291135492255 19.4671
39.05671804624804 19.4247
39.080341923549106 19.3594
39.103967529460334 19.337
39.127594865365744 19.2533
39.15140854155791 19.2428
39.17503935514948 19.2849
39.19867190290282 19.2237
39.22249083587951 19.1967
39.24612686969409 19.1772
39.269764641845306 19.0963
39.293404153722804 19.0713
39.317230110864074 18.971
39.34087311998506 18.996
39.36451787301696 18.9759
39.388164371352595 18.9404
39.41199737518003 18.9046
39.43564738196752 18.9322
39.45929913825317 18.9008
39.48295264543308 18.8838
39.506792718520884 18.8723
39.530449745387216 18.8454
39.55410852735203 18.8024
39.57776906581474 18.7465
39.60161623079 18.7438
39.625280300200025 18.7056
39.64894613032202 18.5522
39.67261372255866 18.5946
39.6964680021016 18.5746
39.72013913657293 18.6018
39.74381203738292 18.5514
39.76748670593756 18.5073
39.79134812278169 18.4693
39.81502634488497 18.4903
39.83870633896685 18.4266
39.862388106436654 18.387999999999998
39.88625668336918 18.3502
39.90994201572829 18.3067
39.933629125719285 18.2578
39.957503091207826 18.2438
39.9811937746168 18.269000000000002
40.00488623990914 18.2234
40.02858048850006 18.1771
40.05246165409549 18.1379
40.076159487492085 18.1316
40.099859108448875 18.1212
40.123560518384345 18.0519
40.1474489070226 18.035
40.171153913178564 17.9571
40.194860712584955 17.9685
40.2185693066637 17.965
40.242464941335314 17.9377
40.26617714307655 17.8793
40.289891143772046 17.8883
40.3136069448471 17.8469
40.33750984859743 17.7802
40.3612292688043 17.7645
40.3849504936829 17.7496
40.40867352466194 17.7277
40.43258372059144 17.742
40.45631038219906 17.7006
40.48003885420956 17.6418
40.503769138055105 17.5613
40.52768664931955 17.5697
40.55142057531802 17.5758
40.57515631746428 17.5246
40.599079334038514 17.4531
40.62281872700477 17.4512
40.64655994043941 17.4249
40.67030297578061 17.4643
40.69423334835778 17.3981
40.71798004609188 17.38
40.74172857006355 17.2855
40.76547892171441 17.3729
40.7894166736039 17.2976
40.813170699248566 17.2368
40.83692655691388 17.207
40.86068424804498 17.2114
40.884629402612525 17.21
40.908390779366385 17.1743
40.932153993938 17.176
40.95591904777605 17.127
40.979871628443995 17.0586
41.003640379561936 17.0549
41.02741097430883 17.0327
41.05118341413683 17.0478
41.075143444384416 17.0111
41.098919593177826 16.9469
41.1226975914255 16.9292
41.14647744058318 16.8176
41.170444943946755 16.8464
41.19422851378379 16.8258
41.218013938914645 16.7753
41.24198706625173 16.6713
41.26577622087193 16.713
41.289567235177785 16.7162
41.31336011063129 16.7239
41.337340752422875 16.6285
41.361137369129835 16.6221
41.38493585138705 16.552
41.40873620066004 16.5191
41.43272438060107 16.5513
41.45652848292052 16.4646
41.48033445666918 16.4503
41.50414230331616 16.4095
41.528138045159764 16.3806
41.551949656675205 16.3388
41.575763145513235 16.3902
41.59957851314666 16.3935
41.62358184070442 16.2906
41.64740098505737 16.2654
41.6712220126409 16.2745
41.69504492493139 16.252
41.71905586207357 16.178
41.74288256296395 16.1191
41.766711153007456 16.1351
41.79054163368412 16.0835
41.814560204340054 16.11
41.838394485526365 16.0644
41.86223066180303 15.9993
41.88625497706819 16.0083
41.910094962812 15.9663
41.93393684811168 15.9676
41.95778063445365 15.8784
41.981812625263366 15.8732
42.00566023303407 15.8479
42.029509746323676 15.8326
42.05336116662236 15.8384
42.077400857069705 15.8099
42.10125611078846 15.7328
42.12511327600405 15.7537
42.14897235421036 15.7232
42.173019768448455 15.6904
42.19688269209613 15.6727
42.22074753323349 15.6503
42.24461429335818 15.5863
42.268669455600495 15.64
42.292540073217886 15.5543
42.31641261433284 15.523
42.34028708044675 15.507
42.36435001496739 15.4397
42.38822835065557 15.4168
42.41210861586426 15.4051
42.4359908120986 15.3531
42.46006154323262 15.3913
42.48394762115317 15.3128
42.507835634632315 15.3577
42.531912233047436 15.3301
42.55580413732265 15.2173
42.579697981698 15.2261
42.60359376768525 15.1759
42.62767820545945 15.1843
42.65157789440821 15.2064
42.67547952952185 15.1387
42.699383112316 15.1073
42.72347541395347 15.0498
42.74738291190531 15.0059
42.771292362102166 15.0133
42.795203766063516 14.9914
42.819303956130405 14.9796
42.843219287476536 14.952
42.86713657716324 14.9323
42.89105582671383 14.8718
42.91516392983864 14.8986
42.939087119032166 14.8919
42.963012272677304 14.8241
42.98693939230129 14.7985
43.01105543317513 14.732000000000001
43.034986504731386 14.7834
43.05891954686589 14.7183
43.08285456110972 14.7191
43.10697856448665 14.647
43.130917542983475 14.602
43.15485849820081 14.6308
43.17880143167367 14.5534
43.20293342237094 14.5659
43.226880332449 14.5495
43.25082922540554 14.5345
43.27496722682525 14.4988
43.29892010567796 14.4583
43.32287497204102 14.4717
43.34683182745632 14.3949
43.370977859791836 14.372
43.39493871351105 14.3859
43.41890156092628 14.3347
43.44286640358341 14.3364
43.46702049182749 14.3258
43.49098934522816 14.2493
43.51496019852649 14.2452
43.5389330532723 14.2245
43.56309522248204 14.1913
43.58707210044314 14.2203
43.61105098451946 14.1458
43.63503187626491 14.1319
43.659202151562134 14.1123
43.68318707902681 14.0833
43.70717401884041 14.0488
43.731162972560874 13.9873
43.75534137913236 13.9957
43.779334381108384 14.01
43.803329401683186 13.9895
43.82732644241872 13.929
43.8515130055166 13.9347
43.87551410707659 13.9165
43.89951723350145 13.8661
43.923709934595614 13.8296
43.94771713129917 13.8526
43.97172635758096 13.832
43.99573761501002 13.7617
44.0199385169922 13.7542
44.04395385732619 13.6942
44.067971233533086 13.6284
44.09199064718605 13.6504
44.11619977548961 13.6883
44.14022328470671 13.5954
44.16424883610785 13.6578
44.18827643127035 13.6134
44.21249381139513 13.5735
44.236525514814076 13.5352
44.26055926674478 13.4886
44.28459506876863 13.4638
44.3088207262813 13.4491
44.33286064928722 13.4316
44.35690262714919 13.386
44.38094666145278 13.3484
44.4051806219871 13.3185
44.42922879003185 13.3542
44.45327901929361 13.3401
44.477331311362136 13.2832
44.501573600619416 13.2304
44.525630039221795 13.1988
44.54968854541895 13.220999999999998
44.573937102200176 13.2026
44.5979997645541 13.1915
44.622064499300315 13.1922
44.64613130803592 13.1293
44.67038823869318 13.0997
44.69445921643748 13.0744
44.718532272981385 13.0591
44.742607409926194 13.0475
44.76687274034801 13.0171
44.79095205918753 12.9945
44.81503346325094 12.9713
44.839116954143876 12.9831
44.86339071028742 12.9394
44.88747839599524 12.9347
44.91156817336837 12.8724
44.93566004401666 12.8196
44.959942251908146 12.8307
44.984038330325966 12.8362
45.00813650686762 12.7286
45.03223678314731 12.7709
45.05652746888232 12.7309
45.08063196592069 12.7276
45.104738567558705 12.6704
45.128847275414856 12.692
45.15314646515866 12.6073
45.17725940679741 12.614
45.20137445952892 12.6247
45.22568004865265 12.582
45.24979934496396 12.5377
45.27392075725247 12.5531
45.29804428714431 12.5338
45.322358426247604 12.5021
45.346486212804315 12.472999999999999
45.370616121861914 12.4679
45.39474815505086 12.4537
45.41907087049246 12.4207
45.4432071734666 12.3566
45.46734560548283 12.3452
45.49148616817604 12.3615
45.51581748638564 12.3488
45.5399623320197 12.3412
45.56410931325473 12.2663
45.58825843173002 12.2966
45.61259837920865 12.2628
45.636751793816 12.2026
45.66090735060093 12.1687
45.68506505120716 12.1416
45.7094136545275 12.0965
45.73357566449271 12.0804
45.75773982322992 12.1004
45.78190613238733 12.1166
45.806263418194064 12.038
45.83043404997326 12.0712
45.85460683713677 12.038
45.87897065658495 12.017000000000001
45.90314777634752 11.9626
45.92732705646868 11.9629
45.9515084986045 11.8942
45.97588104735473 11.8773
46.00006683541565 11.8707
46.02425479047904 11.8498
46.04844491420549 11.8694
46.0728262191024 11.8226
46.09702070211635 11.8416
46.12121735879483 11.814
46.14541619080294 11.7497
46.169806278764455 11.7735
46.194009483459034 11.7122
46.21821486849841 11.7014
46.24242243555223 11.675
46.266821333570014 11.6565
46.29103328674601 11.6547
46.31524742696538 11.6274
46.33946375590237 11.6228
46.36387149104216 11.6348
46.38809221957392 11.5519
46.41231514186606 11.5477
46.436540259597464 11.5161
46.460956858999374 11.4534
46.48518638983522 11.4438
46.509418121166966 11.3996
46.533652054678114 11.4314
46.55807754555709 11.4291
46.58231590571962 11.3986
46.60655647313217 11.3771
46.630988654873654 11.3224
46.655233659129024 11.3022
46.67948087571551 11.3013
46.70373030632484 11.2941
46.72817142736393 11.267999999999999
46.752425308428684 11.2277
46.77668140861147 11.2283
46.80093972960865 11.2036
46.82538981736788 11.1977
46.849652602470904 11.1528
46.87391761349769 11.1406
46.8981848521493 11.1465
46.9226439341274 11.0862
46.946915650573224 11.0772
46.97118959976749 11.0429
46.99546578341598 11.0605
47.019933887188216 11.0131
47.04421456235744 10.9822
47.06849747711879 10.9471
47.09278263318286 10.9111
47.11725978640143 10.9174
47.14154944775105 10.8981
47.165841355555656 10.8994
47.1901355115306 10.8424
47.214621741924994 10.8382
47.23892041698887 10.8175
47.26322134538975 10.7868
47.28771440635075 10.7816
47.31201986422527 10.7881
47.33632758061436 10.7272
47.360637557241866 10.7135
47.38513974410611 10.6831
47.40945426407847 10.6554
47.43377104948137 10.6831
47.45809010204344 10.674000000000001
47.48260144275502 10.6486
47.506925052572285 10.5678
47.53125093475548 10.5834
47.55557909103813 10.5483
47.58009961361992 10.5469
47.60443234110732 10.5182
47.62876734791564 10.4921
47.65310463578333 10.481
47.6776343683373 10.4857
47.7019762413987 10.4292
47.72632040075572 10.4306
47.75066684815169 10.3959
47.77520581885936 10.3692
47.799556865477655 10.3623
47.823910205386 10.3713
47.84826584033272 10.3299
47.87281407745551 10.2924
47.89717432569297 10.3144
47.92153687423484 10.2758
47.94609208429692 10.2554
47.97045925671401 10.2405
47.99482873471275 10.2433
48.01920052005013 10.2315
48.04376504619224 10.1706
48.068141469543484 10.1864
48.09252020552573 10.1912
48.11690125590099 10.1503
48.1414751266064 10.1092
48.16586082917454 10.0769
48.19024885144316 10.0469
48.2146391951793 10.066
48.239222439012764 10.0623
48.26361744916137 10.0203
48.28801478610016 10.0057
48.31241445160131 9.990730000000001
48.337007097209366 9.962010000000001
48.36141144338331 9.92009
48.38581812345755 9.94855
48.41022713920929 9.97695
48.434829215320704 9.88307
48.45924292604658 9.884160000000001
48.48365897780325 9.83804
48.50807737237308 9.8388
48.532688907799276 9.81811
48.55711201168574 9.80382
48.581537463754074 9.84667
48.60615611725119 9.79503
48.63058628942721 9.7701
48.65501881516546 9.75007
48.6794536962573 9.735710000000001
48.70408185970339 9.732560000000001
48.72852147531801 9.65864
48.75296345168211 9.62014
48.77740779059232 9.6401
48.80204549302823 9.66543
48.82649458091802 9.61326
48.85094603676547 9.57426
48.87539986237231 9.54921
48.90004713292306 9.538310000000001
48.92450572200832 9.57816
48.94896668628025 9.56149
48.97343002754588 9.54008
48.99808689542115 9.48671
49.02255501470614 9.49666
49.04702551642794 9.483410000000001
49.0714984023988 9.47242
49.096164896893235 9.46133
49.120642575466796 9.41075
49.145122643748394 9.37237
49.16960510355558 9.3524
49.19428125404938 9.35098
49.2187685210852 9.35586
49.243258185121555 9.27968
49.26794160167084 9.28096
49.2924360839405 9.28682
49.31693296869764 9.299539999999999
49.34143225776915 9.23547
49.36612538195438 9.19858
49.39062950396021 9.214039999999999
49.41513603578346 9.18725
49.4396449792564 9.13209
49.46434784069503 9.16714
49.488861631846454 9.13435
49.513377840166804 9.109169999999999
49.537896467493745 9.0915
49.56260909589029 9.06527
49.587132585683285 9.05145
49.611658500018365 9.069410000000001
49.636186840738596 9.0132
49.66090926588511 9.033760000000001
49.685442483902584 9.00677
49.70997813385706 8.95052
49.734516217597076 8.93022
49.75924846937352 8.94083
49.7837914452858 8.91757
49.80833686055187 8.87882
49.83288471702571 8.89532
49.85762682540054 8.89582
49.882179588965734 8.87168
49.9067347993235 8.86163
49.93129245833333 8.85569
49.95604445336378 8.79992
49.98060703442832 8.80273
50.005172069746266 8.79401
50.02993150438364 8.736839999999999
50.05450147301533 8.763639999999999
50.07907390151433 8.762030000000001
50.10364879174981 8.71295
50.12841816587289 8.65053
50.1529980044635 8.62898
50.17758031042124 8.62608
50.20216508562089 8.67285
50.22694442953363 8.62648
50.25153416817468 8.59736
50.27612638170508 8.5773
50.300721072005196 8.56473
50.325510416102105 8.56006
50.350110084975064 8.560260000000001
50.37471223628208 8.552389999999999
50.39931687190919 8.47869
50.424116246675766 8.47805
50.44872587605249 8.457469999999999
50.47333799543065 8.452119999999999
50.49795260670191 8.44235
50.52276204271512 8.41622
50.54738166295838 8.42268
50.57200378079314 8.39148
50.596628398116835 8.396360000000001
50.62144792604559 8.37014
50.646077567609396 8.37262
50.670709714377715 8.35731
50.69553683636198 8.31316
50.72017401885922 8.2989
50.7448137122895 8.26338
50.76945591856022 8.26948
50.79429318636823 8.230030000000001
50.818940443716784 8.25362
50.84359021965163 8.23306
50.868242516085964 8.160689999999999
50.893089960641895 8.17499
50.917747323549435 8.1722
50.94240721271973 8.16134
50.96706963007175 8.10973
50.99192728239342 8.09304
51.01659478166073 8.09876
51.04126481489051 8.11175
51.06593738400761 8.08047
51.090805275207074 8.04733
51.11548294172845 8.035839999999999
51.14016314993547 8.034089999999999
51.164845901758845 8.0012
51.18972406304274 7.96139
51.21441192780656 7.94659
51.23910234200271 7.9577800000000005
51.2637953075678 7.894760000000001
51.288683770237945 7.9007
51.31338186432707 7.88934
51.33808251561888 7.85239
51.362978729967345 7.85849
51.387684521509755 7.8688899999999995
51.41239287610203 7.8555600000000005
51.437103795691165 7.8255300000000005
51.46201036644977 7.813389999999999
51.486726441956634 7.82313
51.51144508832545 7.80355
51.536166307509156 7.7755600000000005
51.56108326624387 7.70887
51.58580965706056 7.7417300000000004
51.61053862657523 7.722739999999999
51.635270176746864 7.6898100000000005
51.66019755512065 7.70281
51.68493429268881 7.6787
51.70967361681515 7.669460000000001
51.73441552946465 7.61291
51.759353359237934 7.61251
51.7841004750961 7.623589999999999
51.80885018539685 7.59881
51.833602492111254 7.548210000000001
51.8585508051424 7.5717
51.883308330926425 7.55317
51.90806845906181 7.52308
51.932831191525715 7.47952
51.95779001977161 7.49863
51.98255798721516 7.483289999999999
52.00732856494335 7.449380000000001
52.03229530577543 7.4136
52.057071130455945 7.43686
52.081849571391054 7.37471
52.106630630568695 7.391660000000001
52.13160794279417 7.35301
52.15639426492067 7.3844199999999995
52.18118321127822 7.33512
52.205974783860896 7.32055
52.23096269971011 7.33913
52.255759551287994 7.3082
52.280559035098186 7.26311
52.30536115314103 7.27101
52.33035970494467 7.274830000000001
52.35516711807904 7.241169999999999
52.37997717147198 7.22773
52.40478986713005 7.201410000000001
52.42979908731974 7.19349
52.454617094216 7.21784
52.47943774942214 7.17817
52.50426105495102 7.145580000000001
52.529280976059844 7.11595
52.554109609024096 7.113639999999999
52.57894089837482 7.12546
52.60377484613117 7.120769999999999
52.62880550079408 7.10055
52.65364479223379 7.04513
52.67848674816189 7.0618300000000005
52.70352547971946 7.05687
52.72837279155837 7.0330699999999995
52.753222773982785 6.98451
52.778075429022984 6.99705
52.80312495150885 6.9985
52.827982978797436 6.95144
52.85284368481815 6.9323
52.87770707160767 6.909669999999999
52.90276741793998 6.927010000000001
52.92763619336701 6.87562
52.952507655698504 6.8779
52.977381806977576 6.957089999999999
53.00245301017842 6.913010000000001
53.02733256653592 6.9122699999999995
53.052214817996074 6.82321
53.077099766608484 6.797060000000001
53.102181859804446 6.80805
53.127072229988265 6.787910000000001
53.15196530349892 6.77792
53.17686108239249 6.771160000000001
53.20195409881522 6.738239999999999
53.22685531582556 6.7325
53.25175924441303 6.71461
53.27666588664027 6.69888
53.30176985962693 6.65545
53.3266819565689 6.6996899999999995
53.35159677336455 6.66655
53.376514312083096 6.650189999999999
53.40162927507703 6.644139999999999
53.42655228516116 6.624860000000001
53.45147802340193 6.59934
53.47660125628886 6.57786
53.50153247842639 6.56745
53.52646643496923 6.54857
53.55140312799818 6.5479199999999995
53.576537409691696 6.53386
53.60147960336152 6.4879999999999995
53.626424539786164 6.47494
53.65137222105307 6.4804699999999995
53.67651758529126 6.44416
53.70147078399681 6.403630000000001
53.72642673383343 6.4316
53.75138543689533 6.439080000000001
53.776541917524526 6.47275
53.801506154876755 6.4103699999999995
53.826473151763246 6.41827
53.851442910284916 6.3712800000000005
53.87661054126026 6.3378
53.9015858509782 6.30975
53.92656392866066 6.30734
53.95154477641532 6.32912
53.976723591801296 6.3216
54.00171000771266 6.33616
54.02669920004598 6.3255099999999995
54.051691170915745 6.297619999999999
54.076881204886796 6.25941
54.101878760928514 6.27263
54.12687910187696 6.26079
54.152077577768296 6.2168
54.1770835166946 6.15951
54.20209224691339 6.2038199999999994
54.22710377055121 6.168830000000001
54.25231352511594 6.14162
54.27733066384342 6.10251
54.30235060239643 6.11271
54.32737334290836 6.09713
54.35259441062629 6.05731
54.377622783395324 6.02886
54.40265396455061 6.0605199999999995
54.42768795623251 6.03441
54.45292037169559 5.961530000000001
54.477960012857906 5.9633400000000005
54.50300247099511 5.9403
54.52804774825457 5.9509
54.55329154616743 5.92807
54.57834249018678 5.905390000000001
54.6033962597977 5.9187
54.6284528571545 5.8887
54.653708072335164 5.81569
54.67877035378786 5.82621
54.70383546947698 5.81231
54.72890342156389 5.83956
54.7541700889442 5.77554
54.77924374251975 5.74028
54.8043202390049 5.71239
54.82959552413022 5.68976
54.8546777351945 5.66108
54.87976279569621 5.64005
54.90485070780914 5.69369
54.930137506558005 5.65474
54.95523115074295 5.60668
54.98032765308844 5.60668
55.005427015775496 5.54239
55.03072536339621 5.56544
55.05583047570572 5.5418199999999995
55.080938454927676 5.47576
55.10604930325027 5.480090000000001
55.131359235107396 5.51187
55.15647585066083 5.46061
55.181595341907496 5.4238599999999995
55.20671771104285 5.42387
55.232039262617704 5.3745
55.25716741665048 5.3249
55.28229845518636 5.3175300000000005
55.30743238042802 5.28557
55.33276558731939 5.27147
55.357905315183636 5.27209
55.383047936390035 5.21552
55.40819345314859 5.223
55.433538351073295 5.20791
55.458689688238415 5.15909
55.483843927614096 5.09215
55.509197623043605 5.16827
55.53435769621134 5.10776
55.55952067826466 5.08725
55.5846865714265 5.07869
55.61005202069737 5.06405
55.63522376553902 5.00075
55.66039842818645 4.930630000000001
55.68557601087004 4.9962599999999995
55.7109532500271 4.89712
55.73613670233794 4.94928
