TT I
1.2716486653135266 7.847860000000001
1.2939594142134223 7.46435
1.3162702121660406 7.1299
1.3385810600174564 6.84543
1.3608919586137629 7.12835
1.383202908801069 7.110810000000001
1.405513911425503 6.45505
1.4278249673332093 6.64645
1.4501343378461518 6.4902
1.4724455028545926 6.32665
1.4947567236847858 6.35768
1.517068001182951 6.3989400000000005
1.5393793361953272 5.96899
1.5616907295681737 6.762169999999999
1.5840021821477681 6.14494
1.60631369478041 6.20637
1.6286252683124185 5.92465
1.6509369035901333 5.64278
1.6732468618895553 5.33714
1.695558623192809 5.13696
1.7178704487808514 5.5513900000000005
1.7401823395001077 5.44222
1.7625012545597203 5.2811699999999995
1.7848028405262486 5.04798
1.8071218901122095 5.11592
1.8294236121921872 4.68076
1.8517427996910911 5.49596
1.8740620574440425 4.9530199999999995
1.8963639900671978 5.11245
1.9186833908139995 5.25725
1.9409854680117449 5.48831
1.9633050151394713 5.77225
1.9856246367570705 4.70533
2.0079269371922672 4.72455
2.03024671027244 4.54309
2.0525491637446027 4.29419
2.074869091674931 4.60447
2.097171701569106 5.0553300000000005
2.1194917877373847 4.99565
2.141811954326636 5.37942
2.164114805233074 5.2893300000000005
2.186435135143035 7.00655
2.208738150935709 18.5772
2.231058647554722 41.7018
2.2533792288321184 32.0826
2.275682498336085 13.366
2.298003251406138 6.4602699999999995
2.3203066942619714 5.51118
2.3426276225136022 4.859319999999999
2.3649486396617507 5.18709
2.387252348930071 5.56195
2.4095735463442893 5.08121
2.4318774374315884 5.4636
2.4541988185014043 6.0089
2.476502894794693 5.85441
2.498824462909887 6.341480000000001
2.521146125856138 6.04071
2.5434504863470337 5.89701
2.5657723414244717 6.49676
2.588076895590662 6.86958
2.610398946189713 7.455
2.6327210958598384 6.16372
2.6550259469304716 6.27457
2.6773482972090137 6.91414
2.6996533504259 6.9122699999999995
2.7219759047039602 7.49689
2.744298562293959 7.33542
2.7666039251246595 6.88777
2.7889267918020164 7.1211899999999995
2.8112323652516555 7.40333
2.833555444408179 7.65527
2.8558786311183852 7.75495
2.8781845268938557 8.1812
2.9005079311721484 9.10113
2.9228140460410397 8.942060000000001
2.9451376712799635 8.87495
2.967444008632326 9.925989999999999
2.9897678582247247 10.0048
3.0120918213106695 10.244000000000002
3.0343984987899373 10.3491
3.0567226913198637 10.9275
3.079029599759726 11.7612
3.101354025127254 12.4993
3.123678568232338 13.1355
3.145985829517914 13.5616
3.16831061055229 13.6427
3.1906181112775593 13.812000000000001
3.212943133635653 15.1708
3.2352682779763207 14.7988
3.2575761442691227 15.6875
3.2799015350264273 16.3056
3.302209649240067 16.6317
3.3245352898092655 17.0162
3.3468436553365257 17.8991
3.369169549113219 18.2929
3.3914955708171384 18.6135
3.413804319727358 19.3836
3.4361305997334863 19.7203
3.4584396084414553 20.3073
3.4807661501462652 21.0717
3.503092824025881 21.4512
3.5254022288463154 22.098000000000003
3.5477291695206588 22.6925
3.5700388426251948 23.3024
3.5923660534916446 25.2887
3.6146934007816114 46.498999999999995
3.637003482731501 126.354
3.6593311053109985 144.56
3.681641464033634 78.0835
3.7039693653009733 35.0496
3.726297407241705 27.2775
3.7486081875460804 26.7322
3.7709365132734978 27.2585
3.793247578841633 27.4336
3.8155761917550093 27.5412
3.8378875459837216 27.7466
3.8602164494827234 28.3879
3.882545499606844 29.186999999999998
3.9048572932539183 30.1473
3.9271866390645718 30.1523
3.9494987298666713 30.6551
3.971828374764527 31.5434
3.9941581705403255 32.079
4.016470713506008 32.2438
4.038800813471445 33.1327
4.061113662089144 34.0634
4.0834440696459176 34.6358
4.105774632334751 35.5005
4.128087945865126 36.2954
4.150418821249301 37.0545
4.172732448931298 38.5686
4.195063640413578 41.255
4.2173775856475215 46.6758
4.239709096631102 90.7937
4.262040768704612 347.468
4.284355196706267 489.69800000000004
4.306687193387355 312.47900000000004
4.329001947444346 108.12
4.35133427213731 53.7099
4.373666762177566 47.6284
4.395982011761091 46.5302
4.418314834921175 48.1727
4.44063041906622 59.4627
4.4629635787515625 77.1337
4.4852969080429785 77.0712
4.5076130004776225 59.6099
4.529946671403969 53.5961
4.552263106909177 52.6073
4.574597122877047 53.0498
4.596931312711224 53.8535
4.619248269273446 54.8696
4.6415828092605835 55.6418
4.663900117405352 57.2529
4.686235010953232 58.4862
4.708552674085913 59.8049
4.730887924602802 61.1772
4.753223354952695 62.5977
4.775541557023902 64.2969
4.797877349456786 65.7444
4.820195915032126 67.4416
4.842532072957498 68.4766
4.864868414979744 71.4067
4.88718753227192 73.9681
4.909524244902505 75.6881
4.931843734218147 77.2606
4.954180820867835 79.8038
4.976518095879839 82.7492
4.998838149695359 86.2548
5.021175803844231 90.6131
5.043496238205739 93.8592
5.065834274903528 99.0042
5.088172504230693 104.665
5.1104935158799565 113.52600000000001
5.132832132875765 148.18
5.155153533596801 214.625
5.1774925416746225 269.682
5.199814334878411 490.496
5.2221537374521505 1293.86
5.244493338631803 2936.11
5.266815727034316 6318.43
5.289155727832427 11044.9
5.311478517248165 9913.81
5.333818921080011 4273.01
5.356159527788849 958.172
5.3784829252032536 256.817
5.400823940070432 173.393
5.423147747031976 145.641
5.445489173474152 131.109
5.467830807066149 123.238
5.490155234831516 117.82600000000001
5.512497285125229 112.723
5.534822130975162 110.22
5.557164601388673 107.43299999999999
5.579489868738879 103.95700000000001
5.601832762690846 103.177
5.6241758697774475 102.62299999999999
5.646501775867269 101.48
5.668845311622074 99.2435
5.691171647754637 97.9779
5.713515615597765 96.6904
5.735859800852677 95.8745
5.758186788542988 95.91
5.780531411018185 96.193
5.802858837297399 95.4388
5.825203900414495 96.4222
5.8475491852224 96.9091
5.869877275883075 97.0184
5.892223006467101 97.8552
5.914551544266608 99.8186
5.936897724049891 103.759
5.959244129804903 110.816
5.981573344815301 136.173
6.0039202049061 250.59400000000002
6.026249875609095 538.807
6.04859719346037 1027.9
6.070927323278297 1917.92
6.093275102315365 3639.33
6.115623113320588 4816.04
6.137953938319995 3919.9
6.160302415650845 1557.7
6.182633708324452 379.858
6.2049826554078376 144.806
6.227331838745022 106.927
6.249663839443684 94.6406
6.27201349767565 90.2232
6.294345974611799 99.4243
6.316696111167083 119.68700000000001
6.339046488263839 112.669
6.361379686074702 88.4005
6.383730546639482 76.3932
6.406064229255215 72.8005
6.428415576718203 71.4762
6.450749747566656 70.4571
6.47310158535871 69.0603
6.495453669698332 68.0097
6.517788579421056 67.7304
6.540141159237969 66.4807
6.562476565766648 66.021
6.5848296444934045 65.5064
6.607182974060425 65.2927
6.6295191323281015 65.6104
6.651872965955752 70.4546
6.6742096296068985 109.821
6.6965639707294615 185.9
6.71891856698715 190.921
6.741255995248479 120.001
6.763611104154477 76.2015
6.785949046381137 63.8283
6.808304671371482 61.4054
6.8306605557940046 61.1297
6.852999275508618 60.1132
6.875355681171544 59.5424
6.897694923437771 59.3983
6.92005185377892 58.9878
6.9423916220322655 58.4708
6.964749080490181 58.0968
6.987106804399774 58.3934
7.009447368180821 58.2938
7.031805625367033 57.7729
7.054146723727803 57.7447
7.076505517631004 57.7648
7.098864581288365 57.5974
7.121206488070854 57.7045
7.143566093607822 57.4004
7.165908543567245 57.8785
7.188268694426048 58.0994
7.2106291193438095 58.2415
7.232972390625943 60.6994
7.255333366030969 78.454
7.277677189091925 161.504
7.300038718428332 243.109
7.322400526130865 204.34900000000002
7.344745183422596 114.632
7.367107550224791 69.1053
7.389452767901992 59.5966
7.411815697249891 58.1385
7.434161478756298 56.8187
7.456524974096713 56.7237
7.478888753837185 56.3684
7.501235387657368 56.9556
7.523599738562711 56.875
7.545946944825532 57.1721
7.568311870344528 57.4635
7.5906770845765665 57.8957
7.613025156078678 60.0697
7.635390950099687 61.7797
7.657739602662809 60.5626
7.680105979923558 58.7553
7.702472650212829 58.4144
7.724822180948224 58.3179
7.747189439655568 57.9945
7.769539560075357 58.1329
7.791907410653562 58.6494
7.81425812420825 58.5897
7.836626570110925 58.8465
7.858995315087906 59.7227
7.881346924933401 59.9521
7.903716270417482 60.488
7.926068482028405 60.8493
7.948438431475253 61.5314
7.9708086843180235 61.9897
7.993161805171116 62.5582
8.015532667162402 62.8215
8.037886398416653 63.7907
8.060257873014221 64.3098
8.082629655331942 65.3308
8.104984308787587 66.3606
8.127356708900503 70.8621
8.149711981398308 79.7098
8.172085002766314 83.4072
8.194458336181368 77.4737
8.216814543847752 72.7288
8.23918850371002 71.6186
8.26154533906492 72.4434
8.283919928836452 74.196
8.306277395339652 75.0239
8.328652618483376 76.346
8.351028159736202 78.3136
8.373386579575245 80.9594
8.395762759396959 82.8218
8.418121819038275 89.3804
8.440498640894003 109.244
8.462875785192262 130.82399999999998
8.485235811156207 145.874
8.507613602688501 189.287
8.529974277114228 289.31
8.552352719347912 426.955
8.574731488360351 622.2080000000001
8.59709314210385 979.709
8.619472567021075 1530.14
8.64183487789147 2052.08
8.664214962183097 2048.33
8.686577933647762 1277.28
8.708958680784317 557.73
8.731339760774953 225.94400000000002
8.753703729764451 129.30200000000002
8.77608547780821 107.787
8.798450116065078 101.71600000000001
8.820832535634787 97.84899999999999
8.843215292401656 95.7208
8.865580941199045 93.787
8.887964374703538 92.6112
8.910330701447199 94.5601
8.932714815164482 98.602
8.955099270424924 98.0105
8.977466620733543 93.2029
8.999851761421976 88.5057
9.022219798361645 86.8156
9.04460562795561 86.02799999999999
9.066991803441677 85.6014
9.089360876979615 85.6773
9.111747746589993 85.2807
9.13411751544971 84.7338
9.156505082664324 84.4397
9.178875550323522 84.7093
9.20126381862328 85.1142
9.223652438908596 85.5948
9.246023961427412 85.6395
9.26841328802173 84.6322
9.290785518039224 84.1515
9.313175554425882 85.1056
9.335565947154315 85.4383
9.357939245086508 85.6325
9.380330352834827 85.8023
9.40270436697103 85.8104
9.425096193225055 85.5444
9.447488380180165 86.5923
9.469863475295412 86.7509
9.492256385987508 87.2248
9.514632206018318 88.1015
9.537025843935714 87.9806
9.559402392368193 89.1482
9.581796761000229 90.6529
9.604191496441521 91.7587
9.626569144158516 96.331
9.648964615551032 103.554
9.671343000390081 106.412
9.693739211225699 102.22
9.716135793237463 97.4857
9.738515290448102 96.1582
9.760912617143402 97.4189
9.783292860202891 98.5848
9.805690935076182 99.7692
9.828089385495742 100.417
9.850470754023561 103.508
9.872869957865444 114.344
9.89525208097539 136.879
9.917652041736662 157.344
9.940052382417589 155.876
9.962435644102392 158.659
9.984836746950979 196.172
10.007220771957746 269.711
10.029622640473708 372.33099999999996
10.052007432299963 507.30199999999996
10.074410069984072 699.179
10.096813093716005 1021.87
10.119199042482517 1478.99
10.141602840636468 1884.41
10.163989564971628 1813.18
10.186394141051062 1234.16
10.208799107559706 589.572
10.231187001965623 271.16900000000004
10.253592751657669 153.235
10.275981430388155 124.234
10.298387966769793 122.95700000000001
10.320794897965431 126.667
10.343184759907361 125.515
10.36559248305461 117.044
10.387983138083852 110.51700000000001
10.410391656691655 113.213
10.432800574501677 125.74700000000001
10.455192425893369 145.207
10.47760214443012 170.199
10.499994797678786 200.98
10.522405320453982 250.735
10.54479877906917 335.019
10.567210109595656 443.87199999999996
10.5896218454736 540.1569999999999
10.612016518879773 548.9169999999999
10.634429067781074 420.461
10.656824555333241 258.688
10.679237920773568 149.81
10.701651695961992 106.083
10.724048411481384 94.4973
10.746463008485165 90.89299999999999
10.768860546937125 88.6823
10.791275969274796 86.7275
10.81369180576079 85.5404
10.836090585366925 84.1634
10.858507252467449 82.8919
10.88090686379991 81.8464
10.903324365036394 81.6539
10.925724811614439 81.9836
10.948143150509463 84.0689
10.970561909719066 83.8713
10.992963615930844 80.8681
11.015383218085756 78.29899999999999
11.037785768347074 76.1643
11.06020621697282 75.5771
11.082627090322113 75.1642
11.105030913430326 74.8871
11.12745263854165 75.6455
11.149857314510728 81.362
11.172279894912576 90.9749
11.194702904450653 93.3455
11.217108866490921 87.337
11.239532736615194 80.202
11.26193956033512 76.8947
11.284364294577085 74.4391
11.306789462371718 71.7101
11.329197585398376 70.0606
11.351623622610898 69.5375
11.37403261614354 68.5043
11.396459526308487 68.5275
11.418869393879497 68.0534
11.441297180532617 67.6593
11.463725406927658 67.4839
11.486136592353875 67.5465
11.508565700543707 68.3962
11.530977768845315 71.3704
11.553407762368774 73.0162
11.575838200059769 72.509
11.598251599479612 69.2815
11.620682927815501 66.8496
11.64309721895548 65.8148
11.665529441478206 65.4977
11.687962112597958 65.3818
11.710377748130886 65.2063
11.732811318753434 65.4642
11.755227854859067 65.446
11.777662328529495 64.9968
11.800079768750786 65.013
11.822515149015453 64.6821
11.844950984084935 65.0909
11.867369787303163 64.5219
11.889806534289491 64.6024
11.912226250487029 64.8993
11.934663912939751 65.051
11.9571020346363 65.2209
11.979523127133968 65.3218
12.001962169624331 66.2527
12.024384183972964 67.2049
12.046824150809913 71.1031
12.069264581333726 76.8519
12.091687985297767 83.9623
12.11412934550045 91.5814
12.136553680195208 101.19
12.158995973632788 116.01299999999999
12.181438735204349 135.713
12.20386447284199 165.648
12.226308172985636 196.21
12.24873485024193 213.292
12.271179492516982 194.305
12.293607112949127 152.786
12.316052700916226 117.197
12.338498763250042 91.0213
12.360927805303868 77.163
12.383374818673879 70.688
12.405804812803074 67.6971
12.428252780773262 66.7743
12.45070122756722 67.0394
12.473132656675375 66.9111
12.49558206341869 66.9355
12.518014453510101 66.8136
12.540464823770117 67.0063
12.562915677315177 67.117
12.58534951575545 67.8838
12.607801338171472 70.9147
12.630236146511358 79.4527
12.652688941369085 87.4144
12.675124723177234 87.9966
12.697578494048786 81.6442
12.720032754458185 74.0943
12.742470003354093 71.1822
12.764925245138771 70.6851
12.787363476431278 70.7093
12.809819703166806 70.6743
12.83227642391173 71.4441
12.854716135692716 72.1198
12.877173846755147 73.0898
12.899614549869717 73.3577
12.9220732548287 74.1922
12.94453245827299 74.5155
12.966974655289818 75.6308
12.989434858002571 76.344
13.011878055298721 77.0411
13.034339260862497 77.9045
13.056800969391883 79.465
13.079245674017244 81.4616
13.101708390774869 84.1274
13.12415410463411 92.3125
13.146617833206086 106.135
13.169064559883248 120.449
13.191529303857127 135.505
13.213994557076367 151.869
13.236442809902437 174.25599999999997
13.258909083908291 209.423
13.28135835851934 255.454
13.30382565690295 318.77299999999997
13.326293469022952 397.62800000000004
13.348744283242008 447.79400000000004
13.371213125129904 414.62199999999996
13.39366497011003 326.705
13.416134845360597 221.903
13.438605238843131 149.998
13.46105863690397 118.667
13.483530069144786 113.78
13.505984506951902 118.48200000000001
13.528456981549432 128.575
13.550929978879088 139.95
13.573385983253365 154.89
13.595860028340867 178.354
13.618317081455832 212.053
13.64079217790333 257.106
13.663250283359057 311.428
13.685726434770173 359.918
13.708203115221277 372.05400000000003
13.730662806148091 317.478
13.75314054697177 237.864
13.775601299246777 159.526
13.798080104050406 112.60600000000001
13.820559442405358 92.5736
13.843021793671388 86.1754
13.865502201420897 83.6256
13.887965623051947 82.7028
13.910447103807167 81.5
13.932929122629764 80.09899999999999
13.955394156785959 79.1552
13.977877254034569 78.4587
14.000343367582113 77.6651
14.022827546871707 77.0085
14.045294743423524 76.017
14.06778000837062 75.5993
14.090265817715476 75.3048
14.112734645763819 75.1485
14.13522154619454 75.0996
14.157691466286913 75.5061
14.180179461423874 75.2068
14.202668005486178 74.0728
14.22513957064374 73.1428
14.247629214846473 72.7779
14.270101881097517 72.5818
14.29259262906496 73.2998
14.315083930490205 74.7509
14.337558255389705 75.1169
14.360050666019726 74.8631
14.382526101071944 73.4606
14.405019624534942 72.1692
14.427513705993134 71.1471
14.449990813291825 71.1436
14.47248601302899 70.8819
14.49496423954951 71.1217
14.517460561197822 71.0355
14.539939910570322 70.5615
14.562437357763558 71.3503
14.58493536931253 73.0983
14.607416409993311 74.6405
14.62991555254159 75.5851
14.652397725157423 75.237
14.674898002342799 73.9311
14.697398848433282 72.9923
14.719882725991326 73.1654
14.74238471217934 74.4698
14.764869730765593 78.2431
14.787372860692983 82.4796
14.809876564079925 87.6939
14.83236330125751 93.4348
14.854868153850365 99.7996
14.877356041159485 108.455
14.899862046604186 119.67200000000001
14.922351087688757 136.504
14.944858249632887 158.834
14.967365991421232 186.817
14.989856770231246 214.07299999999998
15.012365673994204 227.947
15.03485761569738 211.67
15.05736768508665 176.533
15.07987833888692 135.80100000000002
15.102372032001655 104.542
15.124883856909658 84.0707
15.14737872204565 76.6491
15.169891721717274 74.0424
15.192405310371893 73.7085
15.214901940621196 74.3917
15.237416709527137 74.7812
15.259914520936249 75.1949
15.282430473753607 74.0833
15.304947020131227 72.4075
15.327446610371178 71.2788
15.349964346154254 69.9533
15.372465126703139 69.3784
15.394984055556009 68.8384
15.417486030076159 68.6656
15.44000615566487 68.3624
15.462526881230803 68.3971
15.485030653812652 68.627
15.507552581617434 68.9214
15.530057557334603 69.0236
15.55258069104857 68.6898
15.575104429329837 68.7087
15.597611216864632 68.1678
15.620136166564563 68.221
15.6426441664095 69.4973
15.665170331202765 72.0018
15.687697105158826 75.4489
15.710206930593545 79.4632
15.732734925158933 83.59100000000001
15.755245972089478 88.6804
15.77777519094324 94.5022
15.800287463046663 102.695
15.822817909869592 114.56700000000001
15.84534897229804 130.04
15.867863089299354 150.894
15.890395385222186 173.453
15.912910736597423 193.583
15.935444269699861 198.581
15.957978423016485 180.918
15.980495633101265 150.224
16.003031029129367 116.78399999999999
16.02554948280019 88.7648
16.048086125229432 74.6475
16.070623392487107 70.0256
16.09314371869582 68.9197
16.11568223789321 68.02
16.13820381691126 66.6621
16.160743591742527 64.9466
16.183283996022084 63.2887
16.205807461423195 62.1274
16.228349126881973 61.4908
16.25087385432698 61.2603
16.27341678466365 60.6863
16.29594277784926 60.59
16.31848697676433 61.5093
16.341031811604868 62.2901
16.36355971058487 62.7457
16.3861058195587 62.5203
16.40863499352978 60.8024
16.431182380342005 59.5824
16.453730407713202 58.6171
16.476261501364792 58.2072
16.498810812136167 57.8509
16.52134319004079 57.7188
16.54389378792203 57.5509
16.566445031001553 57.4905
16.588979342490088 57.3855
16.61153187824822 57.2253
16.634067483263312 56.9773
16.656621315414416 56.8925
16.679175797408888 56.661
16.701713349928728 56.6742
16.72426913389191 56.9568
16.74680798922351 56.9662
16.76936507887444 57.0656
16.791905240734874 57.3711
16.814463639794468 57.035
16.837022695210294 56.8146
16.859564824093756 57.3731
16.882125194503903 58.6277
16.904668639217885 59.6379
16.927230328348003 59.9985
16.949792678493612 59.9486
16.972338104193863 59.0266
16.994901778652235 58.0954
17.017448529496576 57.7844
17.040013531998152 57.8181
17.06257920018044 58.2563
17.0851279459922 59.208
17.107694947817667 60.2217
17.130245028099072 60.9713
17.15281336730298 62.3739
17.17536478578733 63.7003
17.19793446610687 65.1078
17.220504818648422 66.8159
17.243058251703697 68.8655
17.265629950971032 72.1947
17.288184731571736 76.5032
17.310757781306908 81.6394
17.33333150794385 84.8996
17.355888317140174 85.9061
17.37846339986244 83.7652
17.401021565958885 77.51
17.42359800851343 71.2717
17.44617513265564 66.1947
17.468735341390783 63.1065
17.491261035594565 61.5599
17.51396340099364 61.007
17.536490463869136 61.1713
17.559018209820174 61.2534
17.58154663977963 61.2234
17.604251766089718 61.4092
17.626781572227713 61.6817
17.64931206518155 61.9814
17.671843245885103 62.5657
17.69455114821572 63.0435
17.717083712612634 63.3503
17.739616967569667 63.2733
17.762150914021706 63.3991
17.78486160749854 63.2251
17.807396945166804 64.0151
17.829932977143503 64.8757
17.85246970436452 66.4746
17.875183204129467 68.6886
17.897721330097664 71.0909
17.920260154126645 73.9025
17.942799677153296 76.7638
17.9655159983646 79.4089
17.988056927677544 82.8174
18.010598558807683 87.5685
18.033140892692916 93.8122
18.05586005052525 101.59299999999999
18.07840379824407 112.0
18.10094825154059 124.471
18.12366954819864 137.319
18.146215420998306 144.829
18.16876200220057 143.2
18.191309292745153 132.89
18.214033452627167 117.686
18.236582170236648 102.68
18.259131600016456 92.0842
18.281681742907335 87.3887
18.304408781233683 88.1367
18.32696035875955 91.5804
18.349512652227624 96.5029
18.372065662579683 102.851
18.394795594587553 108.494
18.41735004715306 109.947
18.43990521943684 105.727
18.46246111238171 96.9512
18.485193953325208 85.9682
18.507751296070428 76.6681
18.530309362314178 70.5279
18.552868153000343 66.9462
18.57560391815056 64.7598
18.59816416623245 64.2372
18.620725141597372 63.6745
18.643286845190268 63.0996
18.666025549835414 62.6218
18.688588718427933 62.1867
18.711152618092243 62.1069
18.73389353884365 61.4861
18.75645890921984 61.1823
18.77902501351406 60.6936
18.801591852673102 60.9419
18.824335739722738 60.2261
18.846904057212626 60.1089
18.8694731124168 59.8245
18.89204290628315 59.7807
18.914789774966803 59.485
18.937361054791623 59.1758
18.959933076131318 59.0355
18.982505839934877 59.0947
19.00525570560582 59.4094
19.027829963004184 59.3144
19.05040496572238 59.1212
19.072980714710468 59.1238
19.095733592739563 59.2716
19.11831084296757 59.7578
19.140888842324735 60.5856
19.16346759176222 60.8398
19.18622349753803 61.3767
19.208803755869358 61.9334
19.231384767143577 62.371
19.253966532312948 63.1041
19.276725481241822 64.3174
19.29930876296784 66.0047
19.3218928014549 68.5567
19.34465404436217 72.0454
19.36723960516257 75.5729
19.389825925592426 78.4738
19.412413006605938 79.491
19.43517731967805 77.9238
19.457765930683355 74.0496
19.48035530514408 69.0892
19.50294544401556 64.1951
19.525712842708348 60.2979
19.54830451925909 57.9873
19.570896963095727 56.5684
19.593490175174704 55.9321
19.616260674962184 55.9187
19.638855432416964 55.5349
19.661450960992624 55.5738
19.68404726164677 55.2428
19.706820878021247 55.3296
19.729418731756834 55.3936
19.752017360452857 55.1879
19.77461676506804 55.4201
19.797393513540218 55.4666
19.819994478951667 55.9144
19.84259622316767 56.6541
19.8651987471481 57.2724
19.887978643247177 57.3939
19.91058273574792 57.4956
19.933187610901943 58.2189
19.955969879466828 58.7883
19.97857632894404 59.6193
20.00118356396599 60.5223
20.023791585494575 61.7881
20.046577028914875 64.2832
20.069186632506966 66.6483
20.091797025500632 69.25
20.114408208858933 71.2955
20.137196842715273 72.5268
20.159809615886765 72.2299
20.18242318232135 69.7722
20.20503754298326 67.259
20.227829382875154 64.8708
20.250445341109344 63.3584
20.27306209647285 63.1021
20.29567964993108 63.7841
20.31847471147704 65.0729
20.34109387027612 66.7265
20.363713830075454 67.5786
20.386334591841646 67.6996
20.409132890679302 65.8732
20.431755265564437 62.8282
20.454378445325528 59.5396
20.477002430930366 57.0523
20.499803982716553 55.3309
20.522429589228004 54.3063
20.54505600449589 53.644
20.567683229489194 53.2511
20.590488049900088 52.6953
20.61311690359731 52.2929
20.63574656993626 52.0439
20.658553853717297 51.5459
20.681185154618298 51.5908
20.703817271080066 51.4483
20.72645020407368 50.998999999999995
20.749260783967177 50.8578
20.771895359337133 50.8957
20.794530754161617 50.7822
20.817166969412938 50.6128
20.83998086114876 50.57899999999999
20.86261872660049 50.6276
20.885257415405402 50.4016
20.90789692853701 50.3786
20.930714147864748 50.2764
20.953355319030678 50.3478
20.97599731745334 50.4083
20.99864014410749 50.2783
21.021460706796564 50.3561
21.044105199328826 50.5871
21.06675052302631 50.7786
21.089396678865015 51.0302
21.112220600704806 51.0954
21.134868430275347 51.3669
21.15751709492456 51.49
21.180166595629693 51.6677
21.202993892429635 52.108000000000004
21.22564507473034 52.5424
21.24829709602816 52.8672
21.27112693608965 53.1345
21.293780644891275 53.335
21.316435195634053 53.0197
21.339090589297417 52.4076
21.361923832041875 51.8876
21.384580921090404 51.2697
21.407238856007325 50.5232
21.429897637773326 50.2116
21.45273429906592 50.1273
21.475394784108598 50.016000000000005
21.498056118951983 49.9919
21.520718304578022 50.3803
21.543558400304388 50.347
21.566222297108816 50.4144
21.58888704765135 50.588
21.61155265291521 51.013000000000005
21.63439619898156 51.5166
21.657063523335786 51.7201
21.67973170537063 52.2728
21.7024007460706 52.8162
21.72524775840385 53.2499
21.747918526116475 53.8909
21.770590155457388 54.6279
21.79326264741238 55.7292
21.816113141960237 57.133
21.838787368860547 58.6393
21.861462461341976 60.357
21.884315579735777 62.2868
21.90699241312273 64.4567
21.92967011506078 66.3708
21.95234868653799 67.2308
21.9752053151131 67.0789
21.997885635446785 65.5758
22.020566828293532 63.4204
22.04324889464272 60.8099
22.066109049404666 58.7598
22.088792872571794 57.7042
22.111477572219204 57.5769
22.1341631493376 57.7133
22.157026846313123 58.0179
22.179714188221507 57.8403
22.202402410582668 57.269
22.22509151438863 55.7869
22.24795876962584 54.2276
22.270649646204486 53.1109
22.293341407213727 52.185
22.316034053646906 51.4819
22.338904883215342 51.1527
22.36159931041458 50.9439
22.38429462602756 50.8986
22.40699083104897 50.8746
22.429865251039757 50.9561
22.452563244831367 50.8643
22.47526213102522 50.9183
22.49813925616515 50.6142
22.520839937143307 50.4317
22.543541513520587 50.3559
22.56624398629403 50.246
22.589124730075895 50.2285
22.611829005656723 50.5062
22.63453418063466 50.3771
22.657240256008077 50.6099
22.680124634582935 50.8964
22.70283252079775 51.1779
22.725541310413075 51.3672
22.74825100442868 51.3825
22.771139033969575 51.8756
22.79385054687155 51.9423
22.81656296718292 52.3771
22.83927629590484 52.9746
22.862167992606945 53.7331
22.88488314827121 54.4144
22.907599215359284 55.0673
22.93031619487366 56.2875
22.953211574954405 57.511
22.975930389478226 58.9147
22.998650119445763 60.1
23.02137076586092 60.1655
23.044269845560063 59.5817
23.06699233506288 58.1308
23.089715744034912 56.191
23.112617610931565 54.1551
23.135342869061212 52.5475
23.158069049684816 51.3915
23.1807961538087 50.873000000000005
23.20370174880544 50.6168
23.226430710184808 50.5896
23.249160598093425 50.721000000000004
23.271891413539002 50.6358
23.294800752937697 50.5298
23.31753343374794 50.8276
23.340267045128353 50.8965
23.36300158808808 51.0735
23.38591468821339 51.2926
23.408651104658304 51.5687
23.431388455719986 51.8389
23.454126742409 52.4608
23.4770436196085 53.1417
23.499783787914662 54.053999999999995
23.522524894889884 54.823
23.54526694154616 55.8324
23.56818761219047 57.2662
23.59093154860734 58.513999999999996
23.613676427751283 59.7219
23.636422250635754 59.7405
23.659346731118656 58.9046
23.68209445191868 57.4524
23.704843119509587 55.0563
23.72759273490623 52.8488
23.750521041644767 51.0286
23.77327256312355 49.5405
23.796025035462787 48.6453
23.818956224555475 48.1201
23.841710609113413 47.8104
23.86446594758979 47.4995
23.887222241002014 47.151
23.910157285144578 46.8589
23.932915498962537 46.9541
23.955674670778713 46.7565
23.978434801611975 46.4693
24.001373717286125 46.4428
24.024135776723917 46.2149
24.046898798245582 46.1679
24.06966278287146 45.974
24.092605586582614 45.8724
24.115371508023642 45.68600000000001
24.1381383956401 45.6692
24.16090625045381 45.658
24.183852958731244 45.604
24.206622758582608 45.6428
24.229393528706886 45.2603
24.252165270127392 45.2539
24.27511589952438 45.2764
24.297889594216997 45.0849
24.32066426328598 44.8584
24.34343990775613 44.9616
24.36639447485003 44.7006
24.38917208083877 44.688
24.41195066531332 44.6568
24.43490819850244 44.6176
24.457688750692377 44.4549
24.48047028445616 44.3583
24.503252800821233 44.46
24.526214300784112 44.5974
24.548998793132213 44.4051
24.57178427117417 44.3925
24.59457073593893 44.6624
24.617536219319863 44.4268
24.64032466834748 44.5696
24.663114107195035 44.4572
24.685904536893013 44.2069
24.708874020360852 44.2585
24.731666442613744 44.1963
24.754459858818787 44.0256
24.777254270007962 43.836000000000006
24.80022777025625 43.8866
24.82302418230472 43.755
24.845821592443674 43.8105
24.86862000170663 43.7758
24.891597535453727 43.544
24.914397953892728 43.6512
24.93719937456671 43.7393
24.96000179851076 43.8132
24.98298338249997 43.9312
25.00578782394922 44.1723
25.028593271784167 44.0368
25.05157790644186 44.3298
25.07438537804115 44.4793
25.097193859145293 44.6332
25.120003350792075 44.9186
25.142992065061257 45.3706
25.165803588823465 45.5225
25.18861612625217 45.8511
25.211429678386736 46.013000000000005
25.234422489079968 46.1813
25.257238081693636 46.1978
25.280054692141732 46.1233
25.3028723214652 46.1475
25.325869245420463 46.2318
25.348688923599397 46.2615
25.371509623787006 46.3862
25.394331347025812 46.4487
25.41733240110666 46.2027
25.440156181590016 45.6415
25.46298098826268 45.152
25.48580682216873 44.4894
25.50881202326435 43.869
25.53163992281684 43.2631
25.55446885274561 42.905
25.577298814096377 42.5322
25.600308179121807 42.3438
25.623140214533745 42.3875
25.64597328451537 42.2986
25.66898578564376 42.0514
25.691820936010206 42.0256
25.714657124097695 41.7489
25.737494350954734 41.9981
25.760511045684957 41.9826
25.783350361364224 41.9965
25.806190718969255 41.9357
25.82903211955018 42.0811
25.852053024868923 42.1429
25.874896522722523 42.1172
25.897741066713106 42.0292
25.920586657892454 42.0744
25.943611790812668 42.1341
25.966459487728237 42.2137
25.989308234998564 42.1601
26.01215803367705 42.3923
26.03518741123814 42.5817
26.05803932412957 42.7391
26.080892291600094 42.8464
26.10374631470478 42.9099
26.12677995397268 43.1026
26.14963609978026 43.3229
26.172493304397875 43.2117
26.19535156888223 43.008
26.218389486949604 42.6498
26.241249882640123 42.221000000000004
26.26411134137826 41.9558
26.28715248187403 41.9212
26.31001607820869 41.5849
26.3328807407756 41.5025
26.35574647063438 41.6298
26.37879191991473 41.4104
26.401659795896734 41.5437
26.424528742360263 41.6505
26.447398760366614 41.7335
26.470448535598294 41.9393
26.49332070826805 42.0057
26.516193955675355 42.2742
26.53906827888316 42.4426
26.562122397260108 42.5193
26.584998883685063 42.8055
26.607876449110325 42.8648
26.63075509460056 43.1722
26.65381357334404 43.4091
26.67669439061878 43.5488
26.699576291163382 43.6408
26.722459276044212 43.6991
26.745522132402975 43.3951
26.768407297649354 43.0505
26.791293550442003 42.6853
26.814180891848974 42.5149
26.837248143099337 42.0136
26.860137673466657 41.9859
26.88302829566349 41.8012
26.90592001075963 41.693999999999996
26.92899167420566 41.4145
26.951885586870763 41.0915
26.974780595655517 40.9021
26.99785558178161 40.8175
27.020752794605112 40.4324
27.043651106772522 40.2269
27.06655051935668 40.1843
27.089629948036183 40.0377
27.112531573292053 40.152
27.135434302194138 40.1737
27.158338135817015 39.8243
27.181422024430987 39.9349
27.204328079372566 39.8457
27.22723524226965 39.9062
27.250143514198573 40.0282
27.273231880156334 39.9064
27.296142382065014 39.7108
27.319053996245536 39.6448
27.341966723775965 39.7335
27.365059584515222 39.6783
27.38797455070062 39.8438
27.410890633481237 39.5898
27.433807833936918 39.6802
27.456905206923906 39.7408
27.47982465472398 39.6722
27.502745223449743 39.7025
27.525666914182825 39.9146
27.548768816912457 39.9592
27.571692763693633 39.7561
27.59461783573812 39.8355
27.617723149491244 39.6804
27.640650484125285 39.6719
27.66357894728264 39.5137
27.686508540048052 39.5406
27.709618414237887 39.2846
27.732550278321757 39.16
27.755483275279115 39.1566
27.778417406196485 39.1291
27.801531858397514 39.1998
27.824468269376716 39.0915
27.847405817586786 39.0731
27.870344504116094 39.2897
27.893463551932008 39.4134
27.916404527281053 39.3816
27.93934664422563 39.4057
27.962289903855886 39.4014
27.98541356491974 39.6658
28.00835912214229 39.7178
28.03130582533231 39.9121
28.054253675581805 40.2754
28.077381967556104 40.1651
28.100332124185126 40.468
28.123283431160893 40.42
28.146235889577238 40.2931
28.169368830154156 40.1125
28.192323603752033 39.8664
28.215279532083304 39.5116
28.238415973016764 39.5721
28.261374223145094 39.3973
28.284333631303806 39.0776
28.307294198589954 39.0454
28.330435319167677 38.7058
28.353398217078915 38.4178
28.376362277420153 38.2457
28.39932750129032 38.0148
28.422473319286713 37.8534
28.44544088262495 37.8037
28.468409612800283 37.5606
28.491379510913497 37.355
28.51453004413313 37.1659
28.53750229057244 37.24
28.56047570826344 37.1957
28.583450298308804 37.187
28.606605564586562 36.9674
28.629582511831156 37.0481
28.65256063474956 36.8757
28.675539934446338 36.9253
28.698699951647605 36.8962
28.72168161743193 36.6886
28.74466446331978 36.7069
28.767648490417624 36.6258
28.790813276438353 36.5457
28.813799678527303 36.6184
28.836787265157085 36.5441
28.859955641890075 36.6072
28.882945610203045 36.5616
28.905936766392035 36.5049
28.928929111566863 36.6012
28.952102288520145 36.5997
28.975097024308607 36.4845
28.998092952423807 36.243
29.021090073977508 36.3678
29.04426806913204 36.1229
29.067267590245258 36.0178
29.090268308143695 35.9458
29.11327022394099 35.7675
29.13645305530891 35.5695
29.159457379627167 35.5365
29.18246290519685 35.5183
29.20546963313352 35.508
29.22865731875826 35.5365
29.25166646419296 35.5786
29.27467681535305 35.4432
29.29768837335608 35.4313
29.320880931312562 35.5155
29.34389491580634 35.3923
29.366910110507334 35.3641
29.38992651653503 35.3113
29.41312396492981 35.5041
29.436142806456754 35.4253
29.45916286268059 35.3423
29.48236399319994 35.194
29.50538649169417 35.0747
29.528410208259935 35.073
29.55143514402014 34.7794
29.574641196749695 34.6414
29.597668583816574 34.5412
29.6206971934585 34.278
29.64372702680042 34.3915
29.666938019934474 34.2963
29.689970313635285 34.3407
29.713003834422636 34.2721
29.73603858342347 34.169000000000004
29.759254535188578 34.1073
29.78229175361658 34.0787
29.80533020365064 34.0073
29.82836988641968 34.0865
29.85159081507472 34.0292
29.874632976355343 33.9259
29.89767637376955 33.986999999999995
29.920721008448314 33.7514
29.9439469322847 33.8117
29.96699405457564 33.6484
29.9900424175358 33.7408
30.013092022298157 33.6311
30.03632295963995 33.5926
30.059375061131373 33.6486
30.08242840783577 33.5995
30.105483000888153 33.6262
30.128718970092244 33.4839
30.151776069006917 33.4941
30.17483441768648 33.5733
30.198074175317235 33.5187
30.221135036724256 33.5437
30.24419715131772 33.516999999999996
30.267260520236203 33.389
30.290505341942243 33.5228
30.313571232750228 33.5721
30.336638381310948 33.6149
30.35970678876503 33.4951
30.38295669299435 33.3743
30.40602763151657 33.3124
30.429099832366074 33.221
30.452173296685572 33.159
30.47542830191959 33.2261
30.498504306502497 33.172
30.521581577995562 33.1711
30.544660117543582 33.2386
30.56792024229725 33.2905
30.59100133132069 33.2149
30.614083691845494 33.1475
30.637167325018545 33.1576
30.660432587840603 33.3311
30.683518779717886 33.2839
30.70660624769615 33.3445
30.729694992924372 33.294000000000004
30.75296541239743 33.3611
30.77605672557558 33.3831
30.799149319462742 33.2942
30.8224236211637 33.1173
30.845518789950724 33.1276
30.868615242910597 33.1083
30.891712981195973 32.8433
30.91499247215866 32.8519
30.938092794619365 32.8032
30.96119440587579 32.6915
30.984297307082752 32.5183
31.00758200598383 32.328
31.030687500658694 32.2346
31.053794288760695 32.3285
31.076902371446767 32.2509
31.100192296997445 32.2164
31.12330298246119 32.1364
31.14641496599209 32.0559
31.169528248749216 32.1279
31.19282341969534 32.0181
31.215939314557186 32.0567
31.239056512134788 32.119
31.262175013589378 31.979
31.28547544871168 31.9585
31.30859657161541 31.8299
31.331719001892175 31.8327
31.35484274070538 32.0063
31.378148458819545 31.9594
31.401274828443725 31.9273
31.424402510106933 31.9592
31.447712205419993 31.923000000000002
31.470842524931633 31.7877
31.493974159989783 31.9172
31.51710711176168 31.8987
31.54042212308802 31.9579
31.563557722100917 31.9461
31.586694641341655 31.7509
31.609832881979628 31.678
31.63315322823208 31.7175
31.656294125521327 31.4785
31.679436347728515 31.511
31.70257989602529 31.3782
31.725905596152327 31.2239
31.74905181052835 31.1794
31.772199354521323 31.3115
31.79534822930507 31.1773
31.818679302290967 31.1251
31.84183085259981 31.1626
31.864983737233473 31.1657
31.88813795736804 31.1992
31.911474422233013 31.0102
31.934631327356435 31.0957
31.9577895715215 31.1386
31.980949155906522 31.0995
32.004291031706956 31.1881
32.027453310562606 31.005
32.05061693318573 30.8438
32.07396288236386 30.901999999999997
32.09712920658542 30.8991
32.12029687812702 30.7327
32.14346589817093 30.6208
32.166817291729984 30.6068
32.18998902288583 30.5366
32.21316210610336 30.4259
32.23633654256711 30.2448
32.259693399663725 30.302
32.282870556771144 30.2188
32.30604907069099 30.208000000000002
32.329228942610065 30.2139
32.35259128243769 30.0677
32.375773884550505 30.0399
32.398957848235646 29.9878
32.422143174682176 30.0003
32.445511016471215 29.8176
32.468699082679954 29.818
32.49188851523011 29.6249
32.51507931531304 29.6367
32.538452678331 29.6585
32.56164622776311 29.6233
32.58484114831493 29.526
32.60803744118015 29.464000000000002
32.631416344731896 29.5263
32.654615396551876 29.4483
32.67781582427913 29.3383
32.701198898634416 29.3775
32.72440209253756 29.3149
32.747606665947124 29.2548
32.77081262006088 29.1479
32.79420126883317 29.2124
32.81740999876112 29.1782
32.840620112999424 29.1018
32.86383161274818 29.073
32.88722585534586 29.0777
32.91044014056596 29.1212
32.933655814909734 29.0709
32.95687287957963 29.0275
32.98027273544904 28.963
33.00349259526636 28.8884
33.026713849030116 28.96
33.04993649794511 28.93
33.073341986570746 28.7203
33.09656744032826 28.7023
33.11979429286444 28.7526
33.14302254538647 28.7852
33.166433686291185 28.7158
33.18966475336992 28.7005
33.212897224069096 28.5351
33.23613109959831 28.6819
33.259547912343415 28.6333
33.2827846121627 28.5843
33.306022720453775 28.4421
33.32926223842861 28.3617
33.352684742614166 28.4212
33.37592709463173 28.3858
33.399170859982064 28.4009
33.422597648419426 28.2424
33.44584425514446 28.1355
33.46909227885668 28.1406
33.4923417207723 27.9751
33.51577423505344 27.9713
33.539026528130385 27.8503
33.56228024307245 27.8639
33.585535381098246 27.79
33.60897364093058 27.7276
33.63223163992385 27.8338
33.6554910656699 27.7261
33.678751919389796 27.6482
33.702195944520106 27.5956
33.72545966903325 27.6004
33.74872482519663 27.4902
33.771991414233746 27.38
33.79544122444841 27.391
33.81871069412428 27.3122
33.84198160035767 27.2999
33.86525394437455 27.3542
33.88870955949969 27.2569
33.911984794020626 27.2627
33.93526147001624 27.1806
33.958539588715006 27.144000000000002
33.98200102861669 27.0947
34.0052820477047 27.019000000000002
34.02856451319451 26.9679
34.05203033759056 26.9163
34.07531571090147 26.9721
34.09860253431845 26.9032
34.121890809074316 26.8505
34.145362493118924 26.8417
34.16865368561615 26.7854
34.191946333164054 26.7167
34.21524043699793 26.6927
34.23871800066799 26.6572
34.26201503218366 26.4588
34.28531352370466 26.5199
34.30861347646881 26.4257
34.33209693978188 26.4779
34.3553998301885 26.475
34.378704185565205 26.3682
34.402010007152356 26.3673
34.42549939016683 26.3575
34.44880815937748 26.284000000000002
34.472118398533134 26.2127
34.49543010887669 26.1264
34.51892543169198 26.0933
34.54224009966052 26.0808
34.56555624255917 26.0386
34.58887386163339 25.976999999999997
34.61237514439016 25.8848
34.6356957311114 25.8282
34.65901779775809 25.8287
34.68252356662995 25.8506
34.705848608458616 25.8916
34.72917513396849 25.7416
34.75250314440949 25.6941
34.77601490857862 25.6242
34.799345904259795 25.4989
34.82267838863559 25.6463
34.846012362958525 25.6267
34.869530142679984 25.5142
34.89286711232212 25.4907
34.91620557568269 25.3941
34.93954553401677 25.4666
34.9630693495876 25.4206
34.986412313340814 25.3944
35.00975677584668 25.3979
35.033102738362956 25.2943
35.05663261012228 25.1436
35.0799815881786 25.2482
35.10333207003229 25.1247
35.12668405694369 25.1338
35.150220005273056 25.0992
35.17357501786656 25.1196
35.19693153931268 25.0753
35.220289570874385 24.9752
35.24383161619786 24.9772
35.267192683604904 25.0894
35.290555264930376 24.9357
35.314101899412165 24.9082
35.33746752422433 24.9115
35.36083466676374 24.9853
35.38420332829803 24.9095
35.407756095629054 24.8691
35.43112781085063 24.761
35.45450104888391 24.8033
35.477875810999194 24.8262
35.50143473172161 24.7089
35.52481255774625 24.7323
35.54819191167777 24.6419
35.57157279478914 24.6545
35.595137889488406 24.6414
35.61852184675279 24.493000000000002
35.641907337029984 24.4627
35.665294361595684 24.4218
35.68886565090076 24.4547
35.7122557598848 24.3984
35.73564740699838 24.3697
35.759040593519934 24.3765
35.78261809810353 24.2939
35.80601437933051 24.1999
35.829412203814705 24.1776
35.85281157283719 24.1014
35.876395313415884 24.1178
35.8997977874528 24.0328
35.92320180988546 24.0182
35.946790244133936 23.9547
35.97019737933222 23.9754
35.993606066789866 23.8623
36.01701630779276 23.879
36.04061101440684 23.8591
36.06402437852291 23.8457
36.08743930005611 23.788
36.1108557802951 23.6587
36.13445678011326 23.6615
36.15787639383515 23.6047
36.18129757014299 23.6602
36.20472031032821 23.581
36.22832762423364 23.5795
36.25175350829375 23.5251
36.275180960119776 23.4386
36.298609981005924 23.5383
36.32222362992669 23.5314
36.34565580510207 23.3693
36.36908955323448 23.4231
36.39252487562093 23.3033
36.416144880530226 23.2156
36.43958336764275 23.2241
36.463023432914625 23.1891
36.486465077645676 23.1994
36.51009145956204 23.2528
36.53353627947859 23.1984
36.55698268276811 23.1747
36.58043067073321 23.0249
36.60406345072071 22.9154
36.62751462435344 22.9379
36.65096738658405 22.9604
36.67460498210655 22.9131
36.69806093788647 22.9911
36.72151848619297 22.8131
36.744977628333636 22.8732
36.76862165890998 22.7194
36.79208400512205 22.7625
36.81554794910557 22.7393
36.83901349217101 22.6818
36.862663978991606 22.646
36.88613273667352 22.5674
36.90960309738324 22.5668
36.933075062434064 22.5308
36.95673202673572 22.4926
36.98020721697122 22.4226
37.003684015502365 22.3838
37.027162423645365 22.3187
37.050825886711465 22.3026
37.07430753063053 22.250999999999998
37.09779078812467 22.2795
37.121275660513014 22.2474
37.144945643673694 22.1701
37.16843376245278 22.1822
37.19192350009803 22.1807
37.215414857931435 22.1237
37.239091382563885 21.9554
37.262585997426164 21.9613
37.28608223645736 22.0162
37.309763684451696 21.9702
37.33326318851098 21.9228
37.356764320726555 21.9307
37.380267082425526 21.909000000000002
37.40395510942588 21.8281
37.42746114683234 21.7597
37.45096881771841 21.7588
37.474478123414166 21.7281
37.49817275092816 21.6819
37.52168534303452 21.7178
37.54519957395567 21.5971
37.568715445024665 21.6479
37.592416694607714 21.5642
37.61593586281424 21.5653
37.63945667518264 21.559
37.66297913304891 21.4285
37.68668702630454 21.4728
37.710212792059274 21.353
37.733740207334854 21.3821
37.757269273470364 21.3186
37.780983832050374 21.3353
37.80451621684926 21.2045
37.82805025654007 21.2179
37.851585952464795 21.2081
37.8753071980695 21.1638
37.89884622345676 21.0746
37.92238690911902 21.0822
37.94611318753442 21.0285
37.969657210779765 21.0532
37.99320289834801 21.0061
38.016750251586465 20.9699
38.04048325513017 20.9659
38.06403395679343 20.8557
38.087586328183946 20.8401
38.11114037065203 20.8389
38.13488012115898 20.872
38.1584375229181 20.7329
38.181996599821 20.6999
38.205557353221124 20.6863
38.229303872575656 20.6885
38.2528679961576 20.6242
38.27643380031219 20.6136
38.30000128639589 20.5914
38.32375459653193 20.5087
38.34732546371299 20.5167
38.37089801690786 20.4567
38.39447225747609 20.4509
38.418232380377425 20.3757
38.441810012983396 20.4128
38.46538933705673 20.4056
38.488970353960084 20.366
38.51273731166058 20.2924
38.536321731567014 20.2404
38.55990784840681 20.1865
38.58367995004091 20.1227
38.60726947812959 20.1037
38.63086070726198 20.0939
38.654453638806274 20.1442
38.678232613930824 20.0564
38.70182896773327 20.0168
38.72542702806741 19.9983
38.7490267963045 19.9333
38.77281266709232 19.9138
38.79641586862214 19.923
38.8200207821842 19.8527
38.843627409152944 19.8503
38.86742019782782 19.8503
38.891030269149255 19.7838
38.914642058016156 19.7356
38.938255565806124 19.6756
38.96205529464307 19.6292
38.98567225787121 19.6119
39.00929094417078 19.6352
39.03291135492255 19.6203
39.05671804624804 19.5431
39.080341923549106 19.5154
39.103967529460334 19.4689
39.127594865365744 19.3719
39.15140854155791 19.3869
39.17503935514948 19.3398
39.19867190290282 19.3959
39.22249083587951 19.3366
39.24612686969409 19.3498
39.269764641845306 19.2774
39.293404153722804 19.2268
39.317230110864074 19.1014
39.34087311998506 19.1582
39.36451787301696 19.0905
39.388164371352595 19.0322
39.41199737518003 19.0603
39.43564738196752 19.0753
39.45929913825317 18.9503
39.48295264543308 18.9142
39.506792718520884 18.9507
39.530449745387216 18.9386
39.55410852735203 18.883
39.57776906581474 18.9329
39.60161623079 18.8291
39.625280300200025 18.7902
39.64894613032202 18.6922
39.67261372255866 18.7352
39.6964680021016 18.7214
39.72013913657293 18.7211
39.74381203738292 18.6881
39.76748670593756 18.6904
39.79134812278169 18.6565
39.81502634488497 18.5607
39.83870633896685 18.5132
39.862388106436654 18.4931
39.88625668336918 18.5014
39.90994201572829 18.4761
39.933629125719285 18.4196
39.957503091207826 18.4158
39.9811937746168 18.3997
40.00488623990914 18.3653
40.02858048850006 18.2972
40.05246165409549 18.2904
40.076159487492085 18.1724
40.099859108448875 18.2002
40.123560518384345 18.2459
40.1474489070226 18.2229
40.171153913178564 18.0926
40.194860712584955 18.0662
40.2185693066637 18.095
40.242464941335314 18.0825
40.26617714307655 17.9908
40.289891143772046 17.9685
40.3136069448471 18.0125
40.33750984859743 17.9158
40.3612292688043 17.9102
40.3849504936829 17.8734
40.40867352466194 17.8872
40.43258372059144 17.8484
40.45631038219906 17.8051
40.48003885420956 17.7224
40.503769138055105 17.7425
40.52768664931955 17.725
40.55142057531802 17.757
40.57515631746428 17.6461
40.599079334038514 17.6255
40.62281872700477 17.5879
40.64655994043941 17.5484
40.67030297578061 17.548
40.69423334835778 17.5135
40.71798004609188 17.4828
40.74172857006355 17.4159
40.76547892171441 17.465999999999998
40.7894166736039 17.4136
40.813170699248566 17.3778
40.83692655691388 17.384
40.86068424804498 17.366
40.884629402612525 17.2516
40.908390779366385 17.2636
40.932153993938 17.2497
40.95591904777605 17.1696
40.979871628443995 17.1883
41.003640379561936 17.1453
41.02741097430883 17.1468
41.05118341413683 17.0826
41.075143444384416 17.0848
41.098919593177826 17.1068
41.1226975914255 17.1124
41.14647744058318 17.000999999999998
41.170444943946755 16.9916
41.19422851378379 16.9288
41.218013938914645 16.8844
41.24198706625173 16.8371
41.26577622087193 16.8439
41.289567235177785 16.858
41.31336011063129 16.7992
41.337340752422875 16.769000000000002
41.361137369129835 16.7562
41.38493585138705 16.7095
41.40873620066004 16.6738
41.43272438060107 16.69
41.45652848292052 16.5985
41.48033445666918 16.5384
41.50414230331616 16.5361
41.528138045159764 16.5579
41.551949656675205 16.5221
41.575763145513235 16.5054
41.59957851314666 16.4329
41.62358184070442 16.3978
41.64740098505737 16.4118
41.6712220126409 16.3108
41.69504492493139 16.2884
41.71905586207357 16.3276
41.74288256296395 16.2911
41.766711153007456 16.2258
41.79054163368412 16.2281
41.814560204340054 16.2678
41.838394485526365 16.1891
41.86223066180303 16.1169
41.88625497706819 16.1415
41.910094962812 16.1266
41.93393684811168 16.0632
41.95778063445365 15.9784
41.981812625263366 15.9821
42.00566023303407 15.9854
42.029509746323676 15.9702
42.05336116662236 15.9213
42.077400857069705 15.9406
42.10125611078846 15.8909
42.12511327600405 15.8226
42.14897235421036 15.8194
42.173019768448455 15.8016
42.19688269209613 15.7722
42.22074753323349 15.7596
42.24461429335818 15.7037
42.268669455600495 15.6726
42.292540073217886 15.6805
42.31641261433284 15.6792
42.34028708044675 15.5832
42.36435001496739 15.6091
42.38822835065557 15.5869
42.41210861586426 15.4926
42.4359908120986 15.4862
42.46006154323262 15.4916
42.48394762115317 15.4039
42.507835634632315 15.459000000000001
42.531912233047436 15.4182
42.55580413732265 15.369000000000002
42.579697981698 15.365
42.60359376768525 15.3204
42.62767820545945 15.2764
42.65157789440821 15.2887
42.67547952952185 15.2521
42.699383112316 15.2659
42.72347541395347 15.2122
42.74738291190531 15.1511
42.771292362102166 15.1228
42.795203766063516 15.1391
42.819303956130405 15.1506
42.843219287476536 15.0689
42.86713657716324 15.0412
42.89105582671383 15.0148
42.91516392983864 15.0286
42.939087119032166 14.9706
42.963012272677304 14.8924
42.98693939230129 14.8982
43.01105543317513 14.9109
43.034986504731386 14.860999999999999
43.05891954686589 14.8572
43.08285456110972 14.7756
43.10697856448665 14.7734
43.130917542983475 14.7517
43.15485849820081 14.7628
43.17880143167367 14.7464
43.20293342237094 14.6879
43.226880332449 14.6346
43.25082922540554 14.6564
43.27496722682525 14.623
43.29892010567796 14.5474
43.32287497204102 14.5672
43.34683182745632 14.5171
43.370977859791836 14.5286
43.39493871351105 14.4824
43.41890156092628 14.5155
43.44286640358341 14.4525
43.46702049182749 14.4478
43.49098934522816 14.4374
43.51496019852649 14.3729
43.5389330532723 14.3515
43.56309522248204 14.2799
43.58707210044314 14.28
43.61105098451946 14.2626
43.63503187626491 14.2178
43.659202151562134 14.2173
43.68318707902681 14.2138
43.70717401884041 14.1487
43.731162972560874 14.145999999999999
43.75534137913236 14.1291
43.779334381108384 14.085
43.803329401683186 14.0821
43.82732644241872 14.0489
43.8515130055166 14.038
43.87551410707659 13.9533
43.89951723350145 13.9938
43.923709934595614 13.9613
43.94771713129917 13.952
43.97172635758096 13.8999
43.99573761501002 13.8809
44.0199385169922 13.8828
44.04395385732619 13.8435
44.067971233533086 13.8629
44.09199064718605 13.7813
44.11619977548961 13.7732
44.14022328470671 13.6907
44.16424883610785 13.7468
44.18827643127035 13.7245
44.21249381139513 13.695
44.236525514814076 13.6868
44.26055926674478 13.6059
44.28459506876863 13.6188
44.3088207262813 13.5689
44.33286064928722 13.5363
44.35690262714919 13.5126
44.38094666145278 13.5246
44.4051806219871 13.5121
44.42922879003185 13.4836
44.45327901929361 13.4359
44.477331311362136 13.4684
44.501573600619416 13.3966
44.525630039221795 13.3236
44.54968854541895 13.3641
44.573937102200176 13.3784
44.5979997645541 13.3032
44.622064499300315 13.2605
44.64613130803592 13.2155
44.67038823869318 13.2297
44.69445921643748 13.2152
44.718532272981385 13.1453
44.742607409926194 13.1297
44.76687274034801 13.1044
44.79095205918753 13.079
44.81503346325094 13.0373
44.839116954143876 13.0532
44.86339071028742 13.0706
44.88747839599524 13.0146
44.91156817336837 13.0393
44.93566004401666 13.0076
44.959942251908146 12.9513
44.984038330325966 12.933
45.00813650686762 12.8519
45.03223678314731 12.8982
45.05652746888232 12.8858
45.08063196592069 12.8444
45.104738567558705 12.8032
45.128847275414856 12.8206
45.15314646515866 12.7396
45.17725940679741 12.821
45.20137445952892 12.717
45.22568004865265 12.6522
45.24979934496396 12.6586
45.27392075725247 12.6731
45.29804428714431 12.6684
45.322358426247604 12.6151
45.346486212804315 12.6047
45.370616121861914 12.5901
45.39474815505086 12.5441
45.41907087049246 12.501
45.4432071734666 12.4827
45.46734560548283 12.4583
45.49148616817604 12.4373
45.51581748638564 12.4201
45.5399623320197 12.4131
45.56410931325473 12.3593
45.58825843173002 12.3816
45.61259837920865 12.3541
45.636751793816 12.3457
45.66090735060093 12.2723
45.68506505120716 12.2952
45.7094136545275 12.2022
45.73357566449271 12.1994
45.75773982322992 12.2118
45.78190613238733 12.2273
45.806263418194064 12.1659
45.83043404997326 12.1667
45.85460683713677 12.1318
45.87897065658495 12.1111
45.90314777634752 12.054
45.92732705646868 12.027000000000001
45.9515084986045 12.0343
45.97588104735473 11.9953
46.00006683541565 11.9828
46.02425479047904 11.9808
46.04844491420549 11.9567
46.0728262191024 11.9007
46.09702070211635 11.9395
46.12121735879483 11.8915
46.14541619080294 11.8794
46.169806278764455 11.8582
46.194009483459034 11.838
46.21821486849841 11.7902
46.24242243555223 11.7596
46.266821333570014 11.7714
46.29103328674601 11.7746
46.31524742696538 11.7252
46.33946375590237 11.6797
46.36387149104216 11.6677
46.38809221957392 11.6083
46.41231514186606 11.6124
46.436540259597464 11.6121
46.460956858999374 11.5883
46.48518638983522 11.5759
46.509418121166966 11.552
46.533652054678114 11.4965
46.55807754555709 11.4991
46.58231590571962 11.4854
46.60655647313217 11.4736
46.630988654873654 11.4432
46.655233659129024 11.3999
46.67948087571551 11.407
46.70373030632484 11.3644
46.72817142736393 11.3595
46.752425308428684 11.3591
46.77668140861147 11.3126
46.80093972960865 11.2903
46.82538981736788 11.2714
46.849652602470904 11.2546
46.87391761349769 11.1763
46.8981848521493 11.1935
46.9226439341274 11.1887
46.946915650573224 11.1364
46.97118959976749 11.1597
46.99546578341598 11.1399
47.019933887188216 11.1397
47.04421456235744 11.0954
47.06849747711879 11.087
47.09278263318286 11.0249
47.11725978640143 11.0252
47.14154944775105 10.9837
47.165841355555656 10.98
47.1901355115306 10.9448
47.214621741924994 10.8993
47.23892041698887 10.8991
47.26322134538975 10.8977
47.28771440635075 10.8996
47.31201986422527 10.8673
47.33632758061436 10.8544
47.360637557241866 10.8129
47.38513974410611 10.7986
47.40945426407847 10.7642
47.43377104948137 10.7588
47.45809010204344 10.7097
47.48260144275502 10.7228
47.506925052572285 10.7131
47.53125093475548 10.6455
47.55557909103813 10.6266
47.58009961361992 10.6276
47.60443234110732 10.6067
47.62876734791564 10.5875
47.65310463578333 10.6015
47.6776343683373 10.5583
47.7019762413987 10.5206
47.72632040075572 10.5212
47.75066684815169 10.51
47.77520581885936 10.474
47.799556865477655 10.4465
47.823910205386 10.4764
47.84826584033272 10.4633
47.87281407745551 10.4152
47.89717432569297 10.4238
47.92153687423484 10.3864
47.94609208429692 10.3456
47.97045925671401 10.3313
47.99482873471275 10.2873
48.01920052005013 10.2796
48.04376504619224 10.2818
48.068141469543484 10.2942
48.09252020552573 10.2324
48.11690125590099 10.219
48.1414751266064 10.1787
48.16586082917454 10.1515
48.19024885144316 10.125
48.2146391951793 10.1372
48.239222439012764 10.1514
48.26361744916137 10.0889
48.28801478610016 10.0926
48.31241445160131 10.0607
48.337007097209366 10.0739
48.36141144338331 10.0403
48.38581812345755 9.97308
48.41022713920929 10.0165
48.434829215320704 9.99677
48.45924292604658 9.98374
48.48365897780325 9.96878
48.50807737237308 9.95278
48.532688907799276 9.88915
48.55711201168574 9.86369
48.581537463754074 9.89103
48.60615611725119 9.8854
48.63058628942721 9.884319999999999
48.65501881516546 9.84534
48.6794536962573 9.800980000000001
48.70408185970339 9.78491
48.72852147531801 9.762080000000001
48.75296345168211 9.7261
48.77740779059232 9.74915
48.80204549302823 9.7349
48.82649458091802 9.718119999999999
48.85094603676547 9.64972
48.87539986237231 9.62808
48.90004713292306 9.58331
48.92450572200832 9.62015
48.94896668628025 9.61195
48.97343002754588 9.60056
48.99808689542115 9.604560000000001
49.02255501470614 9.53761
49.04702551642794 9.50528
49.0714984023988 9.51886
49.096164896893235 9.519910000000001
49.120642575466796 9.47236
49.145122643748394 9.46001
49.16960510355558 9.43618
49.19428125404938 9.42825
49.2187685210852 9.43256
49.243258185121555 9.38722
49.26794160167084 9.35109
49.2924360839405 9.34655
49.31693296869764 9.313830000000001
49.34143225776915 9.33174
49.36612538195438 9.33517
49.39062950396021 9.272860000000001
49.41513603578346 9.26215
49.4396449792564 9.2457
49.46434784069503 9.22339
49.488861631846454 9.20308
49.513377840166804 9.18464
49.537896467493745 9.15057
49.56260909589029 9.12372
49.587132585683285 9.14648
49.611658500018365 9.120560000000001
49.636186840738596 9.092139999999999
49.66090926588511 9.08801
49.685442483902584 9.087589999999999
49.70997813385706 9.052480000000001
49.734516217597076 9.0536
49.75924846937352 9.02899
49.7837914452858 8.98969
49.80833686055187 8.94732
49.83288471702571 8.9445
49.85762682540054 8.96927
49.882179588965734 8.94722
49.9067347993235 8.90625
49.93129245833333 8.89401
49.95604445336378 8.932830000000001
49.98060703442832 8.83889
50.005172069746266 8.843760000000001
50.02993150438364 8.775789999999999
50.05450147301533 8.80485
50.07907390151433 8.78467
50.10364879174981 8.78248
50.12841816587289 8.75243
50.1529980044635 8.73862
50.17758031042124 8.72483
50.20216508562089 8.73316
50.22694442953363 8.6915
50.25153416817468 8.6762
50.27612638170508 8.65145
50.300721072005196 8.60891
50.325510416102105 8.59624
50.350110084975064 8.56145
50.37471223628208 8.598939999999999
50.39931687190919 8.55317
50.424116246675766 8.56435
50.44872587605249 8.60621
50.47333799543065 8.53
50.49795260670191 8.50098
50.52276204271512 8.48433
50.54738166295838 8.48972
50.57200378079314 8.45968
50.596628398116835 8.4436
50.62144792604559 8.41023
50.646077567609396 8.40762
50.670709714377715 8.41272
50.69553683636198 8.35706
50.72017401885922 8.353660000000001
50.7448137122895 8.36444
50.76945591856022 8.32831
50.79429318636823 8.302
50.818940443716784 8.34394
50.84359021965163 8.28588
50.868242516085964 8.29773
50.893089960641895 8.257019999999999
50.917747323549435 8.22551
50.94240721271973 8.19433
50.96706963007175 8.181189999999999
50.99192728239342 8.202
51.01659478166073 8.22356
51.04126481489051 8.1357
51.06593738400761 8.14906
51.090805275207074 8.13683
51.11548294172845 8.12261
51.14016314993547 8.099739999999999
51.164845901758845 8.098460000000001
51.18972406304274 8.06296
51.21441192780656 8.016860000000001
51.23910234200271 8.02905
51.2637953075678 7.99489
51.288683770237945 7.982310000000001
51.31338186432707 7.96974
51.33808251561888 7.932460000000001
51.362978729967345 7.95033
51.387684521509755 7.967410000000001
51.41239287610203 7.9518
51.437103795691165 7.89209
51.46201036644977 7.88997
51.486726441956634 7.8487100000000005
51.51144508832545 7.82028
51.536166307509156 7.81447
51.56108326624387 7.809639999999999
51.58580965706056 7.764469999999999
51.61053862657523 7.755610000000001
51.635270176746864 7.736610000000001
51.66019755512065 7.7687100000000004
51.68493429268881 7.73354
51.70967361681515 7.70962
51.73441552946465 7.70985
51.759353359237934 7.703689999999999
51.7841004750961 7.66655
51.80885018539685 7.64468
51.833602492111254 7.669460000000001
51.8585508051424 7.62292
51.883308330926425 7.5928
51.90806845906181 7.57148
51.932831191525715 7.57141
51.95779001977161 7.564939999999999
51.98255798721516 7.523110000000001
52.00732856494335 7.51768
52.03229530577543 7.460030000000001
52.057071130455945 7.44768
52.081849571391054 7.457789999999999
52.106630630568695 7.49298
52.13160794279417 7.44517
52.15639426492067 7.4438699999999995
52.18118321127822 7.42426
52.205974783860896 7.378830000000001
52.23096269971011 7.40407
52.255759551287994 7.395389999999999
52.280559035098186 7.33978
52.30536115314103 7.3541300000000005
52.33035970494467 7.3701
52.35516711807904 7.35668
52.37997717147198 7.279780000000001
52.40478986713005 7.28591
52.42979908731974 7.272939999999999
52.454617094216 7.29236
52.47943774942214 7.240589999999999
52.50426105495102 7.232010000000001
52.529280976059844 7.20447
52.554109609024096 7.1571
52.57894089837482 7.15561
52.60377484613117 7.1854
52.62880550079408 7.1839
52.65364479223379 7.12613
52.67848674816189 7.105
52.70352547971946 7.0844
52.72837279155837 7.05957
52.753222773982785 7.08225
52.778075429022984 7.0693399999999995
52.80312495150885 7.083410000000001
52.827982978797436 7.03949
52.85284368481815 6.97863
52.87770707160767 6.974069999999999
52.90276741793998 6.94175
52.92763619336701 6.95603
52.952507655698504 6.9428
52.977381806977576 6.96258
53.00245301017842 6.922610000000001
53.02733256653592 6.9272800000000005
53.052214817996074 6.91821
53.077099766608484 6.89146
53.102181859804446 6.87138
53.127072229988265 6.869330000000001
53.15196530349892 6.8808300000000004
53.17686108239249 6.8375
53.20195409881522 6.83122
53.22685531582556 6.82038
53.25175924441303 6.739330000000001
53.27666588664027 6.74069
53.30176985962693 6.76037
53.3266819565689 6.73302
53.35159677336455 6.7065399999999995
53.376514312083096 6.66851
53.40162927507703 6.7182699999999995
53.42655228516116 6.690739999999999
53.45147802340193 6.641310000000001
53.47660125628886 6.63797
53.50153247842639 6.63437
53.52646643496923 6.59755
53.55140312799818 6.566730000000001
53.576537409691696 6.610189999999999
53.60147960336152 6.555339999999999
53.626424539786164 6.5733
53.65137222105307 6.54777
53.67651758529126 6.5277199999999995
53.70147078399681 6.48305
53.72642673383343 6.501580000000001
53.75138543689533 6.498530000000001
53.776541917524526 6.5235
53.801506154876755 6.45809
53.826473151763246 6.442769999999999
53.851442910284916 6.43812
53.87661054126026 6.39366
53.9015858509782 6.40643
53.92656392866066 6.37467
53.95154477641532 6.397880000000001
53.976723591801296 6.323869999999999
54.00171000771266 6.35219
54.02669920004598 6.3228800000000005
54.051691170915745 6.31919
54.076881204886796 6.30956
54.101878760928514 6.3291699999999995
54.12687910187696 6.295
54.152077577768296 6.280480000000001
54.1770835166946 6.252000000000001
54.20209224691339 6.22197
54.22710377055121 6.16078
54.25231352511594 6.20756
54.27733066384342 6.15679
54.30235060239643 6.20156
54.32737334290836 6.1304099999999995
54.35259441062629 6.16266
54.377622783395324 6.11182
54.40265396455061 6.138809999999999
54.42768795623251 6.08212
54.45292037169559 6.044569999999999
54.477960012857906 6.02656
54.50300247099511 6.0344
54.52804774825457 5.98276
54.55329154616743 5.95619
54.57834249018678 5.923109999999999
54.6033962597977 5.92004
54.6284528571545 5.91788
54.653708072335164 5.87275
54.67877035378786 5.8579099999999995
54.70383546947698 5.82229
54.72890342156389 5.80681
54.7541700889442 5.8136
54.77924374251975 5.8284
54.8043202390049 5.77221
54.82959552413022 5.74089
54.8546777351945 5.72347
54.87976279569621 5.68687
54.90485070780914 5.7083699999999995
54.930137506558005 5.60845
54.95523115074295 5.67178
54.98032765308844 5.63336
55.005427015775496 5.6095
55.03072536339621 5.62516
55.05583047570572 5.6121099999999995
55.080938454927676 5.57065
55.10604930325027 5.52037
55.131359235107396 5.5123
55.15647585066083 5.4599400000000005
55.181595341907496 5.47077
55.20671771104285 5.44131
55.232039262617704 5.40476
55.25716741665048 5.40601
55.28229845518636 5.36448
55.30743238042802 5.30056
55.33276558731939 5.373419999999999
55.357905315183636 5.32364
55.383047936390035 5.25929
55.40819345314859 5.239809999999999
55.433538351073295 5.2082
55.458689688238415 5.24072
55.483843927614096 5.15551
55.509197623043605 5.1492
55.53435769621134 5.15183
55.55952067826466 5.14446
55.5846865714265 5.1005199999999995
55.61005202069737 5.06048
55.63522376553902 5.04971
55.66039842818645 5.0529
55.68557601087004 5.06784
55.7109532500271 4.96329
55.73613670233794 4.9793199999999995
