TT I
1.2716486653135266 7.40475
1.2939594142134223 7.26235
1.3162702121660406 7.105980000000001
1.3385810600174564 7.02775
1.3608919586137629 6.88915
1.383202908801069 6.379980000000001
1.405513911425503 6.38931
1.4278249673332093 6.1595699999999995
1.4501343378461518 6.5544
1.4724455028545926 6.31093
1.4947567236847858 6.4005
1.517068001182951 6.32587
1.5393793361953272 6.3964099999999995
1.5616907295681737 5.32385
1.5840021821477681 5.89158
1.60631369478041 5.4436599999999995
1.6286252683124185 5.08205
1.6509369035901333 5.33937
1.6732468618895553 5.280869999999999
1.695558623192809 4.65833
1.7178704487808514 5.4458400000000005
1.7401823395001077 5.53135
1.7625012545597203 5.28242
1.7848028405262486 5.17184
1.8071218901122095 5.310230000000001
1.8294236121921872 4.58871
1.8517427996910911 4.7325
1.8740620574440425 4.54039
1.8963639900671978 5.462330000000001
1.9186833908139995 4.6984900000000005
1.9409854680117449 5.47508
1.9633050151394713 5.00896
1.9856246367570705 4.85979
2.0079269371922672 4.86714
2.03024671027244 4.64652
2.0525491637446027 4.74718
2.074869091674931 3.9590099999999997
2.097171701569106 4.43425
2.1194917877373847 5.0753900000000005
2.141811954326636 4.1616
2.164114805233074 4.91061
2.186435135143035 6.187530000000001
2.208738150935709 17.0283
2.231058647554722 36.5943
2.2533792288321184 28.9989
2.275682498336085 12.1588
2.298003251406138 6.865139999999999
2.3203066942619714 5.47854
2.3426276225136022 5.144480000000001
2.3649486396617507 5.12918
2.387252348930071 5.35712
2.4095735463442893 5.35141
2.4318774374315884 6.00277
2.4541988185014043 6.679410000000001
2.476502894794693 6.71554
2.498824462909887 6.35465
2.521146125856138 5.94961
2.5434504863470337 5.99254
2.5657723414244717 6.53068
2.588076895590662 7.77762
2.610398946189713 7.69596
2.6327210958598384 7.970260000000001
2.6550259469304716 7.924060000000001
2.6773482972090137 7.3723
2.6996533504259 7.1390899999999995
2.7219759047039602 7.454789999999999
2.744298562293959 7.53937
2.7666039251246595 7.42162
2.7889267918020164 7.74896
2.8112323652516555 7.7620000000000005
2.833555444408179 7.880839999999999
2.8558786311183852 8.34116
2.8781845268938557 8.71359
2.9005079311721484 8.93035
2.9228140460410397 8.92561
2.9451376712799635 9.0872
2.967444008632326 9.74756
2.9897678582247247 10.0699
3.0120918213106695 10.4743
3.0343984987899373 10.8793
3.0567226913198637 10.9911
3.079029599759726 12.3273
3.101354025127254 12.7209
3.123678568232338 13.6906
3.145985829517914 13.3663
3.16831061055229 13.7167
3.1906181112775593 14.9585
3.212943133635653 15.2244
3.2352682779763207 15.1194
3.2575761442691227 15.6446
3.2799015350264273 16.297
3.302209649240067 16.695999999999998
3.3245352898092655 16.9023
3.3468436553365257 17.9645
3.369169549113219 18.2671
3.3914955708171384 19.5332
3.413804319727358 19.2662
3.4361305997334863 19.4771
3.4584396084414553 20.0034
3.4807661501462652 21.1693
3.503092824025881 21.6254
3.5254022288463154 21.7942
3.5477291695206588 22.1486
3.5700388426251948 23.4319
3.5923660534916446 25.0176
3.6146934007816114 44.478
3.637003482731501 116.348
3.6593311053109985 132.44299999999998
3.681641464033634 72.6031
3.7039693653009733 34.3033
3.726297407241705 27.3924
3.7486081875460804 26.8535
3.7709365132734978 26.7915
3.793247578841633 27.0802
3.8155761917550093 27.5045
3.8378875459837216 27.7599
3.8602164494827234 28.197
3.882545499606844 29.0201
3.9048572932539183 29.8403
3.9271866390645718 30.0593
3.9494987298666713 30.6464
3.971828374764527 31.2037
3.9941581705403255 31.7311
4.016470713506008 32.0098
4.038800813471445 32.7228
4.061113662089144 33.4849
4.0834440696459176 34.6336
4.105774632334751 34.9455
4.128087945865126 35.2508
4.150418821249301 36.128
4.172732448931298 38.0786
4.195063640413578 40.6969
4.2173775856475215 45.8514
4.239709096631102 87.3691
4.262040768704612 314.665
4.284355196706267 439.265
4.306687193387355 280.694
4.329001947444346 99.8817
4.35133427213731 51.6835
4.373666762177566 46.5068
4.395982011761091 45.9039
4.418314834921175 47.343
4.44063041906622 57.6586
4.4629635787515625 72.947
4.4852969080429785 72.9954
4.5076130004776225 57.7786
4.529946671403969 52.2939
4.552263106909177 52.1501
4.574597122877047 52.3473
4.596931312711224 53.6753
4.619248269273446 53.9531
4.6415828092605835 55.0666
4.663900117405352 56.4439
4.686235010953232 57.7307
4.708552674085913 59.2902
4.730887924602802 60.6282
4.753223354952695 61.5851
4.775541557023902 63.4886
4.797877349456786 64.8446
4.820195915032126 66.9462
4.842532072957498 67.7266
4.864868414979744 70.1867
4.88718753227192 72.3451
4.909524244902505 74.4586
4.931843734218147 76.1029
4.954180820867835 78.7325
4.976518095879839 82.0985
4.998838149695359 84.74700000000001
5.021175803844231 88.5393
5.043496238205739 92.1562
5.065834274903528 96.8575
5.088172504230693 102.235
5.1104935158799565 109.505
5.132832132875765 139.405
5.155153533596801 199.983
5.1774925416746225 244.21900000000002
5.199814334878411 421.589
5.2221537374521505 1146.74
5.244493338631803 2872.67
5.266815727034316 6723.31
5.289155727832427 11462.8
5.311478517248165 9375.84
5.333818921080011 3593.18
5.356159527788849 766.0989999999999
5.3784829252032536 223.94
5.400823940070432 159.893
5.423147747031976 137.85
5.445489173474152 125.848
5.467830807066149 118.852
5.490155234831516 113.865
5.512497285125229 109.52
5.534822130975162 107.14299999999999
5.557164601388673 104.948
5.579489868738879 101.80799999999999
5.601832762690846 100.945
5.6241758697774475 100.40700000000001
5.646501775867269 99.2275
5.668845311622074 96.9899
5.691171647754637 95.98100000000001
5.713515615597765 95.1006
5.735859800852677 94.5824
5.758186788542988 93.8662
5.780531411018185 94.0643
5.802858837297399 93.3981
5.825203900414495 93.62700000000001
5.8475491852224 93.7427
5.869877275883075 94.4705
5.892223006467101 95.4645
5.914551544266608 96.853
5.936897724049891 100.24700000000001
5.959244129804903 106.36200000000001
5.981573344815301 127.086
6.0039202049061 228.31400000000002
6.026249875609095 494.98800000000006
6.04859719346037 1009.42
6.070927323278297 2029.53
6.093275102315365 3884.0
6.115623113320588 4966.81
6.137953938319995 3515.63
6.160302415650845 1270.05
6.182633708324452 310.17900000000003
6.2049826554078376 130.129
6.227331838745022 100.32799999999999
6.249663839443684 90.2497
6.27201349767565 86.7598
6.294345974611799 96.3876
6.316696111167083 114.16
6.339046488263839 106.868
6.361379686074702 85.3588
6.383730546639482 74.3537
6.406064229255215 71.1182
6.428415576718203 70.1353
6.450749747566656 69.0702
6.47310158535871 68.1963
6.495453669698332 66.8294
6.517788579421056 66.032
6.540141159237969 65.6285
6.562476565766648 64.9928
6.5848296444934045 64.7345
6.607182974060425 64.1643
6.6295191323281015 64.4295
6.651872965955752 68.9006
6.6742096296068985 104.631
6.6965639707294615 171.418
6.71891856698715 175.127
6.741255995248479 111.98299999999999
6.763611104154477 73.3404
6.785949046381137 62.8093
6.808304671371482 60.4903
6.8306605557940046 59.6679
6.852999275508618 59.0348
6.875355681171544 58.4828
6.897694923437771 58.0335
6.92005185377892 58.1441
6.9423916220322655 57.8697
6.964749080490181 57.4563
6.987106804399774 57.5559
7.009447368180821 57.2992
7.031805625367033 57.0674
7.054146723727803 56.7237
7.076505517631004 56.5771
7.098864581288365 56.5491
7.121206488070854 56.4399
7.143566093607822 56.643
7.165908543567245 57.2863
7.188268694426048 57.0764
7.2106291193438095 57.1437
7.232972390625943 59.4162
7.255333366030969 75.6173
7.277677189091925 151.29
7.300038718428332 222.982
7.322400526130865 188.541
7.344745183422596 106.774
7.367107550224791 66.7168
7.389452767901992 58.9502
7.411815697249891 57.111999999999995
7.434161478756298 56.2965
7.456524974096713 55.8816
7.478888753837185 55.8528
7.501235387657368 56.1913
7.523599738562711 56.0953
7.545946944825532 56.5542
7.568311870344528 56.9869
7.5906770845765665 57.0933
7.613025156078678 58.9651
7.635390950099687 60.8503
7.657739602662809 59.5212
7.680105979923558 57.7567
7.702472650212829 57.365
7.724822180948224 57.0464
7.747189439655568 57.2165
7.769539560075357 57.1963
7.791907410653562 57.8646
7.81425812420825 58.0005
7.836626570110925 57.8746
7.858995315087906 58.9404
7.881346924933401 58.8503
7.903716270417482 59.6111
7.926068482028405 60.1403
7.948438431475253 60.4608
7.9708086843180235 60.9193
7.993161805171116 61.6124
8.015532667162402 61.7681
8.037886398416653 62.8777
8.060257873014221 63.5174
8.082629655331942 64.1573
8.104984308787587 65.2706
8.127356708900503 69.498
8.149711981398308 77.4787
8.172085002766314 80.64399999999999
8.194458336181368 75.7745
8.216814543847752 71.2041
8.23918850371002 71.2019
8.26154533906492 71.7957
8.283919928836452 73.1976
8.306277395339652 74.069
8.328652618483376 75.4473
8.351028159736202 77.5423
8.373386579575245 79.9102
8.395762759396959 81.7213
8.418121819038275 87.8845
8.440498640894003 105.178
8.462875785192262 124.134
8.485235811156207 137.085
8.507613602688501 176.50900000000001
8.529974277114228 268.52
8.552352719347912 402.907
8.574731488360351 635.996
8.59709314210385 1061.46
8.619472567021075 1657.77
8.64183487789147 2116.13
8.664214962183097 1907.24
8.686577933647762 1153.83
8.708958680784317 470.219
8.731339760774953 196.14700000000002
8.753703729764451 121.883
8.77608547780821 104.095
8.798450116065078 98.9839
8.820832535634787 95.5442
8.843215292401656 93.5905
8.865580941199045 91.8262
8.887964374703538 90.6632
8.910330701447199 92.4239
8.932714815164482 95.9183
8.955099270424924 95.2174
8.977466620733543 91.2122
8.999851761421976 87.2733
9.022219798361645 85.6297
9.04460562795561 85.1824
9.066991803441677 84.5523
9.089360876979615 84.2097
9.111747746589993 83.9243
9.13411751544971 83.0983
9.156505082664324 83.281
9.178875550323522 83.8378
9.20126381862328 84.1958
9.223652438908596 84.4479
9.246023961427412 84.3083
9.26841328802173 83.3403
9.290785518039224 83.0119
9.313175554425882 83.9366
9.335565947154315 84.0414
9.357939245086508 84.58200000000001
9.380330352834827 84.3544
9.40270436697103 84.215
9.425096193225055 84.5001
9.447488380180165 85.3539
9.469863475295412 85.3267
9.492256385987508 85.7243
9.514632206018318 86.8949
9.537025843935714 87.2505
9.559402392368193 87.7605
9.581796761000229 89.0276
9.604191496441521 90.1857
9.626569144158516 94.5381
9.648964615551032 101.49600000000001
9.671343000390081 103.24700000000001
9.693739211225699 99.6046
9.716135793237463 96.0296
9.738515290448102 94.8723
9.760912617143402 95.7868
9.783292860202891 97.007
9.805690935076182 98.4964
9.828089385495742 99.29
9.850470754023561 102.152
9.872869957865444 111.84299999999999
9.89525208097539 132.14700000000002
9.917652041736662 150.19799999999998
9.940052382417589 148.631
9.962435644102392 150.653
9.984836746950979 184.886
10.007220771957746 253.08599999999998
10.029622640473708 355.85
10.052007432299963 514.229
10.074410069984072 749.815
10.096813093716005 1125.63
10.119199042482517 1584.47
10.141602840636468 1910.48
10.163989564971628 1785.94
10.186394141051062 1120.0
10.208799107559706 520.545
10.231187001965623 239.267
10.253592751657669 141.497
10.275981430388155 119.914
10.298387966769793 119.083
10.320794897965431 122.765
10.343184759907361 121.99799999999999
10.36559248305461 113.77799999999999
10.387983138083852 108.25399999999999
10.410391656691655 110.385
10.432800574501677 121.882
10.455192425893369 139.50799999999998
10.47760214443012 163.59
10.499994797678786 201.31799999999998
10.522405320453982 264.02
10.54479877906917 356.483
10.567210109595656 469.24199999999996
10.5896218454736 554.564
10.612016518879773 534.3430000000001
10.634429067781074 395.838
10.656824555333241 233.31900000000002
10.679237920773568 140.735
10.701651695961992 102.74
10.724048411481384 92.7809
10.746463008485165 89.0327
10.768860546937125 86.8601
10.791275969274796 85.0455
10.81369180576079 83.7994
10.836090585366925 83.0925
10.858507252467449 81.8845
10.88090686379991 81.0171
10.903324365036394 80.1147
10.925724811614439 80.5739
10.948143150509463 82.6317
10.970561909719066 82.0584
10.992963615930844 79.6534
11.015383218085756 76.8692
11.037785768347074 75.042
11.06020621697282 74.4367
11.082627090322113 74.1468
11.105030913430326 73.4115
11.12745263854165 74.4519
11.149857314510728 79.3844
11.172279894912576 88.3168
11.194702904450653 90.3186
11.217108866490921 84.7036
11.239532736615194 78.1999
11.26193956033512 75.2796
11.284364294577085 73.0159
11.306789462371718 70.8276
11.329197585398376 69.0687
11.351623622610898 68.4284
11.37403261614354 67.7526
11.396459526308487 67.5992
11.418869393879497 67.2949
11.441297180532617 66.5873
11.463725406927658 66.4184
11.486136592353875 66.2812
11.508565700543707 67.1957
11.530977768845315 69.8772
11.553407762368774 71.3843
11.575838200059769 70.714
11.598251599479612 67.5434
11.620682927815501 65.6499
11.64309721895548 65.0473
11.665529441478206 64.578
11.687962112597958 64.382
11.710377748130886 64.3558
11.732811318753434 64.1807
11.755227854859067 64.4105
11.777662328529495 64.4876
11.800079768750786 64.3904
11.822515149015453 63.86600000000001
11.844950984084935 64.1696
11.867369787303163 63.8609
11.889806534289491 63.6048
11.912226250487029 64.2427
11.934663912939751 64.2973
11.9571020346363 64.2513
11.979523127133968 64.2205
12.001962169624331 64.8452
12.024384183972964 65.9784
12.046824150809913 69.2525
12.069264581333726 74.7791
12.091687985297767 81.3116
12.11412934550045 90.1759
12.136553680195208 102.17299999999999
12.158995973632788 120.43799999999999
12.181438735204349 142.093
12.20386447284199 172.188
12.226308172985636 198.44799999999998
12.24873485024193 210.576
12.271179492516982 185.62900000000002
12.293607112949127 144.961
12.316052700916226 109.69
12.338498763250042 86.9484
12.360927805303868 74.8426
12.383374818673879 69.184
12.405804812803074 66.6489
12.428252780773262 65.7855
12.45070122756722 65.9526
12.473132656675375 65.771
12.49558206341869 66.0939
12.518014453510101 65.791
12.540464823770117 66.1078
12.562915677315177 66.0403
12.58534951575545 67.0821
12.607801338171472 70.0105
12.630236146511358 77.07600000000001
12.652688941369085 84.4174
12.675124723177234 85.0659
12.697578494048786 79.4555
12.720032754458185 72.9143
12.742470003354093 69.6874
12.764925245138771 69.3089
12.787363476431278 69.3734
12.809819703166806 69.7866
12.83227642391173 70.7308
12.854716135692716 71.2234
12.877173846755147 72.1415
12.899614549869717 72.1733
12.9220732548287 73.1458
12.94453245827299 73.4477
12.966974655289818 74.7063
12.989434858002571 75.572
13.011878055298721 75.8071
13.034339260862497 76.9713
13.056800969391883 78.1398
13.079245674017244 80.4111
13.101708390774869 82.6316
13.12415410463411 89.8675
13.146617833206086 102.446
13.169064559883248 115.596
13.191529303857127 130.536
13.213994557076367 150.17700000000002
13.236442809902437 179.43200000000002
13.258909083908291 222.328
13.28135835851934 274.409
13.30382565690295 337.23800000000006
13.326293469022952 403.44300000000004
13.348744283242008 430.161
13.371213125129904 388.265
13.39366497011003 299.745
13.416134845360597 201.416
13.438605238843131 139.33700000000002
13.46105863690397 112.965
13.483530069144786 109.443
13.505984506951902 114.382
13.528456981549432 123.74799999999999
13.550929978879088 137.101
13.573385983253365 156.394
13.595860028340867 186.25900000000001
13.618317081455832 226.581
13.64079217790333 277.448
13.663250283359057 327.75
13.685726434770173 370.37
13.708203115221277 361.702
13.730662806148091 299.709
13.75314054697177 218.77700000000002
13.775601299246777 148.536
13.798080104050406 106.728
13.820559442405358 89.4521
13.843021793671388 84.0838
13.865502201420897 82.3399
13.887965623051947 81.5767
13.910447103807167 80.483
13.932929122629764 78.8138
13.955394156785959 78.2421
13.977877254034569 77.3798
14.000343367582113 76.5782
14.022827546871707 75.7544
14.045294743423524 75.2639
14.06778000837062 74.6553
14.090265817715476 74.2625
14.112734645763819 74.0498
14.13522154619454 74.095
14.157691466286913 74.4898
14.180179461423874 73.8819
14.202668005486178 73.3604
14.22513957064374 72.3989
14.247629214846473 71.7987
14.270101881097517 71.4574
14.29259262906496 72.1325
14.315083930490205 73.3779
14.337558255389705 73.732
14.360050666019726 73.7797
14.382526101071944 72.0741
14.405019624534942 71.1302
14.427513705993134 70.3726
14.449990813291825 70.1926
14.47248601302899 70.0857
14.49496423954951 70.0371
14.517460561197822 70.0738
14.539939910570322 69.8347
14.562437357763558 70.2795
14.58493536931253 71.7144
14.607416409993311 73.1112
14.62991555254159 74.2505
14.652397725157423 74.1275
14.674898002342799 73.1261
14.697398848433282 72.0714
14.719882725991326 72.3937
14.74238471217934 73.4374
14.764869730765593 76.9859
14.787372860692983 80.5739
14.809876564079925 85.27600000000001
14.83236330125751 91.0589
14.854868153850365 98.4346
14.877356041159485 109.374
14.899862046604186 124.039
14.922351087688757 143.549
14.944858249632887 167.47
14.967365991421232 193.452
14.989856770231246 214.93599999999998
15.012365673994204 221.53
15.03485761569738 204.351
15.05736768508665 165.40400000000002
15.07987833888692 129.497
15.102372032001655 100.06
15.124883856909658 82.1641
15.14737872204565 75.1166
15.169891721717274 72.7257
15.192405310371893 72.4541
15.214901940621196 72.8519
15.237416709527137 73.3784
15.259914520936249 73.9648
15.282430473753607 72.8296
15.304947020131227 71.2303
15.327446610371178 70.0757
15.349964346154254 68.9885
15.372465126703139 68.4052
15.394984055556009 68.0013
15.417486030076159 67.805
15.44000615566487 67.4527
15.462526881230803 67.65100000000001
15.485030653812652 67.7391
15.507552581617434 67.9448
15.530057557334603 67.9961
15.55258069104857 67.706
15.575104429329837 67.4918
15.597611216864632 67.063
15.620136166564563 67.3184
15.6426441664095 68.0061
15.665170331202765 70.4483
15.687697105158826 73.8453
15.710206930593545 77.6518
15.732734925158933 81.8958
15.755245972089478 87.3184
15.77777519094324 94.8926
15.800287463046663 105.402
15.822817909869592 119.925
15.84534897229804 137.387
15.867863089299354 158.705
15.890395385222186 178.43200000000002
15.912910736597423 192.55900000000003
15.935444269699861 191.63400000000001
15.957978423016485 171.35
15.980495633101265 139.49
16.003031029129367 108.228
16.02554948280019 84.3662
16.048086125229432 71.9912
16.070623392487107 68.3329
16.09314371869582 67.3264
16.11568223789321 66.1323
16.13820381691126 64.9792
16.160743591742527 63.6761
16.183283996022084 62.4
16.205807461423195 61.0663
16.228349126881973 60.4297
16.25087385432698 60.3663
16.27341678466365 59.7949
16.29594277784926 59.7632
16.31848697676433 60.2918
16.341031811604868 60.8346
16.36355971058487 61.59
16.3861058195587 61.3583
16.40863499352978 59.7251
16.431182380342005 58.3325
16.453730407713202 57.5335
16.476261501364792 57.0871
16.498810812136167 56.8307
16.52134319004079 56.9589
16.54389378792203 56.8483
16.566445031001553 56.5601
16.588979342490088 56.5771
16.61153187824822 56.4868
16.634067483263312 56.2762
16.656621315414416 56.0164
16.679175797408888 55.8274
16.701713349928728 55.9092
16.72426913389191 56.3038
16.74680798922351 56.2821
16.76936507887444 56.625
16.791905240734874 56.4521
16.814463639794468 56.2727
16.837022695210294 56.1221
16.859564824093756 56.6442
16.882125194503903 57.6733
16.904668639217885 58.7554
16.927230328348003 59.0621
16.949792678493612 59.0031
16.972338104193863 58.0096
16.994901778652235 57.31
17.017448529496576 57.0542
17.040013531998152 57.1333
17.06257920018044 57.5578
17.0851279459922 58.1461
17.107694947817667 59.242
17.130245028099072 60.0404
17.15281336730298 61.284
17.17536478578733 62.8869
17.19793446610687 64.8376
17.220504818648422 66.9678
17.243058251703697 69.5517
17.265629950971032 73.0699
17.288184731571736 77.1386
17.310757781306908 81.0686
17.33333150794385 83.9093
17.355888317140174 83.3951
17.37846339986244 80.1072
17.401021565958885 74.6057
17.42359800851343 69.0494
17.44617513265564 64.4894
17.468735341390783 61.7817
17.491261035594565 60.6216
17.51396340099364 60.1642
17.536490463869136 60.3321
17.559018209820174 60.3926
17.58154663977963 60.5691
17.604251766089718 60.7274
17.626781572227713 60.9778
17.64931206518155 61.1888
17.671843245885103 61.5599
17.69455114821572 62.0378
17.717083712612634 62.3194
17.739616967569667 62.5415
17.762150914021706 62.6176
17.78486160749854 62.6014
17.807396945166804 63.022
17.829932977143503 64.0729
17.85246970436452 65.4945
17.875183204129467 67.3227
17.897721330097664 69.8079
17.920260154126645 72.2196
17.942799677153296 75.346
17.9655159983646 78.2877
17.988056927677544 82.4906
18.010598558807683 88.9938
18.033140892692916 96.4958
18.05586005052525 104.854
18.07840379824407 115.35600000000001
18.10094825154059 126.81299999999999
18.12366954819864 136.93200000000002
18.146215420998306 141.893
18.16876200220057 138.196
18.191309292745153 126.59700000000001
18.214033452627167 112.351
18.236582170236648 98.2883
18.259131600016456 89.8342
18.281681742907335 87.2146
18.304408781233683 89.1283
18.32696035875955 92.6135
18.349512652227624 97.5885
18.372065662579683 103.425
18.394795594587553 106.695
18.41735004715306 106.715
18.43990521943684 101.78200000000001
18.46246111238171 93.2741
18.485193953325208 82.7997
18.507751296070428 74.3005
18.530309362314178 68.9742
18.552868153000343 65.7604
18.57560391815056 63.7667
18.59816416623245 63.1817
18.620725141597372 62.6827
18.643286845190268 62.3446
18.666025549835414 61.8979
18.688588718427933 61.0933
18.711152618092243 60.9421
18.73389353884365 60.6836
18.75645890921984 60.4022
18.77902501351406 59.9104
18.801591852673102 59.9223
18.824335739722738 59.3372
18.846904057212626 59.3481
18.8694731124168 58.9052
18.89204290628315 58.9552
18.914789774966803 58.6457
18.937361054791623 58.4287
18.959933076131318 58.3307
18.982505839934877 58.442
19.00525570560582 58.3963
19.027829963004184 58.1021
19.05040496572238 58.2372
19.072980714710468 58.2099
19.095733592739563 58.2104
19.11831084296757 58.8307
19.140888842324735 59.5325
19.16346759176222 59.8525
19.18622349753803 60.3029
19.208803755869358 60.8957
19.231384767143577 61.7617
19.253966532312948 62.7726
19.276725481241822 64.2015
19.29930876296784 66.3479
19.3218928014549 68.9411
19.34465404436217 72.1831
19.36723960516257 75.4879
19.389825925592426 77.5615
19.412413006605938 77.874
19.43517731967805 75.5839
19.457765930683355 71.6189
19.48035530514408 66.7184
19.50294544401556 62.1433
19.525712842708348 59.1654
19.54830451925909 57.0558
19.570896963095727 55.6868
19.593490175174704 55.24100000000001
19.616260674962184 55.1632
19.638855432416964 54.7952
19.661450960992624 54.9421
19.68404726164677 54.6347
19.706820878021247 54.6168
19.729418731756834 54.6528
19.752017360452857 54.4436
19.77461676506804 54.5398
19.797393513540218 54.8114
19.819994478951667 55.0327
19.84259622316767 55.7293
19.8651987471481 56.1959
19.887978643247177 56.3836
19.91058273574792 56.6959
19.933187610901943 57.226000000000006
19.955969879466828 58.2534
19.97857632894404 59.4209
20.00118356396599 60.5875
20.023791585494575 62.1908
20.046577028914875 64.6399
20.069186632506966 66.8292
20.091797025500632 68.9989
20.114408208858933 70.4237
20.137196842715273 71.5137
20.159809615886765 70.7069
20.18242318232135 68.3839
20.20503754298326 65.7222
20.227829382875154 63.8866
20.250445341109344 63.048
20.27306209647285 62.9627
20.29567964993108 63.9276
20.31847471147704 65.007
20.34109387027612 66.2814
20.363713830075454 66.8526
20.386334591841646 66.34
20.409132890679302 64.2658
20.431755265564437 61.041000000000004
20.454378445325528 58.158
20.477002430930366 55.9449
20.499803982716553 54.2701
20.522429589228004 53.2206
20.54505600449589 52.6366
20.567683229489194 52.3778
20.590488049900088 51.9011
20.61311690359731 51.3725
20.63574656993626 51.2756
20.658553853717297 50.8079
20.681185154618298 50.7122
20.703817271080066 50.6788
20.72645020407368 50.4198
20.749260783967177 50.141999999999996
20.771895359337133 50.191
20.794530754161617 50.0669
20.817166969412938 49.9837
20.83998086114876 49.9993
20.86261872660049 49.9176
20.885257415405402 49.6532
20.90789692853701 49.5939
20.930714147864748 49.595
20.953355319030678 49.6878
20.97599731745334 49.8432
20.99864014410749 49.6585
21.021460706796564 49.7501
21.044105199328826 50.103
21.06675052302631 50.2569
21.089396678865015 50.3248
21.112220600704806 50.5015
21.134868430275347 50.8607
21.15751709492456 51.0228
21.180166595629693 51.3188
21.202993892429635 51.6964
21.22564507473034 51.9824
21.24829709602816 52.3795
21.27112693608965 52.6975
21.293780644891275 52.8285
21.316435195634053 52.1627
21.339090589297417 51.4617
21.361923832041875 50.9962
21.384580921090404 50.2397
21.407238856007325 49.7504
21.429897637773326 49.5986
21.45273429906592 49.3635
21.475394784108598 49.4324
21.498056118951983 49.3091
21.520718304578022 49.585
21.543558400304388 49.7075
21.566222297108816 49.9283
21.58888704765135 49.928999999999995
21.61155265291521 50.1977
21.63439619898156 50.8046
21.657063523335786 50.8159
21.67973170537063 51.2982
21.7024007460706 51.8902
21.72524775840385 52.6923
21.747918526116475 53.5432
21.770590155457388 54.2954
21.79326264741238 55.7443
21.816113141960237 57.3037
21.838787368860547 58.9414
21.861462461341976 60.5595
21.884315579735777 62.6251
21.90699241312273 64.1683
21.92967011506078 65.3318
21.95234868653799 66.0359
21.9752053151131 65.8935
21.997885635446785 63.8433
22.020566828293532 61.9345
22.04324889464272 59.8113
22.066109049404666 58.1937
22.088792872571794 57.0294
22.111477572219204 57.0386
22.1341631493376 57.048
22.157026846313123 57.2575
22.179714188221507 56.9681
22.202402410582668 56.2196
22.22509151438863 54.9376
22.24795876962584 53.4959
22.270649646204486 52.2495
22.293341407213727 51.2563
22.316034053646906 50.7193
22.338904883215342 50.2907
22.36159931041458 50.3843
22.38429462602756 50.268
22.40699083104897 50.0535
22.429865251039757 50.1767
22.452563244831367 50.1144
22.47526213102522 49.8876
22.49813925616515 49.9604
22.520839937143307 49.8376
22.543541513520587 49.9395
22.56624398629403 49.5855
22.589124730075895 49.6301
22.611829005656723 49.766000000000005
22.63453418063466 49.7528
22.657240256008077 49.8932
22.680124634582935 50.1385
22.70283252079775 50.3833
22.725541310413075 50.5575
22.74825100442868 50.7751
22.771139033969575 50.9772
22.79385054687155 51.286
22.81656296718292 51.8444
22.83927629590484 52.5154
22.862167992606945 53.3905
22.88488314827121 54.3196
22.907599215359284 55.2443
22.93031619487366 56.2634
22.953211574954405 57.2658
22.975930389478226 58.4814
22.998650119445763 59.1853
23.02137076586092 58.97
23.044269845560063 58.2144
23.06699233506288 56.8295
23.089715744034912 54.7913
23.112617610931565 53.0402
23.135342869061212 51.4949
23.158069049684816 50.7414
23.1807961538087 50.1196
23.20370174880544 49.9443
23.226430710184808 49.907
23.249160598093425 49.948
23.271891413539002 49.9464
23.294800752937697 49.8847
23.31753343374794 50.1331
23.340267045128353 50.1302
23.36300158808808 50.5195
23.38591468821339 50.7207
23.408651104658304 51.1273
23.431388455719986 51.565
23.454126742409 52.3292
23.4770436196085 52.9457
23.499783787914662 53.983999999999995
23.522524894889884 54.9799
23.54526694154616 55.9753
23.56818761219047 57.1949
23.59093154860734 58.1047
23.613676427751283 58.967
23.636422250635754 58.7659
23.659346731118656 57.5978
23.68209445191868 56.1385
23.704843119509587 53.7664
23.72759273490623 51.4827
23.750521041644767 50.0462
23.77327256312355 48.7854
23.796025035462787 47.8694
23.818956224555475 47.2491
23.841710609113413 47.1342
23.86446594758979 46.8146
23.887222241002014 46.5379
23.910157285144578 46.1808
23.932915498962537 46.1589
23.955674670778713 46.0983
23.978434801611975 45.7999
24.001373717286125 45.7384
24.024135776723917 45.6773
24.046898798245582 45.599
24.06966278287146 45.5444
24.092605586582614 45.2727
24.115371508023642 45.1312
24.1381383956401 45.0047
24.16090625045381 45.1462
24.183852958731244 45.0545
24.206622758582608 44.7926
24.229393528706886 44.623999999999995
24.252165270127392 44.7606
24.27511589952438 44.7196
24.297889594216997 44.3709
24.32066426328598 44.2942
24.34343990775613 44.3718
24.36639447485003 44.3044
24.38917208083877 44.111000000000004
24.41195066531332 44.1864
24.43490819850244 44.1526
24.457688750692377 43.824
24.48047028445616 43.8203
24.503252800821233 44.0658
24.526214300784112 44.0386
24.548998793132213 43.971000000000004
24.57178427117417 43.8479
24.59457073593893 44.0545
24.617536219319863 44.0941
24.64032466834748 43.7881
24.663114107195035 43.9018
24.685904536893013 43.7029
24.708874020360852 43.6374
24.731666442613744 43.5288
24.754459858818787 43.4358
24.777254270007962 43.2528
24.80022777025625 43.2843
24.82302418230472 43.2527
24.845821592443674 43.0591
24.86862000170663 43.1519
24.891597535453727 43.0803
24.914397953892728 43.3468
24.93719937456671 43.1612
24.96000179851076 43.0859
24.98298338249997 43.3952
25.00578782394922 43.7798
25.028593271784167 43.6517
25.05157790644186 43.976000000000006
25.07438537804115 44.0339
25.097193859145293 44.2182
25.120003350792075 44.5515
25.142992065061257 44.9009
25.165803588823465 45.2149
25.18861612625217 45.493
25.211429678386736 45.577
25.234422489079968 45.6658
25.257238081693636 45.6733
25.280054692141732 45.6514
25.3028723214652 45.538000000000004
25.325869245420463 45.6702
25.348688923599397 45.8525
25.371509623787006 45.9203
25.394331347025812 45.8033
25.41733240110666 45.4033
25.440156181590016 44.9075
25.46298098826268 44.3861
25.48580682216873 43.8156
25.50881202326435 43.2715
25.53163992281684 42.6596
25.55446885274561 42.3955
25.577298814096377 41.9678
25.600308179121807 41.7803
25.623140214533745 41.7418
25.64597328451537 41.6262
25.66898578564376 41.3211
25.691820936010206 41.41
25.714657124097695 41.5343
25.737494350954734 41.5081
25.760511045684957 41.4957
25.783350361364224 41.4596
25.806190718969255 41.4173
25.82903211955018 41.6788
25.852053024868923 41.6847
25.874896522722523 41.6138
25.897741066713106 41.3925
25.920586657892454 41.4952
25.943611790812668 41.6877
25.966459487728237 41.751999999999995
25.989308234998564 41.6378
26.01215803367705 42.1529
26.03518741123814 42.2514
26.05803932412957 42.3151
26.080892291600094 42.3242
26.10374631470478 42.5132
26.12677995397268 42.6754
26.14963609978026 42.7545
26.172493304397875 42.45
26.19535156888223 42.2855
26.218389486949604 41.8597
26.241249882640123 41.5694
26.26411134137826 41.3974
26.28715248187403 41.3282
26.31001607820869 41.068999999999996
26.3328807407756 40.9654
26.35574647063438 41.0237
26.37879191991473 40.9246
26.401659795896734 41.0333
26.424528742360263 41.151
26.447398760366614 41.2201
26.470448535598294 41.4662
26.49332070826805 41.6611
26.516193955675355 41.8345
26.53906827888316 42.0742
26.562122397260108 42.1268
26.584998883685063 42.4157
26.607876449110325 42.6045
26.63075509460056 42.7085
26.65381357334404 43.0223
26.67669439061878 43.1078
26.699576291163382 43.0654
26.722459276044212 43.0518
26.745522132402975 42.729
26.768407297649354 42.4667
26.791293550442003 42.1503
26.814180891848974 41.8871
26.837248143099337 41.4606
26.860137673466657 41.4808
26.88302829566349 41.1848
26.90592001075963 41.1246
26.92899167420566 40.8417
26.951885586870763 40.5035
26.974780595655517 40.262
26.99785558178161 40.0823
27.020752794605112 39.9582
27.043651106772522 39.806999999999995
27.06655051935668 39.7115
27.089629948036183 39.6749
27.112531573292053 39.5826
27.135434302194138 39.6978
27.158338135817015 39.4957
27.181422024430987 39.5458
27.204328079372566 39.4616
27.22723524226965 39.3644
27.250143514198573 39.4232
27.273231880156334 39.4116
27.296142382065014 39.351
27.319053996245536 39.2152
27.341966723775965 39.255
27.365059584515222 39.2566
27.38797455070062 39.3543
27.410890633481237 39.1186
27.433807833936918 39.292
27.456905206923906 39.3595
27.47982465472398 39.2396
27.502745223449743 39.3699
27.525666914182825 39.5468
27.548768816912457 39.5261
27.571692763693633 39.308
27.59461783573812 39.2944
27.617723149491244 39.0651
27.640650484125285 39.06
27.66357894728264 38.9715
27.686508540048052 39.0712
27.709618414237887 38.8221
27.732550278321757 38.6454
27.755483275279115 38.7562
27.778417406196485 38.7268
27.801531858397514 38.6962
27.824468269376716 38.519
27.847405817586786 38.5007
27.870344504116094 38.7957
27.893463551932008 38.8862
27.916404527281053 39.0032
27.93934664422563 39.0786
27.962289903855886 39.108000000000004
27.98541356491974 39.2378
28.00835912214229 39.4488
28.03130582533231 39.6125
28.054253675581805 39.8603
28.077381967556104 39.8034
28.100332124185126 39.7818
28.123283431160893 39.8363
28.146235889577238 39.6732
28.169368830154156 39.5052
28.192323603752033 39.3083
28.215279532083304 39.0216
28.238415973016764 38.8472
28.261374223145094 38.8492
28.284333631303806 38.5092
28.307294198589954 38.3726
28.330435319167677 38.1979
28.353398217078915 37.9665
28.376362277420153 37.6815
28.39932750129032 37.4733
28.422473319286713 37.257
28.44544088262495 37.2291
28.468409612800283 37.1513
28.491379510913497 36.9264
28.51453004413313 36.7524
28.53750229057244 36.6943
28.56047570826344 36.6677
28.583450298308804 36.7978
28.606605564586562 36.5968
28.629582511831156 36.5796
28.65256063474956 36.4758
28.675539934446338 36.4247
28.698699951647605 36.4673
28.72168161743193 36.2908
28.74466446331978 36.2163
28.767648490417624 36.1751
28.790813276438353 36.1504
28.813799678527303 36.2601
28.836787265157085 36.1982
28.859955641890075 36.2853
28.882945610203045 36.2091
28.905936766392035 36.1378
28.928929111566863 36.2324
28.952102288520145 36.1355
28.975097024308607 35.9461
28.998092952423807 35.8085
29.021090073977508 35.817
29.04426806913204 35.7353
29.067267590245258 35.4954
29.090268308143695 35.3965
29.11327022394099 35.3395
29.13645305530891 35.1736
29.159457379627167 35.2161
29.18246290519685 35.1075
29.20546963313352 35.0194
29.22865731875826 35.1214
29.25166646419296 35.135
29.27467681535305 34.955
29.29768837335608 35.0126
29.320880931312562 35.0721
29.34389491580634 35.0858
29.366910110507334 34.8986
29.38992651653503 34.9514
29.41312396492981 34.9348
29.436142806456754 34.8001
29.45916286268059 34.8798
29.48236399319994 34.7941
29.50538649169417 34.7219
29.528410208259935 34.5502
29.55143514402014 34.3648
29.574641196749695 34.1824
29.597668583816574 34.1117
29.6206971934585 33.8034
29.64372702680042 33.8831
29.666938019934474 33.8105
29.689970313635285 33.731
29.713003834422636 33.6928
29.73603858342347 33.7125
29.759254535188578 33.7398
29.78229175361658 33.6505
29.80533020365064 33.5865
29.82836988641968 33.634
29.85159081507472 33.5195
29.874632976355343 33.4798
29.89767637376955 33.4682
29.920721008448314 33.3614
29.9439469322847 33.3608
29.96699405457564 33.2441
29.9900424175358 33.4019
30.013092022298157 33.3015
30.03632295963995 33.2052
30.059375061131373 33.1931
30.08242840783577 33.2864
30.105483000888153 33.2751
30.128718970092244 33.1591
30.151776069006917 33.1504
30.17483441768648 33.16
30.198074175317235 33.0517
30.221135036724256 33.0848
30.24419715131772 33.0327
30.267260520236203 33.131
30.290505341942243 33.1927
30.313571232750228 33.1453
30.336638381310948 33.1247
30.35970678876503 32.961999999999996
30.38295669299435 32.9311
30.40602763151657 32.8696
30.429099832366074 32.9552
30.452173296685572 32.793
30.47542830191959 32.853
30.498504306502497 32.7566
30.521581577995562 32.8336
30.544660117543582 32.806
30.56792024229725 32.785
30.59100133132069 32.7134
30.614083691845494 32.8277
30.637167325018545 32.9068
30.660432587840603 32.946
30.683518779717886 32.918
30.70660624769615 32.9124
30.729694992924372 32.9579
30.75296541239743 32.997
30.77605672557558 32.8598
30.799149319462742 32.8779
30.8224236211637 32.6984
30.845518789950724 32.5997
30.868615242910597 32.6
30.891712981195973 32.4489
30.91499247215866 32.3843
30.938092794619365 32.3721
30.96119440587579 32.2181
30.984297307082752 32.1152
31.00758200598383 31.994
31.030687500658694 32.0183
31.053794288760695 31.9416
31.076902371446767 31.8985
31.100192296997445 31.8973
31.12330298246119 31.6886
31.14641496599209 31.6387
31.169528248749216 31.6938
31.19282341969534 31.6429
31.215939314557186 31.7364
31.239056512134788 31.6496
31.262175013589378 31.5995
31.28547544871168 31.6456
31.30859657161541 31.4711
31.331719001892175 31.5335
31.35484274070538 31.6311
31.378148458819545 31.6316
31.401274828443725 31.5875
31.424402510106933 31.5774
31.447712205419993 31.5753
31.470842524931633 31.5489
31.493974159989783 31.4759
31.51710711176168 31.4729
31.54042212308802 31.5088
31.563557722100917 31.5315
31.586694641341655 31.3852
31.609832881979628 31.2771
31.63315322823208 31.2602
31.656294125521327 31.1599
31.679436347728515 31.0485
31.70257989602529 30.8877
31.725905596152327 30.7432
31.74905181052835 30.7402
31.772199354521323 30.7375
31.79534822930507 30.7353
31.818679302290967 30.7675
31.84183085259981 30.7874
31.864983737233473 30.7852
31.88813795736804 30.8274
31.911474422233013 30.6623
31.934631327356435 30.7808
31.9577895715215 30.7241
31.980949155906522 30.6818
32.004291031706956 30.6712
32.027453310562606 30.6119
32.05061693318573 30.4966
32.07396288236386 30.5157
32.09712920658542 30.454
32.12029687812702 30.3364
32.14346589817093 30.2493
32.166817291729984 30.1859
32.18998902288583 30.2169
32.21316210610336 30.128
32.23633654256711 29.9016
32.259693399663725 29.9286
32.282870556771144 29.8735
32.30604907069099 29.8474
32.329228942610065 29.7551
32.35259128243769 29.6424
32.375773884550505 29.6422
32.398957848235646 29.6106
32.422143174682176 29.4954
32.445511016471215 29.4452
32.468699082679954 29.4627
32.49188851523011 29.3067
32.51507931531304 29.2729
32.538452678331 29.2425
32.56164622776311 29.1834
32.58484114831493 29.0726
32.60803744118015 29.1291
32.631416344731896 29.2037
32.654615396551876 29.1236
32.67781582427913 29.0666
32.701198898634416 28.9728
32.72440209253756 29.0511
32.747606665947124 28.9375
32.77081262006088 28.8697
32.79420126883317 28.8531
32.81740999876112 28.8773
32.840620112999424 28.7433
32.86383161274818 28.6542
32.88722585534586 28.6865
32.91044014056596 28.7534
32.933655814909734 28.6408
32.95687287957963 28.6514
32.98027273544904 28.5478
33.00349259526636 28.436999999999998
33.026713849030116 28.5234
33.04993649794511 28.4851
33.073341986570746 28.4808
33.09656744032826 28.4236
33.11979429286444 28.2931
33.14302254538647 28.3618
33.166433686291185 28.2937
33.18966475336992 28.2599
33.212897224069096 28.1972
33.23613109959831 28.1783
33.259547912343415 28.0927
33.2827846121627 28.2507
33.306022720453775 28.1452
33.32926223842861 28.0661
33.352684742614166 28.049
33.37592709463173 28.0252
33.399170859982064 27.9142
33.422597648419426 27.8522
33.44584425514446 27.7651
33.46909227885668 27.8357
33.4923417207723 27.5967
33.51577423505344 27.7355
33.539026528130385 27.5521
33.56228024307245 27.5441
33.585535381098246 27.4419
33.60897364093058 27.3525
33.63223163992385 27.3233
33.6554910656699 27.2953
33.678751919389796 27.2556
33.702195944520106 27.1463
33.72545966903325 27.1518
33.74872482519663 27.0862
33.771991414233746 27.0395
33.79544122444841 27.061
33.81871069412428 27.0372
33.84198160035767 26.9773
33.86525394437455 27.0241
33.88870955949969 26.8924
33.911984794020626 26.9012
33.93526147001624 26.9044
33.958539588715006 26.8345
33.98200102861669 26.714000000000002
34.0052820477047 26.6621
34.02856451319451 26.7341
34.05203033759056 26.5776
34.07531571090147 26.6134
34.09860253431845 26.5821
34.121890809074316 26.506
34.145362493118924 26.5262
34.16865368561615 26.4779
34.191946333164054 26.3896
34.21524043699793 26.414
34.23871800066799 26.329
34.26201503218366 26.2047
34.28531352370466 26.1746
34.30861347646881 26.1403
34.33209693978188 26.1694
34.3553998301885 26.0926
34.378704185565205 26.0565
34.402010007152356 25.9888
34.42549939016683 25.9153
34.44880815937748 25.9141
34.472118398533134 25.8896
34.49543010887669 25.8409
34.51892543169198 25.6621
34.54224009966052 25.7274
34.56555624255917 25.8168
34.58887386163339 25.6561
34.61237514439016 25.4968
34.6356957311114 25.5437
34.65901779775809 25.4889
34.68252356662995 25.5419
34.705848608458616 25.5274
34.72917513396849 25.4428
34.75250314440949 25.3326
34.77601490857862 25.3298
34.799345904259795 25.2199
34.82267838863559 25.2096
34.846012362958525 25.2133
34.869530142679984 25.1835
34.89286711232212 25.1118
34.91620557568269 25.1127
34.93954553401677 25.1217
34.9630693495876 25.0912
34.986412313340814 25.1445
35.00975677584668 25.0836
35.033102738362956 24.9629
35.05663261012228 24.8461
35.0799815881786 24.8604
35.10333207003229 24.8062
35.12668405694369 24.8155
35.150220005273056 24.8301
35.17357501786656 24.8071
35.19693153931268 24.7579
35.220289570874385 24.7033
35.24383161619786 24.6479
35.267192683604904 24.6476
35.290555264930376 24.6937
35.314101899412165 24.6544
35.33746752422433 24.663
35.36083466676374 24.5498
35.38420332829803 24.4221
35.407756095629054 24.5489
35.43112781085063 24.5569
35.45450104888391 24.48
35.477875810999194 24.4817
35.50143473172161 24.4545
35.52481255774625 24.3917
35.54819191167777 24.3456
35.57157279478914 24.2999
35.595137889488406 24.276999999999997
35.61852184675279 24.2181
35.641907337029984 24.1727
35.665294361595684 24.0204
35.68886565090076 24.1291
35.7122557598848 24.0283
35.73564740699838 24.0767
35.759040593519934 23.9481
35.78261809810353 24.019000000000002
35.80601437933051 23.8662
35.829412203814705 23.866
35.85281157283719 23.776999999999997
35.876395313415884 23.8697
35.8997977874528 23.7029
35.92320180988546 23.7129
35.946790244133936 23.6973
35.97019737933222 23.7223
35.993606066789866 23.5684
36.01701630779276 23.5406
36.04061101440684 23.4822
36.06402437852291 23.4729
36.08743930005611 23.4881
36.1108557802951 23.4607
36.13445678011326 23.4164
36.15787639383515 23.3586
36.18129757014299 23.3894
36.20472031032821 23.33
36.22832762423364 23.2185
36.25175350829375 23.2619
36.275180960119776 23.1466
36.298609981005924 23.2587
36.32222362992669 23.1978
36.34565580510207 23.0702
36.36908955323448 23.073
36.39252487562093 22.9428
36.416144880530226 22.9607
36.43958336764275 22.9828
36.463023432914625 22.9209
36.486465077645676 22.9083
36.51009145956204 22.9315
36.53353627947859 22.9087
36.55698268276811 22.9099
36.58043067073321 22.7521
36.60406345072071 22.7073
36.62751462435344 22.7241
36.65096738658405 22.7099
36.67460498210655 22.5879
36.69806093788647 22.6233
36.72151848619297 22.5648
36.744977628333636 22.5641
36.76862165890998 22.499000000000002
36.79208400512205 22.4755
36.81554794910557 22.4952
36.83901349217101 22.38
36.862663978991606 22.3137
36.88613273667352 22.2478
36.90960309738324 22.3381
36.933075062434064 22.215999999999998
36.95673202673572 22.2532
36.98020721697122 22.180999999999997
37.003684015502365 22.0813
37.027162423645365 22.0411
37.050825886711465 22.0883
37.07430753063053 21.9803
37.09779078812467 21.9782
37.121275660513014 22.0194
37.144945643673694 21.93
37.16843376245278 21.9188
37.19192350009803 21.8803
37.215414857931435 21.7882
37.239091382563885 21.7282
37.262585997426164 21.7363
37.28608223645736 21.6852
37.309763684451696 21.6786
37.33326318851098 21.6868
37.356764320726555 21.616
37.380267082425526 21.6345
37.40395510942588 21.4935
37.42746114683234 21.4934
37.45096881771841 21.4467
37.474478123414166 21.3942
37.49817275092816 21.4551
37.52168534303452 21.4015
37.54519957395567 21.2845
37.568715445024665 21.284000000000002
37.592416694607714 21.2737
37.61593586281424 21.3431
37.63945667518264 21.2732
37.66297913304891 21.2253
37.68668702630454 21.1258
37.710212792059274 21.0451
37.733740207334854 21.0193
37.757269273470364 20.987
37.780983832050374 20.9555
37.80451621684926 20.9897
37.82805025654007 20.9841
37.851585952464795 20.8808
37.8753071980695 20.8763
37.89884622345676 20.7653
37.92238690911902 20.7941
37.94611318753442 20.7413
37.969657210779765 20.7171
37.99320289834801 20.7418
38.016750251586465 20.6894
38.04048325513017 20.666999999999998
38.06403395679343 20.6079
38.087586328183946 20.5815
38.11114037065203 20.5257
38.13488012115898 20.5497
38.1584375229181 20.4448
38.181996599821 20.4178
38.205557353221124 20.4504
38.229303872575656 20.4107
38.2528679961576 20.4123
38.27643380031219 20.3184
38.30000128639589 20.2721
38.32375459653193 20.3204
38.34732546371299 20.334
38.37089801690786 20.1988
38.39447225747609 20.1164
38.418232380377425 20.1289
38.441810012983396 20.1323
38.46538933705673 20.0636
38.488970353960084 20.0517
38.51273731166058 20.0249
38.536321731567014 19.929000000000002
38.55990784840681 19.9456
38.58367995004091 19.8698
38.60726947812959 19.8086
38.63086070726198 19.8248
38.654453638806274 19.8501
38.678232613930824 19.8166
38.70182896773327 19.7036
38.72542702806741 19.7354
38.7490267963045 19.736
38.77281266709232 19.6527
38.79641586862214 19.6364
38.8200207821842 19.545
38.843627409152944 19.61
38.86742019782782 19.5894
38.891030269149255 19.4817
38.914642058016156 19.4833
38.938255565806124 19.4642
38.96205529464307 19.4571
38.98567225787121 19.3918
39.00929094417078 19.3714
39.03291135492255 19.3754
39.05671804624804 19.2768
39.080341923549106 19.2766
39.103967529460334 19.2341
39.127594865365744 19.1391
39.15140854155791 19.1042
39.17503935514948 19.1677
39.19867190290282 19.1912
39.22249083587951 19.0341
39.24612686969409 18.9954
39.269764641845306 18.9584
39.293404153722804 18.9773
39.317230110864074 18.9669
39.34087311998506 18.9035
39.36451787301696 18.8789
39.388164371352595 18.8092
39.41199737518003 18.7812
39.43564738196752 18.7259
39.45929913825317 18.7678
39.48295264543308 18.7208
39.506792718520884 18.7653
39.530449745387216 18.7233
39.55410852735203 18.6792
39.57776906581474 18.6175
39.60161623079 18.5764
39.625280300200025 18.5809
39.64894613032202 18.5303
39.67261372255866 18.5446
39.6964680021016 18.4987
39.72013913657293 18.4709
39.74381203738292 18.4589
39.76748670593756 18.3373
39.79134812278169 18.3772
39.81502634488497 18.3512
39.83870633896685 18.2748
39.862388106436654 18.2083
39.88625668336918 18.2677
39.90994201572829 18.2842
39.933629125719285 18.1869
39.957503091207826 18.104
39.9811937746168 18.1465
40.00488623990914 18.1171
40.02858048850006 18.0656
40.05246165409549 18.0014
40.076159487492085 18.0143
40.099859108448875 18.0069
40.123560518384345 17.9244
40.1474489070226 17.9429
40.171153913178564 17.8829
40.194860712584955 17.8528
40.2185693066637 17.8223
40.242464941335314 17.7504
40.26617714307655 17.7973
40.289891143772046 17.7397
40.3136069448471 17.723
40.33750984859743 17.6936
40.3612292688043 17.6544
40.3849504936829 17.6374
40.40867352466194 17.649
40.43258372059144 17.6139
40.45631038219906 17.614
40.48003885420956 17.5133
40.503769138055105 17.4959
40.52768664931955 17.4577
40.55142057531802 17.3962
40.57515631746428 17.391
40.599079334038514 17.4275
40.62281872700477 17.3395
40.64655994043941 17.3736
40.67030297578061 17.3377
40.69423334835778 17.2802
40.71798004609188 17.2897
40.74172857006355 17.2462
40.76547892171441 17.2433
40.7894166736039 17.2221
40.813170699248566 17.102999999999998
40.83692655691388 17.1125
40.86068424804498 17.1264
40.884629402612525 17.0391
40.908390779366385 17.0121
40.932153993938 16.9874
40.95591904777605 17.0083
40.979871628443995 16.9988
41.003640379561936 16.9192
41.02741097430883 16.9333
41.05118341413683 16.9116
41.075143444384416 16.8617
41.098919593177826 16.8045
41.1226975914255 16.7702
41.14647744058318 16.7449
41.170444943946755 16.7759
41.19422851378379 16.7774
41.218013938914645 16.6691
41.24198706625173 16.590999999999998
41.26577622087193 16.6234
41.289567235177785 16.5747
41.31336011063129 16.5438
41.337340752422875 16.5102
41.361137369129835 16.5432
41.38493585138705 16.5215
41.40873620066004 16.4391
41.43272438060107 16.4563
41.45652848292052 16.3965
41.48033445666918 16.3845
41.50414230331616 16.3476
41.528138045159764 16.3276
41.551949656675205 16.2541
41.575763145513235 16.2629
41.59957851314666 16.2369
41.62358184070442 16.1854
41.64740098505737 16.1026
41.6712220126409 16.1297
41.69504492493139 16.0581
41.71905586207357 16.095
41.74288256296395 16.063
41.766711153007456 15.988
41.79054163368412 16.0138
41.814560204340054 16.0871
41.838394485526365 15.9663
41.86223066180303 15.9001
41.88625497706819 15.8376
41.910094962812 15.8865
41.93393684811168 15.9211
41.95778063445365 15.8235
41.981812625263366 15.8203
42.00566023303407 15.7639
42.029509746323676 15.7569
42.05336116662236 15.7107
42.077400857069705 15.6923
42.10125611078846 15.7292
42.12511327600405 15.6115
42.14897235421036 15.6044
42.173019768448455 15.6181
42.19688269209613 15.5658
42.22074753323349 15.5052
42.24461429335818 15.5298
42.268669455600495 15.5055
42.292540073217886 15.4748
42.31641261433284 15.4311
42.34028708044675 15.4108
42.36435001496739 15.4149
42.38822835065557 15.3995
42.41210861586426 15.3276
42.4359908120986 15.2691
42.46006154323262 15.2953
42.48394762115317 15.2794
42.507835634632315 15.2575
42.531912233047436 15.22
42.55580413732265 15.1664
42.579697981698 15.1468
42.60359376768525 15.122
42.62767820545945 15.1598
42.65157789440821 15.1041
42.67547952952185 15.0604
42.699383112316 15.0331
42.72347541395347 14.9877
42.74738291190531 14.9671
42.771292362102166 14.9613
42.795203766063516 14.9622
42.819303956130405 14.888
42.843219287476536 14.8783
42.86713657716324 14.8497
42.89105582671383 14.8212
42.91516392983864 14.821
42.939087119032166 14.7416
42.963012272677304 14.7084
42.98693939230129 14.7291
43.01105543317513 14.7009
43.034986504731386 14.6333
43.05891954686589 14.6148
43.08285456110972 14.6058
43.10697856448665 14.5566
43.130917542983475 14.5201
43.15485849820081 14.559000000000001
43.17880143167367 14.5067
43.20293342237094 14.4997
43.226880332449 14.432
43.25082922540554 14.4651
43.27496722682525 14.4475
43.29892010567796 14.38
43.32287497204102 14.3596
43.34683182745632 14.3848
43.370977859791836 14.333
43.39493871351105 14.3391
43.41890156092628 14.2574
43.44286640358341 14.2726
43.46702049182749 14.2503
43.49098934522816 14.2103
43.51496019852649 14.1603
43.5389330532723 14.1489
43.56309522248204 14.1062
43.58707210044314 14.105
43.61105098451946 14.0381
43.63503187626491 14.0391
43.659202151562134 14.0192
43.68318707902681 14.0025
43.70717401884041 13.9986
43.731162972560874 13.9164
43.75534137913236 13.8792
43.779334381108384 13.9146
43.803329401683186 13.8612
43.82732644241872 13.8479
43.8515130055166 13.8244
43.87551410707659 13.8013
43.89951723350145 13.8389
43.923709934595614 13.749
43.94771713129917 13.7488
43.97172635758096 13.7294
43.99573761501002 13.6929
44.0199385169922 13.6255
44.04395385732619 13.6119
44.067971233533086 13.6141
44.09199064718605 13.5511
44.11619977548961 13.58
44.14022328470671 13.5681
44.16424883610785 13.5272
44.18827643127035 13.5377
44.21249381139513 13.4794
44.236525514814076 13.4313
44.26055926674478 13.4232
44.28459506876863 13.4307
44.3088207262813 13.3441
44.33286064928722 13.3039
44.35690262714919 13.3812
44.38094666145278 13.3305
44.4051806219871 13.3064
44.42922879003185 13.2947
44.45327901929361 13.24
44.477331311362136 13.229000000000001
44.501573600619416 13.1655
44.525630039221795 13.1507
44.54968854541895 13.1703
44.573937102200176 13.0989
44.5979997645541 13.0941
44.622064499300315 13.0614
44.64613130803592 13.0592
44.67038823869318 13.0638
44.69445921643748 13.050999999999998
44.718532272981385 12.9688
44.742607409926194 12.9858
44.76687274034801 12.9425
44.79095205918753 12.911
44.81503346325094 12.9437
44.839116954143876 12.876
44.86339071028742 12.8717
44.88747839599524 12.8512
44.91156817336837 12.8088
44.93566004401666 12.7786
44.959942251908146 12.7715
44.984038330325966 12.7514
45.00813650686762 12.7578
45.03223678314731 12.6878
45.05652746888232 12.649000000000001
45.08063196592069 12.6329
45.104738567558705 12.6434
45.128847275414856 12.5917
45.15314646515866 12.5491
45.17725940679741 12.5179
45.20137445952892 12.5244
45.22568004865265 12.4971
45.24979934496396 12.520999999999999
45.27392075725247 12.4879
45.29804428714431 12.456
45.322358426247604 12.4413
45.346486212804315 12.3796
45.370616121861914 12.3987
45.39474815505086 12.3399
45.41907087049246 12.3236
45.4432071734666 12.3135
45.46734560548283 12.3324
45.49148616817604 12.3017
45.51581748638564 12.2751
45.5399623320197 12.2526
45.56410931325473 12.2101
45.58825843173002 12.2248
45.61259837920865 12.1903
45.636751793816 12.1889
45.66090735060093 12.1313
45.68506505120716 12.0852
45.7094136545275 12.0531
45.73357566449271 12.0146
45.75773982322992 12.0642
45.78190613238733 12.0488
45.806263418194064 11.9833
45.83043404997326 11.9636
45.85460683713677 11.9547
45.87897065658495 11.9141
45.90314777634752 11.9052
45.92732705646868 11.8964
45.9515084986045 11.8641
45.97588104735473 11.8511
46.00006683541565 11.8588
46.02425479047904 11.8081
46.04844491420549 11.8035
46.0728262191024 11.7597
46.09702070211635 11.7686
46.12121735879483 11.6998
46.14541619080294 11.7272
46.169806278764455 11.6521
46.194009483459034 11.6098
46.21821486849841 11.6311
46.24242243555223 11.5731
46.266821333570014 11.5792
46.29103328674601 11.5748
46.31524742696538 11.5779
46.33946375590237 11.5561
46.36387149104216 11.5238
46.38809221957392 11.4583
46.41231514186606 11.5033
46.436540259597464 11.481
46.460956858999374 11.431
46.48518638983522 11.4445
46.509418121166966 11.3868
46.533652054678114 11.3798
46.55807754555709 11.3573
46.58231590571962 11.4015
46.60655647313217 11.3162
46.630988654873654 11.267999999999999
46.655233659129024 11.2711
46.67948087571551 11.2469
46.70373030632484 11.1817
46.72817142736393 11.1829
46.752425308428684 11.1959
46.77668140861147 11.1869
46.80093972960865 11.1057
46.82538981736788 11.1273
46.849652602470904 11.0995
46.87391761349769 11.0686
46.8981848521493 11.0193
46.9226439341274 10.9973
46.946915650573224 10.9967
46.97118959976749 10.984000000000002
46.99546578341598 10.9963
47.019933887188216 10.9403
47.04421456235744 10.9337
47.06849747711879 10.9156
47.09278263318286 10.8906
47.11725978640143 10.8605
47.14154944775105 10.8038
47.165841355555656 10.8326
47.1901355115306 10.7941
47.214621741924994 10.7693
47.23892041698887 10.7661
47.26322134538975 10.7128
47.28771440635075 10.7104
47.31201986422527 10.7225
47.33632758061436 10.6914
47.360637557241866 10.6445
47.38513974410611 10.6324
47.40945426407847 10.623
47.43377104948137 10.6344
47.45809010204344 10.6161
47.48260144275502 10.5882
47.506925052572285 10.5625
47.53125093475548 10.5117
47.55557909103813 10.5251
47.58009961361992 10.4871
47.60443234110732 10.4537
47.62876734791564 10.4597
47.65310463578333 10.4229
47.6776343683373 10.4028
47.7019762413987 10.3705
47.72632040075572 10.3479
47.75066684815169 10.3499
47.77520581885936 10.3151
47.799556865477655 10.3067
47.823910205386 10.3175
47.84826584033272 10.3058
47.87281407745551 10.2603
47.89717432569297 10.2616
47.92153687423484 10.2634
47.94609208429692 10.221
47.97045925671401 10.2176
47.99482873471275 10.1533
48.01920052005013 10.1417
48.04376504619224 10.161
48.068141469543484 10.0896
48.09252020552573 10.0783
48.11690125590099 10.075
48.1414751266064 10.0726
48.16586082917454 10.0511
48.19024885144316 9.982460000000001
48.2146391951793 10.0218
48.239222439012764 10.0298
48.26361744916137 9.97064
48.28801478610016 9.984639999999999
48.31241445160131 9.95982
48.337007097209366 9.910810000000001
48.36141144338331 9.95017
48.38581812345755 9.888160000000001
48.41022713920929 9.8673
48.434829215320704 9.81532
48.45924292604658 9.83895
48.48365897780325 9.85297
48.50807737237308 9.79696
48.532688907799276 9.77598
48.55711201168574 9.75946
48.581537463754074 9.73785
48.60615611725119 9.74575
48.63058628942721 9.71614
48.65501881516546 9.695689999999999
48.6794536962573 9.69784
48.70408185970339 9.68983
48.72852147531801 9.64819
48.75296345168211 9.637189999999999
48.77740779059232 9.6004
48.80204549302823 9.57461
48.82649458091802 9.55551
48.85094603676547 9.53523
48.87539986237231 9.5416
48.90004713292306 9.52034
48.92450572200832 9.50837
48.94896668628025 9.44256
48.97343002754588 9.4739
48.99808689542115 9.45173
49.02255501470614 9.42827
49.04702551642794 9.4091
49.0714984023988 9.37453
49.096164896893235 9.32797
49.120642575466796 9.35449
49.145122643748394 9.31517
49.16960510355558 9.342139999999999
49.19428125404938 9.347480000000001
49.2187685210852 9.30645
49.243258185121555 9.27822
49.26794160167084 9.25409
49.2924360839405 9.23671
49.31693296869764 9.219610000000001
49.34143225776915 9.1514
49.36612538195438 9.14822
49.39062950396021 9.17355
49.41513603578346 9.12171
49.4396449792564 9.13074
49.46434784069503 9.1357
49.488861631846454 9.08633
49.513377840166804 9.06056
49.537896467493745 9.02902
49.56260909589029 9.0222
49.587132585683285 9.01317
49.611658500018365 8.99323
49.636186840738596 8.967039999999999
49.66090926588511 8.96141
49.685442483902584 8.9479
49.70997813385706 8.91624
49.734516217597076 8.911669999999999
49.75924846937352 8.871269999999999
49.7837914452858 8.89438
49.80833686055187 8.86604
49.83288471702571 8.86797
49.85762682540054 8.845
49.882179588965734 8.82365
49.9067347993235 8.76971
49.93129245833333 8.7911
49.95604445336378 8.77922
49.98060703442832 8.773539999999999
50.005172069746266 8.721219999999999
50.02993150438364 8.70127
50.05450147301533 8.72349
50.07907390151433 8.69735
50.10364879174981 8.67902
50.12841816587289 8.65864
50.1529980044635 8.58719
50.17758031042124 8.56827
50.20216508562089 8.62071
50.22694442953363 8.61171
50.25153416817468 8.57728
50.27612638170508 8.55284
50.300721072005196 8.48359
50.325510416102105 8.480269999999999
50.350110084975064 8.508289999999999
50.37471223628208 8.463989999999999
50.39931687190919 8.461039999999999
50.424116246675766 8.43787
50.44872587605249 8.40559
50.47333799543065 8.44007
50.49795260670191 8.40338
50.52276204271512 8.3499
50.54738166295838 8.36311
50.57200378079314 8.37415
50.596628398116835 8.37363
50.62144792604559 8.346169999999999
50.646077567609396 8.295589999999999
50.670709714377715 8.29214
50.69553683636198 8.2686
50.72017401885922 8.23283
50.7448137122895 8.2434
50.76945591856022 8.254
50.79429318636823 8.203710000000001
50.818940443716784 8.18483
50.84359021965163 8.19186
50.868242516085964 8.17446
50.893089960641895 8.12549
50.917747323549435 8.11074
50.94240721271973 8.10965
50.96706963007175 8.08228
50.99192728239342 8.072280000000001
51.01659478166073 8.07654
51.04126481489051 8.05365
51.06593738400761 8.02857
51.090805275207074 8.009689999999999
51.11548294172845 8.00769
51.14016314993547 7.97929
51.164845901758845 7.9793199999999995
51.18972406304274 7.90735
51.21441192780656 7.92518
51.23910234200271 7.9457699999999996
51.2637953075678 7.91525
51.288683770237945 7.88302
51.31338186432707 7.85567
51.33808251561888 7.827210000000001
51.362978729967345 7.8334
51.387684521509755 7.7949600000000006
51.41239287610203 7.78159
51.437103795691165 7.777989999999999
51.46201036644977 7.73048
51.486726441956634 7.75813
51.51144508832545 7.738569999999999
51.536166307509156 7.73385
51.56108326624387 7.730289999999999
51.58580965706056 7.71205
51.61053862657523 7.701969999999999
51.635270176746864 7.6802600000000005
51.66019755512065 7.66476
51.68493429268881 7.61534
51.70967361681515 7.63507
51.73441552946465 7.61345
51.759353359237934 7.5777399999999995
51.7841004750961 7.57901
51.80885018539685 7.5177
51.833602492111254 7.5331
51.8585508051424 7.51807
51.883308330926425 7.45431
51.90806845906181 7.4965399999999995
51.932831191525715 7.47587
51.95779001977161 7.43618
51.98255798721516 7.419989999999999
52.00732856494335 7.4174
52.03229530577543 7.42634
52.057071130455945 7.38462
52.081849571391054 7.371580000000001
52.106630630568695 7.36799
52.13160794279417 7.33057
52.15639426492067 7.3171100000000004
52.18118321127822 7.3306
52.205974783860896 7.27252
52.23096269971011 7.2892399999999995
52.255759551287994 7.2796
52.280559035098186 7.2351
52.30536115314103 7.23305
52.33035970494467 7.21393
52.35516711807904 7.225630000000001
52.37997717147198 7.20218
52.40478986713005 7.2286600000000005
52.42979908731974 7.16488
52.454617094216 7.151
52.47943774942214 7.122000000000001
52.50426105495102 7.11252
52.529280976059844 7.087680000000001
52.554109609024096 7.0829
52.57894089837482 7.08663
52.60377484613117 7.04365
52.62880550079408 7.0250699999999995
52.65364479223379 6.99644
52.67848674816189 7.00053
52.70352547971946 7.0289
52.72837279155837 6.982080000000001
52.753222773982785 6.958710000000001
52.778075429022984 6.95757
52.80312495150885 6.9625
52.827982978797436 6.94145
52.85284368481815 6.891189999999999
52.87770707160767 6.889469999999999
52.90276741793998 6.89416
52.92763619336701 6.87362
52.952507655698504 6.847519999999999
52.977381806977576 6.83705
53.00245301017842 6.80865
53.02733256653592 6.80215
53.052214817996074 6.79656
53.077099766608484 6.7771300000000005
53.102181859804446 6.7829999999999995
53.127072229988265 6.76128
53.15196530349892 6.7565100000000005
53.17686108239249 6.7004600000000005
53.20195409881522 6.690510000000001
53.22685531582556 6.64072
53.25175924441303 6.661239999999999
53.27666588664027 6.68721
53.30176985962693 6.68872
53.3266819565689 6.633710000000001
53.35159677336455 6.593
53.376514312083096 6.61315
53.40162927507703 6.62735
53.42655228516116 6.61222
53.45147802340193 6.58922
53.47660125628886 6.57958
53.50153247842639 6.52414
53.52646643496923 6.52495
53.55140312799818 6.51537
53.576537409691696 6.50689
53.60147960336152 6.48793
53.626424539786164 6.46249
53.65137222105307 6.42133
53.67651758529126 6.44874
53.70147078399681 6.3905400000000006
53.72642673383343 6.38534
53.75138543689533 6.42556
53.776541917524526 6.3867400000000005
53.801506154876755 6.35318
53.826473151763246 6.383830000000001
53.851442910284916 6.34279
53.87661054126026 6.33176
53.9015858509782 6.33937
53.92656392866066 6.3045599999999995
53.95154477641532 6.30261
53.976723591801296 6.24181
54.00171000771266 6.286490000000001
54.02669920004598 6.25813
54.051691170915745 6.2491699999999994
54.076881204886796 6.24051
54.101878760928514 6.19667
54.12687910187696 6.195119999999999
54.152077577768296 6.17861
54.1770835166946 6.15056
54.20209224691339 6.1633
54.22710377055121 6.16487
54.25231352511594 6.14002
54.27733066384342 6.07923
54.30235060239643 6.08254
54.32737334290836 6.07373
54.35259441062629 5.99201
54.377622783395324 6.00258
54.40265396455061 6.03951
54.42768795623251 6.02168
54.45292037169559 5.97848
54.477960012857906 5.93245
54.50300247099511 5.95995
54.52804774825457 5.97321
54.55329154616743 5.90447
54.57834249018678 5.8755
54.6033962597977 5.85341
54.6284528571545 5.86067
54.653708072335164 5.81825
54.67877035378786 5.81316
54.70383546947698 5.744190000000001
54.72890342156389 5.75623
54.7541700889442 5.73545
54.77924374251975 5.69618
54.8043202390049 5.688359999999999
54.82959552413022 5.66381
54.8546777351945 5.65916
54.87976279569621 5.63017
54.90485070780914 5.66435
54.930137506558005 5.602130000000001
54.95523115074295 5.62544
54.98032765308844 5.57345
55.005427015775496 5.52471
55.03072536339621 5.53618
55.05583047570572 5.5043
55.080938454927676 5.59393
55.10604930325027 5.48024
55.131359235107396 5.48119
55.15647585066083 5.437180000000001
55.181595341907496 5.42213
55.20671771104285 5.3602300000000005
55.232039262617704 5.37521
55.25716741665048 5.34388
55.28229845518636 5.36659
55.30743238042802 5.28642
55.33276558731939 5.310230000000001
55.357905315183636 5.25324
55.383047936390035 5.23909
55.40819345314859 5.1782900000000005
55.433538351073295 5.19479
55.458689688238415 5.162059999999999
55.483843927614096 5.12717
55.509197623043605 5.086130000000001
55.53435769621134 5.0717
55.55952067826466 5.08511
55.5846865714265 5.07779
55.61005202069737 5.01783
55.63522376553902 5.00151
55.66039842818645 4.99235
55.68557601087004 4.9682900000000005
55.7109532500271 4.85544
55.73613670233794 4.85556
