TT I
1.2716486653135266 7.123410000000001
1.2939594142134223 6.92155
1.3162702121660406 7.14014
1.3385810600174564 6.59005
1.3608919586137629 6.62375
1.383202908801069 6.55353
1.405513911425503 5.44658
1.4278249673332093 6.20988
1.4501343378461518 6.27022
1.4724455028545926 6.39375
1.4947567236847858 6.3660000000000005
1.517068001182951 5.56787
1.5393793361953272 5.99782
1.5616907295681737 6.17842
1.5840021821477681 5.05466
1.60631369478041 5.68011
1.6286252683124185 5.5128699999999995
1.6509369035901333 5.15191
1.6732468618895553 4.98373
1.695558623192809 4.85984
1.7178704487808514 5.28
1.7401823395001077 4.57273
1.7625012545597203 4.77686
1.7848028405262486 4.43662
1.8071218901122095 4.77236
1.8294236121921872 4.08467
1.8517427996910911 4.18116
1.8740620574440425 4.64056
1.8963639900671978 4.7236
1.9186833908139995 4.54251
1.9409854680117449 4.82262
1.9633050151394713 4.92695
1.9856246367570705 4.645
2.0079269371922672 4.81069
2.03024671027244 4.84121
2.0525491637446027 4.8766
2.074869091674931 4.48974
2.097171701569106 4.4827
2.1194917877373847 4.9051800000000005
2.141811954326636 4.86866
2.164114805233074 4.98555
2.186435135143035 6.06116
2.208738150935709 16.3675
2.231058647554722 36.364000000000004
2.2533792288321184 28.0125
2.275682498336085 11.8162
2.298003251406138 6.58252
2.3203066942619714 5.99454
2.3426276225136022 5.65254
2.3649486396617507 5.09331
2.387252348930071 5.69114
2.4095735463442893 5.93802
2.4318774374315884 5.7031
2.4541988185014043 5.91475
2.476502894794693 7.3329
2.498824462909887 6.738569999999999
2.521146125856138 7.23632
2.5434504863470337 7.0570699999999995
2.5657723414244717 7.3888
2.588076895590662 7.59693
2.610398946189713 7.55058
2.6327210958598384 8.06306
2.6550259469304716 7.682180000000001
2.6773482972090137 7.82884
2.6996533504259 7.900469999999999
2.7219759047039602 8.8059
2.744298562293959 7.91712
2.7666039251246595 8.5181
2.7889267918020164 8.22889
2.8112323652516555 8.0683
2.833555444408179 8.2887
2.8558786311183852 8.33411
2.8781845268938557 8.06405
2.9005079311721484 8.77351
2.9228140460410397 8.461269999999999
2.9451376712799635 8.77013
2.967444008632326 9.60926
2.9897678582247247 9.76597
3.0120918213106695 10.2352
3.0343984987899373 10.815
3.0567226913198637 10.6224
3.079029599759726 11.7657
3.101354025127254 12.0624
3.123678568232338 12.7191
3.145985829517914 13.4678
3.16831061055229 13.9395
3.1906181112775593 14.4527
3.212943133635653 14.5072
3.2352682779763207 14.8118
3.2575761442691227 15.7947
3.2799015350264273 16.2119
3.302209649240067 16.26
3.3245352898092655 16.9906
3.3468436553365257 17.6412
3.369169549113219 17.7992
3.3914955708171384 18.5969
3.413804319727358 19.04
3.4361305997334863 19.1173
3.4584396084414553 19.64
3.4807661501462652 20.5262
3.503092824025881 21.3733
3.5254022288463154 21.7806
3.5477291695206588 22.4949
3.5700388426251948 22.7435
3.5923660534916446 24.3196
3.6146934007816114 43.3471
3.637003482731501 110.60700000000001
3.6593311053109985 124.90899999999999
3.681641464033634 69.2589
3.7039693653009733 33.5446
3.726297407241705 26.3115
3.7486081875460804 26.1147
3.7709365132734978 26.6211
3.793247578841633 27.1468
3.8155761917550093 27.8206
3.8378875459837216 27.7716
3.8602164494827234 27.8493
3.882545499606844 28.5759
3.9048572932539183 29.0008
3.9271866390645718 29.5464
3.9494987298666713 30.1545
3.971828374764527 30.613000000000003
3.9941581705403255 31.1241
4.016470713506008 32.0702
4.038800813471445 32.945
4.061113662089144 33.635999999999996
4.0834440696459176 33.7276
4.105774632334751 34.3211
4.128087945865126 35.0434
4.150418821249301 36.2631
4.172732448931298 37.6407
4.195063640413578 39.6603
4.2173775856475215 45.0407
4.239709096631102 84.5141
4.262040768704612 301.135
4.284355196706267 420.408
4.306687193387355 270.709
4.329001947444346 96.9168
4.35133427213731 51.0277
4.373666762177566 46.2128
4.395982011761091 45.4825
4.418314834921175 46.8474
4.44063041906622 56.2437
4.4629635787515625 71.8367
4.4852969080429785 71.1593
4.5076130004776225 56.9061
4.529946671403969 51.24100000000001
4.552263106909177 50.6137
4.574597122877047 51.2501
4.596931312711224 52.4436
4.619248269273446 53.7797
4.6415828092605835 54.2941
4.663900117405352 55.777
4.686235010953232 57.1894
4.708552674085913 58.1626
4.730887924602802 59.931999999999995
4.753223354952695 61.5894
4.775541557023902 62.7088
4.797877349456786 64.0641
4.820195915032126 65.9314
4.842532072957498 67.3573
4.864868414979744 69.617
4.88718753227192 71.5542
4.909524244902505 73.8048
4.931843734218147 75.2744
4.954180820867835 77.8716
4.976518095879839 80.7198
4.998838149695359 83.5949
5.021175803844231 87.4422
5.043496238205739 90.1112
5.065834274903528 94.7723
5.088172504230693 100.21799999999999
5.1104935158799565 107.228
5.132832132875765 132.97899999999998
5.155153533596801 189.59099999999998
5.1774925416746225 228.08700000000002
5.199814334878411 371.164
5.2221537374521505 1022.1
5.244493338631803 2750.83
5.266815727034316 7171.53
5.289155727832427 11929.1
5.311478517248165 9348.57
5.333818921080011 3357.34
5.356159527788849 679.637
5.3784829252032536 205.93400000000003
5.400823940070432 153.311
5.423147747031976 133.833
5.445489173474152 121.853
5.467830807066149 115.805
5.490155234831516 111.175
5.512497285125229 107.234
5.534822130975162 105.184
5.557164601388673 102.89299999999999
5.579489868738879 100.542
5.601832762690846 99.7398
5.6241758697774475 98.8241
5.646501775867269 97.885
5.668845311622074 96.0902
5.691171647754637 95.0385
5.713515615597765 93.3124
5.735859800852677 92.9476
5.758186788542988 92.3272
5.780531411018185 92.3144
5.802858837297399 91.8537
5.825203900414495 92.0307
5.8475491852224 92.3246
5.869877275883075 92.4667
5.892223006467101 93.5936
5.914551544266608 94.954
5.936897724049891 97.5521
5.959244129804903 102.863
5.981573344815301 120.554
6.0039202049061 206.975
6.026249875609095 449.024
6.04859719346037 949.3510000000001
6.070927323278297 2043.93
6.093275102315365 4134.69
6.115623113320588 5276.6
6.137953938319995 3515.76
6.160302415650845 1245.54
6.182633708324452 300.69
6.2049826554078376 124.662
6.227331838745022 97.1182
6.249663839443684 88.2161
6.27201349767565 85.5244
6.294345974611799 93.9762
6.316696111167083 110.55
6.339046488263839 104.109
6.361379686074702 84.3277
6.383730546639482 74.0995
6.406064229255215 69.9703
6.428415576718203 69.3042
6.450749747566656 68.1004
6.47310158535871 67.3274
6.495453669698332 66.3504
6.517788579421056 65.9602
6.540141159237969 64.4725
6.562476565766648 64.4053
6.5848296444934045 64.0211
6.607182974060425 63.8618
6.6295191323281015 63.825
6.651872965955752 68.5139
6.6742096296068985 101.80799999999999
6.6965639707294615 166.799
6.71891856698715 168.592
6.741255995248479 108.911
6.763611104154477 72.7734
6.785949046381137 61.9977
6.808304671371482 59.5788
6.8306605557940046 59.0563
6.852999275508618 58.247
6.875355681171544 58.1078
6.897694923437771 57.918
6.92005185377892 57.3937
6.9423916220322655 57.3497
6.964749080490181 56.567
6.987106804399774 56.5094
7.009447368180821 56.887
7.031805625367033 56.482
7.054146723727803 56.295
7.076505517631004 56.129
7.098864581288365 56.0456
7.121206488070854 55.9456
7.143566093607822 55.7859
7.165908543567245 55.9604
7.188268694426048 56.4058
7.2106291193438095 56.6966
7.232972390625943 58.4176
7.255333366030969 74.2096
7.277677189091925 147.178
7.300038718428332 213.42700000000002
7.322400526130865 179.38299999999998
7.344745183422596 103.72399999999999
7.367107550224791 65.6292
7.389452767901992 57.8132
7.411815697249891 56.5769
7.434161478756298 55.5006
7.456524974096713 55.2576
7.478888753837185 55.152
7.501235387657368 55.6649
7.523599738562711 55.6046
7.545946944825532 55.7466
7.568311870344528 56.325
7.5906770845765665 56.4178
7.613025156078678 58.1618
7.635390950099687 59.7595
7.657739602662809 58.6368
7.680105979923558 57.2035
7.702472650212829 56.7988
7.724822180948224 56.5567
7.747189439655568 56.532
7.769539560075357 56.7268
7.791907410653562 57.7127
7.81425812420825 57.2619
7.836626570110925 57.648
7.858995315087906 58.4316
7.881346924933401 58.3899
7.903716270417482 58.9354
7.926068482028405 59.1463
7.948438431475253 59.6772
7.9708086843180235 60.6089
7.993161805171116 60.9721
8.015532667162402 61.7358
8.037886398416653 62.2841
8.060257873014221 62.8537
8.082629655331942 63.7498
8.104984308787587 64.5368
8.127356708900503 68.4379
8.149711981398308 75.9621
8.172085002766314 79.0359
8.194458336181368 74.5821
8.216814543847752 70.6196
8.23918850371002 70.3085
8.26154533906492 70.6837
8.283919928836452 72.2413
8.306277395339652 73.4655
8.328652618483376 74.686
8.351028159736202 76.404
8.373386579575245 78.9838
8.395762759396959 80.753
8.418121819038275 86.5167
8.440498640894003 102.979
8.462875785192262 121.33200000000001
8.485235811156207 131.18200000000002
8.507613602688501 164.53400000000002
8.529974277114228 248.338
8.552352719347912 379.16900000000004
8.574731488360351 628.7669999999999
8.59709314210385 1101.18
8.619472567021075 1760.43
8.64183487789147 2152.93
8.664214962183097 1960.42
8.686577933647762 1078.5
8.708958680784317 435.327
8.731339760774953 196.02900000000002
8.753703729764451 120.09299999999999
8.77608547780821 102.40100000000001
8.798450116065078 97.21600000000001
8.820832535634787 93.9352
8.843215292401656 92.4325
8.865580941199045 90.7839
8.887964374703538 89.3532
8.910330701447199 91.1323
8.932714815164482 94.7383
8.955099270424924 93.8979
8.977466620733543 89.9229
8.999851761421976 86.3277
9.022219798361645 84.67399999999999
9.04460562795561 84.3287
9.066991803441677 83.471
9.089360876979615 83.4311
9.111747746589993 83.0421
9.13411751544971 82.4387
9.156505082664324 82.681
9.178875550323522 82.8614
9.20126381862328 83.4093
9.223652438908596 83.8103
9.246023961427412 83.6642
9.26841328802173 82.7672
9.290785518039224 82.5034
9.313175554425882 83.0808
9.335565947154315 83.1069
9.357939245086508 83.2195
9.380330352834827 83.5656
9.40270436697103 83.5
9.425096193225055 83.6707
9.447488380180165 84.5634
9.469863475295412 84.7952
9.492256385987508 84.9367
9.514632206018318 85.7233
9.537025843935714 86.1138
9.559402392368193 86.8673
9.581796761000229 87.9389
9.604191496441521 88.9037
9.626569144158516 93.3186
9.648964615551032 99.5157
9.671343000390081 101.38799999999999
9.693739211225699 98.6804
9.716135793237463 95.0484
9.738515290448102 93.8246
9.760912617143402 94.6052
9.783292860202891 95.3982
9.805690935076182 97.376
9.828089385495742 97.9482
9.850470754023561 100.905
9.872869957865444 110.219
9.89525208097539 129.666
9.917652041736662 146.678
9.940052382417589 144.16299999999998
9.962435644102392 144.096
9.984836746950979 174.43099999999998
10.007220771957746 235.46200000000002
10.029622640473708 334.48800000000006
10.052007432299963 497.066
10.074410069984072 762.7130000000001
10.096813093716005 1162.52
10.119199042482517 1641.62
10.141602840636468 1930.94
10.163989564971628 1667.7
10.186394141051062 1019.51
10.208799107559706 465.961
10.231187001965623 216.465
10.253592751657669 135.22799999999998
10.275981430388155 117.022
10.298387966769793 116.64200000000001
10.320794897965431 120.31299999999999
10.343184759907361 119.185
10.36559248305461 112.385
10.387983138083852 106.10799999999999
10.410391656691655 107.809
10.432800574501677 117.92299999999999
10.455192425893369 133.082
10.47760214443012 157.968
10.499994797678786 198.925
10.522405320453982 269.532
10.54479877906917 376.11300000000006
10.567210109595656 491.68300000000005
10.5896218454736 560.631
10.612016518879773 540.9680000000001
10.634429067781074 388.11699999999996
10.656824555333241 226.709
10.679237920773568 135.74
10.701651695961992 100.29799999999999
10.724048411481384 90.88799999999999
10.746463008485165 87.6547
10.768860546937125 86.0645
10.791275969274796 84.4271
10.81369180576079 82.9355
10.836090585366925 82.0014
10.858507252467449 80.8887
10.88090686379991 79.6495
10.903324365036394 79.2463
10.925724811614439 79.6707
10.948143150509463 81.3842
10.970561909719066 80.8756
10.992963615930844 78.6036
11.015383218085756 75.8659
11.037785768347074 74.0535
11.06020621697282 73.4912
11.082627090322113 72.969
11.105030913430326 72.6807
11.12745263854165 73.6
11.149857314510728 78.3562
11.172279894912576 86.8957
11.194702904450653 88.3284
11.217108866490921 83.0737
11.239532736615194 77.0643
11.26193956033512 74.2205
11.284364294577085 72.2047
11.306789462371718 69.3062
11.329197585398376 68.1036
11.351623622610898 67.8209
11.37403261614354 66.7597
11.396459526308487 66.7307
11.418869393879497 66.1773
11.441297180532617 66.2355
11.463725406927658 65.704
11.486136592353875 65.3708
11.508565700543707 66.3516
11.530977768845315 68.8104
11.553407762368774 70.3942
11.575838200059769 69.5816
11.598251599479612 66.6148
11.620682927815501 64.7607
11.64309721895548 64.3324
11.665529441478206 63.9601
11.687962112597958 63.6762
11.710377748130886 63.5538
11.732811318753434 63.4975
11.755227854859067 63.5779
11.777662328529495 63.7293
11.800079768750786 63.3216
11.822515149015453 63.0484
11.844950984084935 63.3401
11.867369787303163 62.9651
11.889806534289491 63.0896
11.912226250487029 63.2433
11.934663912939751 63.3894
11.9571020346363 63.3936
11.979523127133968 63.4684
12.001962169624331 64.1921
12.024384183972964 65.2686
12.046824150809913 67.9015
12.069264581333726 73.4194
12.091687985297767 79.6678
12.11412934550045 88.4805
12.136553680195208 101.919
12.158995973632788 120.25299999999999
12.181438735204349 146.616
12.20386447284199 177.135
12.226308172985636 203.692
12.24873485024193 208.435
12.271179492516982 178.021
12.293607112949127 138.27100000000002
12.316052700916226 103.694
12.338498763250042 84.1443
12.360927805303868 73.1082
12.383374818673879 68.4587
12.405804812803074 65.7866
12.428252780773262 65.2759
12.45070122756722 64.969
12.473132656675375 64.8142
12.49558206341869 64.9432
12.518014453510101 64.943
12.540464823770117 65.2272
12.562915677315177 65.6556
12.58534951575545 66.0474
12.607801338171472 68.9482
12.630236146511358 76.0336
12.652688941369085 82.8037
12.675124723177234 83.3871
12.697578494048786 77.9571
12.720032754458185 71.8589
12.742470003354093 69.1417
12.764925245138771 68.3339
12.787363476431278 68.6321
12.809819703166806 68.7716
12.83227642391173 69.9015
12.854716135692716 70.3331
12.877173846755147 71.617
12.899614549869717 71.7294
12.9220732548287 72.1285
12.94453245827299 72.6849
12.966974655289818 73.4887
12.989434858002571 74.3748
13.011878055298721 75.1105
13.034339260862497 76.2495
13.056800969391883 77.2917
13.079245674017244 79.0749
13.101708390774869 81.2465
13.12415410463411 87.7281
13.146617833206086 99.6659
13.169064559883248 111.822
13.191529303857127 126.052
13.213994557076367 146.898
13.236442809902437 178.732
13.258909083908291 225.851
13.28135835851934 283.842
13.30382565690295 349.579
13.326293469022952 413.96
13.348744283242008 436.82099999999997
13.371213125129904 387.30699999999996
13.39366497011003 289.748
13.416134845360597 193.003
13.438605238843131 132.253
13.46105863690397 109.19200000000001
13.483530069144786 106.65700000000001
13.505984506951902 110.979
13.528456981549432 119.995
13.550929978879088 134.078
13.573385983253365 155.257
13.595860028340867 189.72
13.618317081455832 237.40099999999998
13.64079217790333 287.697
13.663250283359057 338.657
13.685726434770173 369.05400000000003
13.708203115221277 353.67699999999996
13.730662806148091 283.829
13.75314054697177 202.65400000000002
13.775601299246777 140.203
13.798080104050406 103.715
13.820559442405358 87.575
13.843021793671388 83.2909
13.865502201420897 81.1242
13.887965623051947 80.4413
13.910447103807167 79.3352
13.932929122629764 77.8823
13.955394156785959 77.585
13.977877254034569 76.4412
14.000343367582113 75.6757
14.022827546871707 75.3094
14.045294743423524 74.5603
14.06778000837062 73.7074
14.090265817715476 73.7256
14.112734645763819 73.3281
14.13522154619454 73.146
14.157691466286913 73.4692
14.180179461423874 73.2286
14.202668005486178 72.2664
14.22513957064374 71.6655
14.247629214846473 71.0112
14.270101881097517 70.8154
14.29259262906496 71.4626
14.315083930490205 72.63
14.337558255389705 72.9071
14.360050666019726 72.6257
14.382526101071944 71.2367
14.405019624534942 70.2455
14.427513705993134 69.3647
14.449990813291825 69.1875
14.47248601302899 69.2336
14.49496423954951 69.2668
14.517460561197822 69.2539
14.539939910570322 69.2273
14.562437357763558 69.5795
14.58493536931253 71.2
14.607416409993311 72.2877
14.62991555254159 73.4873
14.652397725157423 72.8863
14.674898002342799 71.9914
14.697398848433282 71.0729
14.719882725991326 71.5114
14.74238471217934 72.3071
14.764869730765593 75.2822
14.787372860692983 78.7806
14.809876564079925 83.1637
14.83236330125751 88.7711
14.854868153850365 96.7682
14.877356041159485 108.568
14.899862046604186 125.00399999999999
14.922351087688757 147.025
14.944858249632887 172.264
14.967365991421232 197.89
14.989856770231246 219.787
15.012365673994204 218.567
15.03485761569738 199.109
15.05736768508665 159.078
15.07987833888692 122.266
15.102372032001655 95.5721
15.124883856909658 79.6711
15.14737872204565 73.7719
15.169891721717274 71.7236
15.192405310371893 71.3068
15.214901940621196 71.9808
15.237416709527137 72.3409
15.259914520936249 72.9009
15.282430473753607 71.8428
15.304947020131227 70.3301
15.327446610371178 68.9023
15.349964346154254 67.9893
15.372465126703139 67.5548
15.394984055556009 67.08800000000001
15.417486030076159 66.9977
15.44000615566487 66.9256
15.462526881230803 66.6753
15.485030653812652 67.0165
15.507552581617434 67.0823
15.530057557334603 67.2045
15.55258069104857 66.8796
15.575104429329837 66.918
15.597611216864632 66.2389
15.620136166564563 66.4472
15.6426441664095 67.1353
15.665170331202765 69.1699
15.687697105158826 72.301
15.710206930593545 75.5923
15.732734925158933 79.7313
15.755245972089478 85.7372
15.77777519094324 94.0852
15.800287463046663 105.266
15.822817909869592 121.404
15.84534897229804 140.16299999999998
15.867863089299354 164.262
15.890395385222186 182.636
15.912910736597423 194.75
15.935444269699861 189.737
15.957978423016485 164.783
15.980495633101265 133.737
16.003031029129367 103.59700000000001
16.02554948280019 81.2507
16.048086125229432 70.764
16.070623392487107 67.2845
16.09314371869582 66.2858
16.11568223789321 65.5917
16.13820381691126 64.0756
16.160743591742527 62.6356
16.183283996022084 61.4645
16.205807461423195 60.4291
16.228349126881973 59.8929
16.25087385432698 59.7585
16.27341678466365 59.3363
16.29594277784926 59.193999999999996
16.31848697676433 59.5209
16.341031811604868 60.3843
16.36355971058487 60.7782
16.3861058195587 60.3828
16.40863499352978 58.8901
16.431182380342005 57.7077
16.453730407713202 57.0772
16.476261501364792 56.5151
16.498810812136167 56.2221
16.52134319004079 56.4502
16.54389378792203 56.2153
16.566445031001553 56.1003
16.588979342490088 55.8364
16.61153187824822 55.8531
16.634067483263312 55.668
16.656621315414416 55.6291
16.679175797408888 55.165
16.701713349928728 55.3386
16.72426913389191 55.5599
16.74680798922351 55.7865
16.76936507887444 55.7184
16.791905240734874 55.7404
16.814463639794468 55.6124
16.837022695210294 55.5372
16.859564824093756 55.9719
16.882125194503903 56.9674
16.904668639217885 57.9436
16.927230328348003 58.1286
16.949792678493612 58.1329
16.972338104193863 57.2949
16.994901778652235 56.5399
17.017448529496576 56.2726
17.040013531998152 56.2588
17.06257920018044 56.7081
17.0851279459922 57.5354
17.107694947817667 58.2095
17.130245028099072 59.1235
17.15281336730298 60.5023
17.17536478578733 61.9756
17.19793446610687 64.0196
17.220504818648422 66.5499
17.243058251703697 69.3196
17.265629950971032 73.5538
17.288184731571736 77.9792
17.310757781306908 82.3991
17.33333150794385 83.3331
17.355888317140174 83.0309
17.37846339986244 79.7568
17.401021565958885 73.447
17.42359800851343 67.9753
17.44617513265564 63.6945
17.468735341390783 61.3284
17.491261035594565 59.9916
17.51396340099364 59.5376
17.536490463869136 59.6758
17.559018209820174 59.9123
17.58154663977963 59.7198
17.604251766089718 59.8442
17.626781572227713 60.0139
17.64931206518155 60.4515
17.671843245885103 61.3039
17.69455114821572 61.3773
17.717083712612634 61.5305
17.739616967569667 61.77
17.762150914021706 61.7777
17.78486160749854 61.7494
17.807396945166804 62.1402
17.829932977143503 63.0245
17.85246970436452 64.5268
17.875183204129467 66.3548
17.897721330097664 68.5149
17.920260154126645 70.8142
17.942799677153296 73.5928
17.9655159983646 77.0809
17.988056927677544 82.0123
18.010598558807683 88.7922
18.033140892692916 97.5886
18.05586005052525 106.91799999999999
18.07840379824407 117.48200000000001
18.10094825154059 128.414
18.12366954819864 137.39
18.146215420998306 141.203
18.16876200220057 135.172
18.191309292745153 122.361
18.214033452627167 108.976
18.236582170236648 95.5591
18.259131600016456 88.1871
18.281681742907335 86.664
18.304408781233683 89.4183
18.32696035875955 93.8541
18.349512652227624 98.7962
18.372065662579683 104.07799999999999
18.394795594587553 106.845
18.41735004715306 105.796
18.43990521943684 100.259
18.46246111238171 91.0955
18.485193953325208 81.2762
18.507751296070428 72.9089
18.530309362314178 67.8336
18.552868153000343 64.794
18.57560391815056 63.0057
18.59816416623245 62.4658
18.620725141597372 61.7384
18.643286845190268 61.4994
18.666025549835414 61.0422
18.688588718427933 60.453
18.711152618092243 60.2982
18.73389353884365 60.0928
18.75645890921984 59.6669
18.77902501351406 59.1836
18.801591852673102 59.2635
18.824335739722738 58.8016
18.846904057212626 58.7627
18.8694731124168 58.3303
18.89204290628315 58.3247
18.914789774966803 58.2291
18.937361054791623 57.8808
18.959933076131318 57.5971
18.982505839934877 57.6735
19.00525570560582 57.8866
19.027829963004184 57.5331
19.05040496572238 57.6533
19.072980714710468 57.498999999999995
19.095733592739563 57.7259
19.11831084296757 58.2672
19.140888842324735 58.5241
19.16346759176222 59.0107
19.18622349753803 59.4548
19.208803755869358 59.9989
19.231384767143577 61.1358
19.253966532312948 62.3125
19.276725481241822 64.1225
19.29930876296784 66.3145
19.3218928014549 68.7508
19.34465404436217 72.127
19.36723960516257 75.0617
19.389825925592426 76.5782
19.412413006605938 76.7403
19.43517731967805 74.0393
19.457765930683355 69.7814
19.48035530514408 65.1027
19.50294544401556 60.8703
19.525712842708348 57.8209
19.54830451925909 56.2618
19.570896963095727 55.0663
19.593490175174704 54.5786
19.616260674962184 54.5202
19.638855432416964 54.0875
19.661450960992624 54.3016
19.68404726164677 54.1154
19.706820878021247 53.9444
19.729418731756834 54.1332
19.752017360452857 53.9743
19.77461676506804 54.2756
19.797393513540218 54.1886
19.819994478951667 54.34
19.84259622316767 54.7325
19.8651987471481 55.1171
19.887978643247177 55.5719
19.91058273574792 56.0575
19.933187610901943 56.585
19.955969879466828 57.5976
19.97857632894404 58.8651
20.00118356396599 60.2341
20.023791585494575 62.0347
20.046577028914875 64.3807
20.069186632506966 66.9713
20.091797025500632 68.9055
20.114408208858933 70.3198
20.137196842715273 70.4677
20.159809615886765 69.4366
20.18242318232135 66.74600000000001
20.20503754298326 64.5232
20.227829382875154 62.9593
20.250445341109344 62.5391
20.27306209647285 62.8817
20.29567964993108 63.7868
20.31847471147704 64.7189
20.34109387027612 66.0357
20.363713830075454 66.0218
20.386334591841646 65.1785
20.409132890679302 62.9314
20.431755265564437 59.7859
20.454378445325528 56.8624
20.477002430930366 54.7738
20.499803982716553 53.4781
20.522429589228004 52.4005
20.54505600449589 51.924
20.567683229489194 51.7644
20.590488049900088 51.4547
20.61311690359731 50.8009
20.63574656993626 50.6747
20.658553853717297 50.3591
20.681185154618298 50.2969
20.703817271080066 50.1423
20.72645020407368 49.8396
20.749260783967177 49.6459
20.771895359337133 49.5057
20.794530754161617 49.4426
20.817166969412938 49.3226
20.83998086114876 49.4396
20.86261872660049 49.1076
20.885257415405402 49.2935
20.90789692853701 49.188
20.930714147864748 49.0296
20.953355319030678 49.0716
20.97599731745334 49.246
20.99864014410749 49.0106
21.021460706796564 49.1226
21.044105199328826 49.4324
21.06675052302631 49.6072
21.089396678865015 49.6661
21.112220600704806 49.9649
21.134868430275347 50.3466
21.15751709492456 50.2872
21.180166595629693 50.567
21.202993892429635 51.2621
21.22564507473034 51.6319
21.24829709602816 51.8702
21.27112693608965 51.8767
21.293780644891275 52.0836
21.316435195634053 51.4632
21.339090589297417 50.9477
21.361923832041875 50.2909
21.384580921090404 49.7793
21.407238856007325 49.0835
21.429897637773326 49.1025
21.45273429906592 49.0083
21.475394784108598 48.7042
21.498056118951983 48.7541
21.520718304578022 49.0085
21.543558400304388 49.0097
21.566222297108816 49.2315
21.58888704765135 49.3163
21.61155265291521 49.6302
21.63439619898156 50.042
21.657063523335786 50.1888
21.67973170537063 50.5564
21.7024007460706 51.2581
21.72524775840385 51.7471
21.747918526116475 52.7307
21.770590155457388 53.9443
21.79326264741238 55.3975
21.816113141960237 56.9381
21.838787368860547 58.6485
21.861462461341976 60.4039
21.884315579735777 62.3667
21.90699241312273 64.0162
21.92967011506078 65.1445
21.95234868653799 65.6005
21.9752053151131 64.5087
21.997885635446785 62.8563
22.020566828293532 61.1634
22.04324889464272 59.0969
22.066109049404666 57.3377
22.088792872571794 56.4947
22.111477572219204 56.3925
22.1341631493376 56.4658
22.157026846313123 56.7534
22.179714188221507 56.2418
22.202402410582668 55.3957
22.22509151438863 53.8269
22.24795876962584 52.3144
22.270649646204486 51.5145
22.293341407213727 50.8196
22.316034053646906 50.2196
22.338904883215342 49.6263
22.36159931041458 49.6093
22.38429462602756 49.6105
22.40699083104897 49.6396
22.429865251039757 49.5135
22.452563244831367 49.5644
22.47526213102522 49.4631
22.49813925616515 49.1466
22.520839937143307 49.0729
22.543541513520587 49.1487
22.56624398629403 49.1012
22.589124730075895 49.0737
22.611829005656723 49.1181
22.63453418063466 49.1218
22.657240256008077 49.3285
22.680124634582935 49.5381
22.70283252079775 49.8996
22.725541310413075 50.0399
22.74825100442868 50.1171
22.771139033969575 50.6055
22.79385054687155 50.7485
22.81656296718292 51.4016
22.83927629590484 52.1567
22.862167992606945 53.1251
22.88488314827121 54.1138
22.907599215359284 55.0171
22.93031619487366 55.9597
22.953211574954405 56.9208
22.975930389478226 58.068000000000005
22.998650119445763 58.5644
23.02137076586092 58.4412
23.044269845560063 57.336000000000006
23.06699233506288 55.6632
23.089715744034912 53.8641
23.112617610931565 52.074
23.135342869061212 50.832
23.158069049684816 49.9901
23.1807961538087 49.5114
23.20370174880544 49.3583
23.226430710184808 49.3817
23.249160598093425 49.5348
23.271891413539002 49.3931
23.294800752937697 49.3156
23.31753343374794 49.5178
23.340267045128353 49.5154
23.36300158808808 49.8162
23.38591468821339 50.201
23.408651104658304 50.4669
23.431388455719986 50.9817
23.454126742409 51.8914
23.4770436196085 52.6977
23.499783787914662 53.8066
23.522524894889884 54.6756
23.54526694154616 55.6837
23.56818761219047 56.9139
23.59093154860734 57.702
23.613676427751283 58.562
23.636422250635754 58.3442
23.659346731118656 56.8339
23.68209445191868 54.9468
23.704843119509587 52.931000000000004
23.72759273490623 50.9165
23.750521041644767 49.1546
23.77327256312355 47.9288
23.796025035462787 47.224
23.818956224555475 46.7426
23.841710609113413 46.5481
23.86446594758979 46.3466
23.887222241002014 46.1519
23.910157285144578 45.7567
23.932915498962537 45.541000000000004
23.955674670778713 45.5271
23.978434801611975 45.3061
24.001373717286125 45.2824
24.024135776723917 45.3752
24.046898798245582 44.9829
24.06966278287146 44.8826
24.092605586582614 44.7579
24.115371508023642 44.6263
24.1381383956401 44.5555
24.16090625045381 44.6134
24.183852958731244 44.5431
24.206622758582608 44.3565
24.229393528706886 44.1223
24.252165270127392 44.3387
24.27511589952438 44.2008
24.297889594216997 44.0953
24.32066426328598 43.6534
24.34343990775613 43.8818
24.36639447485003 43.674
24.38917208083877 43.6607
24.41195066531332 43.4985
24.43490819850244 43.5699
24.457688750692377 43.3508
24.48047028445616 43.2884
24.503252800821233 43.573
24.526214300784112 43.5367
24.548998793132213 43.4828
24.57178427117417 43.4242
24.59457073593893 43.4282
24.617536219319863 43.4749
24.64032466834748 43.497
24.663114107195035 43.3124
24.685904536893013 43.1703
24.708874020360852 42.9766
24.731666442613744 42.9436
24.754459858818787 42.8904
24.777254270007962 42.9369
24.80022777025625 42.7783
24.82302418230472 42.7734
24.845821592443674 42.7493
24.86862000170663 42.7366
24.891597535453727 42.4443
24.914397953892728 42.5811
24.93719937456671 42.6384
24.96000179851076 42.7903
24.98298338249997 42.8511
25.00578782394922 43.1631
25.028593271784167 43.2474
25.05157790644186 43.5344
25.07438537804115 43.7281
25.097193859145293 43.8366
25.120003350792075 44.1232
25.142992065061257 44.345
25.165803588823465 44.7273
25.18861612625217 44.8908
25.211429678386736 45.0371
25.234422489079968 45.2144
25.257238081693636 45.1475
25.280054692141732 45.2927
25.3028723214652 45.1144
25.325869245420463 45.3627
25.348688923599397 45.3264
25.371509623787006 45.4197
25.394331347025812 45.4115
25.41733240110666 44.943000000000005
25.440156181590016 44.1316
25.46298098826268 43.6804
25.48580682216873 43.1649
25.50881202326435 42.5608
25.53163992281684 42.1031
25.55446885274561 41.8428
25.577298814096377 41.3564
25.600308179121807 41.3728
25.623140214533745 41.5307
25.64597328451537 41.2015
25.66898578564376 41.0566
25.691820936010206 41.0098
25.714657124097695 40.9566
25.737494350954734 41.0274
25.760511045684957 40.8645
25.783350361364224 41.0829
25.806190718969255 41.0708
25.82903211955018 41.037
25.852053024868923 41.1059
25.874896522722523 41.0266
25.897741066713106 41.0894
25.920586657892454 41.0953
25.943611790812668 41.1828
25.966459487728237 41.3884
25.989308234998564 41.4258
26.01215803367705 41.6646
26.03518741123814 41.7318
26.05803932412957 41.8538
26.080892291600094 41.8368
26.10374631470478 42.0573
26.12677995397268 42.1544
26.14963609978026 42.3557
26.172493304397875 42.0344
26.19535156888223 41.7425
26.218389486949604 41.3553
26.241249882640123 41.0345
26.26411134137826 40.6974
26.28715248187403 40.7779
26.31001607820869 40.6519
26.3328807407756 40.4065
26.35574647063438 40.6214
26.37879191991473 40.5806
26.401659795896734 40.5628
26.424528742360263 40.7056
26.447398760366614 40.7531
26.470448535598294 40.8651
26.49332070826805 41.0565
26.516193955675355 41.5977
26.53906827888316 41.698
26.562122397260108 41.743
26.584998883685063 41.9239
26.607876449110325 42.2361
26.63075509460056 42.5103
26.65381357334404 42.4513
26.67669439061878 42.44
26.699576291163382 42.4526
26.722459276044212 42.478
26.745522132402975 42.2637
26.768407297649354 42.068000000000005
26.791293550442003 41.5404
26.814180891848974 41.2815
26.837248143099337 40.9568
26.860137673466657 40.9733
26.88302829566349 40.6814
26.90592001075963 40.5512
26.92899167420566 40.2951
26.951885586870763 40.0726
26.974780595655517 39.7858
26.99785558178161 39.6841
27.020752794605112 39.4667
27.043651106772522 39.302
27.06655051935668 39.3097
27.089629948036183 39.1777
27.112531573292053 39.1414
27.135434302194138 39.2185
27.158338135817015 38.975
27.181422024430987 38.8781
27.204328079372566 38.9982
27.22723524226965 39.0262
27.250143514198573 38.9547
27.273231880156334 38.95
27.296142382065014 38.8151
27.319053996245536 38.7129
27.341966723775965 38.8432
27.365059584515222 38.9184
27.38797455070062 38.9916
27.410890633481237 38.7677
27.433807833936918 38.7798
27.456905206923906 38.9072
27.47982465472398 38.9057
27.502745223449743 38.9971
27.525666914182825 39.0789
27.548768816912457 38.9564
27.571692763693633 39.0071
27.59461783573812 38.8745
27.617723149491244 38.6157
27.640650484125285 38.5068
27.66357894728264 38.5947
27.686508540048052 38.5532
27.709618414237887 38.3802
27.732550278321757 38.2221
27.755483275279115 38.2169
27.778417406196485 38.3425
27.801531858397514 38.2355
27.824468269376716 38.2155
27.847405817586786 38.1479
27.870344504116094 38.3588
27.893463551932008 38.5607
27.916404527281053 38.5968
27.93934664422563 38.7619
27.962289903855886 38.7698
27.98541356491974 38.8681
28.00835912214229 38.9886
28.03130582533231 39.2923
28.054253675581805 39.3616
28.077381967556104 39.4222
28.100332124185126 39.4168
28.123283431160893 39.3795
28.146235889577238 39.3179
28.169368830154156 39.128
28.192323603752033 38.9649
28.215279532083304 38.6704
28.238415973016764 38.4983
28.261374223145094 38.4238
28.284333631303806 38.1205
28.307294198589954 38.0134
28.330435319167677 37.6513
28.353398217078915 37.3057
28.376362277420153 37.1709
28.39932750129032 37.1701
28.422473319286713 36.9014
28.44544088262495 36.8055
28.468409612800283 36.7264
28.491379510913497 36.5195
28.51453004413313 36.3778
28.53750229057244 36.3363
28.56047570826344 36.2364
28.583450298308804 36.2342
28.606605564586562 36.0723
28.629582511831156 36.2499
28.65256063474956 36.0892
28.675539934446338 36.1241
28.698699951647605 36.1357
28.72168161743193 35.9587
28.74466446331978 35.8258
28.767648490417624 35.7822
28.790813276438353 35.854
28.813799678527303 35.8526
28.836787265157085 35.8845
28.859955641890075 35.8946
28.882945610203045 35.7761
28.905936766392035 35.7058
28.928929111566863 35.6765
28.952102288520145 35.7219
28.975097024308607 35.4863
28.998092952423807 35.4037
29.021090073977508 35.3674
29.04426806913204 35.3013
29.067267590245258 35.0241
29.090268308143695 34.9297
29.11327022394099 34.8985
29.13645305530891 34.9259
29.159457379627167 34.8619
29.18246290519685 34.7662
29.20546963313352 34.6866
29.22865731875826 34.679
29.25166646419296 34.7166
29.27467681535305 34.5852
29.29768837335608 34.6085
29.320880931312562 34.6141
29.34389491580634 34.5933
29.366910110507334 34.6106
29.38992651653503 34.6565
29.41312396492981 34.6441
29.436142806456754 34.5964
29.45916286268059 34.4405
29.48236399319994 34.3444
29.50538649169417 34.1909
29.528410208259935 34.1386
29.55143514402014 33.9071
29.574641196749695 33.7826
29.597668583816574 33.6657
29.6206971934585 33.5132
29.64372702680042 33.5539
29.666938019934474 33.4264
29.689970313635285 33.3413
29.713003834422636 33.3432
29.73603858342347 33.2932
29.759254535188578 33.2108
29.78229175361658 33.0937
29.80533020365064 33.211999999999996
29.82836988641968 33.2506
29.85159081507472 33.1776
29.874632976355343 33.0592
29.89767637376955 33.1401
29.920721008448314 32.9931
29.9439469322847 32.8708
29.96699405457564 32.8011
29.9900424175358 32.8487
30.013092022298157 32.9226
30.03632295963995 32.8977
30.059375061131373 32.9404
30.08242840783577 32.8461
30.105483000888153 32.748000000000005
30.128718970092244 32.711
30.151776069006917 32.7792
30.17483441768648 32.8135
30.198074175317235 32.7428
30.221135036724256 32.8118
30.24419715131772 32.7994
30.267260520236203 32.696
30.290505341942243 32.7329
30.313571232750228 32.8086
30.336638381310948 32.6501
30.35970678876503 32.5957
30.38295669299435 32.5838
30.40602763151657 32.6267
30.429099832366074 32.5633
30.452173296685572 32.4752
30.47542830191959 32.3808
30.498504306502497 32.3446
30.521581577995562 32.4835
30.544660117543582 32.5186
30.56792024229725 32.5179
30.59100133132069 32.4106
30.614083691845494 32.4524
30.637167325018545 32.5059
30.660432587840603 32.6109
30.683518779717886 32.564
30.70660624769615 32.4672
30.729694992924372 32.5094
30.75296541239743 32.6039
30.77605672557558 32.4943
30.799149319462742 32.4824
30.8224236211637 32.4227
30.845518789950724 32.1857
30.868615242910597 32.2527
30.891712981195973 32.0415
30.91499247215866 31.9458
30.938092794619365 32.0301
30.96119440587579 31.8459
30.984297307082752 31.7131
31.00758200598383 31.6624
31.030687500658694 31.5722
31.053794288760695 31.5488
31.076902371446767 31.3935
31.100192296997445 31.4186
31.12330298246119 31.3217
31.14641496599209 31.3083
31.169528248749216 31.3329
31.19282341969534 31.2408
31.215939314557186 31.2569
31.239056512134788 31.349
31.262175013589378 31.3035
31.28547544871168 31.2816
31.30859657161541 31.2133
31.331719001892175 31.1771
31.35484274070538 31.2362
31.378148458819545 31.3408
31.401274828443725 31.1916
31.424402510106933 31.2652
31.447712205419993 31.3344
31.470842524931633 31.1659
31.493974159989783 31.1254
31.51710711176168 31.0719
31.54042212308802 31.1787
31.563557722100917 31.1106
31.586694641341655 31.0986
31.609832881979628 30.8749
31.63315322823208 30.8816
31.656294125521327 30.754
31.679436347728515 30.6944
31.70257989602529 30.613000000000003
31.725905596152327 30.5451
31.74905181052835 30.5
31.772199354521323 30.502
31.79534822930507 30.4951
31.818679302290967 30.4539
31.84183085259981 30.4836
31.864983737233473 30.5147
31.88813795736804 30.5029
31.911474422233013 30.3786
31.934631327356435 30.4472
31.9577895715215 30.4376
31.980949155906522 30.4918
32.004291031706956 30.3924
32.027453310562606 30.311999999999998
32.05061693318573 30.0739
32.07396288236386 30.1977
32.09712920658542 30.0603
32.12029687812702 30.0364
32.14346589817093 29.8524
32.166817291729984 29.7957
32.18998902288583 29.7187
32.21316210610336 29.5271
32.23633654256711 29.5404
32.259693399663725 29.7173
32.282870556771144 29.4394
32.30604907069099 29.4261
32.329228942610065 29.4029
32.35259128243769 29.3737
32.375773884550505 29.2457
32.398957848235646 29.2478
32.422143174682176 29.2804
32.445511016471215 29.1136
32.468699082679954 29.0885
32.49188851523011 29.0904
32.51507931531304 29.0031
32.538452678331 29.0304
32.56164622776311 28.8726
32.58484114831493 28.6676
32.60803744118015 28.7986
32.631416344731896 28.8383
32.654615396551876 28.7666
32.67781582427913 28.8206
32.701198898634416 28.6276
32.72440209253756 28.5201
32.747606665947124 28.5376
32.77081262006088 28.4155
32.79420126883317 28.5124
32.81740999876112 28.5173
32.840620112999424 28.3536
32.86383161274818 28.364
32.88722585534586 28.3639
32.91044014056596 28.3673
32.933655814909734 28.2988
32.95687287957963 28.2874
32.98027273544904 28.2745
33.00349259526636 28.1704
33.026713849030116 28.1938
33.04993649794511 28.1853
33.073341986570746 28.0996
33.09656744032826 28.0988
33.11979429286444 28.1626
33.14302254538647 28.0315
33.166433686291185 28.0839
33.18966475336992 27.9597
33.212897224069096 27.9836
33.23613109959831 27.8905
33.259547912343415 27.8703
33.2827846121627 27.9375
33.306022720453775 27.9017
33.32926223842861 27.7498
33.352684742614166 27.7341
33.37592709463173 27.7201
33.399170859982064 27.5571
33.422597648419426 27.5072
33.44584425514446 27.4871
33.46909227885668 27.4527
33.4923417207723 27.3763
33.51577423505344 27.3107
33.539026528130385 27.1891
33.56228024307245 27.1774
33.585535381098246 27.1242
33.60897364093058 27.0218
33.63223163992385 27.1183
33.6554910656699 26.9557
33.678751919389796 26.9298
33.702195944520106 26.9089
33.72545966903325 26.8889
33.74872482519663 26.7357
33.771991414233746 26.8597
33.79544122444841 26.8441
33.81871069412428 26.7683
33.84198160035767 26.7376
33.86525394437455 26.6895
33.88870955949969 26.6637
33.911984794020626 26.5725
33.93526147001624 26.538
33.958539588715006 26.5291
33.98200102861669 26.4409
34.0052820477047 26.344
34.02856451319451 26.3193
34.05203033759056 26.2253
34.07531571090147 26.2932
34.09860253431845 26.2242
34.121890809074316 26.1769
34.145362493118924 26.1138
34.16865368561615 26.1144
34.191946333164054 26.1296
34.21524043699793 26.0876
34.23871800066799 25.9818
34.26201503218366 25.9225
34.28531352370466 25.8557
34.30861347646881 25.9011
34.33209693978188 25.9452
34.3553998301885 25.8239
34.378704185565205 25.7572
34.402010007152356 25.7416
34.42549939016683 25.7386
34.44880815937748 25.6696
34.472118398533134 25.6341
34.49543010887669 25.5076
34.51892543169198 25.4158
34.54224009966052 25.476
34.56555624255917 25.4473
34.58887386163339 25.3214
34.61237514439016 25.3538
34.6356957311114 25.2402
34.65901779775809 25.2029
34.68252356662995 25.266
34.705848608458616 25.1607
34.72917513396849 25.0935
34.75250314440949 25.0214
34.77601490857862 25.026999999999997
34.799345904259795 24.9958
34.82267838863559 24.9575
34.846012362958525 24.9139
34.869530142679984 24.932
34.89286711232212 24.91
34.91620557568269 24.8013
34.93954553401677 24.8364
34.9630693495876 24.7905
34.986412313340814 24.7515
35.00975677584668 24.7262
35.033102738362956 24.7387
35.05663261012228 24.6288
35.0799815881786 24.5945
35.10333207003229 24.5765
35.12668405694369 24.5511
35.150220005273056 24.5264
35.17357501786656 24.5028
35.19693153931268 24.4064
35.220289570874385 24.3982
35.24383161619786 24.3255
35.267192683604904 24.3189
35.290555264930376 24.3416
35.314101899412165 24.3778
35.33746752422433 24.2243
35.36083466676374 24.2969
35.38420332829803 24.239
35.407756095629054 24.2386
35.43112781085063 24.2495
35.45450104888391 24.2063
35.477875810999194 24.2202
35.50143473172161 24.1086
35.52481255774625 24.1627
35.54819191167777 23.9967
35.57157279478914 24.0081
35.595137889488406 24.0015
35.61852184675279 24.0023
35.641907337029984 23.934
35.665294361595684 23.9375
35.68886565090076 23.8051
35.7122557598848 23.8662
35.73564740699838 23.7219
35.759040593519934 23.6691
35.78261809810353 23.7909
35.80601437933051 23.6102
35.829412203814705 23.5704
35.85281157283719 23.5196
35.876395313415884 23.6644
35.8997977874528 23.5313
35.92320180988546 23.4914
35.946790244133936 23.4029
35.97019737933222 23.3585
35.993606066789866 23.366
36.01701630779276 23.349
36.04061101440684 23.305999999999997
36.06402437852291 23.2687
36.08743930005611 23.2557
36.1108557802951 23.1736
36.13445678011326 23.1377
36.15787639383515 23.1396
36.18129757014299 23.0653
36.20472031032821 23.0198
36.22832762423364 22.996
36.25175350829375 22.9907
36.275180960119776 22.958000000000002
36.298609981005924 22.9668
36.32222362992669 22.9868
36.34565580510207 22.8988
36.36908955323448 22.8572
36.39252487562093 22.6521
36.416144880530226 22.6705
36.43958336764275 22.6615
36.463023432914625 22.6948
36.486465077645676 22.5656
36.51009145956204 22.623
36.53353627947859 22.7134
36.55698268276811 22.6781
36.58043067073321 22.5273
36.60406345072071 22.4238
36.62751462435344 22.4997
36.65096738658405 22.4712
36.67460498210655 22.4817
36.69806093788647 22.406999999999996
36.72151848619297 22.2862
36.744977628333636 22.3064
36.76862165890998 22.1864
36.79208400512205 22.3128
36.81554794910557 22.2823
36.83901349217101 22.1822
36.862663978991606 22.1205
36.88613273667352 22.0729
36.90960309738324 22.0742
36.933075062434064 21.9651
36.95673202673572 21.949
36.98020721697122 21.9488
37.003684015502365 21.8471
37.027162423645365 21.8708
37.050825886711465 21.8445
37.07430753063053 21.7557
37.09779078812467 21.7015
37.121275660513014 21.7219
37.144945643673694 21.6797
37.16843376245278 21.6699
37.19192350009803 21.6329
37.215414857931435 21.6378
37.239091382563885 21.5742
37.262585997426164 21.5288
37.28608223645736 21.4959
37.309763684451696 21.4896
37.33326318851098 21.3719
37.356764320726555 21.4303
37.380267082425526 21.3865
37.40395510942588 21.3249
37.42746114683234 21.3057
37.45096881771841 21.2506
37.474478123414166 21.2998
37.49817275092816 21.2194
37.52168534303452 21.2053
37.54519957395567 21.1192
37.568715445024665 21.0971
37.592416694607714 21.0029
37.61593586281424 21.0689
37.63945667518264 21.0404
37.66297913304891 21.0099
37.68668702630454 21.0144
37.710212792059274 20.8943
37.733740207334854 20.8849
37.757269273470364 20.8157
37.780983832050374 20.7503
37.80451621684926 20.7653
37.82805025654007 20.7397
37.851585952464795 20.6689
37.8753071980695 20.6357
37.89884622345676 20.5794
37.92238690911902 20.6047
37.94611318753442 20.5154
37.969657210779765 20.4807
37.99320289834801 20.5148
38.016750251586465 20.4524
38.04048325513017 20.4338
38.06403395679343 20.3831
38.087586328183946 20.268
38.11114037065203 20.3759
38.13488012115898 20.2981
38.1584375229181 20.2513
38.181996599821 20.2092
38.205557353221124 20.1826
38.229303872575656 20.1598
38.2528679961576 20.1427
38.27643380031219 20.0925
38.30000128639589 20.0809
38.32375459653193 20.0457
38.34732546371299 20.0106
38.37089801690786 19.9484
38.39447225747609 19.9056
38.418232380377425 19.8717
38.441810012983396 19.9109
38.46538933705673 19.87
38.488970353960084 19.8388
38.51273731166058 19.8188
38.536321731567014 19.7621
38.55990784840681 19.6917
38.58367995004091 19.6583
38.60726947812959 19.6069
38.63086070726198 19.6621
38.654453638806274 19.6584
38.678232613930824 19.6065
38.70182896773327 19.5116
38.72542702806741 19.4582
38.7490267963045 19.5264
38.77281266709232 19.449
38.79641586862214 19.383
38.8200207821842 19.3734
38.843627409152944 19.3369
38.86742019782782 19.2867
38.891030269149255 19.2881
38.914642058016156 19.2994
38.938255565806124 19.271
38.96205529464307 19.1321
38.98567225787121 19.1636
39.00929094417078 19.1264
39.03291135492255 19.1344
39.05671804624804 19.0473
39.080341923549106 19.0932
39.103967529460334 19.0447
39.127594865365744 18.9233
39.15140854155791 18.8832
39.17503935514948 18.9384
39.19867190290282 18.9365
39.22249083587951 18.8644
39.24612686969409 18.8685
39.269764641845306 18.8551
39.293404153722804 18.8294
39.317230110864074 18.7442
39.34087311998506 18.6491
39.36451787301696 18.7182
39.388164371352595 18.6149
39.41199737518003 18.6281
39.43564738196752 18.6156
39.45929913825317 18.6245
39.48295264543308 18.5679
39.506792718520884 18.5133
39.530449745387216 18.4872
39.55410852735203 18.4362
39.57776906581474 18.458
39.60161623079 18.4015
39.625280300200025 18.3374
39.64894613032202 18.3197
39.67261372255866 18.3651
39.6964680021016 18.2882
39.72013913657293 18.2861
39.74381203738292 18.2333
39.76748670593756 18.1934
39.79134812278169 18.2618
39.81502634488497 18.1465
39.83870633896685 18.0818
39.862388106436654 18.072
39.88625668336918 18.0034
39.90994201572829 18.002
39.933629125719285 17.9949
39.957503091207826 17.9058
39.9811937746168 17.9563
40.00488623990914 17.9455
40.02858048850006 17.8482
40.05246165409549 17.8125
40.076159487492085 17.7977
40.099859108448875 17.8193
40.123560518384345 17.7984
40.1474489070226 17.7637
40.171153913178564 17.6656
40.194860712584955 17.7173
40.2185693066637 17.6324
40.242464941335314 17.6285
40.26617714307655 17.5434
40.289891143772046 17.6129
40.3136069448471 17.5897
40.33750984859743 17.4995
40.3612292688043 17.4462
40.3849504936829 17.4202
40.40867352466194 17.4695
40.43258372059144 17.3772
40.45631038219906 17.4197
40.48003885420956 17.3069
40.503769138055105 17.3242
40.52768664931955 17.3039
40.55142057531802 17.2603
40.57515631746428 17.2363
40.599079334038514 17.2489
40.62281872700477 17.1851
40.64655994043941 17.1361
40.67030297578061 17.1488
40.69423334835778 17.0934
40.71798004609188 17.1452
40.74172857006355 17.0254
40.76547892171441 17.0661
40.7894166736039 17.0056
40.813170699248566 16.9594
40.83692655691388 16.941
40.86068424804498 16.926
40.884629402612525 16.8824
40.908390779366385 16.9063
40.932153993938 16.7754
40.95591904777605 16.7552
40.979871628443995 16.7924
41.003640379561936 16.7493
41.02741097430883 16.7419
41.05118341413683 16.6992
41.075143444384416 16.6877
41.098919593177826 16.7112
41.1226975914255 16.6297
41.14647744058318 16.6534
41.170444943946755 16.6094
41.19422851378379 16.5372
41.218013938914645 16.4939
41.24198706625173 16.442
41.26577622087193 16.4505
41.289567235177785 16.379
41.31336011063129 16.3659
41.337340752422875 16.3018
41.361137369129835 16.3293
41.38493585138705 16.3185
41.40873620066004 16.2554
41.43272438060107 16.2872
41.45652848292052 16.2326
41.48033445666918 16.1714
41.50414230331616 16.1425
41.528138045159764 16.1362
41.551949656675205 16.1388
41.575763145513235 16.1
41.59957851314666 16.0839
41.62358184070442 15.9907
41.64740098505737 16.0309
41.6712220126409 16.0128
41.69504492493139 15.9581
41.71905586207357 15.9168
41.74288256296395 15.8941
41.766711153007456 15.8824
41.79054163368412 15.8541
41.814560204340054 15.8414
41.838394485526365 15.8371
41.86223066180303 15.755
41.88625497706819 15.7752
41.910094962812 15.7319
41.93393684811168 15.7165
41.95778063445365 15.6496
41.981812625263366 15.6278
42.00566023303407 15.606
42.029509746323676 15.5547
42.05336116662236 15.5493
42.077400857069705 15.5531
42.10125611078846 15.561
42.12511327600405 15.4939
42.14897235421036 15.405999999999999
42.173019768448455 15.4341
42.19688269209613 15.3597
42.22074753323349 15.3247
42.24461429335818 15.3308
42.268669455600495 15.3708
42.292540073217886 15.3416
42.31641261433284 15.2856
42.34028708044675 15.2957
42.36435001496739 15.2368
42.38822835065557 15.1882
42.41210861586426 15.1866
42.4359908120986 15.1723
42.46006154323262 15.1396
42.48394762115317 15.0926
42.507835634632315 15.1236
42.531912233047436 15.0712
42.55580413732265 15.0348
42.579697981698 15.0126
42.60359376768525 14.9386
42.62767820545945 14.8939
42.65157789440821 14.9242
42.67547952952185 14.9066
42.699383112316 14.9065
42.72347541395347 14.8519
42.74738291190531 14.7911
42.771292362102166 14.8098
42.795203766063516 14.7722
42.819303956130405 14.7414
42.843219287476536 14.7487
42.86713657716324 14.6998
42.89105582671383 14.6528
42.91516392983864 14.6525
42.939087119032166 14.6233
42.963012272677304 14.6098
42.98693939230129 14.5742
43.01105543317513 14.5196
43.034986504731386 14.5073
43.05891954686589 14.4905
43.08285456110972 14.4798
43.10697856448665 14.4346
43.130917542983475 14.3495
43.15485849820081 14.3665
43.17880143167367 14.3522
43.20293342237094 14.3312
43.226880332449 14.3154
43.25082922540554 14.3242
43.27496722682525 14.2643
43.29892010567796 14.2191
43.32287497204102 14.2659
43.34683182745632 14.2178
43.370977859791836 14.1477
43.39493871351105 14.1309
43.41890156092628 14.1258
43.44286640358341 14.1037
43.46702049182749 14.0743
43.49098934522816 14.0499
43.51496019852649 14.0407
43.5389330532723 14.0172
43.56309522248204 14.0138
43.58707210044314 13.9768
43.61105098451946 13.8986
43.63503187626491 13.9013
43.659202151562134 13.8624
43.68318707902681 13.8834
43.70717401884041 13.8373
43.731162972560874 13.7901
43.75534137913236 13.7607
43.779334381108384 13.7669
43.803329401683186 13.7647
43.82732644241872 13.719000000000001
43.8515130055166 13.7303
43.87551410707659 13.665999999999999
43.89951723350145 13.6413
43.923709934595614 13.6092
43.94771713129917 13.5947
43.97172635758096 13.5656
43.99573761501002 13.5738
44.0199385169922 13.5273
44.04395385732619 13.5112
44.067971233533086 13.4992
44.09199064718605 13.5065
44.11619977548961 13.4191
44.14022328470671 13.4257
44.16424883610785 13.4022
44.18827643127035 13.3816
44.21249381139513 13.3446
44.236525514814076 13.2839
44.26055926674478 13.3402
44.28459506876863 13.3166
44.3088207262813 13.207
44.33286064928722 13.232000000000001
44.35690262714919 13.1965
44.38094666145278 13.1709
44.4051806219871 13.1654
44.42922879003185 13.1186
44.45327901929361 13.1154
44.477331311362136 13.0696
44.501573600619416 13.0433
44.525630039221795 13.0076
44.54968854541895 13.0446
44.573937102200176 12.998
44.5979997645541 12.9648
44.622064499300315 12.8898
44.64613130803592 12.9087
44.67038823869318 12.9399
44.69445921643748 12.9139
44.718532272981385 12.8817
44.742607409926194 12.8722
44.76687274034801 12.8407
44.79095205918753 12.7751
44.81503346325094 12.7737
44.839116954143876 12.821
44.86339071028742 12.7409
44.88747839599524 12.7454
44.91156817336837 12.6651
44.93566004401666 12.6625
44.959942251908146 12.6704
44.984038330325966 12.5944
45.00813650686762 12.5989
45.03223678314731 12.5894
45.05652746888232 12.5396
45.08063196592069 12.5505
45.104738567558705 12.5023
45.128847275414856 12.4723
45.15314646515866 12.3895
45.17725940679741 12.4228
45.20137445952892 12.4052
45.22568004865265 12.4097
45.24979934496396 12.4157
45.27392075725247 12.3541
45.29804428714431 12.3341
45.322358426247604 12.3078
45.346486212804315 12.2997
45.370616121861914 12.2725
45.39474815505086 12.2499
45.41907087049246 12.1915
45.4432071734666 12.1553
45.46734560548283 12.1922
45.49148616817604 12.1681
45.51581748638564 12.1462
45.5399623320197 12.1
45.56410931325473 12.0561
45.58825843173002 12.0453
45.61259837920865 12.0405
45.636751793816 12.0307
45.66090735060093 11.9996
45.68506505120716 11.9882
45.7094136545275 11.8926
45.73357566449271 11.9363
45.75773982322992 11.9027
45.78190613238733 11.9147
45.806263418194064 11.8703
45.83043404997326 11.8487
45.85460683713677 11.8419
45.87897065658495 11.8298
45.90314777634752 11.804
45.92732705646868 11.7922
45.9515084986045 11.7877
45.97588104735473 11.7052
46.00006683541565 11.7114
46.02425479047904 11.7106
46.04844491420549 11.6629
46.0728262191024 11.6991
46.09702070211635 11.674000000000001
46.12121735879483 11.65
46.14541619080294 11.6293
46.169806278764455 11.5826
46.194009483459034 11.5684
46.21821486849841 11.5274
46.24242243555223 11.5054
46.266821333570014 11.4971
46.29103328674601 11.4665
46.31524742696538 11.458
46.33946375590237 11.4257
46.36387149104216 11.3894
46.38809221957392 11.3592
46.41231514186606 11.377
46.436540259597464 11.3604
46.460956858999374 11.2831
46.48518638983522 11.2665
46.509418121166966 11.2522
46.533652054678114 11.2475
46.55807754555709 11.262
46.58231590571962 11.1856
46.60655647313217 11.1707
46.630988654873654 11.1102
46.655233659129024 11.1531
46.67948087571551 11.1304
46.70373030632484 11.134
46.72817142736393 11.0921
46.752425308428684 11.0519
46.77668140861147 11.0543
46.80093972960865 11.0069
46.82538981736788 10.9606
46.849652602470904 10.9778
46.87391761349769 10.9476
46.8981848521493 10.9337
46.9226439341274 10.9627
46.946915650573224 10.8896
46.97118959976749 10.8717
46.99546578341598 10.8452
47.019933887188216 10.8251
47.04421456235744 10.7999
47.06849747711879 10.8216
47.09278263318286 10.7901
47.11725978640143 10.7361
47.14154944775105 10.7417
47.165841355555656 10.7246
47.1901355115306 10.6844
47.214621741924994 10.7047
47.23892041698887 10.6889
47.26322134538975 10.6305
47.28771440635075 10.5959
47.31201986422527 10.5674
47.33632758061436 10.5918
47.360637557241866 10.56
47.38513974410611 10.5624
47.40945426407847 10.5045
47.43377104948137 10.5356
47.45809010204344 10.4882
47.48260144275502 10.4885
47.506925052572285 10.4531
47.53125093475548 10.405
47.55557909103813 10.3878
47.58009961361992 10.3666
47.60443234110732 10.3752
47.62876734791564 10.3416
47.65310463578333 10.3442
47.6776343683373 10.2973
47.7019762413987 10.2692
47.72632040075572 10.2348
47.75066684815169 10.2592
47.77520581885936 10.2586
47.799556865477655 10.2073
47.823910205386 10.2223
47.84826584033272 10.173
47.87281407745551 10.1422
47.89717432569297 10.1551
47.92153687423484 10.1102
47.94609208429692 10.1199
47.97045925671401 10.0726
47.99482873471275 10.0729
48.01920052005013 10.0536
48.04376504619224 10.0279
48.068141469543484 10.0223
48.09252020552573 9.98925
48.11690125590099 9.9744
48.1414751266064 9.97365
48.16586082917454 9.96466
48.19024885144316 9.911589999999999
48.2146391951793 9.90981
48.239222439012764 9.89246
48.26361744916137 9.87306
48.28801478610016 9.8863
48.31241445160131 9.87571
48.337007097209366 9.84036
48.36141144338331 9.81592
48.38581812345755 9.81788
48.41022713920929 9.785169999999999
48.434829215320704 9.74722
48.45924292604658 9.73155
48.48365897780325 9.736180000000001
48.50807737237308 9.70995
48.532688907799276 9.683810000000001
48.55711201168574 9.65327
48.581537463754074 9.66854
48.60615611725119 9.68415
48.63058628942721 9.60742
48.65501881516546 9.61393
48.6794536962573 9.58315
48.70408185970339 9.56074
48.72852147531801 9.52934
48.75296345168211 9.514610000000001
48.77740779059232 9.49827
48.80204549302823 9.484869999999999
48.82649458091802 9.470130000000001
48.85094603676547 9.43515
48.87539986237231 9.44035
48.90004713292306 9.42256
48.92450572200832 9.4159
48.94896668628025 9.36625
48.97343002754588 9.3378
48.99808689542115 9.34601
49.02255501470614 9.368089999999999
49.04702551642794 9.29087
49.0714984023988 9.27779
49.096164896893235 9.26993
49.120642575466796 9.24465
49.145122643748394 9.21958
49.16960510355558 9.20909
49.19428125404938 9.20925
49.2187685210852 9.211730000000001
49.243258185121555 9.1932
49.26794160167084 9.12877
49.2924360839405 9.153880000000001
49.31693296869764 9.1012
49.34143225776915 9.13078
49.36612538195438 9.08773
49.39062950396021 9.1098
49.41513603578346 9.05539
49.4396449792564 8.98216
49.46434784069503 9.02166
49.488861631846454 9.01976
49.513377840166804 9.01511
49.537896467493745 8.969439999999999
49.56260909589029 8.95253
49.587132585683285 8.93277
49.611658500018365 8.893419999999999
49.636186840738596 8.87204
49.66090926588511 8.89431
49.685442483902584 8.90875
49.70997813385706 8.83812
49.734516217597076 8.80043
49.75924846937352 8.82428
49.7837914452858 8.77952
49.80833686055187 8.7669
49.83288471702571 8.74741
49.85762682540054 8.73559
49.882179588965734 8.727210000000001
49.9067347993235 8.68994
49.93129245833333 8.68167
49.95604445336378 8.708269999999999
49.98060703442832 8.67278
50.005172069746266 8.65807
50.02993150438364 8.62475
50.05450147301533 8.613669999999999
50.07907390151433 8.58637
50.10364879174981 8.57124
50.12841816587289 8.54306
50.1529980044635 8.556239999999999
50.17758031042124 8.52882
50.20216508562089 8.481489999999999
50.22694442953363 8.47621
50.25153416817468 8.49173
50.27612638170508 8.46149
50.300721072005196 8.40702
50.325510416102105 8.44166
50.350110084975064 8.38668
50.37471223628208 8.370569999999999
50.39931687190919 8.38508
50.424116246675766 8.34825
50.44872587605249 8.3372
50.47333799543065 8.34625
50.49795260670191 8.31853
50.52276204271512 8.284939999999999
50.54738166295838 8.33312
50.57200378079314 8.26553
50.596628398116835 8.24403
50.62144792604559 8.25741
50.646077567609396 8.22737
50.670709714377715 8.1882
50.69553683636198 8.18065
50.72017401885922 8.18742
50.7448137122895 8.1917
50.76945591856022 8.1771
50.79429318636823 8.12594
50.818940443716784 8.12181
50.84359021965163 8.079260000000001
50.868242516085964 8.04422
50.893089960641895 8.06365
50.917747323549435 8.030439999999999
50.94240721271973 8.02154
50.96706963007175 8.02355
50.99192728239342 7.992089999999999
51.01659478166073 7.99499
51.04126481489051 7.996230000000001
51.06593738400761 7.9626600000000005
51.090805275207074 7.9371
51.11548294172845 7.87736
51.14016314993547 7.924639999999999
51.164845901758845 7.9207
51.18972406304274 7.87953
51.21441192780656 7.85297
51.23910234200271 7.79895
51.2637953075678 7.80915
51.288683770237945 7.7767
51.31338186432707 7.807510000000001
51.33808251561888 7.7316899999999995
51.362978729967345 7.7531300000000005
51.387684521509755 7.73465
51.41239287610203 7.7092
51.437103795691165 7.6959
51.46201036644977 7.6978100000000005
51.486726441956634 7.66459
51.51144508832545 7.673039999999999
51.536166307509156 7.63385
51.56108326624387 7.615469999999999
51.58580965706056 7.6437
51.61053862657523 7.63611
51.635270176746864 7.59673
51.66019755512065 7.555210000000001
51.68493429268881 7.552060000000001
51.70967361681515 7.575410000000001
51.73441552946465 7.559419999999999
51.759353359237934 7.5372699999999995
51.7841004750961 7.4707300000000005
51.80885018539685 7.4711300000000005
51.833602492111254 7.4656899999999995
51.8585508051424 7.461760000000001
51.883308330926425 7.411160000000001
51.90806845906181 7.41697
51.932831191525715 7.3925600000000005
51.95779001977161 7.32914
51.98255798721516 7.34187
52.00732856494335 7.340380000000001
52.03229530577543 7.35463
52.057071130455945 7.33665
52.081849571391054 7.289219999999999
52.106630630568695 7.287660000000001
52.13160794279417 7.25294
52.15639426492067 7.25103
52.18118321127822 7.27119
52.205974783860896 7.2279100000000005
52.23096269971011 7.23106
52.255759551287994 7.21325
52.280559035098186 7.1820699999999995
52.30536115314103 7.18261
52.33035970494467 7.1623
52.35516711807904 7.13744
52.37997717147198 7.11993
52.40478986713005 7.119960000000001
52.42979908731974 7.077380000000001
52.454617094216 7.093960000000001
52.47943774942214 7.06469
52.50426105495102 7.0594600000000005
52.529280976059844 7.008710000000001
52.554109609024096 7.00581
52.57894089837482 7.02325
52.60377484613117 7.02082
52.62880550079408 6.96617
52.65364479223379 6.9575
52.67848674816189 6.92398
52.70352547971946 6.95625
52.72837279155837 6.918660000000001
52.753222773982785 6.88765
52.778075429022984 6.910710000000001
52.80312495150885 6.90516
52.827982978797436 6.9133
52.85284368481815 6.83047
52.87770707160767 6.82902
52.90276741793998 6.79725
52.92763619336701 6.824
52.952507655698504 6.80129
52.977381806977576 6.759119999999999
53.00245301017842 6.749110000000001
53.02733256653592 6.784510000000001
53.052214817996074 6.7793399999999995
53.077099766608484 6.71594
53.102181859804446 6.705610000000001
53.127072229988265 6.6696800000000005
53.15196530349892 6.7258
53.17686108239249 6.65458
53.20195409881522 6.65199
53.22685531582556 6.690460000000001
53.25175924441303 6.634360000000001
53.27666588664027 6.6329899999999995
53.30176985962693 6.582789999999999
53.3266819565689 6.58236
53.35159677336455 6.56162
53.376514312083096 6.565289999999999
53.40162927507703 6.584289999999999
53.42655228516116 6.52913
53.45147802340193 6.4692
53.47660125628886 6.46992
53.50153247842639 6.45645
53.52646643496923 6.41782
53.55140312799818 6.45435
53.576537409691696 6.46204
53.60147960336152 6.42504
53.626424539786164 6.419969999999999
53.65137222105307 6.38769
53.67651758529126 6.39098
53.70147078399681 6.32355
53.72642673383343 6.3512900000000005
53.75138543689533 6.3604400000000005
53.776541917524526 6.34354
53.801506154876755 6.32124
53.826473151763246 6.274769999999999
53.851442910284916 6.28149
53.87661054126026 6.28927
53.9015858509782 6.28372
53.92656392866066 6.26704
53.95154477641532 6.2514
53.976723591801296 6.24555
54.00171000771266 6.21606
54.02669920004598 6.21735
54.051691170915745 6.219530000000001
54.076881204886796 6.16397
54.101878760928514 6.139530000000001
54.12687910187696 6.10811
54.152077577768296 6.15749
54.1770835166946 6.08587
54.20209224691339 6.0846599999999995
54.22710377055121 6.07241
54.25231352511594 6.08464
54.27733066384342 6.03699
54.30235060239643 6.05386
54.32737334290836 6.04511
54.35259441062629 6.00851
54.377622783395324 5.96823
54.40265396455061 5.9832
54.42768795623251 5.94723
54.45292037169559 5.9223099999999995
54.477960012857906 5.95549
54.50300247099511 5.88669
54.52804774825457 5.8971
54.55329154616743 5.876530000000001
54.57834249018678 5.81234
54.6033962597977 5.77142
54.6284528571545 5.81307
54.653708072335164 5.7445900000000005
54.67877035378786 5.76103
54.70383546947698 5.74955
54.72890342156389 5.73298
54.7541700889442 5.65509
54.77924374251975 5.65945
54.8043202390049 5.66469
54.82959552413022 5.65229
54.8546777351945 5.58814
54.87976279569621 5.58484
54.90485070780914 5.55433
54.930137506558005 5.60201
54.95523115074295 5.5658900000000004
54.98032765308844 5.52144
55.005427015775496 5.4983
55.03072536339621 5.4832
55.05583047570572 5.44011
55.080938454927676 5.44831
55.10604930325027 5.39691
55.131359235107396 5.42776
55.15647585066083 5.34513
55.181595341907496 5.3426
55.20671771104285 5.3187
55.232039262617704 5.269340000000001
55.25716741665048 5.26384
55.28229845518636 5.2981
55.30743238042802 5.26325
55.33276558731939 5.19864
55.357905315183636 5.193169999999999
55.383047936390035 5.18118
55.40819345314859 5.11834
55.433538351073295 5.09742
55.458689688238415 5.12858
55.483843927614096 5.08286
55.509197623043605 5.09591
55.53435769621134 5.06824
55.55952067826466 5.00402
55.5846865714265 5.00614
55.61005202069737 5.00537
55.63522376553902 4.97716
55.66039842818645 4.95759
55.68557601087004 4.923369999999999
55.7109532500271 4.90258
55.73613670233794 4.9209
