TT I
1.2716486653135266 7.50598
1.2939594142134223 7.518619999999999
1.3162702121660406 7.17762
1.3385810600174564 7.03377
1.3608919586137629 7.530689999999999
1.383202908801069 6.669580000000001
1.405513911425503 7.14023
1.4278249673332093 6.94563
1.4501343378461518 6.45809
1.4724455028545926 6.432259999999999
1.4947567236847858 5.84013
1.517068001182951 6.4568900000000005
1.5393793361953272 5.94739
1.5616907295681737 5.16458
1.5840021821477681 5.71935
1.60631369478041 5.1115
1.6286252683124185 5.5138
1.6509369035901333 5.35881
1.6732468618895553 5.068890000000001
1.695558623192809 5.10806
1.7178704487808514 5.58737
1.7401823395001077 5.3678300000000005
1.7625012545597203 5.15249
1.7848028405262486 4.83913
1.8071218901122095 5.29962
1.8294236121921872 4.49144
1.8517427996910911 4.62448
1.8740620574440425 4.67088
1.8963639900671978 5.46076
1.9186833908139995 4.917730000000001
1.9409854680117449 4.57461
1.9633050151394713 5.02749
1.9856246367570705 4.7630099999999995
2.0079269371922672 4.62357
2.03024671027244 4.64255
2.0525491637446027 4.75823
2.074869091674931 4.69436
2.097171701569106 4.40572
2.1194917877373847 4.97939
2.141811954326636 4.31264
2.164114805233074 5.03777
2.186435135143035 5.91838
2.208738150935709 13.0839
2.231058647554722 24.0819
2.2533792288321184 18.5196
2.275682498336085 9.22585
2.298003251406138 5.82791
2.3203066942619714 5.08473
2.3426276225136022 5.4564900000000005
2.3649486396617507 5.13123
2.387252348930071 5.19281
2.4095735463442893 5.05344
2.4318774374315884 5.4044300000000005
2.4541988185014043 5.9604800000000004
2.476502894794693 6.14234
2.498824462909887 5.89784
2.521146125856138 5.84395
2.5434504863470337 6.58909
2.5657723414244717 6.316
2.588076895590662 6.85889
2.610398946189713 6.85325
2.6327210958598384 6.66155
2.6550259469304716 6.69195
2.6773482972090137 7.6417399999999995
2.6996533504259 7.602530000000001
2.7219759047039602 7.66897
2.744298562293959 7.302789999999999
2.7666039251246595 7.265510000000001
2.7889267918020164 7.745660000000001
2.8112323652516555 7.69061
2.833555444408179 7.724989999999999
2.8558786311183852 8.07075
2.8781845268938557 8.84198
2.9005079311721484 8.48612
2.9228140460410397 8.41312
2.9451376712799635 8.27665
2.967444008632326 9.56663
2.9897678582247247 10.152999999999999
3.0120918213106695 10.478
3.0343984987899373 10.8849
3.0567226913198637 11.4068
3.079029599759726 11.658
3.101354025127254 12.2716
3.123678568232338 12.7283
3.145985829517914 13.085999999999999
3.16831061055229 13.4725
3.1906181112775593 14.4237
3.212943133635653 15.1377
3.2352682779763207 15.4988
3.2575761442691227 15.1131
3.2799015350264273 15.5784
3.302209649240067 16.3506
3.3245352898092655 17.1468
3.3468436553365257 17.582
3.369169549113219 17.8379
3.3914955708171384 18.7319
3.413804319727358 18.9517
3.4361305997334863 19.3547
3.4584396084414553 19.9834
3.4807661501462652 20.6225
3.503092824025881 21.5935
3.5254022288463154 21.7149
3.5477291695206588 21.9156
3.5700388426251948 22.701999999999998
3.5923660534916446 23.8638
3.6146934007816114 36.7887
3.637003482731501 78.3188
3.6593311053109985 86.0024
3.681641464033634 51.3093
3.7039693653009733 29.6693
3.726297407241705 26.406999999999996
3.7486081875460804 26.2489
3.7709365132734978 26.4902
3.793247578841633 26.949
3.8155761917550093 27.406999999999996
3.8378875459837216 27.4173
3.8602164494827234 28.2543
3.882545499606844 28.71
3.9048572932539183 29.4779
3.9271866390645718 29.5897
3.9494987298666713 30.461
3.971828374764527 30.7443
3.9941581705403255 31.3407
4.016470713506008 31.9727
4.038800813471445 32.6753
4.061113662089144 33.2699
4.0834440696459176 34.1347
4.105774632334751 34.5538
4.128087945865126 35.1637
4.150418821249301 35.9523
4.172732448931298 37.0262
4.195063640413578 39.4938
4.2173775856475215 42.8833
4.239709096631102 69.8541
4.262040768704612 206.446
4.284355196706267 270.598
4.306687193387355 177.65599999999998
4.329001947444346 74.9007
4.35133427213731 48.1224
4.373666762177566 45.72
4.395982011761091 45.2865
4.418314834921175 46.534
4.44063041906622 53.2106
4.4629635787515625 62.6357
4.4852969080429785 62.5887
4.5076130004776225 54.9944
4.529946671403969 52.8475
4.552263106909177 52.4306
4.574597122877047 53.0693
4.596931312711224 53.6924
4.619248269273446 54.8085
4.6415828092605835 55.8249
4.663900117405352 56.6984
4.686235010953232 58.3063
4.708552674085913 59.9082
4.730887924602802 61.7207
4.753223354952695 63.0762
4.775541557023902 64.4399
4.797877349456786 66.1109
4.820195915032126 67.9775
4.842532072957498 69.6711
4.864868414979744 71.9566
4.88718753227192 74.1966
4.909524244902505 76.0942
4.931843734218147 78.0308
4.954180820867835 80.6115
4.976518095879839 84.3576
4.998838149695359 87.065
5.021175803844231 91.1484
5.043496238205739 95.36399999999999
5.065834274903528 100.831
5.088172504230693 106.494
5.1104935158799565 115.01100000000001
5.132832132875765 140.34799999999998
5.155153533596801 185.13
5.1774925416746225 242.99400000000003
5.199814334878411 552.026
5.2221537374521505 1509.73
5.244493338631803 3510.03
5.266815727034316 7288.06
5.289155727832427 11429.9
5.311478517248165 9175.98
5.333818921080011 3564.12
5.356159527788849 773.155
5.3784829252032536 229.062
5.400823940070432 163.48
5.423147747031976 140.264
5.445489173474152 127.43
5.467830807066149 120.89200000000001
5.490155234831516 115.896
5.512497285125229 111.165
5.534822130975162 108.97200000000001
5.557164601388673 106.21799999999999
5.579489868738879 103.213
5.601832762690846 101.706
5.6241758697774475 101.131
5.646501775867269 100.51
5.668845311622074 99.3609
5.691171647754637 98.1922
5.713515615597765 96.9817
5.735859800852677 96.1015
5.758186788542988 95.7408
5.780531411018185 96.4915
5.802858837297399 95.979
5.825203900414495 96.4361
5.8475491852224 97.1079
5.869877275883075 97.8802
5.892223006467101 99.6378
5.914551544266608 101.705
5.936897724049891 105.932
5.959244129804903 114.656
5.981573344815301 147.825
6.0039202049061 294.586
6.026249875609095 628.97
6.04859719346037 1219.11
6.070927323278297 2260.22
6.093275102315365 4034.28
6.115623113320588 4723.1
6.137953938319995 3445.21
6.160302415650845 1222.77
6.182633708324452 297.228
6.2049826554078376 130.162
6.227331838745022 100.87700000000001
6.249663839443684 90.7732
6.27201349767565 86.3156
6.294345974611799 90.6772
6.316696111167083 99.4794
6.339046488263839 94.0274
6.361379686074702 80.942
6.383730546639482 74.1803
6.406064229255215 71.5423
6.428415576718203 70.6365
6.450749747566656 69.5469
6.47310158535871 68.0542
6.495453669698332 67.1621
6.517788579421056 66.6684
6.540141159237969 65.5898
6.562476565766648 65.0867
6.5848296444934045 64.4996
6.607182974060425 64.2447
6.6295191323281015 64.001
6.651872965955752 66.5384
6.6742096296068985 87.7595
6.6965639707294615 126.088
6.71891856698715 127.461
6.741255995248479 90.1969
6.763611104154477 67.9508
6.785949046381137 62.0378
6.808304671371482 60.45
6.8306605557940046 59.6644
6.852999275508618 58.9428
6.875355681171544 58.6999
6.897694923437771 58.3131
6.92005185377892 58.2135
6.9423916220322655 58.208
6.964749080490181 57.1665
6.987106804399774 56.9139
7.009447368180821 56.917
7.031805625367033 56.5526
7.054146723727803 56.8259
7.076505517631004 56.3398
7.098864581288365 56.5246
7.121206488070854 56.6753
7.143566093607822 56.4082
7.165908543567245 56.3475
7.188268694426048 56.3181
7.2106291193438095 56.6261
7.232972390625943 58.1273
7.255333366030969 68.304
7.277677189091925 112.916
7.300038718428332 151.572
7.322400526130865 129.28799999999998
7.344745183422596 84.7083
7.367107550224791 61.8198
7.389452767901992 57.3224
7.411815697249891 56.6761
7.434161478756298 55.6082
7.456524974096713 55.9659
7.478888753837185 55.9896
7.501235387657368 55.915
7.523599738562711 55.9619
7.545946944825532 56.2681
7.568311870344528 56.6019
7.5906770845765665 56.8673
7.613025156078678 58.0897
7.635390950099687 59.167
7.657739602662809 58.6427
7.680105979923558 57.7254
7.702472650212829 57.8234
7.724822180948224 57.5706
7.747189439655568 57.8051
7.769539560075357 57.8231
7.791907410653562 58.0157
7.81425812420825 58.2558
7.836626570110925 58.4409
7.858995315087906 59.2139
7.881346924933401 59.2861
7.903716270417482 60.0222
7.926068482028405 60.5268
7.948438431475253 60.9048
7.9708086843180235 61.1747
7.993161805171116 62.1308
8.015532667162402 62.8028
8.037886398416653 63.6313
8.060257873014221 63.9322
8.082629655331942 64.5381
8.104984308787587 65.6893
8.127356708900503 68.7753
8.149711981398308 73.8166
8.172085002766314 76.2492
8.194458336181368 73.6398
8.216814543847752 71.4863
8.23918850371002 71.5825
8.26154533906492 72.8477
8.283919928836452 74.4628
8.306277395339652 75.3064
8.328652618483376 76.7747
8.351028159736202 79.1119
8.373386579575245 81.4064
8.395762759396959 83.6955
8.418121819038275 88.9307
8.440498640894003 101.53200000000001
8.462875785192262 117.42
8.485235811156207 141.084
8.507613602688501 210.28599999999997
8.529974277114228 326.89
8.552352719347912 478.235
8.574731488360351 729.5889999999999
8.59709314210385 1154.91
8.619472567021075 1693.38
8.64183487789147 2111.85
8.664214962183097 1875.76
8.686577933647762 1104.21
8.708958680784317 446.43
8.731339760774953 186.30700000000002
8.753703729764451 119.84299999999999
8.77608547780821 105.204
8.798450116065078 99.7332
8.820832535634787 96.0191
8.843215292401656 94.1855
8.865580941199045 92.455
8.887964374703538 91.73899999999999
8.910330701447199 92.3753
8.932714815164482 94.4354
8.955099270424924 93.2134
8.977466620733543 90.28299999999999
8.999851761421976 87.8159
9.022219798361645 86.2085
9.04460562795561 85.9817
9.066991803441677 85.9302
9.089360876979615 85.8254
9.111747746589993 84.7711
9.13411751544971 84.6235
9.156505082664324 84.1825
9.178875550323522 84.2675
9.20126381862328 84.8303
9.223652438908596 85.0674
9.246023961427412 84.9316
9.26841328802173 84.2733
9.290785518039224 84.4575
9.313175554425882 85.7658
9.335565947154315 85.5308
9.357939245086508 85.6799
9.380330352834827 85.6601
9.40270436697103 85.6618
9.425096193225055 85.54
9.447488380180165 86.6526
9.469863475295412 86.8529
9.492256385987508 87.4974
9.514632206018318 87.9349
9.537025843935714 88.516
9.559402392368193 89.1591
9.581796761000229 90.3818
9.604191496441521 91.2907
9.626569144158516 94.3217
9.648964615551032 97.9492
9.671343000390081 99.5409
9.693739211225699 98.319
9.716135793237463 96.0551
9.738515290448102 96.3535
9.760912617143402 97.6431
9.783292860202891 98.4438
9.805690935076182 99.6855
9.828089385495742 101.164
9.850470754023561 103.285
9.872869957865444 110.713
9.89525208097539 124.344
9.917652041736662 136.19899999999998
9.940052382417589 140.88
9.962435644102392 162.907
9.984836746950979 219.15
10.007220771957746 302.448
10.029622640473708 420.134
10.052007432299963 597.852
10.074410069984072 842.8560000000001
10.096813093716005 1193.93
10.119199042482517 1616.21
10.141602840636468 1892.69
10.163989564971628 1711.46
10.186394141051062 1068.45
10.208799107559706 493.99300000000005
10.231187001965623 228.463
10.253592751657669 140.032
10.275981430388155 119.65299999999999
10.298387966769793 117.28299999999999
10.320794897965431 118.819
10.343184759907361 117.198
10.36559248305461 112.155
10.387983138083852 109.439
10.410391656691655 115.98299999999999
10.432800574501677 132.012
10.455192425893369 153.841
10.47760214443012 182.58700000000002
10.499994797678786 224.787
10.522405320453982 290.269
10.54479877906917 380.865
10.567210109595656 482.04900000000004
10.5896218454736 543.984
10.612016518879773 524.7959999999999
10.634429067781074 375.73199999999997
10.656824555333241 220.62
10.679237920773568 133.389
10.701651695961992 100.521
10.724048411481384 92.5623
10.746463008485165 89.7983
10.768860546937125 87.7561
10.791275969274796 85.8748
10.81369180576079 84.5205
10.836090585366925 83.4523
10.858507252467449 82.2208
10.88090686379991 81.0153
10.903324365036394 80.4711
10.925724811614439 80.3618
10.948143150509463 81.5657
10.970561909719066 80.5864
10.992963615930844 78.8068
11.015383218085756 76.9199
11.037785768347074 75.5722
11.06020621697282 74.9462
11.082627090322113 74.5505
11.105030913430326 73.7549
11.12745263854165 73.965
11.149857314510728 76.7609
11.172279894912576 81.6161
11.194702904450653 82.206
11.217108866490921 79.0532
11.239532736615194 75.139
11.26193956033512 72.9213
11.284364294577085 71.8996
11.306789462371718 69.969
11.329197585398376 68.90100000000001
11.351623622610898 68.7525
11.37403261614354 67.9497
11.396459526308487 67.9631
11.418869393879497 67.4693
11.441297180532617 67.1896
11.463725406927658 66.7581
11.486136592353875 66.4896
11.508565700543707 66.7137
11.530977768845315 68.0259
11.553407762368774 69.0459
11.575838200059769 68.5572
11.598251599479612 66.8572
11.620682927815501 65.5427
11.64309721895548 65.5673
11.665529441478206 65.1557
11.687962112597958 64.5044
11.710377748130886 64.6915
11.732811318753434 64.7227
11.755227854859067 64.6981
11.777662328529495 64.5867
11.800079768750786 64.3915
11.822515149015453 64.1789
11.844950984084935 64.5661
11.867369787303163 63.9017
11.889806534289491 64.1524
11.912226250487029 64.7705
11.934663912939751 64.757
11.9571020346363 64.8671
11.979523127133968 64.9753
12.001962169624331 65.92
12.024384183972964 68.1369
12.046824150809913 72.5724
12.069264581333726 79.0814
12.091687985297767 86.0106
12.11412934550045 95.0336
12.136553680195208 108.531
12.158995973632788 126.161
12.181438735204349 149.165
12.20386447284199 176.577
12.226308172985636 199.707
12.24873485024193 207.014
12.271179492516982 177.697
12.293607112949127 135.485
12.316052700916226 101.244
12.338498763250042 81.2826
12.360927805303868 72.1536
12.383374818673879 68.3364
12.405804812803074 66.6652
12.428252780773262 66.4111
12.45070122756722 66.2035
12.473132656675375 66.0428
12.49558206341869 66.2577
12.518014453510101 66.1307
12.540464823770117 66.3725
12.562915677315177 66.7947
12.58534951575545 67.4597
12.607801338171472 69.0555
12.630236146511358 73.1955
12.652688941369085 77.2039
12.675124723177234 77.9303
12.697578494048786 74.8985
12.720032754458185 71.0515
12.742470003354093 69.9375
12.764925245138771 69.9502
12.787363476431278 70.109
12.809819703166806 70.3994
12.83227642391173 71.0138
12.854716135692716 71.6372
12.877173846755147 73.017
12.899614549869717 73.2196
12.9220732548287 74.1609
12.94453245827299 74.6229
12.966974655289818 75.8253
12.989434858002571 76.4155
13.011878055298721 77.3001
13.034339260862497 78.4849
13.056800969391883 79.7969
13.079245674017244 82.2795
13.101708390774869 86.0126
13.12415410463411 96.2669
13.146617833206086 111.238
13.169064559883248 125.20100000000001
13.191529303857127 141.765
13.213994557076367 164.533
13.236442809902437 196.792
13.258909083908291 242.06599999999997
13.28135835851934 291.328
13.30382565690295 348.42400000000004
13.326293469022952 402.966
13.348744283242008 427.88300000000004
13.371213125129904 379.939
13.39366497011003 286.745
13.416134845360597 191.83700000000002
13.438605238843131 133.947
13.46105863690397 115.085
13.483530069144786 116.17200000000001
13.505984506951902 122.831
13.528456981549432 133.821
13.550929978879088 148.761
13.573385983253365 169.951
13.595860028340867 201.423
13.618317081455832 239.399
13.64079217790333 283.89599999999996
13.663250283359057 328.349
13.685726434770173 356.63199999999995
13.708203115221277 343.01599999999996
13.730662806148091 281.253
13.75314054697177 205.43400000000003
13.775601299246777 139.556
13.798080104050406 103.10600000000001
13.820559442405358 88.8293
13.843021793671388 84.6632
13.865502201420897 82.9161
13.887965623051947 82.2166
13.910447103807167 81.0411
13.932929122629764 79.3256
13.955394156785959 79.0687
13.977877254034569 78.1443
14.000343367582113 77.3903
14.022827546871707 76.6688
14.045294743423524 75.9376
14.06778000837062 75.2766
14.090265817715476 75.1689
14.112734645763819 74.8591
14.13522154619454 74.4107
14.157691466286913 74.5041
14.180179461423874 74.2356
14.202668005486178 73.7109
14.22513957064374 72.7139
14.247629214846473 72.2913
14.270101881097517 72.1508
14.29259262906496 72.4915
14.315083930490205 73.2162
14.337558255389705 73.2792
14.360050666019726 73.1137
14.382526101071944 72.0998
14.405019624534942 71.3464
14.427513705993134 71.039
14.449990813291825 70.9371
14.47248601302899 70.6742
14.49496423954951 70.8946
14.517460561197822 71.1418
14.539939910570322 70.7482
14.562437357763558 71.0924
14.58493536931253 71.9847
14.607416409993311 72.9201
14.62991555254159 73.6149
14.652397725157423 73.5594
14.674898002342799 73.2662
14.697398848433282 72.7206
14.719882725991326 73.6736
14.74238471217934 75.7694
14.764869730765593 80.3309
14.787372860692983 84.7789
14.809876564079925 90.48
14.83236330125751 96.9876
14.854868153850365 105.34299999999999
14.877356041159485 117.81200000000001
14.899862046604186 132.97799999999998
14.922351087688757 152.339
14.944858249632887 174.03400000000002
14.967365991421232 198.92700000000002
14.989856770231246 216.63299999999998
15.012365673994204 219.24400000000003
15.03485761569738 195.34599999999998
15.05736768508665 157.85399999999998
15.07987833888692 121.661
15.102372032001655 94.9635
15.124883856909658 79.9076
15.14737872204565 74.75399999999999
15.169891721717274 73.0127
15.192405310371893 72.4987
15.214901940621196 72.6184
15.237416709527137 72.5561
15.259914520936249 72.8474
15.282430473753607 71.9454
15.304947020131227 70.9114
15.327446610371178 70.1084
15.349964346154254 69.2082
15.372465126703139 68.6566
15.394984055556009 68.4784
15.417486030076159 68.4552
15.44000615566487 68.2553
15.462526881230803 68.2658
15.485030653812652 68.1164
15.507552581617434 68.1247
15.530057557334603 68.4109
15.55258069104857 68.2444
15.575104429329837 68.4166
15.597611216864632 67.9779
15.620136166564563 68.3048
15.6426441664095 70.1934
15.665170331202765 73.8824
15.687697105158826 77.8384
15.710206930593545 81.7234
15.732734925158933 86.46700000000001
15.755245972089478 92.8329
15.77777519094324 101.397
15.800287463046663 112.171
15.822817909869592 126.94
15.84534897229804 142.96
15.867863089299354 162.435
15.890395385222186 180.375
15.912910736597423 192.733
15.935444269699861 190.50900000000001
15.957978423016485 166.308
15.980495633101265 134.344
16.003031029129367 103.736
16.02554948280019 81.0118
16.048086125229432 70.5137
16.070623392487107 67.3924
16.09314371869582 66.2001
16.11568223789321 65.3194
16.13820381691126 64.0801
16.160743591742527 63.2114
16.183283996022084 62.3834
16.205807461423195 61.2957
16.228349126881973 60.7909
16.25087385432698 60.7229
16.27341678466365 59.9875
16.29594277784926 60.0363
16.31848697676433 60.2332
16.341031811604868 60.3527
16.36355971058487 60.5533
16.3861058195587 60.3873
16.40863499352978 59.1387
16.431182380342005 58.4397
16.453730407713202 57.8197
16.476261501364792 57.3877
16.498810812136167 57.1137
16.52134319004079 57.3305
16.54389378792203 57.0931
16.566445031001553 56.9845
16.588979342490088 56.8293
16.61153187824822 56.6851
16.634067483263312 56.5226
16.656621315414416 56.5144
16.679175797408888 56.1065
16.701713349928728 56.2318
16.72426913389191 56.5036
16.74680798922351 56.4776
16.76936507887444 56.4192
16.791905240734874 56.5561
16.814463639794468 56.3591
16.837022695210294 56.3262
16.859564824093756 56.8345
16.882125194503903 57.6436
16.904668639217885 58.1151
16.927230328348003 58.2036
16.949792678493612 58.2822
16.972338104193863 57.8742
16.994901778652235 57.4565
17.017448529496576 57.3544
17.040013531998152 57.716
17.06257920018044 58.3033
17.0851279459922 59.4592
17.107694947817667 60.3532
17.130245028099072 61.3195
17.15281336730298 62.7036
17.17536478578733 64.278
17.19793446610687 66.3858
17.220504818648422 68.9121
17.243058251703697 71.3677
17.265629950971032 74.7198
17.288184731571736 78.4035
17.310757781306908 82.6901
17.33333150794385 85.133
17.355888317140174 84.1513
17.37846339986244 80.4534
17.401021565958885 74.4362
17.42359800851343 68.5542
17.44617513265564 64.5933
17.468735341390783 62.1647
17.491261035594565 61.0098
17.51396340099364 60.565
17.536490463869136 61.0783
17.559018209820174 60.8888
17.58154663977963 60.9572
17.604251766089718 61.0745
17.626781572227713 61.3139
17.64931206518155 61.5643
17.671843245885103 62.2056
17.69455114821572 62.4136
17.717083712612634 62.5909
17.739616967569667 62.9038
17.762150914021706 63.3949
17.78486160749854 63.3834
17.807396945166804 64.1772
17.829932977143503 65.4671
17.85246970436452 67.758
17.875183204129467 70.1689
17.897721330097664 72.5245
17.920260154126645 75.0849
17.942799677153296 78.4145
17.9655159983646 82.1497
17.988056927677544 87.0467
18.010598558807683 93.5817
18.033140892692916 101.079
18.05586005052525 109.336
18.07840379824407 118.947
18.10094825154059 129.562
18.12366954819864 139.69
18.146215420998306 144.281
18.16876200220057 138.118
18.191309292745153 125.846
18.214033452627167 111.93700000000001
18.236582170236648 98.454
18.259131600016456 91.0278
18.281681742907335 89.2112
18.304408781233683 91.5526
18.32696035875955 94.9239
18.349512652227624 98.8471
18.372065662579683 104.226
18.394795594587553 106.948
18.41735004715306 106.095
18.43990521943684 99.9063
18.46246111238171 91.5637
18.485193953325208 80.7225
18.507751296070428 72.8809
18.530309362314178 68.2267
18.552868153000343 65.6876
18.57560391815056 64.0868
18.59816416623245 63.5279
18.620725141597372 63.1792
18.643286845190268 62.6369
18.666025549835414 62.2916
18.688588718427933 61.6714
18.711152618092243 61.4397
18.73389353884365 61.2615
18.75645890921984 60.803999999999995
18.77902501351406 60.5017
18.801591852673102 60.2034
18.824335739722738 59.708
18.846904057212626 59.7183
18.8694731124168 59.4473
18.89204290628315 59.4131
18.914789774966803 59.295
18.937361054791623 59.071999999999996
18.959933076131318 58.6917
18.982505839934877 58.9464
19.00525570560582 58.8495
19.027829963004184 58.7644
19.05040496572238 58.8505
19.072980714710468 58.9261
19.095733592739563 59.2656
19.11831084296757 59.6376
19.140888842324735 60.0734
19.16346759176222 60.3843
19.18622349753803 61.0454
19.208803755869358 61.9768
19.231384767143577 63.0696
19.253966532312948 64.2395
19.276725481241822 65.7931
19.29930876296784 67.6028
19.3218928014549 69.9734
19.34465404436217 72.5935
19.36723960516257 75.3375
19.389825925592426 77.3617
19.412413006605938 77.5635
19.43517731967805 74.8399
19.457765930683355 70.8509
19.48035530514408 66.2596
19.50294544401556 61.9796
19.525712842708348 58.9325
19.54830451925909 57.1929
19.570896963095727 55.9234
19.593490175174704 55.6033
19.616260674962184 55.3936
19.638855432416964 55.5386
19.661450960992624 55.4826
19.68404726164677 55.1292
19.706820878021247 55.1323
19.729418731756834 55.2525
19.752017360452857 55.1654
19.77461676506804 55.2703
19.797393513540218 55.5121
19.819994478951667 55.8656
19.84259622316767 56.3694
19.8651987471481 56.7429
19.887978643247177 56.9326
19.91058273574792 57.6239
19.933187610901943 58.501000000000005
19.955969879466828 59.4714
19.97857632894404 60.6091
20.00118356396599 62.1347
20.023791585494575 63.7105
20.046577028914875 65.8092
20.069186632506966 68.1078
20.091797025500632 70.0058
20.114408208858933 71.3219
20.137196842715273 71.9691
20.159809615886765 71.2018
20.18242318232135 68.6756
20.20503754298326 66.2151
20.227829382875154 64.2274
20.250445341109344 63.7592
20.27306209647285 63.6289
20.29567964993108 64.365
20.31847471147704 65.3923
20.34109387027612 66.4982
20.363713830075454 66.9103
20.386334591841646 66.1455
20.409132890679302 63.8174
20.431755265564437 60.7719
20.454378445325528 57.5947
20.477002430930366 55.7201
20.499803982716553 53.9688
20.522429589228004 53.1413
20.54505600449589 52.6186
20.567683229489194 52.4511
20.590488049900088 52.3449
20.61311690359731 51.8699
20.63574656993626 51.6145
20.658553853717297 51.221000000000004
20.681185154618298 51.18899999999999
20.703817271080066 51.3224
20.72645020407368 50.8268
20.749260783967177 50.5381
20.771895359337133 50.4926
20.794530754161617 50.403
20.817166969412938 50.4656
20.83998086114876 50.2827
20.86261872660049 50.0482
20.885257415405402 50.2197
20.90789692853701 50.1651
20.930714147864748 50.1702
20.953355319030678 50.2047
20.97599731745334 50.2799
20.99864014410749 49.9476
21.021460706796564 50.0638
21.044105199328826 50.6108
21.06675052302631 50.7207
21.089396678865015 50.7182
21.112220600704806 51.1469
21.134868430275347 51.4218
21.15751709492456 51.4365
21.180166595629693 51.6535
21.202993892429635 52.148
21.22564507473034 52.3557
21.24829709602816 52.7636
21.27112693608965 52.9621
21.293780644891275 53.2108
21.316435195634053 52.534
21.339090589297417 51.9188
21.361923832041875 51.4708
21.384580921090404 50.6008
21.407238856007325 50.0328
21.429897637773326 50.0726
21.45273429906592 50.0254
21.475394784108598 49.8344
21.498056118951983 49.856
21.520718304578022 50.3256
21.543558400304388 50.3288
21.566222297108816 50.678999999999995
21.58888704765135 50.6362
21.61155265291521 50.9841
21.63439619898156 51.5393
21.657063523335786 51.9016
21.67973170537063 52.3813
21.7024007460706 52.7993
21.72524775840385 53.5302
21.747918526116475 54.5054
21.770590155457388 55.8422
21.79326264741238 56.9862
21.816113141960237 58.5674
21.838787368860547 60.1112
21.861462461341976 61.6714
21.884315579735777 63.5641
21.90699241312273 65.1314
21.92967011506078 66.4266
21.95234868653799 66.9344
21.9752053151131 65.8296
21.997885635446785 64.1202
22.020566828293532 62.0756
22.04324889464272 59.7972
22.066109049404666 58.165
22.088792872571794 57.3075
22.111477572219204 57.2361
22.1341631493376 57.4102
22.157026846313123 57.5403
22.179714188221507 57.0939
22.202402410582668 56.1299
22.22509151438863 54.7259
22.24795876962584 53.3253
22.270649646204486 52.302
22.293341407213727 51.6006
22.316034053646906 50.8465
22.338904883215342 50.4878
22.36159931041458 50.5622
22.38429462602756 50.5162
22.40699083104897 50.3436
22.429865251039757 50.3516
22.452563244831367 50.4138
22.47526213102522 50.32
22.49813925616515 50.18
22.520839937143307 50.1385
22.543541513520587 50.3205
22.56624398629403 50.1217
22.589124730075895 49.961000000000006
22.611829005656723 50.3958
22.63453418063466 50.3254
22.657240256008077 50.5948
22.680124634582935 50.7952
22.70283252079775 51.0255
22.725541310413075 51.3226
22.74825100442868 51.4577
22.771139033969575 52.0892
22.79385054687155 52.2383
22.81656296718292 53.0204
22.83927629590484 53.6429
22.862167992606945 54.4653
22.88488314827121 55.3821
22.907599215359284 55.995
22.93031619487366 57.0334
22.953211574954405 58.0196
22.975930389478226 58.9076
22.998650119445763 59.4876
23.02137076586092 59.221000000000004
23.044269845560063 58.383
23.06699233506288 56.6644
23.089715744034912 54.8347
23.112617610931565 52.9858
23.135342869061212 51.6772
23.158069049684816 50.902
23.1807961538087 50.3998
23.20370174880544 50.3709
23.226430710184808 50.3906
23.249160598093425 50.5209
23.271891413539002 50.6083
23.294800752937697 50.6755
23.31753343374794 50.9026
23.340267045128353 50.9619
23.36300158808808 51.2911
23.38591468821339 51.6347
23.408651104658304 51.9518
23.431388455719986 52.3276
23.454126742409 53.1793
23.4770436196085 53.913000000000004
23.499783787914662 54.7941
23.522524894889884 55.6294
23.54526694154616 56.5037
23.56818761219047 57.5312
23.59093154860734 58.6899
23.613676427751283 59.3569
23.636422250635754 58.8208
23.659346731118656 57.751000000000005
23.68209445191868 56.0645
23.704843119509587 53.7369
23.72759273490623 51.5679
23.750521041644767 50.0241
23.77327256312355 48.8822
23.796025035462787 48.2413
23.818956224555475 47.7065
23.841710609113413 47.4408
23.86446594758979 47.1021
23.887222241002014 46.8926
23.910157285144578 46.7611
23.932915498962537 46.7005
23.955674670778713 46.4753
23.978434801611975 46.3873
24.001373717286125 46.1233
24.024135776723917 46.1359
24.046898798245582 46.0507
24.06966278287146 45.8575
24.092605586582614 45.7635
24.115371508023642 45.5774
24.1381383956401 45.3024
24.16090625045381 45.2244
24.183852958731244 45.2019
24.206622758582608 45.0548
24.229393528706886 44.945
24.252165270127392 45.133
24.27511589952438 44.9894
24.297889594216997 44.744
24.32066426328598 44.5554
24.34343990775613 44.7349
24.36639447485003 44.5069
24.38917208083877 44.4844
24.41195066531332 44.4493
24.43490819850244 44.5039
24.457688750692377 44.2381
24.48047028445616 44.1725
24.503252800821233 44.2726
24.526214300784112 44.3517
24.548998793132213 44.4197
24.57178427117417 44.3101
24.59457073593893 44.4164
24.617536219319863 44.364
24.64032466834748 44.32
24.663114107195035 44.0822
24.685904536893013 44.0958
24.708874020360852 43.8991
24.731666442613744 43.8004
24.754459858818787 43.6714
24.777254270007962 43.6856
24.80022777025625 43.6294
24.82302418230472 43.5912
24.845821592443674 43.5309
24.86862000170663 43.5234
24.891597535453727 43.492
24.914397953892728 43.7211
24.93719937456671 43.3668
24.96000179851076 43.6659
24.98298338249997 43.7588
25.00578782394922 44.1875
25.028593271784167 44.2328
25.05157790644186 44.5023
25.07438537804115 44.4646
25.097193859145293 44.7729
25.120003350792075 44.93
25.142992065061257 45.4545
25.165803588823465 45.7365
25.18861612625217 45.9544
25.211429678386736 46.1162
25.234422489079968 46.0869
25.257238081693636 45.8827
25.280054692141732 45.9666
25.3028723214652 45.9043
25.325869245420463 45.8903
25.348688923599397 46.0514
25.371509623787006 46.1878
25.394331347025812 46.0971
25.41733240110666 45.7315
25.440156181590016 45.1832
25.46298098826268 44.6646
25.48580682216873 43.926
25.50881202326435 43.2742
25.53163992281684 42.8116
25.55446885274561 42.4516
25.577298814096377 42.217
25.600308179121807 42.1074
25.623140214533745 42.1785
25.64597328451537 41.9609
25.66898578564376 41.6426
25.691820936010206 41.8756
25.714657124097695 41.8571
25.737494350954734 41.9695
25.760511045684957 41.723
25.783350361364224 41.7851
25.806190718969255 41.7317
25.82903211955018 41.9221
25.852053024868923 41.9481
25.874896522722523 42.0674
25.897741066713106 41.8925
25.920586657892454 41.9737
25.943611790812668 42.1383
25.966459487728237 42.2052
25.989308234998564 42.214
26.01215803367705 42.4713
26.03518741123814 42.5583
26.05803932412957 42.7127
26.080892291600094 42.7066
26.10374631470478 42.8731
26.12677995397268 42.9604
26.14963609978026 43.0386
26.172493304397875 42.9176
26.19535156888223 42.5709
26.218389486949604 42.2164
26.241249882640123 41.9131
26.26411134137826 41.6149
26.28715248187403 41.6658
26.31001607820869 41.4061
26.3328807407756 41.2687
26.35574647063438 41.4329
26.37879191991473 41.3993
26.401659795896734 41.4321
26.424528742360263 41.4542
26.447398760366614 41.651
26.470448535598294 41.9318
26.49332070826805 41.976000000000006
26.516193955675355 42.2033
26.53906827888316 42.4225
26.562122397260108 42.5105
26.584998883685063 42.8962
26.607876449110325 43.071999999999996
26.63075509460056 43.2165
26.65381357334404 43.4896
26.67669439061878 43.4457
26.699576291163382 43.361999999999995
26.722459276044212 43.1515
26.745522132402975 43.0736
26.768407297649354 42.8129
26.791293550442003 42.3347
26.814180891848974 42.1105
26.837248143099337 41.8388
26.860137673466657 41.6027
26.88302829566349 41.3468
26.90592001075963 41.257
26.92899167420566 41.1827
26.951885586870763 40.6653
26.974780595655517 40.4917
26.99785558178161 40.4324
27.020752794605112 40.2325
27.043651106772522 40.1703
27.06655051935668 39.9842
27.089629948036183 39.8452
27.112531573292053 39.8936
27.135434302194138 39.9156
27.158338135817015 39.8953
27.181422024430987 39.8336
27.204328079372566 39.7539
27.22723524226965 39.8668
27.250143514198573 39.8009
27.273231880156334 39.5544
27.296142382065014 39.544000000000004
27.319053996245536 39.4573
27.341966723775965 39.6286
27.365059584515222 39.7477
27.38797455070062 39.6885
27.410890633481237 39.5694
27.433807833936918 39.5882
27.456905206923906 39.6277
27.47982465472398 39.6361
27.502745223449743 39.6308
27.525666914182825 39.8598
27.548768816912457 39.8238
27.571692763693633 39.7533
27.59461783573812 39.5631
27.617723149491244 39.4118
27.640650484125285 39.3307
27.66357894728264 39.2794
27.686508540048052 39.3512
27.709618414237887 39.1909
27.732550278321757 39.0083
27.755483275279115 38.9523
27.778417406196485 39.0609
27.801531858397514 39.0236
27.824468269376716 39.1008
27.847405817586786 38.9317
27.870344504116094 39.0858
27.893463551932008 39.3517
27.916404527281053 39.4215
27.93934664422563 39.5398
27.962289903855886 39.4956
27.98541356491974 39.7898
28.00835912214229 39.8687
28.03130582533231 40.0023
28.054253675581805 40.1749
28.077381967556104 40.1206
28.100332124185126 40.2797
28.123283431160893 40.1744
28.146235889577238 40.0711
28.169368830154156 39.7274
28.192323603752033 39.6148
28.215279532083304 39.2996
28.238415973016764 39.0631
28.261374223145094 38.9434
28.284333631303806 38.7973
28.307294198589954 38.6903
28.330435319167677 38.3999
28.353398217078915 38.1855
28.376362277420153 37.8531
28.39932750129032 37.8027
28.422473319286713 37.5359
28.44544088262495 37.5543
28.468409612800283 37.3613
28.491379510913497 37.1717
28.51453004413313 37.1085
28.53750229057244 36.9935
28.56047570826344 37.0181
28.583450298308804 36.9395
28.606605564586562 36.7831
28.629582511831156 36.9096
28.65256063474956 36.7002
28.675539934446338 36.7103
28.698699951647605 36.7251
28.72168161743193 36.5919
28.74466446331978 36.6856
28.767648490417624 36.4305
28.790813276438353 36.3699
28.813799678527303 36.5656
28.836787265157085 36.5008
28.859955641890075 36.5137
28.882945610203045 36.4786
28.905936766392035 36.4136
28.928929111566863 36.3771
28.952102288520145 36.2545
28.975097024308607 36.3397
28.998092952423807 36.18
29.021090073977508 36.1702
29.04426806913204 35.9193
29.067267590245258 35.7233
29.090268308143695 35.7038
29.11327022394099 35.6527
29.13645305530891 35.548
29.159457379627167 35.5277
29.18246290519685 35.4137
29.20546963313352 35.3303
29.22865731875826 35.4205
29.25166646419296 35.3478
29.27467681535305 35.2422
29.29768837335608 35.2658
29.320880931312562 35.2483
29.34389491580634 35.3072
29.366910110507334 35.2256
29.38992651653503 35.29
29.41312396492981 35.1544
29.436142806456754 35.1318
29.45916286268059 35.1423
29.48236399319994 34.9557
29.50538649169417 34.8375
29.528410208259935 34.8047
29.55143514402014 34.5441
29.574641196749695 34.508
29.597668583816574 34.3632
29.6206971934585 34.1381
29.64372702680042 34.2759
29.666938019934474 34.0359
29.689970313635285 33.9475
29.713003834422636 33.8936
29.73603858342347 33.9197
29.759254535188578 33.8778
29.78229175361658 33.8684
29.80533020365064 33.8824
29.82836988641968 33.8568
29.85159081507472 33.816
29.874632976355343 33.6491
29.89767637376955 33.7489
29.920721008448314 33.6446
29.9439469322847 33.6824
29.96699405457564 33.527
29.9900424175358 33.6294
30.013092022298157 33.5979
30.03632295963995 33.4761
30.059375061131373 33.4879
30.08242840783577 33.617
30.105483000888153 33.4186
30.128718970092244 33.3879
30.151776069006917 33.4388
30.17483441768648 33.4694
30.198074175317235 33.3915
30.221135036724256 33.3587
30.24419715131772 33.3476
30.267260520236203 33.2778
30.290505341942243 33.3565
30.313571232750228 33.3839
30.336638381310948 33.2721
30.35970678876503 33.3574
30.38295669299435 33.1834
30.40602763151657 33.1474
30.429099832366074 33.0744
30.452173296685572 33.0995
30.47542830191959 32.9943
30.498504306502497 33.0456
30.521581577995562 33.1314
30.544660117543582 33.2397
30.56792024229725 33.1411
30.59100133132069 33.0271
30.614083691845494 33.095
30.637167325018545 33.2118
30.660432587840603 33.1656
30.683518779717886 33.1161
30.70660624769615 33.2095
30.729694992924372 33.2228
30.75296541239743 33.1796
30.77605672557558 33.2488
30.799149319462742 33.0887
30.8224236211637 33.0008
30.845518789950724 32.9126
30.868615242910597 32.8894
30.891712981195973 32.6656
30.91499247215866 32.6159
30.938092794619365 32.6287
30.96119440587579 32.4957
30.984297307082752 32.3591
31.00758200598383 32.3185
31.030687500658694 32.1632
31.053794288760695 32.1431
31.076902371446767 32.0283
31.100192296997445 32.1265
31.12330298246119 32.0249
31.14641496599209 31.958000000000002
31.169528248749216 32.0137
31.19282341969534 31.8781
31.215939314557186 31.8942
31.239056512134788 31.8867
31.262175013589378 31.8378
31.28547544871168 31.7811
31.30859657161541 31.8139
31.331719001892175 31.8799
31.35484274070538 31.8134
31.378148458819545 31.824
31.401274828443725 31.7768
31.424402510106933 31.8507
31.447712205419993 31.8768
31.470842524931633 31.7736
31.493974159989783 31.747
31.51710711176168 31.7652
31.54042212308802 31.7785
31.563557722100917 31.712
31.586694641341655 31.5553
31.609832881979628 31.5492
31.63315322823208 31.4772
31.656294125521327 31.2288
31.679436347728515 31.2552
31.70257989602529 31.2822
31.725905596152327 31.1561
31.74905181052835 31.0081
31.772199354521323 31.0359
31.79534822930507 31.1702
31.818679302290967 31.0656
31.84183085259981 31.0684
31.864983737233473 31.0504
31.88813795736804 31.0684
31.911474422233013 30.9662
31.934631327356435 30.9467
31.9577895715215 30.9465
31.980949155906522 30.9237
32.004291031706956 30.9318
32.027453310562606 30.8195
32.05061693318573 30.6706
32.07396288236386 30.809
32.09712920658542 30.646
32.12029687812702 30.5836
32.14346589817093 30.4238
32.166817291729984 30.5225
32.18998902288583 30.3866
32.21316210610336 30.2946
32.23633654256711 30.1421
32.259693399663725 30.1873
32.282870556771144 30.1031
32.30604907069099 30.1417
32.329228942610065 30.033
32.35259128243769 29.8078
32.375773884550505 29.8271
32.398957848235646 29.8054
32.422143174682176 29.7118
32.445511016471215 29.7263
32.468699082679954 29.6668
32.49188851523011 29.5567
32.51507931531304 29.5237
32.538452678331 29.5898
32.56164622776311 29.4824
32.58484114831493 29.4034
32.60803744118015 29.4172
32.631416344731896 29.3164
32.654615396551876 29.3512
32.67781582427913 29.4033
32.701198898634416 29.1054
32.72440209253756 29.0527
32.747606665947124 29.182
32.77081262006088 29.0576
32.79420126883317 29.0643
32.81740999876112 28.9512
32.840620112999424 28.846999999999998
32.86383161274818 28.8284
32.88722585534586 28.8797
32.91044014056596 28.9533
32.933655814909734 28.7826
32.95687287957963 28.8725
32.98027273544904 28.77
33.00349259526636 28.730999999999998
33.026713849030116 28.7467
33.04993649794511 28.7099
33.073341986570746 28.6441
33.09656744032826 28.693
33.11979429286444 28.6522
33.14302254538647 28.6413
33.166433686291185 28.4825
33.18966475336992 28.471999999999998
33.212897224069096 28.4355
33.23613109959831 28.4293
33.259547912343415 28.3833
33.2827846121627 28.3931
33.306022720453775 28.3072
33.32926223842861 28.3106
33.352684742614166 28.3257
33.37592709463173 28.1855
33.399170859982064 28.2358
33.422597648419426 28.0458
33.44584425514446 27.9799
33.46909227885668 27.9352
33.4923417207723 27.8242
33.51577423505344 27.9145
33.539026528130385 27.7582
33.56228024307245 27.7395
33.585535381098246 27.54
33.60897364093058 27.5673
33.63223163992385 27.6536
33.6554910656699 27.5673
33.678751919389796 27.5526
33.702195944520106 27.4058
33.72545966903325 27.456
33.74872482519663 27.3314
33.771991414233746 27.3065
33.79544122444841 27.2434
33.81871069412428 27.2164
33.84198160035767 27.211
33.86525394437455 27.2287
33.88870955949969 27.1581
33.911984794020626 27.069000000000003
33.93526147001624 27.0304
33.958539588715006 27.017
33.98200102861669 26.9741
34.0052820477047 26.878
34.02856451319451 26.935
34.05203033759056 26.8118
34.07531571090147 26.846999999999998
34.09860253431845 26.7792
34.121890809074316 26.7194
34.145362493118924 26.7063
34.16865368561615 26.6183
34.191946333164054 26.5746
34.21524043699793 26.6014
34.23871800066799 26.4393
34.26201503218366 26.4413
34.28531352370466 26.4423
34.30861347646881 26.3771
34.33209693978188 26.3345
34.3553998301885 26.2976
34.378704185565205 26.1389
34.402010007152356 26.1096
34.42549939016683 26.1104
34.44880815937748 26.0415
34.472118398533134 26.0502
34.49543010887669 26.038
34.51892543169198 25.9069
34.54224009966052 25.9702
34.56555624255917 25.982
34.58887386163339 25.7763
34.61237514439016 25.7952
34.6356957311114 25.7664
34.65901779775809 25.6787
34.68252356662995 25.7016
34.705848608458616 25.7085
34.72917513396849 25.5639
34.75250314440949 25.4976
34.77601490857862 25.4955
34.799345904259795 25.4473
34.82267838863559 25.4446
34.846012362958525 25.4645
34.869530142679984 25.4603
34.89286711232212 25.295
34.91620557568269 25.3727
34.93954553401677 25.3434
34.9630693495876 25.203000000000003
34.986412313340814 25.259
35.00975677584668 25.273000000000003
35.033102738362956 25.0932
35.05663261012228 25.1432
35.0799815881786 25.2146
35.10333207003229 25.0005
35.12668405694369 25.0056
35.150220005273056 24.9883
35.17357501786656 25.0078
35.19693153931268 24.9754
35.220289570874385 24.9006
35.24383161619786 24.8666
35.267192683604904 24.9137
35.290555264930376 24.8239
35.314101899412165 24.7951
35.33746752422433 24.7747
35.36083466676374 24.7702
35.38420332829803 24.7057
35.407756095629054 24.7389
35.43112781085063 24.669
35.45450104888391 24.6633
35.477875810999194 24.6752
35.50143473172161 24.701999999999998
35.52481255774625 24.6355
35.54819191167777 24.5171
35.57157279478914 24.4514
35.595137889488406 24.4443
35.61852184675279 24.4169
35.641907337029984 24.3297
35.665294361595684 24.3404
35.68886565090076 24.2991
35.7122557598848 24.2785
35.73564740699838 24.2976
35.759040593519934 24.1833
35.78261809810353 24.2471
35.80601437933051 24.0393
35.829412203814705 23.9919
35.85281157283719 23.8737
35.876395313415884 23.939
35.8997977874528 23.8972
35.92320180988546 23.9458
35.946790244133936 23.7936
35.97019737933222 23.8669
35.993606066789866 23.804000000000002
36.01701630779276 23.7188
36.04061101440684 23.7143
36.06402437852291 23.7299
36.08743930005611 23.6858
36.1108557802951 23.6062
36.13445678011326 23.6295
36.15787639383515 23.5364
36.18129757014299 23.4601
36.20472031032821 23.4471
36.22832762423364 23.3873
36.25175350829375 23.3562
36.275180960119776 23.3285
36.298609981005924 23.3483
36.32222362992669 23.3125
36.34565580510207 23.2771
36.36908955323448 23.2081
36.39252487562093 23.0972
36.416144880530226 23.1332
36.43958336764275 23.1229
36.463023432914625 23.0958
36.486465077645676 23.0534
36.51009145956204 23.048000000000002
36.53353627947859 23.0735
36.55698268276811 23.0749
36.58043067073321 22.9637
36.60406345072071 22.8579
36.62751462435344 22.8664
36.65096738658405 22.8458
36.67460498210655 22.8362
36.69806093788647 22.826999999999998
36.72151848619297 22.6505
36.744977628333636 22.6748
36.76862165890998 22.6087
36.79208400512205 22.6351
36.81554794910557 22.6154
36.83901349217101 22.4919
36.862663978991606 22.497
36.88613273667352 22.4251
36.90960309738324 22.4768
36.933075062434064 22.4411
36.95673202673572 22.3897
36.98020721697122 22.3624
37.003684015502365 22.2328
37.027162423645365 22.1705
37.050825886711465 22.2557
37.07430753063053 22.1414
37.09779078812467 22.1402
37.121275660513014 22.1355
37.144945643673694 22.1057
37.16843376245278 22.0368
37.19192350009803 22.0432
37.215414857931435 22.021
37.239091382563885 21.933000000000003
37.262585997426164 21.9418
37.28608223645736 21.8484
37.309763684451696 21.836
37.33326318851098 21.765
37.356764320726555 21.8024
37.380267082425526 21.807
37.40395510942588 21.719
37.42746114683234 21.6505
37.45096881771841 21.5755
37.474478123414166 21.5695
37.49817275092816 21.578000000000003
37.52168534303452 21.5451
37.54519957395567 21.5031
37.568715445024665 21.5174
37.592416694607714 21.4385
37.61593586281424 21.410999999999998
37.63945667518264 21.4744
37.66297913304891 21.3908
37.68668702630454 21.3117
37.710212792059274 21.2634
37.733740207334854 21.2258
37.757269273470364 21.195
37.780983832050374 21.1271
37.80451621684926 21.1564
37.82805025654007 21.092
37.851585952464795 21.0341
37.8753071980695 21.0057
37.89884622345676 20.9767
37.92238690911902 20.9444
37.94611318753442 20.9197
37.969657210779765 20.9409
37.99320289834801 20.8559
38.016750251586465 20.8608
38.04048325513017 20.7733
38.06403395679343 20.7406
38.087586328183946 20.7231
38.11114037065203 20.6842
38.13488012115898 20.7234
38.1584375229181 20.6498
38.181996599821 20.5505
38.205557353221124 20.4754
38.229303872575656 20.5214
38.2528679961576 20.5298
38.27643380031219 20.5045
38.30000128639589 20.4779
38.32375459653193 20.4256
38.34732546371299 20.3898
38.37089801690786 20.3348
38.39447225747609 20.2844
38.418232380377425 20.2921
38.441810012983396 20.2693
38.46538933705673 20.2182
38.488970353960084 20.2058
38.51273731166058 20.1959
38.536321731567014 20.0973
38.55990784840681 20.1028
38.58367995004091 20.0303
38.60726947812959 19.9407
38.63086070726198 19.9524
38.654453638806274 19.9238
38.678232613930824 19.9387
38.70182896773327 19.8562
38.72542702806741 19.7738
38.7490267963045 19.8245
38.77281266709232 19.7678
38.79641586862214 19.6944
38.8200207821842 19.6928
38.843627409152944 19.7029
38.86742019782782 19.6441
38.891030269149255 19.5419
38.914642058016156 19.6024
38.938255565806124 19.597
38.96205529464307 19.5655
38.98567225787121 19.5251
39.00929094417078 19.4613
39.03291135492255 19.4532
39.05671804624804 19.4531
39.080341923549106 19.427
39.103967529460334 19.3773
39.127594865365744 19.2671
39.15140854155791 19.2874
39.17503935514948 19.2972
39.19867190290282 19.2309
39.22249083587951 19.2488
39.24612686969409 19.1057
39.269764641845306 19.1447
39.293404153722804 19.1324
39.317230110864074 19.0315
39.34087311998506 19.0518
39.36451787301696 18.9625
39.388164371352595 18.9179
39.41199737518003 18.861
39.43564738196752 18.8557
39.45929913825317 18.9143
39.48295264543308 18.8598
39.506792718520884 18.8316
39.530449745387216 18.7903
39.55410852735203 18.759
39.57776906581474 18.7327
39.60161623079 18.7462
39.625280300200025 18.6706
39.64894613032202 18.5797
39.67261372255866 18.6104
39.6964680021016 18.5826
39.72013913657293 18.5929
39.74381203738292 18.6007
39.76748670593756 18.5841
39.79134812278169 18.4999
39.81502634488497 18.4453
39.83870633896685 18.4621
39.862388106436654 18.3544
39.88625668336918 18.3289
39.90994201572829 18.3772
39.933629125719285 18.2959
39.957503091207826 18.2242
39.9811937746168 18.2726
40.00488623990914 18.2222
40.02858048850006 18.1208
40.05246165409549 18.1224
40.076159487492085 18.0877
40.099859108448875 18.090999999999998
40.123560518384345 18.0511
40.1474489070226 18.0975
40.171153913178564 17.969
40.194860712584955 17.945
40.2185693066637 17.9731
40.242464941335314 17.9567
40.26617714307655 17.9008
40.289891143772046 17.9093
40.3136069448471 17.8439
40.33750984859743 17.8303
40.3612292688043 17.7816
40.3849504936829 17.7095
40.40867352466194 17.7447
40.43258372059144 17.7267
40.45631038219906 17.6975
40.48003885420956 17.5893
40.503769138055105 17.5989
40.52768664931955 17.5641
40.55142057531802 17.5369
40.57515631746428 17.5395
40.599079334038514 17.4692
40.62281872700477 17.4432
40.64655994043941 17.4293
40.67030297578061 17.3635
40.69423334835778 17.3566
40.71798004609188 17.3255
40.74172857006355 17.3129
40.76547892171441 17.3539
40.7894166736039 17.2391
40.813170699248566 17.2338
40.83692655691388 17.2276
40.86068424804498 17.2839
40.884629402612525 17.2069
40.908390779366385 17.1423
40.932153993938 17.1125
40.95591904777605 17.131
40.979871628443995 17.1012
41.003640379561936 17.0599
41.02741097430883 17.0372
41.05118341413683 16.9809
41.075143444384416 16.9492
41.098919593177826 16.9744
41.1226975914255 16.9271
41.14647744058318 16.8805
41.170444943946755 16.8293
41.19422851378379 16.8573
41.218013938914645 16.7674
41.24198706625173 16.7012
41.26577622087193 16.7247
41.289567235177785 16.6611
41.31336011063129 16.6738
41.337340752422875 16.6175
41.361137369129835 16.6938
41.38493585138705 16.5712
41.40873620066004 16.561
41.43272438060107 16.569000000000003
41.45652848292052 16.4761
41.48033445666918 16.4264
41.50414230331616 16.4325
41.528138045159764 16.4436
41.551949656675205 16.3385
41.575763145513235 16.3599
41.59957851314666 16.3466
41.62358184070442 16.262
41.64740098505737 16.2905
41.6712220126409 16.2421
41.69504492493139 16.1626
41.71905586207357 16.2511
41.74288256296395 16.1636
41.766711153007456 16.1831
41.79054163368412 16.1297
41.814560204340054 16.1023
41.838394485526365 16.1029
41.86223066180303 16.0682
41.88625497706819 15.9982
41.910094962812 16.0074
41.93393684811168 15.9801
41.95778063445365 15.9328
41.981812625263366 15.9042
42.00566023303407 15.8818
42.029509746323676 15.8701
42.05336116662236 15.8436
42.077400857069705 15.7938
42.10125611078846 15.7905
42.12511327600405 15.8301
42.14897235421036 15.7306
42.173019768448455 15.6685
42.19688269209613 15.6566
42.22074753323349 15.6635
42.24461429335818 15.6222
42.268669455600495 15.6333
42.292540073217886 15.5642
42.31641261433284 15.5485
42.34028708044675 15.5248
42.36435001496739 15.5047
42.38822835065557 15.4844
42.41210861586426 15.4443
42.4359908120986 15.4017
42.46006154323262 15.3416
42.48394762115317 15.3201
42.507835634632315 15.3639
42.531912233047436 15.357000000000001
42.55580413732265 15.2866
42.579697981698 15.2835
42.60359376768525 15.1674
42.62767820545945 15.2358
42.65157789440821 15.1919
42.67547952952185 15.1895
42.699383112316 15.144
42.72347541395347 15.1016
42.74738291190531 15.0646
42.771292362102166 15.0527
42.795203766063516 14.982999999999999
42.819303956130405 14.974
42.843219287476536 14.9524
42.86713657716324 14.9252
42.89105582671383 14.9205
42.91516392983864 14.8919
42.939087119032166 14.8876
42.963012272677304 14.8625
42.98693939230129 14.7867
43.01105543317513 14.7782
43.034986504731386 14.7727
43.05891954686589 14.75
43.08285456110972 14.7508
43.10697856448665 14.724
43.130917542983475 14.7086
43.15485849820081 14.6686
43.17880143167367 14.633
43.20293342237094 14.6012
43.226880332449 14.5869
43.25082922540554 14.5278
43.27496722682525 14.5707
43.29892010567796 14.5073
43.32287497204102 14.4952
43.34683182745632 14.4017
43.370977859791836 14.3415
43.39493871351105 14.3832
43.41890156092628 14.3554
43.44286640358341 14.3418
43.46702049182749 14.373
43.49098934522816 14.3105
43.51496019852649 14.280999999999999
43.5389330532723 14.2139
43.56309522248204 14.2318
43.58707210044314 14.2271
43.61105098451946 14.163
43.63503187626491 14.1297
43.659202151562134 14.0811
43.68318707902681 14.0351
43.70717401884041 14.0375
43.731162972560874 14.0494
43.75534137913236 14.0485
43.779334381108384 13.9579
43.803329401683186 13.9318
43.82732644241872 13.9734
43.8515130055166 13.9428
43.87551410707659 13.868
43.89951723350145 13.9127
43.923709934595614 13.8422
43.94771713129917 13.8011
43.97172635758096 13.8322
43.99573761501002 13.822000000000001
44.0199385169922 13.7757
44.04395385732619 13.7217
44.067971233533086 13.7636
44.09199064718605 13.6897
44.11619977548961 13.6754
44.14022328470671 13.6497
44.16424883610785 13.6636
44.18827643127035 13.6684
44.21249381139513 13.567
44.236525514814076 13.5223
44.26055926674478 13.5515
44.28459506876863 13.4754
44.3088207262813 13.4532
44.33286064928722 13.4043
44.35690262714919 13.4024
44.38094666145278 13.3635
44.4051806219871 13.3965
44.42922879003185 13.3244
44.45327901929361 13.3072
44.477331311362136 13.3539
44.501573600619416 13.3101
44.525630039221795 13.2229
44.54968854541895 13.2155
44.573937102200176 13.2061
44.5979997645541 13.2149
44.622064499300315 13.2082
44.64613130803592 13.1508
44.67038823869318 13.1552
44.69445921643748 13.1098
44.718532272981385 13.0674
44.742607409926194 13.0365
44.76687274034801 13.0841
44.79095205918753 13.0487
44.81503346325094 12.9785
44.839116954143876 13.0115
44.86339071028742 12.9399
44.88747839599524 12.9225
44.91156817336837 12.9202
44.93566004401666 12.9193
44.959942251908146 12.8533
44.984038330325966 12.8284
45.00813650686762 12.8244
45.03223678314731 12.802
45.05652746888232 12.7378
45.08063196592069 12.7105
45.104738567558705 12.6876
45.128847275414856 12.7177
45.15314646515866 12.6909
45.17725940679741 12.6547
45.20137445952892 12.6393
45.22568004865265 12.6194
45.24979934496396 12.5793
45.27392075725247 12.5303
45.29804428714431 12.5305
45.322358426247604 12.530999999999999
45.346486212804315 12.5386
45.370616121861914 12.4827
45.39474815505086 12.4207
45.41907087049246 12.3727
45.4432071734666 12.3893
45.46734560548283 12.3775
45.49148616817604 12.3696
45.51581748638564 12.3375
45.5399623320197 12.3001
45.56410931325473 12.2334
45.58825843173002 12.2763
45.61259837920865 12.2692
45.636751793816 12.2386
45.66090735060093 12.2211
45.68506505120716 12.1628
45.7094136545275 12.142999999999999
45.73357566449271 12.0843
45.75773982322992 12.1319
45.78190613238733 12.0541
45.806263418194064 12.0133
45.83043404997326 12.043
45.85460683713677 12.0721
45.87897065658495 12.0355
45.90314777634752 11.9892
45.92732705646868 12.0026
45.9515084986045 11.9481
45.97588104735473 11.8756
46.00006683541565 11.8836
46.02425479047904 11.8725
46.04844491420549 11.8991
46.0728262191024 11.8308
46.09702070211635 11.8009
46.12121735879483 11.8097
46.14541619080294 11.8156
46.169806278764455 11.7845
46.194009483459034 11.7547
46.21821486849841 11.7262
46.24242243555223 11.6682
46.266821333570014 11.6759
46.29103328674601 11.6243
46.31524742696538 11.6152
46.33946375590237 11.5957
46.36387149104216 11.5691
46.38809221957392 11.534
46.41231514186606 11.5172
46.436540259597464 11.5082
46.460956858999374 11.493
46.48518638983522 11.4669
46.509418121166966 11.4678
46.533652054678114 11.4362
46.55807754555709 11.394
46.58231590571962 11.4082
46.60655647313217 11.3986
46.630988654873654 11.3194
46.655233659129024 11.2969
46.67948087571551 11.3466
46.70373030632484 11.2763
46.72817142736393 11.2432
46.752425308428684 11.2662
46.77668140861147 11.2217
46.80093972960865 11.2001
46.82538981736788 11.1732
46.849652602470904 11.1599
46.87391761349769 11.1295
46.8981848521493 11.1017
46.9226439341274 11.0987
46.946915650573224 11.0692
46.97118959976749 11.0746
46.99546578341598 11.0403
47.019933887188216 11.0299
47.04421456235744 10.9655
47.06849747711879 10.9866
47.09278263318286 10.9635
47.11725978640143 10.9485
47.14154944775105 10.9274
47.165841355555656 10.8842
47.1901355115306 10.8692
47.214621741924994 10.8629
47.23892041698887 10.8628
47.26322134538975 10.7927
47.28771440635075 10.7931
47.31201986422527 10.787
47.33632758061436 10.7309
47.360637557241866 10.7609
47.38513974410611 10.763
47.40945426407847 10.6815
47.43377104948137 10.6795
47.45809010204344 10.6573
47.48260144275502 10.6502
47.506925052572285 10.6056
47.53125093475548 10.5514
47.55557909103813 10.5768
47.58009961361992 10.5615
47.60443234110732 10.5051
47.62876734791564 10.5076
47.65310463578333 10.4971
47.6776343683373 10.4885
47.7019762413987 10.4216
47.72632040075572 10.3831
47.75066684815169 10.3967
47.77520581885936 10.3508
47.799556865477655 10.3639
47.823910205386 10.3838
47.84826584033272 10.3927
47.87281407745551 10.3475
47.89717432569297 10.3242
47.92153687423484 10.3071
47.94609208429692 10.2966
47.97045925671401 10.2572
47.99482873471275 10.1999
48.01920052005013 10.1903
48.04376504619224 10.2459
48.068141469543484 10.1772
48.09252020552573 10.197000000000001
48.11690125590099 10.1133
48.1414751266064 10.1256
48.16586082917454 10.1169
48.19024885144316 10.0922
48.2146391951793 10.0513
48.239222439012764 10.1001
48.26361744916137 10.0498
48.28801478610016 10.0327
48.31241445160131 10.0143
48.337007097209366 9.98757
48.36141144338331 9.94789
48.38581812345755 9.94787
48.41022713920929 9.93918
48.434829215320704 9.91425
48.45924292604658 9.9138
48.48365897780325 9.9266
48.50807737237308 9.846739999999999
48.532688907799276 9.82692
48.55711201168574 9.823360000000001
48.581537463754074 9.794369999999999
48.60615611725119 9.80831
48.63058628942721 9.766060000000001
48.65501881516546 9.757660000000001
48.6794536962573 9.76349
48.70408185970339 9.71551
48.72852147531801 9.68539
48.75296345168211 9.66072
48.77740779059232 9.65366
48.80204549302823 9.65168
48.82649458091802 9.64717
48.85094603676547 9.63965
48.87539986237231 9.604439999999999
48.90004713292306 9.5439
48.92450572200832 9.52182
48.94896668628025 9.5288
48.97343002754588 9.52875
48.99808689542115 9.49889
49.02255501470614 9.50387
49.04702551642794 9.465819999999999
49.0714984023988 9.4506
49.096164896893235 9.416210000000001
49.120642575466796 9.38664
49.145122643748394 9.38366
49.16960510355558 9.377469999999999
49.19428125404938 9.36276
49.2187685210852 9.32827
49.243258185121555 9.31263
49.26794160167084 9.31194
49.2924360839405 9.28
49.31693296869764 9.255460000000001
49.34143225776915 9.22879
49.36612538195438 9.24215
49.39062950396021 9.21705
49.41513603578346 9.18759
49.4396449792564 9.17689
49.46434784069503 9.16858
49.488861631846454 9.107330000000001
49.513377840166804 9.10556
49.537896467493745 9.13383
49.56260909589029 9.10407
49.587132585683285 9.06657
49.611658500018365 9.02716
49.636186840738596 9.04818
49.66090926588511 9.04107
49.685442483902584 9.039719999999999
49.70997813385706 9.000910000000001
49.734516217597076 8.96792
49.75924846937352 8.94562
49.7837914452858 8.953380000000001
49.80833686055187 8.90865
49.83288471702571 8.903210000000001
49.85762682540054 8.873439999999999
49.882179588965734 8.82658
49.9067347993235 8.83922
49.93129245833333 8.827910000000001
49.95604445336378 8.820219999999999
49.98060703442832 8.80026
50.005172069746266 8.77328
50.02993150438364 8.75422
50.05450147301533 8.77064
50.07907390151433 8.751719999999999
50.10364879174981 8.690760000000001
50.12841816587289 8.67045
50.1529980044635 8.68548
50.17758031042124 8.655439999999999
50.20216508562089 8.65863
50.22694442953363 8.61096
50.25153416817468 8.62466
50.27612638170508 8.605030000000001
50.300721072005196 8.56047
50.325510416102105 8.5741
50.350110084975064 8.543439999999999
50.37471223628208 8.521
50.39931687190919 8.535060000000001
50.424116246675766 8.49766
50.44872587605249 8.47739
50.47333799543065 8.44639
50.49795260670191 8.436910000000001
50.52276204271512 8.43423
50.54738166295838 8.41462
50.57200378079314 8.42706
50.596628398116835 8.37111
50.62144792604559 8.35949
50.646077567609396 8.33675
50.670709714377715 8.365680000000001
50.69553683636198 8.30449
50.72017401885922 8.292689999999999
50.7448137122895 8.2938
50.76945591856022 8.27662
50.79429318636823 8.245510000000001
50.818940443716784 8.24897
50.84359021965163 8.22053
50.868242516085964 8.18932
50.893089960641895 8.18851
50.917747323549435 8.142669999999999
50.94240721271973 8.14397
50.96706963007175 8.145489999999999
50.99192728239342 8.09399
51.01659478166073 8.12107
51.04126481489051 8.054680000000001
51.06593738400761 8.05148
51.090805275207074 8.05144
51.11548294172845 8.06193
51.14016314993547 7.99983
51.164845901758845 8.00703
51.18972406304274 8.008460000000001
51.21441192780656 7.958019999999999
51.23910234200271 7.97594
51.2637953075678 7.94643
51.288683770237945 7.94147
51.31338186432707 7.9401600000000006
51.33808251561888 7.89228
51.362978729967345 7.888160000000001
51.387684521509755 7.88425
51.41239287610203 7.857080000000001
51.437103795691165 7.8346100000000005
51.46201036644977 7.8152
51.486726441956634 7.764869999999999
51.51144508832545 7.7985
51.536166307509156 7.79287
51.56108326624387 7.75356
51.58580965706056 7.7309600000000005
51.61053862657523 7.687819999999999
51.635270176746864 7.65642
51.66019755512065 7.686380000000001
51.68493429268881 7.65943
51.70967361681515 7.6729199999999995
51.73441552946465 7.62603
51.759353359237934 7.6447199999999995
51.7841004750961 7.627839999999999
51.80885018539685 7.59876
51.833602492111254 7.560689999999999
51.8585508051424 7.533869999999999
51.883308330926425 7.554239999999999
51.90806845906181 7.5222
51.932831191525715 7.51092
51.95779001977161 7.53575
51.98255798721516 7.4781
52.00732856494335 7.45638
52.03229530577543 7.448510000000001
52.057071130455945 7.444089999999999
52.081849571391054 7.404730000000001
52.106630630568695 7.43485
52.13160794279417 7.37874
52.15639426492067 7.39668
52.18118321127822 7.37466
52.205974783860896 7.32868
52.23096269971011 7.321969999999999
52.255759551287994 7.33104
52.280559035098186 7.298719999999999
52.30536115314103 7.2823899999999995
52.33035970494467 7.274380000000001
52.35516711807904 7.26847
52.37997717147198 7.248489999999999
52.40478986713005 7.2473
52.42979908731974 7.22271
52.454617094216 7.2028
52.47943774942214 7.18823
52.50426105495102 7.1404
52.529280976059844 7.157039999999999
52.554109609024096 7.1630199999999995
52.57894089837482 7.1218
52.60377484613117 7.11715
52.62880550079408 7.13294
52.65364479223379 7.07285
52.67848674816189 7.00995
52.70352547971946 7.05352
52.72837279155837 7.06792
52.753222773982785 7.03175
52.778075429022984 7.011139999999999
52.80312495150885 7.0449399999999995
52.827982978797436 6.981039999999999
52.85284368481815 6.94477
52.87770707160767 6.93918
52.90276741793998 6.9470600000000005
52.92763619336701 6.901260000000001
52.952507655698504 6.846
52.977381806977576 6.88651
53.00245301017842 6.878710000000001
53.02733256653592 6.84052
53.052214817996074 6.80572
53.077099766608484 6.86353
53.102181859804446 6.82292
53.127072229988265 6.80006
53.15196530349892 6.759010000000001
53.17686108239249 6.77889
53.20195409881522 6.744460000000001
53.22685531582556 6.76385
53.25175924441303 6.740310000000001
53.27666588664027 6.72315
53.30176985962693 6.67617
53.3266819565689 6.6580699999999995
53.35159677336455 6.675860000000001
53.376514312083096 6.68267
53.40162927507703 6.65805
53.42655228516116 6.63094
53.45147802340193 6.6023
53.47660125628886 6.60717
53.50153247842639 6.589169999999999
53.52646643496923 6.559830000000001
53.55140312799818 6.553889999999999
53.576537409691696 6.5292699999999995
53.60147960336152 6.50933
53.626424539786164 6.52289
53.65137222105307 6.46457
53.67651758529126 6.47807
53.70147078399681 6.46258
53.72642673383343 6.44667
53.75138543689533 6.45066
53.776541917524526 6.43509
53.801506154876755 6.417669999999999
53.826473151763246 6.3849599999999995
53.851442910284916 6.37372
53.87661054126026 6.37959
53.9015858509782 6.36166
53.92656392866066 6.33921
53.95154477641532 6.32209
53.976723591801296 6.2927
54.00171000771266 6.33649
54.02669920004598 6.289280000000001
54.051691170915745 6.27504
54.076881204886796 6.23776
54.101878760928514 6.25531
54.12687910187696 6.21836
54.152077577768296 6.20611
54.1770835166946 6.17631
54.20209224691339 6.1870199999999995
54.22710377055121 6.1824
54.25231352511594 6.15644
54.27733066384342 6.10285
54.30235060239643 6.13589
54.32737334290836 6.112369999999999
54.35259441062629 6.0567400000000005
54.377622783395324 6.05949
54.40265396455061 6.09051
54.42768795623251 6.06346
54.45292037169559 6.0272
54.477960012857906 6.04491
54.50300247099511 5.9639
54.52804774825457 5.9562
54.55329154616743 5.943230000000001
54.57834249018678 5.92654
54.6033962597977 5.87061
54.6284528571545 5.85763
54.653708072335164 5.85826
54.67877035378786 5.83807
54.70383546947698 5.8274300000000006
54.72890342156389 5.79042
54.7541700889442 5.77281
54.77924374251975 5.77416
54.8043202390049 5.74817
54.82959552413022 5.6906300000000005
54.8546777351945 5.68454
54.87976279569621 5.68431
54.90485070780914 5.6908
54.930137506558005 5.61771
54.95523115074295 5.63476
54.98032765308844 5.6035699999999995
55.005427015775496 5.6089199999999995
55.03072536339621 5.5328800000000005
55.05583047570572 5.54502
55.080938454927676 5.58073
55.10604930325027 5.51117
55.131359235107396 5.49896
55.15647585066083 5.47527
55.181595341907496 5.422000000000001
55.20671771104285 5.38793
55.232039262617704 5.3358300000000005
55.25716741665048 5.36383
55.28229845518636 5.36895
55.30743238042802 5.2964400000000005
55.33276558731939 5.29322
55.357905315183636 5.25459
55.383047936390035 5.21866
55.40819345314859 5.2194199999999995
55.433538351073295 5.26435
55.458689688238415 5.17507
55.483843927614096 5.14365
55.509197623043605 5.1761
55.53435769621134 5.12295
55.55952067826466 5.067830000000001
55.5846865714265 5.0417
55.61005202069737 4.97684
55.63522376553902 5.02004
55.66039842818645 4.977930000000001
55.68557601087004 5.00229
55.7109532500271 4.90421
55.73613670233794 4.917619999999999
