TT I
1.2716486653135266 7.24715
1.2939594142134223 6.9427
1.3162702121660406 6.63047
1.3385810600174564 7.14533
1.3608919586137629 6.43614
1.383202908801069 5.93888
1.405513911425503 5.8524199999999995
1.4278249673332093 5.961869999999999
1.4501343378461518 5.877000000000001
1.4724455028545926 6.1160000000000005
1.4947567236847858 6.36435
1.517068001182951 5.90037
1.5393793361953272 6.355180000000001
1.5616907295681737 5.10706
1.5840021821477681 5.35529
1.60631369478041 5.25915
1.6286252683124185 5.12519
1.6509369035901333 5.00646
1.6732468618895553 5.28655
1.695558623192809 5.2323
1.7178704487808514 5.056080000000001
1.7401823395001077 4.86739
1.7625012545597203 4.8362
1.7848028405262486 4.91191
1.8071218901122095 5.26044
1.8294236121921872 4.66263
1.8517427996910911 4.62237
1.8740620574440425 4.2682199999999995
1.8963639900671978 4.63705
1.9186833908139995 4.53343
1.9409854680117449 4.98562
1.9633050151394713 4.85921
1.9856246367570705 4.74331
2.0079269371922672 4.7569
2.03024671027244 4.78451
2.0525491637446027 4.8067400000000005
2.074869091674931 4.58084
2.097171701569106 4.57271
2.1194917877373847 5.3926300000000005
2.141811954326636 4.86411
2.164114805233074 4.813680000000001
2.186435135143035 6.29009
2.208738150935709 14.7381
2.231058647554722 30.4381
2.2533792288321184 23.2025
2.275682498336085 11.2444
2.298003251406138 6.44257
2.3203066942619714 5.88842
2.3426276225136022 5.70592
2.3649486396617507 5.96192
2.387252348930071 6.16049
2.4095735463442893 6.36916
2.4318774374315884 6.76882
2.4541988185014043 6.75272
2.476502894794693 6.856610000000001
2.498824462909887 7.72439
2.521146125856138 7.809819999999999
2.5434504863470337 8.40906
2.5657723414244717 8.37325
2.588076895590662 8.9238
2.610398946189713 9.12375
2.6327210958598384 8.51183
2.6550259469304716 8.50279
2.6773482972090137 9.17424
2.6996533504259 8.49531
2.7219759047039602 8.516760000000001
2.744298562293959 8.507639999999999
2.7666039251246595 8.32355
2.7889267918020164 8.79314
2.8112323652516555 8.32992
2.833555444408179 8.28936
2.8558786311183852 8.655619999999999
2.8781845268938557 9.20309
2.9005079311721484 9.76322
2.9228140460410397 8.84877
2.9451376712799635 9.25573
2.967444008632326 9.88911
2.9897678582247247 10.4742
3.0120918213106695 10.3802
3.0343984987899373 10.5156
3.0567226913198637 11.1998
3.079029599759726 12.2116
3.101354025127254 12.5073
3.123678568232338 13.8886
3.145985829517914 13.0568
3.16831061055229 13.9608
3.1906181112775593 14.5221
3.212943133635653 14.8941
3.2352682779763207 14.9346
3.2575761442691227 15.7765
3.2799015350264273 16.2007
3.302209649240067 16.1778
3.3245352898092655 16.8735
3.3468436553365257 17.665
3.369169549113219 17.5993
3.3914955708171384 18.5867
3.413804319727358 18.9989
3.4361305997334863 19.0534
3.4584396084414553 19.6161
3.4807661501462652 20.24
3.503092824025881 20.7696
3.5254022288463154 21.271
3.5477291695206588 21.96
3.5700388426251948 22.265
3.5923660534916446 23.9276
3.6146934007816114 40.3062
3.637003482731501 93.8242
3.6593311053109985 105.285
3.681641464033634 59.9014
3.7039693653009733 30.8873
3.726297407241705 26.4885
3.7486081875460804 25.5858
3.7709365132734978 25.7148
3.793247578841633 26.2951
3.8155761917550093 26.4869
3.8378875459837216 26.8429
3.8602164494827234 27.7844
3.882545499606844 28.581999999999997
3.9048572932539183 28.7772
3.9271866390645718 29.0945
3.9494987298666713 29.7665
3.971828374764527 30.2505
3.9941581705403255 31.0537
4.016470713506008 31.2759
4.038800813471445 31.9573
4.061113662089144 32.5333
4.0834440696459176 33.4614
4.105774632334751 34.0139
4.128087945865126 34.6271
4.150418821249301 35.2405
4.172732448931298 36.4236
4.195063640413578 38.8414
4.2173775856475215 43.1879
4.239709096631102 76.1478
4.262040768704612 254.22099999999998
4.284355196706267 344.673
4.306687193387355 224.41
4.329001947444346 84.9623
4.35133427213731 48.3205
4.373666762177566 44.3726
4.395982011761091 44.145
4.418314834921175 45.3582
4.44063041906622 54.1431
4.4629635787515625 66.6095
4.4852969080429785 65.747
4.5076130004776225 54.0952
4.529946671403969 49.8326
4.552263106909177 48.8943
4.574597122877047 50.1857
4.596931312711224 51.7588
4.619248269273446 52.3168
4.6415828092605835 53.2793
4.663900117405352 54.6713
4.686235010953232 55.9149
4.708552674085913 57.3593
4.730887924602802 58.5032
4.753223354952695 59.7707
4.775541557023902 60.8215
4.797877349456786 62.5145
4.820195915032126 64.5953
4.842532072957498 65.7454
4.864868414979744 68.1297
4.88718753227192 69.9972
4.909524244902505 71.5733
4.931843734218147 72.9558
4.954180820867835 75.7168
4.976518095879839 78.839
4.998838149695359 81.1293
5.021175803844231 83.8245
5.043496238205739 86.9875
5.065834274903528 90.8237
5.088172504230693 95.5944
5.1104935158799565 101.406
5.132832132875765 122.25399999999999
5.155153533596801 164.615
5.1774925416746225 192.53
5.199814334878411 273.869
5.2221537374521505 727.268
5.244493338631803 2318.47
5.266815727034316 7462.61
5.289155727832427 13506.4
5.311478517248165 9009.92
5.333818921080011 2761.45
5.356159527788849 509.793
5.3784829252032536 172.83599999999998
5.400823940070432 137.403
5.423147747031976 123.833
5.445489173474152 115.296
5.467830807066149 109.859
5.490155234831516 106.163
5.512497285125229 103.259
5.534822130975162 101.949
5.557164601388673 100.07700000000001
5.579489868738879 96.6642
5.601832762690846 96.1084
5.6241758697774475 94.884
5.646501775867269 94.2536
5.668845311622074 93.0019
5.691171647754637 92.6339
5.713515615597765 90.7986
5.735859800852677 90.1145
5.758186788542988 89.5774
5.780531411018185 89.3199
5.802858837297399 88.6335
5.825203900414495 88.4828
5.8475491852224 88.6602
5.869877275883075 88.9855
5.892223006467101 89.8123
5.914551544266608 90.5249
5.936897724049891 92.3627
5.959244129804903 96.3447
5.981573344815301 107.65299999999999
6.0039202049061 167.80700000000002
6.026249875609095 350.99800000000005
6.04859719346037 785.456
6.070927323278297 2096.65
6.093275102315365 4602.52
6.115623113320588 5339.76
6.137953938319995 3206.51
6.160302415650845 918.01
6.182633708324452 213.53900000000002
6.2049826554078376 108.24600000000001
6.227331838745022 89.2884
6.249663839443684 82.4186
6.27201349767565 80.6093
6.294345974611799 87.7405
6.316696111167083 101.115
6.339046488263839 95.3714
6.361379686074702 79.6975
6.383730546639482 70.9654
6.406064229255215 67.779
6.428415576718203 66.913
6.450749747566656 66.042
6.47310158535871 65.3402
6.495453669698332 64.2781
6.517788579421056 64.0559
6.540141159237969 63.0682
6.562476565766648 62.4358
6.5848296444934045 61.8171
6.607182974060425 61.213
6.6295191323281015 61.7776
6.651872965955752 65.847
6.6742096296068985 93.8772
6.6965639707294615 144.999
6.71891856698715 145.518
6.741255995248479 97.1023
6.763611104154477 68.212
6.785949046381137 60.1775
6.808304671371482 58.1697
6.8306605557940046 57.648
6.852999275508618 56.5999
6.875355681171544 56.4376
6.897694923437771 55.9091
6.92005185377892 55.7717
6.9423916220322655 55.762
6.964749080490181 55.0688
6.987106804399774 55.242
7.009447368180821 55.0173
7.031805625367033 54.6786
7.054146723727803 54.9169
7.076505517631004 54.6208
7.098864581288365 54.5248
7.121206488070854 54.3912
7.143566093607822 54.2315
7.165908543567245 54.8385
7.188268694426048 54.7444
7.2106291193438095 55.3435
7.232972390625943 56.7344
7.255333366030969 70.8443
7.277677189091925 130.717
7.300038718428332 183.542
7.322400526130865 151.501
7.344745183422596 92.0043
7.367107550224791 62.2691
7.389452767901992 55.9847
7.411815697249891 54.82899999999999
7.434161478756298 53.7466
7.456524974096713 53.74100000000001
7.478888753837185 53.716
7.501235387657368 54.268
7.523599738562711 54.1024
7.545946944825532 54.3431
7.568311870344528 54.3735
7.5906770845765665 54.9286
7.613025156078678 56.3502
7.635390950099687 57.3111
7.657739602662809 56.3618
7.680105979923558 55.2644
7.702472650212829 55.3468
7.724822180948224 55.2078
7.747189439655568 55.2732
7.769539560075357 55.3355
7.791907410653562 55.6896
7.81425812420825 55.6616
7.836626570110925 55.8887
7.858995315087906 57.0618
7.881346924933401 57.1187
7.903716270417482 57.5219
7.926068482028405 57.7128
7.948438431475253 58.5346
7.9708086843180235 58.8446
7.993161805171116 59.4859
8.015532667162402 59.9089
8.037886398416653 60.6915
8.060257873014221 61.123999999999995
8.082629655331942 61.9391
8.104984308787587 62.7179
8.127356708900503 66.3273
8.149711981398308 72.3897
8.172085002766314 75.1228
8.194458336181368 71.3546
8.216814543847752 68.2969
8.23918850371002 68.2244
8.26154533906492 68.8593
8.283919928836452 70.1474
8.306277395339652 71.2722
8.328652618483376 72.59
8.351028159736202 74.6124
8.373386579575245 76.4748
8.395762759396959 77.8828
8.418121819038275 83.1125
8.440498640894003 96.4011
8.462875785192262 110.335
8.485235811156207 116.98100000000001
8.507613602688501 141.11
8.529974277114228 209.41400000000002
8.552352719347912 325.76
8.574731488360351 566.617
8.59709314210385 1127.0
8.619472567021075 1921.58
8.64183487789147 2298.7
8.664214962183097 1841.18
8.686577933647762 916.183
8.708958680784317 347.184
8.731339760774953 159.15
8.753703729764451 108.06299999999999
8.77608547780821 96.5735
8.798450116065078 93.1948
8.820832535634787 90.5854
8.843215292401656 89.0547
8.865580941199045 87.6475
8.887964374703538 87.088
8.910330701447199 88.3903
8.932714815164482 91.0192
8.955099270424924 90.1773
8.977466620733543 86.6534
8.999851761421976 83.6384
9.022219798361645 81.9758
9.04460562795561 81.8671
9.066991803441677 81.2222
9.089360876979615 81.2279
9.111747746589993 80.9554
9.13411751544971 80.5474
9.156505082664324 80.1736
9.178875550323522 80.6829
9.20126381862328 80.7817
9.223652438908596 81.2823
9.246023961427412 81.1809
9.26841328802173 80.7603
9.290785518039224 80.4356
9.313175554425882 81.04899999999999
9.335565947154315 80.8643
9.357939245086508 81.0169
9.380330352834827 81.2225
9.40270436697103 81.6306
9.425096193225055 81.4955
9.447488380180165 82.3493
9.469863475295412 82.4295
9.492256385987508 83.0739
9.514632206018318 83.6495
9.537025843935714 83.8844
9.559402392368193 84.4443
9.581796761000229 85.4937
9.604191496441521 86.4661
9.626569144158516 90.1727
9.648964615551032 95.3592
9.671343000390081 96.8845
9.693739211225699 94.7029
9.716135793237463 91.8872
9.738515290448102 91.1361
9.760912617143402 92.0652
9.783292860202891 92.9545
9.805690935076182 94.2298
9.828089385495742 95.4368
9.850470754023561 98.0378
9.872869957865444 106.009
9.89525208097539 121.618
9.917652041736662 134.033
9.940052382417589 132.029
9.962435644102392 131.583
9.984836746950979 154.189
10.007220771957746 204.90900000000002
10.029622640473708 295.283
10.052007432299963 465.18199999999996
10.074410069984072 756.7
10.096813093716005 1257.7
10.119199042482517 1772.21
10.141602840636468 2027.66
10.163989564971628 1544.66
10.186394141051062 846.5239999999999
10.208799107559706 364.591
10.231187001965623 176.90200000000002
10.253592751657669 122.101
10.275981430388155 110.323
10.298387966769793 110.462
10.320794897965431 113.32700000000001
10.343184759907361 111.977
10.36559248305461 106.604
10.387983138083852 101.913
10.410391656691655 102.37799999999999
10.432800574501677 109.999
10.455192425893369 122.65799999999999
10.47760214443012 145.666
10.499994797678786 187.59599999999998
10.522405320453982 268.718
10.54479877906917 403.69199999999995
10.567210109595656 525.863
10.5896218454736 593.487
10.612016518879773 501.871
10.634429067781074 342.176
10.656824555333241 195.47
10.679237920773568 121.36200000000001
10.701651695961992 94.1421
10.724048411481384 87.1864
10.746463008485165 85.0448
10.768860546937125 83.1522
10.791275969274796 81.3338
10.81369180576079 80.5558
10.836090585366925 79.5495
10.858507252467449 78.375
10.88090686379991 77.3538
10.903324365036394 76.8489
10.925724811614439 76.8973
10.948143150509463 78.5637
10.970561909719066 77.3687
10.992963615930844 75.8989
11.015383218085756 73.2541
11.037785768347074 71.7317
11.06020621697282 71.3432
11.082627090322113 70.99600000000001
11.105030913430326 70.6807
11.12745263854165 71.5608
11.149857314510728 75.1636
11.172279894912576 81.5962
11.194702904450653 82.5319
11.217108866490921 78.0599
11.239532736615194 73.2719
11.26193956033512 71.1883
11.284364294577085 69.3175
11.306789462371718 67.1115
11.329197585398376 66.0155
11.351623622610898 65.7238
11.37403261614354 65.1007
11.396459526308487 64.8754
11.418869393879497 64.4263
11.441297180532617 64.2557
11.463725406927658 63.6917
11.486136592353875 63.5127
11.508565700543707 64.4273
11.530977768845315 66.5433
11.553407762368774 67.2902
11.575838200059769 66.605
11.598251599479612 64.3839
11.620682927815501 62.9557
11.64309721895548 62.446999999999996
11.665529441478206 62.1366
11.687962112597958 62.0859
11.710377748130886 61.8033
11.732811318753434 61.5598
11.755227854859067 61.526
11.777662328529495 61.5422
11.800079768750786 61.38399999999999
11.822515149015453 61.0185
11.844950984084935 61.1654
11.867369787303163 61.1192
11.889806534289491 61.2939
11.912226250487029 61.5096
11.934663912939751 61.7173
11.9571020346363 61.6392
11.979523127133968 61.5419
12.001962169624331 61.9447
12.024384183972964 62.635
12.046824150809913 65.0016
12.069264581333726 69.2345
12.091687985297767 74.7104
12.11412934550045 82.9245
12.136553680195208 97.9302
12.158995973632788 121.84299999999999
12.181438735204349 155.016
12.20386447284199 186.049
12.226308172985636 207.08900000000003
12.24873485024193 200.325
12.271179492516982 162.914
12.293607112949127 123.476
12.316052700916226 94.8666
12.338498763250042 77.4004
12.360927805303868 69.5753
12.383374818673879 65.3741
12.405804812803074 63.5294
12.428252780773262 63.0486
12.45070122756722 62.9847
12.473132656675375 62.897
12.49558206341869 63.2406
12.518014453510101 63.1705
12.540464823770117 63.5001
12.562915677315177 63.335
12.58534951575545 64.4872
12.607801338171472 66.5382
12.630236146511358 72.4267
12.652688941369085 77.207
12.675124723177234 77.5968
12.697578494048786 73.7036
12.720032754458185 68.9289
12.742470003354093 66.774
12.764925245138771 66.6059
12.787363476431278 66.7053
12.809819703166806 67.0135
12.83227642391173 67.8226
12.854716135692716 68.3026
12.877173846755147 69.36399999999999
12.899614549869717 69.374
12.9220732548287 70.1373
12.94453245827299 70.8554
12.966974655289818 71.792
12.989434858002571 72.312
13.011878055298721 73.0312
13.034339260862497 73.9841
13.056800969391883 74.945
13.079245674017244 76.8302
13.101708390774869 78.1644
13.12415410463411 83.2024
13.146617833206086 92.7294
13.169064559883248 103.069
13.191529303857127 116.24700000000001
13.213994557076367 136.78799999999998
13.236442809902437 172.738
13.258909083908291 231.403
13.28135835851934 304.351
13.30382565690295 380.061
13.326293469022952 435.934
13.348744283242008 428.28
13.371213125129904 347.597
13.39366497011003 247.32
13.416134845360597 166.81900000000002
13.438605238843131 119.40799999999999
13.46105863690397 100.9
13.483530069144786 99.1608
13.505984506951902 103.051
13.528456981549432 111.92399999999999
13.550929978879088 125.85
13.573385983253365 148.08100000000002
13.595860028340867 187.354
13.618317081455832 244.041
13.64079217790333 308.945
13.663250283359057 359.02
13.685726434770173 375.038
13.708203115221277 331.244
13.730662806148091 251.62099999999998
13.75314054697177 176.898
13.775601299246777 123.54299999999999
13.798080104050406 94.7548
13.820559442405358 83.6386
13.843021793671388 80.054
13.865502201420897 78.3934
13.887965623051947 77.9311
13.910447103807167 76.4702
13.932929122629764 75.5992
13.955394156785959 75.0728
13.977877254034569 74.5199
14.000343367582113 73.5348
14.022827546871707 72.881
14.045294743423524 72.1638
14.06778000837062 71.4602
14.090265817715476 71.4654
14.112734645763819 71.1642
14.13522154619454 71.1041
14.157691466286913 71.0559
14.180179461423874 70.6314
14.202668005486178 69.9258
14.22513957064374 69.4958
14.247629214846473 68.943
14.270101881097517 68.742
14.29259262906496 69.275
14.315083930490205 70.1031
14.337558255389705 70.398
14.360050666019726 70.0723
14.382526101071944 68.8907
14.405019624534942 68.0288
14.427513705993134 67.4849
14.449990813291825 67.5226
14.47248601302899 67.0649
14.49496423954951 67.3407
14.517460561197822 67.3095
14.539939910570322 67.2081
14.562437357763558 67.7111
14.58493536931253 68.8635
14.607416409993311 69.635
14.62991555254159 70.4062
14.652397725157423 70.23100000000001
14.674898002342799 69.5271
14.697398848433282 68.9088
14.719882725991326 69.3727
14.74238471217934 69.6931
14.764869730765593 72.0966
14.787372860692983 74.7463
14.809876564079925 78.3543
14.83236330125751 83.7622
14.854868153850365 91.6132
14.877356041159485 104.791
14.899862046604186 124.065
14.922351087688757 151.211
14.944858249632887 183.984
14.967365991421232 213.75400000000002
14.989856770231246 229.59
15.012365673994204 217.33599999999998
15.03485761569738 186.705
15.05736768508665 147.143
15.07987833888692 111.63799999999999
15.102372032001655 88.0866
15.124883856909658 75.1647
15.14737872204565 70.7271
15.169891721717274 68.89399999999999
15.192405310371893 68.9965
15.214901940621196 69.5368
15.237416709527137 69.8002
15.259914520936249 70.0273
15.282430473753607 68.9675
15.304947020131227 68.0799
15.327446610371178 66.7198
15.349964346154254 65.8992
15.372465126703139 65.4265
15.394984055556009 65.2193
15.417486030076159 65.0063
15.44000615566487 64.524
15.462526881230803 64.5249
15.485030653812652 64.7884
15.507552581617434 64.6568
15.530057557334603 64.8837
15.55258069104857 64.9855
15.575104429329837 64.8449
15.597611216864632 64.1571
15.620136166564563 64.1827
15.6426441664095 64.6494
15.665170331202765 66.2375
15.687697105158826 68.7522
15.710206930593545 71.3947
15.732734925158933 75.3681
15.755245972089478 81.0128
15.77777519094324 89.9578
15.800287463046663 102.65
15.822817909869592 122.85
15.84534897229804 146.921
15.867863089299354 172.979
15.890395385222186 192.138
15.912910736597423 197.893
15.935444269699861 180.77900000000002
15.957978423016485 151.42
15.980495633101265 119.931
16.003031029129367 93.9467
16.02554948280019 75.9852
16.048086125229432 66.9174
16.070623392487107 64.155
16.09314371869582 63.3874
16.11568223789321 62.6977
16.13820381691126 61.589
16.160743591742527 60.4076
16.183283996022084 59.5138
16.205807461423195 58.4814
16.228349126881973 57.9169
16.25087385432698 57.8601
16.27341678466365 57.2955
16.29594277784926 57.3754
16.31848697676433 57.591
16.341031811604868 57.8849
16.36355971058487 58.2713
16.3861058195587 57.9776
16.40863499352978 56.6604
16.431182380342005 55.9688
16.453730407713202 55.1623
16.476261501364792 54.8027
16.498810812136167 54.3984
16.52134319004079 54.589
16.54389378792203 54.4539
16.566445031001553 54.333999999999996
16.588979342490088 53.9452
16.61153187824822 53.85
16.634067483263312 53.7581
16.656621315414416 53.7552
16.679175797408888 53.5939
16.701713349928728 53.4439
16.72426913389191 53.6603
16.74680798922351 53.8046
16.76936507887444 53.8139
16.791905240734874 53.9029
16.814463639794468 53.4353
16.837022695210294 53.6756
16.859564824093756 54.1015
16.882125194503903 54.9151
16.904668639217885 55.7273
16.927230328348003 55.8377
16.949792678493612 55.9109
16.972338104193863 55.2158
16.994901778652235 54.5717
17.017448529496576 54.3971
17.040013531998152 54.528999999999996
17.06257920018044 54.9106
17.0851279459922 55.5305
17.107694947817667 56.2227
17.130245028099072 56.9399
17.15281336730298 58.3175
17.17536478578733 59.9239
17.19793446610687 62.0103
17.220504818648422 64.8196
17.243058251703697 68.3055
17.265629950971032 73.2695
17.288184731571736 78.0493
17.310757781306908 82.0393
17.33333150794385 82.3166
17.355888317140174 80.1876
17.37846339986244 74.5661
17.401021565958885 68.7352
17.42359800851343 63.6891
17.44617513265564 60.3409
17.468735341390783 58.478
17.491261035594565 57.6313
17.51396340099364 57.6437
17.536490463869136 57.6649
17.559018209820174 57.6185
17.58154663977963 57.6781
17.604251766089718 57.9564
17.626781572227713 58.093999999999994
17.64931206518155 58.5544
17.671843245885103 59.1368
17.69455114821572 59.3835
17.717083712612634 59.5817
17.739616967569667 59.5959
17.762150914021706 59.6775
17.78486160749854 59.641999999999996
17.807396945166804 60.3687
17.829932977143503 60.9635
17.85246970436452 61.9671
17.875183204129467 63.556000000000004
17.897721330097664 65.4794
17.920260154126645 67.7779
17.942799677153296 70.633
17.9655159983646 73.8581
17.988056927677544 79.1103
18.010598558807683 86.6052
18.033140892692916 97.3758
18.05586005052525 109.624
18.07840379824407 122.022
18.10094825154059 131.82
18.12366954819864 138.501
18.146215420998306 135.701
18.16876200220057 125.20299999999999
18.191309292745153 111.694
18.214033452627167 98.9295
18.236582170236648 88.0593
18.259131600016456 83.0846
18.281681742907335 83.9364
18.304408781233683 88.9332
18.32696035875955 94.6961
18.349512652227624 100.208
18.372065662579683 105.10600000000001
18.394795594587553 106.215
18.41735004715306 101.735
18.43990521943684 93.8561
18.46246111238171 84.3732
18.485193953325208 75.5267
18.507751296070428 68.5814
18.530309362314178 64.5892
18.552868153000343 62.1487
18.57560391815056 60.8935
18.59816416623245 60.4815
18.620725141597372 60.1358
18.643286845190268 59.56
18.666025549835414 59.2387
18.688588718427933 58.6482
18.711152618092243 58.4153
18.73389353884365 57.9705
18.75645890921984 57.6375
18.77902501351406 57.4613
18.801591852673102 57.3772
18.824335739722738 56.8497
18.846904057212626 56.8135
18.8694731124168 56.4798
18.89204290628315 56.5736
18.914789774966803 56.2503
18.937361054791623 56.07
18.959933076131318 55.9242
18.982505839934877 55.8161
19.00525570560582 55.9231
19.027829963004184 55.7764
19.05040496572238 55.9129
19.072980714710468 55.6383
19.095733592739563 55.8907
19.11831084296757 56.0364
19.140888842324735 56.5726
19.16346759176222 56.6639
19.18622349753803 57.1984
19.208803755869358 57.7979
19.231384767143577 59.1353
19.253966532312948 60.3916
19.276725481241822 62.6219
19.29930876296784 65.3748
19.3218928014549 68.8016
19.34465404436217 71.9245
19.36723960516257 75.1672
19.389825925592426 75.5743
19.412413006605938 74.1189
19.43517731967805 70.1342
19.457765930683355 65.918
19.48035530514408 61.2788
19.50294544401556 57.8592
19.525712842708348 55.1522
19.54830451925909 53.7135
19.570896963095727 52.8996
19.593490175174704 52.806000000000004
19.616260674962184 52.8072
19.638855432416964 52.3459
19.661450960992624 52.6874
19.68404726164677 52.4921
19.706820878021247 52.2606
19.729418731756834 52.4669
19.752017360452857 52.1026
19.77461676506804 52.3545
19.797393513540218 52.4439
19.819994478951667 52.5371
19.84259622316767 53.1905
19.8651987471481 53.62
19.887978643247177 53.6756
19.91058273574792 53.9841
19.933187610901943 54.8525
19.955969879466828 55.9131
19.97857632894404 57.3009
20.00118356396599 58.8886
20.023791585494575 61.4593
20.046577028914875 63.9571
20.069186632506966 66.5835
20.091797025500632 68.3901
20.114408208858933 68.8019
20.137196842715273 68.3763
20.159809615886765 66.3436
20.18242318232135 63.7153
20.20503754298326 61.864
20.227829382875154 60.6719
20.250445341109344 60.9456
20.27306209647285 61.9541
20.29567964993108 63.2506
20.31847471147704 64.3124
20.34109387027612 64.9177
20.363713830075454 64.4285
20.386334591841646 62.5648
20.409132890679302 59.8492
20.431755265564437 56.8509
20.454378445325528 54.3133
20.477002430930366 52.4243
20.499803982716553 51.3462
20.522429589228004 50.5241
20.54505600449589 50.0287
20.567683229489194 50.0122
20.590488049900088 49.7063
20.61311690359731 49.3083
20.63574656993626 49.0145
20.658553853717297 48.7166
20.681185154618298 48.748000000000005
20.703817271080066 48.4465
20.72645020407368 48.0672
20.749260783967177 48.2912
20.771895359337133 48.1243
20.794530754161617 47.9046
20.817166969412938 47.8596
20.83998086114876 47.951
20.86261872660049 47.7416
20.885257415405402 47.7194
20.90789692853701 47.583999999999996
20.930714147864748 47.4822
20.953355319030678 47.6556
20.97599731745334 47.5439
20.99864014410749 47.6141
21.021460706796564 47.5179
21.044105199328826 47.7317
21.06675052302631 47.8679
21.089396678865015 48.1961
21.112220600704806 48.5674
21.134868430275347 48.8736
21.15751709492456 49.0418
21.180166595629693 49.4531
21.202993892429635 49.9216
21.22564507473034 50.3114
21.24829709602816 50.5695
21.27112693608965 50.2859
21.293780644891275 50.2124
21.316435195634053 49.7376
21.339090589297417 48.8953
21.361923832041875 48.5188
21.384580921090404 47.8531
21.407238856007325 47.3011
21.429897637773326 47.4668
21.45273429906592 47.2387
21.475394784108598 47.1835
21.498056118951983 47.1665
21.520718304578022 47.4731
21.543558400304388 47.4755
21.566222297108816 47.7806
21.58888704765135 47.7525
21.61155265291521 47.9099
21.63439619898156 48.2924
21.657063523335786 48.4812
21.67973170537063 49.0975
21.7024007460706 49.4379
21.72524775840385 50.3067
21.747918526116475 51.1535
21.770590155457388 52.3394
21.79326264741238 53.8678
21.816113141960237 56.0244
21.838787368860547 58.0354
21.861462461341976 60.048
21.884315579735777 62.1058
21.90699241312273 63.4217
21.92967011506078 63.5199
21.95234868653799 62.9891
21.9752053151131 61.5203
21.997885635446785 59.6217
22.020566828293532 58.0528
22.04324889464272 56.5313
22.066109049404666 55.5663
22.088792872571794 55.0525
22.111477572219204 55.0735
22.1341631493376 55.1344
22.157026846313123 54.9245
22.179714188221507 54.107
22.202402410582668 53.1758
22.22509151438863 51.5684
22.24795876962584 50.2551
22.270649646204486 49.5816
22.293341407213727 48.8922
22.316034053646906 48.202
22.338904883215342 48.1251
22.36159931041458 48.1571
22.38429462602756 47.9871
22.40699083104897 47.9236
22.429865251039757 47.9968
22.452563244831367 47.9645
22.47526213102522 47.968999999999994
22.49813925616515 47.7594
22.520839937143307 47.5503
22.543541513520587 47.6779
22.56624398629403 47.6782
22.589124730075895 47.3921
22.611829005656723 47.519
22.63453418063466 47.7304
22.657240256008077 47.7894
22.680124634582935 47.9223
22.70283252079775 48.0061
22.725541310413075 48.2496
22.74825100442868 48.335
22.771139033969575 48.895
22.79385054687155 48.9966
22.81656296718292 49.6274
22.83927629590484 50.5787
22.862167992606945 51.7703
22.88488314827121 53.1789
22.907599215359284 54.1538
22.93031619487366 55.3898
22.953211574954405 56.4002
22.975930389478226 56.9573
22.998650119445763 56.9985
23.02137076586092 56.1059
23.044269845560063 54.8879
23.06699233506288 53.221000000000004
23.089715744034912 51.3688
23.112617610931565 49.8946
23.135342869061212 48.7985
23.158069049684816 48.1415
23.1807961538087 47.8744
23.20370174880544 47.6647
23.226430710184808 47.8872
23.249160598093425 47.8448
23.271891413539002 47.6856
23.294800752937697 47.6681
23.31753343374794 47.7591
23.340267045128353 47.7644
23.36300158808808 48.2425
23.38591468821339 48.5244
23.408651104658304 48.7578
23.431388455719986 49.4048
23.454126742409 50.2318
23.4770436196085 51.5197
23.499783787914662 52.9217
23.522524894889884 54.0235
23.54526694154616 55.1441
23.56818761219047 56.3574
23.59093154860734 56.8001
23.613676427751283 56.9484
23.636422250635754 55.9369
23.659346731118656 54.418
23.68209445191868 52.3942
23.704843119509587 50.3731
23.72759273490623 48.607
23.750521041644767 47.4642
23.77327256312355 46.3584
23.796025035462787 45.7264
23.818956224555475 45.2279
23.841710609113413 45.2682
23.86446594758979 45.0072
23.887222241002014 44.5645
23.910157285144578 44.2437
23.932915498962537 44.2336
23.955674670778713 43.9297
23.978434801611975 44.0389
24.001373717286125 43.8336
24.024135776723917 43.7947
24.046898798245582 43.6216
24.06966278287146 43.6127
24.092605586582614 43.2802
24.115371508023642 43.3163
24.1381383956401 43.1375
24.16090625045381 43.143
24.183852958731244 43.0977
24.206622758582608 43.0817
24.229393528706886 42.7508
24.252165270127392 42.8918
24.27511589952438 42.8182
24.297889594216997 42.593999999999994
24.32066426328598 42.4914
24.34343990775613 42.4413
24.36639447485003 42.5282
24.38917208083877 42.2526
24.41195066531332 42.1078
24.43490819850244 42.2072
24.457688750692377 42.2043
24.48047028445616 42.0887
24.503252800821233 42.1673
24.526214300784112 42.2678
24.548998793132213 42.1382
24.57178427117417 42.0735
24.59457073593893 42.1456
24.617536219319863 42.1172
24.64032466834748 42.0102
24.663114107195035 42.0678
24.685904536893013 41.6731
24.708874020360852 41.6626
24.731666442613744 41.7456
24.754459858818787 41.6329
24.777254270007962 41.4982
24.80022777025625 41.4588
24.82302418230472 41.3207
24.845821592443674 41.3322
24.86862000170663 41.1935
24.891597535453727 41.1353
24.914397953892728 41.3724
24.93719937456671 41.3221
24.96000179851076 41.4945
24.98298338249997 41.5443
25.00578782394922 41.8538
25.028593271784167 42.0297
25.05157790644186 42.2744
25.07438537804115 42.424
25.097193859145293 42.6573
25.120003350792075 42.8603
25.142992065061257 43.1953
25.165803588823465 43.4413
25.18861612625217 43.6743
25.211429678386736 43.7573
25.234422489079968 43.7731
25.257238081693636 43.8
25.280054692141732 44.0785
25.3028723214652 44.2076
25.325869245420463 44.2736
25.348688923599397 44.2105
25.371509623787006 44.1517
25.394331347025812 43.6486
25.41733240110666 43.2322
25.440156181590016 42.622
25.46298098826268 42.0645
25.48580682216873 41.5369
25.50881202326435 41.0628
25.53163992281684 40.6052
25.55446885274561 40.3612
25.577298814096377 40.0355
25.600308179121807 40.0421
25.623140214533745 40.2669
25.64597328451537 40.0035
25.66898578564376 39.8377
25.691820936010206 39.8389
25.714657124097695 39.561
25.737494350954734 39.6621
25.760511045684957 39.6182
25.783350361364224 39.644
25.806190718969255 39.615
25.82903211955018 39.7891
25.852053024868923 39.814
25.874896522722523 39.7538
25.897741066713106 39.5805
25.920586657892454 39.8743
25.943611790812668 39.9211
25.966459487728237 39.9544
25.989308234998564 40.1231
26.01215803367705 40.4907
26.03518741123814 40.607
26.05803932412957 40.7555
26.080892291600094 40.7855
26.10374631470478 40.8267
26.12677995397268 40.9469
26.14963609978026 40.9498
26.172493304397875 40.5364
26.19535156888223 40.2947
26.218389486949604 39.9221
26.241249882640123 39.5031
26.26411134137826 39.4767
26.28715248187403 39.4811
26.31001607820869 39.27
26.3328807407756 39.1037
26.35574647063438 39.3275
26.37879191991473 39.1926
26.401659795896734 39.305
26.424528742360263 39.3735
26.447398760366614 39.4761
26.470448535598294 39.5415
26.49332070826805 39.8926
26.516193955675355 40.1983
26.53906827888316 40.4344
26.562122397260108 40.5902
26.584998883685063 40.9726
26.607876449110325 41.1743
26.63075509460056 41.4655
26.65381357334404 41.5282
26.67669439061878 41.4393
26.699576291163382 41.2208
26.722459276044212 41.2511
26.745522132402975 40.8377
26.768407297649354 40.5894
26.791293550442003 40.1674
26.814180891848974 39.9771
26.837248143099337 39.7603
26.860137673466657 39.6649
26.88302829566349 39.3241
26.90592001075963 39.1266
26.92899167420566 39.0113
26.951885586870763 38.7796
26.974780595655517 38.525
26.99785558178161 38.347
27.020752794605112 38.1972
27.043651106772522 38.1115
27.06655051935668 38.0014
27.089629948036183 37.9166
27.112531573292053 38.09
27.135434302194138 37.9396
27.158338135817015 37.9283
27.181422024430987 37.8185
27.204328079372566 37.7521
27.22723524226965 37.8283
27.250143514198573 37.8428
27.273231880156334 37.7966
27.296142382065014 37.6477
27.319053996245536 37.7613
27.341966723775965 37.6849
27.365059584515222 37.5304
27.38797455070062 37.7891
27.410890633481237 37.6351
27.433807833936918 37.7281
27.456905206923906 37.8705
27.47982465472398 37.7938
27.502745223449743 37.9095
27.525666914182825 37.9201
27.548768816912457 37.8582
27.571692763693633 37.7425
27.59461783573812 37.5612
27.617723149491244 37.4605
27.640650484125285 37.3671
27.66357894728264 37.3186
27.686508540048052 37.3293
27.709618414237887 37.2084
27.732550278321757 37.1398
27.755483275279115 37.056999999999995
27.778417406196485 37.1177
27.801531858397514 37.0168
27.824468269376716 37.1348
27.847405817586786 37.1188
27.870344504116094 37.1826
27.893463551932008 37.2884
27.916404527281053 37.4879
27.93934664422563 37.5843
27.962289903855886 37.7059
27.98541356491974 37.936
28.00835912214229 37.982
28.03130582533231 38.3355
28.054253675581805 38.4117
28.077381967556104 38.2789
28.100332124185126 38.1716
28.123283431160893 38.1201
28.146235889577238 38.0765
28.169368830154156 37.8849
28.192323603752033 37.771
28.215279532083304 37.5022
28.238415973016764 37.2679
28.261374223145094 37.2903
28.284333631303806 36.9262
28.307294198589954 36.7478
28.330435319167677 36.3639
28.353398217078915 36.1818
28.376362277420153 36.033
28.39932750129032 35.8966
28.422473319286713 35.6181
28.44544088262495 35.6559
28.468409612800283 35.5944
28.491379510913497 35.3745
28.51453004413313 35.312
28.53750229057244 35.0965
28.56047570826344 35.1226
28.583450298308804 35.2648
28.606605564586562 34.9994
28.629582511831156 35.0652
28.65256063474956 34.9258
28.675539934446338 34.9132
28.698699951647605 34.9466
28.72168161743193 34.8116
28.74466446331978 34.8875
28.767648490417624 34.762
28.790813276438353 34.7187
28.813799678527303 34.8455
28.836787265157085 34.7326
28.859955641890075 34.7958
28.882945610203045 34.7896
28.905936766392035 34.6137
28.928929111566863 34.7234
28.952102288520145 34.6507
28.975097024308607 34.4063
28.998092952423807 34.288000000000004
29.021090073977508 34.154
29.04426806913204 34.0214
29.067267590245258 33.9192
29.090268308143695 33.9307
29.11327022394099 33.8675
29.13645305530891 33.8695
29.159457379627167 33.7513
29.18246290519685 33.736999999999995
29.20546963313352 33.6642
29.22865731875826 33.5957
29.25166646419296 33.59
29.27467681535305 33.5684
29.29768837335608 33.61
29.320880931312562 33.7429
29.34389491580634 33.6743
29.366910110507334 33.6237
29.38992651653503 33.6921
29.41312396492981 33.6015
29.436142806456754 33.4047
29.45916286268059 33.4794
29.48236399319994 33.2849
29.50538649169417 33.1277
29.528410208259935 33.133
29.55143514402014 32.9202
29.574641196749695 32.7695
29.597668583816574 32.6464
29.6206971934585 32.416
29.64372702680042 32.5367
29.666938019934474 32.4763
29.689970313635285 32.3823
29.713003834422636 32.4381
29.73603858342347 32.3242
29.759254535188578 32.2164
29.78229175361658 32.1475
29.80533020365064 32.2699
29.82836988641968 32.2014
29.85159081507472 32.1825
29.874632976355343 32.0583
29.89767637376955 32.168
29.920721008448314 32.0088
29.9439469322847 32.0344
29.96699405457564 31.9751
29.9900424175358 32.0216
30.013092022298157 31.8461
30.03632295963995 31.8277
30.059375061131373 31.914
30.08242840783577 31.8528
30.105483000888153 31.9124
30.128718970092244 31.8125
30.151776069006917 31.7974
30.17483441768648 31.8581
30.198074175317235 31.7981
30.221135036724256 31.8032
30.24419715131772 31.7356
30.267260520236203 31.6408
30.290505341942243 31.6967
30.313571232750228 31.7213
30.336638381310948 31.6915
30.35970678876503 31.5783
30.38295669299435 31.5188
30.40602763151657 31.6089
30.429099832366074 31.4508
30.452173296685572 31.4849
30.47542830191959 31.3853
30.498504306502497 31.4401
30.521581577995562 31.4771
30.544660117543582 31.4696
30.56792024229725 31.5381
30.59100133132069 31.5371
30.614083691845494 31.5507
30.637167325018545 31.6755
30.660432587840603 31.7137
30.683518779717886 31.6615
30.70660624769615 31.7297
30.729694992924372 31.6563
30.75296541239743 31.4873
30.77605672557558 31.4656
30.799149319462742 31.4489
30.8224236211637 31.3113
30.845518789950724 31.2253
30.868615242910597 31.2388
30.891712981195973 31.1563
30.91499247215866 31.0468
30.938092794619365 31.0772
30.96119440587579 30.9629
30.984297307082752 30.7073
31.00758200598383 30.6556
31.030687500658694 30.6932
31.053794288760695 30.5781
31.076902371446767 30.4771
31.100192296997445 30.5752
31.12330298246119 30.4733
31.14641496599209 30.342
31.169528248749216 30.311
31.19282341969534 30.2823
31.215939314557186 30.3649
31.239056512134788 30.3699
31.262175013589378 30.3352
31.28547544871168 30.2874
31.30859657161541 30.2289
31.331719001892175 30.2751
31.35484274070538 30.3235
31.378148458819545 30.2425
31.401274828443725 30.2471
31.424402510106933 30.2589
31.447712205419993 30.4158
31.470842524931633 30.2726
31.493974159989783 30.2255
31.51710711176168 30.2093
31.54042212308802 30.2622
31.563557722100917 30.2206
31.586694641341655 29.9737
31.609832881979628 30.0077
31.63315322823208 29.9274
31.656294125521327 29.7991
31.679436347728515 29.7555
31.70257989602529 29.5945
31.725905596152327 29.6124
31.74905181052835 29.6372
31.772199354521323 29.6199
31.79534822930507 29.5554
31.818679302290967 29.5699
31.84183085259981 29.5916
31.864983737233473 29.5422
31.88813795736804 29.5333
31.911474422233013 29.4938
31.934631327356435 29.57
31.9577895715215 29.4895
31.980949155906522 29.3863
32.004291031706956 29.4602
32.027453310562606 29.2707
32.05061693318573 29.2057
32.07396288236386 29.2743
32.09712920658542 29.3165
32.12029687812702 29.0691
32.14346589817093 28.9658
32.166817291729984 28.9492
32.18998902288583 28.9703
32.21316210610336 28.8345
32.23633654256711 28.6367
32.259693399663725 28.6128
32.282870556771144 28.6369
32.30604907069099 28.7482
32.329228942610065 28.5654
32.35259128243769 28.4257
32.375773884550505 28.3019
32.398957848235646 28.3516
32.422143174682176 28.3432
32.445511016471215 28.2943
32.468699082679954 28.2338
32.49188851523011 28.1619
32.51507931531304 28.046999999999997
32.538452678331 28.1483
32.56164622776311 28.0124
32.58484114831493 27.8603
32.60803744118015 27.9045
32.631416344731896 27.93
32.654615396551876 27.9611
32.67781582427913 27.9041
32.701198898634416 27.8095
32.72440209253756 27.735
32.747606665947124 27.7585
32.77081262006088 27.624000000000002
32.79420126883317 27.6469
32.81740999876112 27.6583
32.840620112999424 27.5911
32.86383161274818 27.4693
32.88722585534586 27.4497
32.91044014056596 27.5709
32.933655814909734 27.4973
32.95687287957963 27.5711
32.98027273544904 27.4002
33.00349259526636 27.4183
33.026713849030116 27.4265
33.04993649794511 27.3363
33.073341986570746 27.3004
33.09656744032826 27.2983
33.11979429286444 27.2466
33.14302254538647 27.2745
33.166433686291185 27.2114
33.18966475336992 27.1964
33.212897224069096 27.0631
33.23613109959831 27.124000000000002
33.259547912343415 27.0928
33.2827846121627 27.0903
33.306022720453775 26.913
33.32926223842861 26.8157
33.352684742614166 26.9112
33.37592709463173 26.8735
33.399170859982064 26.7834
33.422597648419426 26.7524
33.44584425514446 26.6315
33.46909227885668 26.5541
33.4923417207723 26.5028
33.51577423505344 26.5997
33.539026528130385 26.3853
33.56228024307245 26.3822
33.585535381098246 26.211
33.60897364093058 26.1815
33.63223163992385 26.2328
33.6554910656699 26.168000000000003
33.678751919389796 26.1428
33.702195944520106 26.1222
33.72545966903325 26.1174
33.74872482519663 25.9551
33.771991414233746 26.0163
33.79544122444841 25.96
33.81871069412428 25.8944
33.84198160035767 25.9452
33.86525394437455 25.8814
33.88870955949969 25.8191
33.911984794020626 25.825
33.93526147001624 25.728
33.958539588715006 25.6772
33.98200102861669 25.5971
34.0052820477047 25.5793
34.02856451319451 25.5785
34.05203033759056 25.5387
34.07531571090147 25.4465
34.09860253431845 25.4599
34.121890809074316 25.4658
34.145362493118924 25.3828
34.16865368561615 25.3525
34.191946333164054 25.2929
34.21524043699793 25.287
34.23871800066799 25.3015
34.26201503218366 25.1601
34.28531352370466 25.1242
34.30861347646881 25.1061
34.33209693978188 25.1028
34.3553998301885 25.1419
34.378704185565205 24.9803
34.402010007152356 24.9234
34.42549939016683 24.9556
34.44880815937748 24.8579
34.472118398533134 24.705
34.49543010887669 24.7625
34.51892543169198 24.6761
34.54224009966052 24.6998
34.56555624255917 24.6456
34.58887386163339 24.570999999999998
34.61237514439016 24.5005
34.6356957311114 24.4618
34.65901779775809 24.4864
34.68252356662995 24.4251
34.705848608458616 24.4423
34.72917513396849 24.3542
34.75250314440949 24.2363
34.77601490857862 24.25
34.799345904259795 24.1181
34.82267838863559 24.1302
34.846012362958525 24.1694
34.869530142679984 24.1561
34.89286711232212 24.1678
34.91620557568269 24.2217
34.93954553401677 24.0989
34.9630693495876 23.9792
34.986412313340814 24.0462
35.00975677584668 24.076999999999998
35.033102738362956 23.984
35.05663261012228 23.848000000000003
35.0799815881786 23.7918
35.10333207003229 23.8656
35.12668405694369 23.8129
35.150220005273056 23.7674
35.17357501786656 23.8103
35.19693153931268 23.7296
35.220289570874385 23.7239
35.24383161619786 23.7215
35.267192683604904 23.634
35.290555264930376 23.6921
35.314101899412165 23.7286
35.33746752422433 23.6082
35.36083466676374 23.6397
35.38420332829803 23.5285
35.407756095629054 23.6124
35.43112781085063 23.5322
35.45450104888391 23.5304
35.477875810999194 23.5
35.50143473172161 23.38
35.52481255774625 23.5225
35.54819191167777 23.3638
35.57157279478914 23.3088
35.595137889488406 23.296999999999997
35.61852184675279 23.2642
35.641907337029984 23.1157
35.665294361595684 23.0484
35.68886565090076 23.011
35.7122557598848 23.0471
35.73564740699838 23.0415
35.759040593519934 23.0026
35.78261809810353 23.0599
35.80601437933051 23.0009
35.829412203814705 22.8808
35.85281157283719 22.8329
35.876395313415884 22.8914
35.8997977874528 22.749000000000002
35.92320180988546 22.6805
35.946790244133936 22.6526
35.97019737933222 22.6491
35.993606066789866 22.6753
36.01701630779276 22.6159
36.04061101440684 22.6347
36.06402437852291 22.5977
36.08743930005611 22.5364
36.1108557802951 22.4673
36.13445678011326 22.5026
36.15787639383515 22.4596
36.18129757014299 22.4008
36.20472031032821 22.2987
36.22832762423364 22.3149
36.25175350829375 22.233
36.275180960119776 22.1943
36.298609981005924 22.2197
36.32222362992669 22.2304
36.34565580510207 22.1799
36.36908955323448 22.1913
36.39252487562093 22.0441
36.416144880530226 22.0421
36.43958336764275 22.0015
36.463023432914625 21.9843
36.486465077645676 21.9457
36.51009145956204 22.0167
36.53353627947859 21.9885
36.55698268276811 21.9117
36.58043067073321 21.8156
36.60406345072071 21.7766
36.62751462435344 21.8464
36.65096738658405 21.7644
36.67460498210655 21.736
36.69806093788647 21.6838
36.72151848619297 21.6154
36.744977628333636 21.6299
36.76862165890998 21.6443
36.79208400512205 21.5861
36.81554794910557 21.516
36.83901349217101 21.4829
36.862663978991606 21.4315
36.88613273667352 21.4019
36.90960309738324 21.4088
36.933075062434064 21.3456
36.95673202673572 21.3517
36.98020721697122 21.3292
37.003684015502365 21.195999999999998
37.027162423645365 21.2256
37.050825886711465 21.0906
37.07430753063053 21.0263
37.09779078812467 21.0413
37.121275660513014 21.0554
37.144945643673694 21.0145
37.16843376245278 21.0346
37.19192350009803 20.9632
37.215414857931435 20.8765
37.239091382563885 20.8731
37.262585997426164 20.8343
37.28608223645736 20.8715
37.309763684451696 20.8383
37.33326318851098 20.7926
37.356764320726555 20.718000000000004
37.380267082425526 20.6911
37.40395510942588 20.6894
37.42746114683234 20.5815
37.45096881771841 20.6145
37.474478123414166 20.5862
37.49817275092816 20.555999999999997
37.52168534303452 20.5402
37.54519957395567 20.4215
37.568715445024665 20.4432
37.592416694607714 20.4044
37.61593586281424 20.4927
37.63945667518264 20.4941
37.66297913304891 20.3052
37.68668702630454 20.2766
37.710212792059274 20.2582
37.733740207334854 20.1906
37.757269273470364 20.1944
37.780983832050374 20.0824
37.80451621684926 20.102999999999998
37.82805025654007 20.0756
37.851585952464795 20.0028
37.8753071980695 20.0247
37.89884622345676 19.9871
37.92238690911902 19.9246
37.94611318753442 19.8618
37.969657210779765 19.8984
37.99320289834801 19.8957
38.016750251586465 19.7997
38.04048325513017 19.8158
38.06403395679343 19.754
38.087586328183946 19.742
38.11114037065203 19.6574
38.13488012115898 19.7093
38.1584375229181 19.6051
38.181996599821 19.5803
38.205557353221124 19.5867
38.229303872575656 19.5605
38.2528679961576 19.5033
38.27643380031219 19.4807
38.30000128639589 19.416
38.32375459653193 19.4334
38.34732546371299 19.4081
38.37089801690786 19.3642
38.39447225747609 19.3475
38.418232380377425 19.2917
38.441810012983396 19.2674
38.46538933705673 19.2591
38.488970353960084 19.2441
38.51273731166058 19.2688
38.536321731567014 19.1245
38.55990784840681 19.1081
38.58367995004091 19.0802
38.60726947812959 19.0427
38.63086070726198 19.0215
38.654453638806274 18.955
38.678232613930824 18.9399
38.70182896773327 18.9163
38.72542702806741 18.8735
38.7490267963045 18.8848
38.77281266709232 18.8302
38.79641586862214 18.8301
38.8200207821842 18.6507
38.843627409152944 18.7845
38.86742019782782 18.7436
38.891030269149255 18.6849
38.914642058016156 18.6953
38.938255565806124 18.6828
38.96205529464307 18.5811
38.98567225787121 18.6414
39.00929094417078 18.5952
39.03291135492255 18.5593
39.05671804624804 18.5212
39.080341923549106 18.5035
39.103967529460334 18.4827
39.127594865365744 18.4421
39.15140854155791 18.3235
39.17503935514948 18.4123
39.19867190290282 18.4053
39.22249083587951 18.3946
39.24612686969409 18.2768
39.269764641845306 18.2198
39.293404153722804 18.2103
39.317230110864074 18.2085
39.34087311998506 18.1208
39.36451787301696 18.1082
39.388164371352595 18.0875
39.41199737518003 18.0874
39.43564738196752 18.0567
39.45929913825317 17.9877
39.48295264543308 17.993
39.506792718520884 17.91
39.530449745387216 17.8246
39.55410852735203 17.8583
39.57776906581474 17.8982
39.60161623079 17.8074
39.625280300200025 17.7807
39.64894613032202 17.750999999999998
39.67261372255866 17.8167
39.6964680021016 17.8038
39.72013913657293 17.7245
39.74381203738292 17.7181
39.76748670593756 17.6325
39.79134812278169 17.6005
39.81502634488497 17.6256
39.83870633896685 17.5584
39.862388106436654 17.4734
39.88625668336918 17.514
39.90994201572829 17.5616
39.933629125719285 17.3936
39.957503091207826 17.3686
39.9811937746168 17.4011
40.00488623990914 17.3141
40.02858048850006 17.3481
40.05246165409549 17.298
40.076159487492085 17.2314
40.099859108448875 17.2204
40.123560518384345 17.1805
40.1474489070226 17.2221
40.171153913178564 17.1496
40.194860712584955 17.123
40.2185693066637 17.1202
40.242464941335314 17.0491
40.26617714307655 17.017
40.289891143772046 17.054000000000002
40.3136069448471 17.0347
40.33750984859743 17.0417
40.3612292688043 16.9434
40.3849504936829 16.9131
40.40867352466194 16.8971
40.43258372059144 16.896
40.45631038219906 16.863
40.48003885420956 16.844
40.503769138055105 16.7711
40.52768664931955 16.7537
40.55142057531802 16.7598
40.57515631746428 16.7279
40.599079334038514 16.7258
40.62281872700477 16.5807
40.64655994043941 16.5919
40.67030297578061 16.592
40.69423334835778 16.5427
40.71798004609188 16.5523
40.74172857006355 16.5809
40.76547892171441 16.5619
40.7894166736039 16.4596
40.813170699248566 16.4546
40.83692655691388 16.3988
40.86068424804498 16.4536
40.884629402612525 16.4068
40.908390779366385 16.3932
40.932153993938 16.2609
40.95591904777605 16.3385
40.979871628443995 16.2991
41.003640379561936 16.2407
41.02741097430883 16.245
41.05118341413683 16.2209
41.075143444384416 16.1642
41.098919593177826 16.1755
41.1226975914255 16.1315
41.14647744058318 16.1285
41.170444943946755 16.0453
41.19422851378379 16.0144
41.218013938914645 15.9756
41.24198706625173 15.9549
41.26577622087193 15.9377
41.289567235177785 15.9133
41.31336011063129 15.9091
41.337340752422875 15.8689
41.361137369129835 15.8558
41.38493585138705 15.8526
41.40873620066004 15.8181
41.43272438060107 15.7915
41.45652848292052 15.7519
41.48033445666918 15.7209
41.50414230331616 15.6866
41.528138045159764 15.6337
41.551949656675205 15.5458
41.575763145513235 15.5823
41.59957851314666 15.5635
41.62358184070442 15.5563
41.64740098505737 15.5452
41.6712220126409 15.5182
41.69504492493139 15.4647
41.71905586207357 15.4105
41.74288256296395 15.4272
41.766711153007456 15.3985
41.79054163368412 15.3769
41.814560204340054 15.3994
41.838394485526365 15.3907
41.86223066180303 15.2896
41.88625497706819 15.2488
41.910094962812 15.2364
41.93393684811168 15.2545
41.95778063445365 15.1831
41.981812625263366 15.1477
42.00566023303407 15.171
42.029509746323676 15.097000000000001
42.05336116662236 15.0712
42.077400857069705 15.0656
42.10125611078846 15.049000000000001
42.12511327600405 15.0281
42.14897235421036 15.0137
42.173019768448455 15.0068
42.19688269209613 14.9725
42.22074753323349 14.9789
42.24461429335818 14.9132
42.268669455600495 14.8867
42.292540073217886 14.8864
42.31641261433284 14.8769
42.34028708044675 14.8344
42.36435001496739 14.8092
42.38822835065557 14.7627
42.41210861586426 14.6883
42.4359908120986 14.744000000000002
42.46006154323262 14.7015
42.48394762115317 14.6811
42.507835634632315 14.6687
42.531912233047436 14.6036
42.55580413732265 14.5741
42.579697981698 14.5644
42.60359376768525 14.5245
42.62767820545945 14.5033
42.65157789440821 14.460999999999999
42.67547952952185 14.4601
42.699383112316 14.4378
42.72347541395347 14.4092
42.74738291190531 14.3395
42.771292362102166 14.3691
42.795203766063516 14.2909
42.819303956130405 14.3454
42.843219287476536 14.2534
42.86713657716324 14.3294
42.89105582671383 14.2419
42.91516392983864 14.2246
42.939087119032166 14.2026
42.963012272677304 14.1549
42.98693939230129 14.1034
43.01105543317513 14.0873
43.034986504731386 14.0746
43.05891954686589 14.0617
43.08285456110972 14.1042
43.10697856448665 13.965
43.130917542983475 13.9662
43.15485849820081 13.9775
43.17880143167367 13.956
43.20293342237094 13.960999999999999
43.226880332449 13.9193
43.25082922540554 13.8961
43.27496722682525 13.8448
43.29892010567796 13.7962
43.32287497204102 13.8004
43.34683182745632 13.776
43.370977859791836 13.7327
43.39493871351105 13.717
43.41890156092628 13.7394
43.44286640358341 13.706
43.46702049182749 13.6558
43.49098934522816 13.6153
43.51496019852649 13.6235
43.5389330532723 13.5618
43.56309522248204 13.5076
43.58707210044314 13.472000000000001
43.61105098451946 13.464
43.63503187626491 13.4586
43.659202151562134 13.4752
43.68318707902681 13.4882
43.70717401884041 13.4094
43.731162972560874 13.3815
43.75534137913236 13.3219
43.779334381108384 13.3542
43.803329401683186 13.3246
43.82732644241872 13.3414
43.8515130055166 13.3189
43.87551410707659 13.2335
43.89951723350145 13.2876
43.923709934595614 13.2168
43.94771713129917 13.1863
43.97172635758096 13.1824
43.99573761501002 13.1178
44.0199385169922 13.1117
44.04395385732619 13.1056
44.067971233533086 13.107999999999999
44.09199064718605 13.1009
44.11619977548961 13.0445
44.14022328470671 13.0169
44.16424883610785 13.0368
44.18827643127035 13.0053
44.21249381139513 12.975
44.236525514814076 12.9217
44.26055926674478 12.9159
44.28459506876863 12.8742
44.3088207262813 12.8866
44.33286064928722 12.812000000000001
44.35690262714919 12.8118
44.38094666145278 12.7949
44.4051806219871 12.8011
44.42922879003185 12.7483
44.45327901929361 12.7064
44.477331311362136 12.7485
44.501573600619416 12.673
44.525630039221795 12.6724
44.54968854541895 12.6337
44.573937102200176 12.6137
44.5979997645541 12.5528
44.622064499300315 12.5644
44.64613130803592 12.5521
44.67038823869318 12.4994
44.69445921643748 12.4541
44.718532272981385 12.4719
44.742607409926194 12.4451
44.76687274034801 12.4273
44.79095205918753 12.3477
44.81503346325094 12.4074
44.839116954143876 12.3677
44.86339071028742 12.3455
44.88747839599524 12.3709
44.91156817336837 12.3161
44.93566004401666 12.2967
44.959942251908146 12.2557
44.984038330325966 12.2455
45.00813650686762 12.1765
45.03223678314731 12.1796
45.05652746888232 12.1472
45.08063196592069 12.1216
45.104738567558705 12.0989
45.128847275414856 12.095
45.15314646515866 12.0638
45.17725940679741 12.0688
45.20137445952892 12.0249
45.22568004865265 11.9846
45.24979934496396 11.9942
45.27392075725247 12.023
45.29804428714431 11.8989
45.322358426247604 11.9103
45.346486212804315 11.8921
45.370616121861914 11.9358
45.39474815505086 11.9184
45.41907087049246 11.8707
45.4432071734666 11.8046
45.46734560548283 11.8178
45.49148616817604 11.8196
45.51581748638564 11.7769
45.5399623320197 11.7718
45.56410931325473 11.7528
45.58825843173002 11.7709
45.61259837920865 11.6899
45.636751793816 11.6666
45.66090735060093 11.6048
45.68506505120716 11.589
45.7094136545275 11.6219
45.73357566449271 11.5625
45.75773982322992 11.5803
45.78190613238733 11.5474
45.806263418194064 11.478
45.83043404997326 11.5261
45.85460683713677 11.5245
45.87897065658495 11.5172
45.90314777634752 11.4485
45.92732705646868 11.4435
45.9515084986045 11.3632
45.97588104735473 11.3808
46.00006683541565 11.372
46.02425479047904 11.3326
46.04844491420549 11.2913
46.0728262191024 11.3075
46.09702070211635 11.302
46.12121735879483 11.2375
46.14541619080294 11.2074
46.169806278764455 11.2573
46.194009483459034 11.2209
46.21821486849841 11.1821
46.24242243555223 11.1425
46.266821333570014 11.1483
46.29103328674601 11.1107
46.31524742696538 11.1509
46.33946375590237 11.1036
46.36387149104216 11.0548
46.38809221957392 11.0067
46.41231514186606 11.025
46.436540259597464 11.0037
46.460956858999374 10.975
46.48518638983522 10.9607
46.509418121166966 10.8856
46.533652054678114 10.8936
46.55807754555709 10.8919
46.58231590571962 10.9324
46.60655647313217 10.8505
46.630988654873654 10.8026
46.655233659129024 10.8459
46.67948087571551 10.8408
46.70373030632484 10.7819
46.72817142736393 10.7614
46.752425308428684 10.7114
46.77668140861147 10.7125
46.80093972960865 10.6919
46.82538981736788 10.668
46.849652602470904 10.6362
46.87391761349769 10.6223
46.8981848521493 10.6287
46.9226439341274 10.6485
46.946915650573224 10.6361
46.97118959976749 10.5825
46.99546578341598 10.5246
47.019933887188216 10.470999999999998
47.04421456235744 10.5255
47.06849747711879 10.4893
47.09278263318286 10.4462
47.11725978640143 10.4258
47.14154944775105 10.4173
47.165841355555656 10.3932
47.1901355115306 10.3916
47.214621741924994 10.3904
47.23892041698887 10.3691
47.26322134538975 10.3167
47.28771440635075 10.2588
47.31201986422527 10.3032
47.33632758061436 10.2894
47.360637557241866 10.2527
47.38513974410611 10.214
47.40945426407847 10.2174
47.43377104948137 10.1702
47.45809010204344 10.1984
47.48260144275502 10.1259
47.506925052572285 10.152000000000001
47.53125093475548 10.0951
47.55557909103813 10.1452
47.58009961361992 10.0758
47.60443234110732 10.0353
47.62876734791564 10.0568
47.65310463578333 10.0419
47.6776343683373 10.0289
47.7019762413987 9.98985
47.72632040075572 9.97127
47.75066684815169 9.92227
47.77520581885936 9.92878
47.799556865477655 9.92269
47.823910205386 9.913730000000001
47.84826584033272 9.87625
47.87281407745551 9.811069999999999
47.89717432569297 9.86762
47.92153687423484 9.83968
47.94609208429692 9.84418
47.97045925671401 9.81767
47.99482873471275 9.73288
48.01920052005013 9.74353
48.04376504619224 9.75667
48.068141469543484 9.740689999999999
48.09252020552573 9.74019
48.11690125590099 9.721739999999999
48.1414751266064 9.67268
48.16586082917454 9.66271
48.19024885144316 9.64045
48.2146391951793 9.616489999999999
48.239222439012764 9.600439999999999
48.26361744916137 9.56723
48.28801478610016 9.57104
48.31241445160131 9.54486
48.337007097209366 9.535
48.36141144338331 9.52582
48.38581812345755 9.46645
48.41022713920929 9.47986
48.434829215320704 9.45544
48.45924292604658 9.43945
48.48365897780325 9.448260000000001
48.50807737237308 9.39654
48.532688907799276 9.44748
48.55711201168574 9.40283
48.581537463754074 9.34475
48.60615611725119 9.363389999999999
48.63058628942721 9.38004
48.65501881516546 9.344330000000001
48.6794536962573 9.31519
48.70408185970339 9.29607
48.72852147531801 9.23665
48.75296345168211 9.23484
48.77740779059232 9.2244
48.80204549302823 9.199760000000001
48.82649458091802 9.19706
48.85094603676547 9.12659
48.87539986237231 9.12827
48.90004713292306 9.13044
48.92450572200832 9.106630000000001
48.94896668628025 9.10171
48.97343002754588 9.08512
48.99808689542115 9.09614
49.02255501470614 9.082880000000001
49.04702551642794 9.06638
49.0714984023988 9.02374
49.096164896893235 8.99434
49.120642575466796 8.979280000000001
49.145122643748394 8.98493
49.16960510355558 8.93726
49.19428125404938 8.93902
49.2187685210852 8.91284
49.243258185121555 8.8761
49.26794160167084 8.881860000000001
49.2924360839405 8.8731
49.31693296869764 8.870569999999999
49.34143225776915 8.837769999999999
49.36612538195438 8.804089999999999
49.39062950396021 8.76111
49.41513603578346 8.76694
49.4396449792564 8.75275
49.46434784069503 8.76282
49.488861631846454 8.73446
49.513377840166804 8.71274
49.537896467493745 8.67353
49.56260909589029 8.63057
49.587132585683285 8.663269999999999
49.611658500018365 8.65889
49.636186840738596 8.61703
49.66090926588511 8.66076
49.685442483902584 8.61994
49.70997813385706 8.57657
49.734516217597076 8.55355
49.75924846937352 8.54298
49.7837914452858 8.53046
49.80833686055187 8.52255
49.83288471702571 8.47185
49.85762682540054 8.47546
49.882179588965734 8.48622
49.9067347993235 8.4532
49.93129245833333 8.441469999999999
49.95604445336378 8.40618
49.98060703442832 8.41129
50.005172069746266 8.39597
50.02993150438364 8.366710000000001
50.05450147301533 8.3549
50.07907390151433 8.29901
50.10364879174981 8.30518
50.12841816587289 8.30022
50.1529980044635 8.30692
50.17758031042124 8.28111
50.20216508562089 8.2499
50.22694442953363 8.21655
50.25153416817468 8.23407
50.27612638170508 8.21975
50.300721072005196 8.17298
50.325510416102105 8.13456
50.350110084975064 8.15356
50.37471223628208 8.15015
50.39931687190919 8.12708
50.424116246675766 8.12491
50.44872587605249 8.08526
50.47333799543065 8.08428
50.49795260670191 8.081380000000001
50.52276204271512 8.0544
50.54738166295838 8.042760000000001
50.57200378079314 8.0501
50.596628398116835 8.028039999999999
50.62144792604559 8.00189
50.646077567609396 7.96046
50.670709714377715 7.9710600000000005
50.69553683636198 7.890560000000001
50.72017401885922 7.886369999999999
50.7448137122895 7.90265
50.76945591856022 7.88859
50.79429318636823 7.909269999999999
50.818940443716784 7.87345
50.84359021965163 7.82879
50.868242516085964 7.828989999999999
50.893089960641895 7.80843
50.917747323549435 7.78442
50.94240721271973 7.78569
50.96706963007175 7.77663
50.99192728239342 7.7305399999999995
51.01659478166073 7.7344800000000005
51.04126481489051 7.69447
51.06593738400761 7.69877
51.090805275207074 7.68577
51.11548294172845 7.70465
51.14016314993547 7.66792
51.164845901758845 7.62138
51.18972406304274 7.6605
51.21441192780656 7.64355
51.23910234200271 7.629760000000001
51.2637953075678 7.56318
51.288683770237945 7.511089999999999
51.31338186432707 7.55912
51.33808251561888 7.56854
51.362978729967345 7.52318
51.387684521509755 7.4962100000000005
51.41239287610203 7.48825
51.437103795691165 7.43116
51.46201036644977 7.440110000000001
51.486726441956634 7.39445
51.51144508832545 7.40888
51.536166307509156 7.3901699999999995
51.56108326624387 7.38908
51.58580965706056 7.40247
51.61053862657523 7.3745199999999995
51.635270176746864 7.34662
51.66019755512065 7.33438
51.68493429268881 7.35385
51.70967361681515 7.3102
51.73441552946465 7.2889800000000005
51.759353359237934 7.331589999999999
51.7841004750961 7.3129800000000005
51.80885018539685 7.23348
51.833602492111254 7.245539999999999
51.8585508051424 7.23022
51.883308330926425 7.194839999999999
51.90806845906181 7.179069999999999
51.932831191525715 7.16167
51.95779001977161 7.1273100000000005
51.98255798721516 7.100239999999999
52.00732856494335 7.11901
52.03229530577543 7.14878
52.057071130455945 7.12822
52.081849571391054 7.09818
52.106630630568695 7.10093
52.13160794279417 7.0759
52.15639426492067 7.035939999999999
52.18118321127822 7.03224
52.205974783860896 6.992319999999999
52.23096269971011 6.9841
52.255759551287994 6.99821
52.280559035098186 6.95321
52.30536115314103 6.99441
52.33035970494467 6.94831
52.35516711807904 6.90457
52.37997717147198 6.900519999999999
52.40478986713005 6.90273
52.42979908731974 6.88145
52.454617094216 6.864039999999999
52.47943774942214 6.8368199999999995
52.50426105495102 6.81002
52.529280976059844 6.80605
52.554109609024096 6.80243
52.57894089837482 6.8154
52.60377484613117 6.8216600000000005
52.62880550079408 6.779669999999999
52.65364479223379 6.739889999999999
52.67848674816189 6.7477100000000005
52.70352547971946 6.71758
52.72837279155837 6.73725
52.753222773982785 6.715110000000001
52.778075429022984 6.7203100000000004
52.80312495150885 6.71541
52.827982978797436 6.661519999999999
52.85284368481815 6.6426300000000005
52.87770707160767 6.63403
52.90276741793998 6.61647
52.92763619336701 6.62603
52.952507655698504 6.582000000000001
52.977381806977576 6.579
53.00245301017842 6.55929
53.02733256653592 6.54321
53.052214817996074 6.54445
53.077099766608484 6.52876
53.102181859804446 6.50805
53.127072229988265 6.53174
53.15196530349892 6.48182
53.17686108239249 6.46706
53.20195409881522 6.48656
53.22685531582556 6.46641
53.25175924441303 6.40989
53.27666588664027 6.390219999999999
53.30176985962693 6.38587
53.3266819565689 6.3834800000000005
53.35159677336455 6.3793
53.376514312083096 6.38028
53.40162927507703 6.366969999999999
53.42655228516116 6.30841
53.45147802340193 6.28775
53.47660125628886 6.3128400000000005
53.50153247842639 6.3057099999999995
53.52646643496923 6.28487
53.55140312799818 6.27984
53.576537409691696 6.28532
53.60147960336152 6.2509
53.626424539786164 6.23005
53.65137222105307 6.22468
53.67651758529126 6.2114199999999995
53.70147078399681 6.21305
53.72642673383343 6.18011
53.75138543689533 6.18119
53.776541917524526 6.15947
53.801506154876755 6.1330599999999995
53.826473151763246 6.12017
53.851442910284916 6.11901
53.87661054126026 6.08437
53.9015858509782 6.1001199999999995
53.92656392866066 6.07241
53.95154477641532 6.05339
53.976723591801296 6.022819999999999
54.00171000771266 6.03364
54.02669920004598 6.05696
54.051691170915745 6.00159
54.076881204886796 5.99003
54.101878760928514 5.98592
54.12687910187696 5.96132
54.152077577768296 5.94184
54.1770835166946 5.8924199999999995
54.20209224691339 5.91106
54.22710377055121 5.90384
54.25231352511594 5.841130000000001
54.27733066384342 5.83103
54.30235060239643 5.87596
54.32737334290836 5.872669999999999
54.35259441062629 5.7756
54.377622783395324 5.7894
54.40265396455061 5.798080000000001
54.42768795623251 5.7560199999999995
54.45292037169559 5.74455
54.477960012857906 5.78488
54.50300247099511 5.70641
54.52804774825457 5.69652
54.55329154616743 5.65998
54.57834249018678 5.68569
54.6033962597977 5.6205099999999995
54.6284528571545 5.65695
54.653708072335164 5.60238
54.67877035378786 5.63302
54.70383546947698 5.52768
54.72890342156389 5.54354
54.7541700889442 5.52991
54.77924374251975 5.5387
54.8043202390049 5.48714
54.82959552413022 5.41516
54.8546777351945 5.42143
54.87976279569621 5.409590000000001
54.90485070780914 5.45477
54.930137506558005 5.37654
54.95523115074295 5.38694
54.98032765308844 5.34534
55.005427015775496 5.287730000000001
55.03072536339621 5.31225
55.05583047570572 5.30376
55.080938454927676 5.25599
55.10604930325027 5.2396199999999995
55.131359235107396 5.23003
55.15647585066083 5.2466800000000005
55.181595341907496 5.2312
55.20671771104285 5.17523
55.232039262617704 5.1426099999999995
55.25716741665048 5.11805
55.28229845518636 5.106319999999999
55.30743238042802 5.06456
55.33276558731939 5.07191
55.357905315183636 5.03564
55.383047936390035 5.03494
55.40819345314859 5.025519999999999
55.433538351073295 4.9890300000000005
55.458689688238415 4.9311300000000005
55.483843927614096 4.847569999999999
55.509197623043605 4.87873
55.53435769621134 4.90509
55.55952067826466 4.85899
55.5846865714265 4.86266
55.61005202069737 4.83556
55.63522376553902 4.81473
55.66039842818645 4.76354
55.68557601087004 4.786980000000001
55.7109532500271 4.71762
55.73613670233794 4.7275
