TT I
1.2716486653135266 8.424760000000001
1.2939594142134223 7.94239
1.3162702121660406 6.819439999999999
1.3385810600174564 7.537710000000001
1.3608919586137629 7.60376
1.383202908801069 7.08933
1.405513911425503 7.29776
1.4278249673332093 6.96253
1.4501343378461518 6.87887
1.4724455028545926 5.939080000000001
1.4947567236847858 6.648680000000001
1.517068001182951 6.67276
1.5393793361953272 6.66321
1.5616907295681737 6.69872
1.5840021821477681 6.37432
1.60631369478041 6.47504
1.6286252683124185 5.943309999999999
1.6509369035901333 4.9915199999999995
1.6732468618895553 5.5012
1.695558623192809 5.8270800000000005
1.7178704487808514 5.79143
1.7401823395001077 5.4797
1.7625012545597203 5.2221400000000004
1.7848028405262486 5.1233699999999995
1.8071218901122095 5.617380000000001
1.8294236121921872 5.928669999999999
1.8517427996910911 5.83649
1.8740620574440425 5.054209999999999
1.8963639900671978 5.349559999999999
1.9186833908139995 5.52749
1.9409854680117449 5.37323
1.9633050151394713 4.91964
1.9856246367570705 4.55773
2.0079269371922672 5.3365
2.03024671027244 5.352130000000001
2.0525491637446027 4.87373
2.074869091674931 5.1127400000000005
2.097171701569106 5.54459
2.1194917877373847 5.60993
2.141811954326636 4.95745
2.164114805233074 5.00199
2.186435135143035 5.06065
2.208738150935709 4.53177
2.231058647554722 4.31354
2.2533792288321184 4.13915
2.275682498336085 4.75064
2.298003251406138 4.80621
2.3203066942619714 4.55274
2.3426276225136022 4.32653
2.3649486396617507 4.27692
2.387252348930071 4.54586
2.4095735463442893 3.74082
2.4318774374315884 3.89546
2.4541988185014043 4.48703
2.476502894794693 4.22025
2.498824462909887 3.52875
2.521146125856138 3.9750300000000003
2.5434504863470337 4.09658
2.5657723414244717 4.42109
2.588076895590662 4.95978
2.610398946189713 5.20248
2.6327210958598384 4.7804400000000005
2.6550259469304716 4.8215
2.6773482972090137 5.47809
2.6996533504259 4.99916
2.7219759047039602 5.972169999999999
2.744298562293959 6.0151900000000005
2.7666039251246595 5.515619999999999
2.7889267918020164 5.92291
2.8112323652516555 6.69667
2.833555444408179 6.6715800000000005
2.8558786311183852 6.982530000000001
2.8781845268938557 7.7542100000000005
2.9005079311721484 8.01103
2.9228140460410397 8.5842
2.9451376712799635 8.95608
2.967444008632326 9.597380000000001
2.9897678582247247 10.2412
3.0120918213106695 10.0601
3.0343984987899373 10.765999999999998
3.0567226913198637 11.0645
3.079029599759726 11.5582
3.101354025127254 12.1998
3.123678568232338 13.1249
3.145985829517914 12.7363
3.16831061055229 13.5082
3.1906181112775593 14.2994
3.212943133635653 14.4934
3.2352682779763207 14.8597
3.2575761442691227 15.6231
3.2799015350264273 15.6525
3.302209649240067 15.8839
3.3245352898092655 16.3709
3.3468436553365257 17.0798
3.369169549113219 17.4348
3.3914955708171384 18.3026
3.413804319727358 18.4574
3.4361305997334863 18.9518
3.4584396084414553 19.0872
3.4807661501462652 20.1122
3.503092824025881 20.5016
3.5254022288463154 19.8943
3.5477291695206588 20.3627
3.5700388426251948 21.0352
3.5923660534916446 21.6234
3.6146934007816114 22.0152
3.637003482731501 21.951999999999998
3.6593311053109985 22.5829
3.681641464033634 22.9991
3.7039693653009733 23.2493
3.726297407241705 23.8901
3.7486081875460804 24.311999999999998
3.7709365132734978 24.8454
3.793247578841633 25.6599
3.8155761917550093 25.4781
3.8378875459837216 26.1622
3.8602164494827234 26.2518
3.882545499606844 26.8479
3.9048572932539183 27.5277
3.9271866390645718 27.8857
3.9494987298666713 28.4192
3.971828374764527 28.4991
3.9941581705403255 29.0488
4.016470713506008 29.5594
4.038800813471445 30.1257
4.061113662089144 30.5655
4.0834440696459176 31.5593
4.105774632334751 31.5985
4.128087945865126 32.1336
4.150418821249301 32.5145
4.172732448931298 33.351
4.195063640413578 33.9368
4.2173775856475215 34.7266
4.239709096631102 35.5005
4.262040768704612 35.8103
4.284355196706267 36.6842
4.306687193387355 37.1222
4.329001947444346 38.6197
4.35133427213731 39.3745
4.373666762177566 40.073
4.395982011761091 40.4871
4.418314834921175 41.5704
4.44063041906622 42.6666
4.4629635787515625 43.4136
4.4852969080429785 44.58
4.5076130004776225 45.4761
4.529946671403969 46.6626
4.552263106909177 46.8897
4.574597122877047 49.1027
4.596931312711224 50.2512
4.619248269273446 50.7684
4.6415828092605835 52.1835
4.663900117405352 52.8521
4.686235010953232 54.4076
4.708552674085913 55.7105
4.730887924602802 57.5929
4.753223354952695 59.1441
4.775541557023902 60.6958
4.797877349456786 61.8711
4.820195915032126 63.971000000000004
4.842532072957498 65.7769
4.864868414979744 67.7209
4.88718753227192 69.9772
4.909524244902505 72.4986
4.931843734218147 75.3409
4.954180820867835 78.6267
4.976518095879839 82.7915
4.998838149695359 87.0082
5.021175803844231 91.8836
5.043496238205739 96.602
5.065834274903528 103.17
5.088172504230693 111.13
5.1104935158799565 121.935
5.132832132875765 138.101
5.155153533596801 164.863
5.1774925416746225 230.532
5.199814334878411 624.884
5.2221537374521505 2106.79
5.244493338631803 3777.44
5.266815727034316 4828.49
5.289155727832427 7158.33
5.311478517248165 9308.95
5.333818921080011 6802.39
5.356159527788849 2399.82
5.3784829252032536 585.512
5.400823940070432 248.305
5.423147747031976 178.22
5.445489173474152 148.658
5.467830807066149 133.999
5.490155234831516 124.18700000000001
5.512497285125229 116.993
5.534822130975162 113.04299999999999
5.557164601388673 109.314
5.579489868738879 105.65
5.601832762690846 102.831
5.6241758697774475 100.792
5.646501775867269 100.68
5.668845311622074 99.4348
5.691171647754637 99.0314
5.713515615597765 97.6763
5.735859800852677 96.2915
5.758186788542988 95.9578
5.780531411018185 96.5419
5.802858837297399 96.4266
5.825203900414495 96.8719
5.8475491852224 98.4345
5.869877275883075 100.76700000000001
5.892223006467101 104.428
5.914551544266608 108.89
5.936897724049891 116.876
5.959244129804903 131.4
5.981573344815301 168.28
6.0039202049061 318.66700000000003
6.026249875609095 811.3330000000001
6.04859719346037 1423.46
6.070927323278297 1803.9
6.093275102315365 2358.37
6.115623113320588 3352.5
6.137953938319995 3905.99
6.160302415650845 2422.48
6.182633708324452 856.453
6.2049826554078376 264.85900000000004
6.227331838745022 136.969
6.249663839443684 106.494
6.27201349767565 93.3883
6.294345974611799 85.5411
6.316696111167083 79.9692
6.339046488263839 76.4659
6.361379686074702 73.1422
6.383730546639482 70.7922
6.406064229255215 68.8002
6.428415576718203 67.7653
6.450749747566656 66.5487
6.47310158535871 65.0437
6.495453669698332 64.1258
6.517788579421056 63.15
6.540141159237969 62.1135
6.562476565766648 60.7557
6.5848296444934045 60.2389
6.607182974060425 59.8984
6.6295191323281015 59.2482
6.651872965955752 58.2827
6.6742096296068985 57.8434
6.6965639707294615 57.428999999999995
6.71891856698715 56.5978
6.741255995248479 56.3604
6.763611104154477 56.1692
6.785949046381137 55.9238
6.808304671371482 55.1363
6.8306605557940046 54.9484
6.852999275508618 54.4143
6.875355681171544 53.9664
6.897694923437771 53.7267
6.92005185377892 53.7188
6.9423916220322655 53.2937
6.964749080490181 52.9391
6.987106804399774 53.1253
7.009447368180821 52.843
7.031805625367033 52.4104
7.054146723727803 52.5253
7.076505517631004 51.9858
7.098864581288365 52.0226
7.121206488070854 51.6953
7.143566093607822 51.3742
7.165908543567245 51.7701
7.188268694426048 51.3776
7.2106291193438095 51.2945
7.232972390625943 51.2549
7.255333366030969 51.4528
7.277677189091925 51.0411
7.300038718428332 51.3584
7.322400526130865 51.2904
7.344745183422596 51.6662
7.367107550224791 51.3473
7.389452767901992 51.3131
7.411815697249891 51.2241
7.434161478756298 51.0478
7.456524974096713 51.3503
7.478888753837185 51.5141
7.501235387657368 52.6207
7.523599738562711 57.1058
7.545946944825532 66.4391
7.568311870344528 70.306
7.5906770845765665 64.0661
7.613025156078678 56.9165
7.635390950099687 54.0226
7.657739602662809 53.1325
7.680105979923558 53.1242
7.702472650212829 53.273999999999994
7.724822180948224 53.5884
7.747189439655568 53.6906
7.769539560075357 53.6709
7.791907410653562 54.4638
7.81425812420825 54.211000000000006
7.836626570110925 54.262
7.858995315087906 55.1843
7.881346924933401 55.2412
7.903716270417482 56.443000000000005
7.926068482028405 56.4303
7.948438431475253 56.7
7.9708086843180235 57.5454
7.993161805171116 58.1817
8.015532667162402 58.6917
8.037886398416653 59.6333
8.060257873014221 59.982
8.082629655331942 60.5192
8.104984308787587 61.1585
8.127356708900503 61.867
8.149711981398308 62.8523
8.172085002766314 63.695
8.194458336181368 64.3674
8.216814543847752 65.7803
8.23918850371002 67.5067
8.26154533906492 68.5839
8.283919928836452 70.1636
8.306277395339652 71.2929
8.328652618483376 72.8246
8.351028159736202 75.1857
8.373386579575245 77.9773
8.395762759396959 80.1752
8.418121819038275 83.90700000000001
8.440498640894003 88.8672
8.462875785192262 96.8802
8.485235811156207 114.225
8.507613602688501 182.72799999999998
8.529974277114228 390.095
8.552352719347912 634.587
8.574731488360351 772.64
8.59709314210385 798.2610000000001
8.619472567021075 925.1439999999999
8.64183487789147 1271.12
8.664214962183097 1738.82
8.686577933647762 1743.67
8.708958680784317 1105.22
8.731339760774953 505.102
8.753703729764451 202.858
8.77608547780821 123.77799999999999
8.798450116065078 106.866
8.820832535634787 99.2481
8.843215292401656 94.6065
8.865580941199045 91.4257
8.887964374703538 89.1308
8.910330701447199 87.6693
8.932714815164482 86.2713
8.955099270424924 84.6988
8.977466620733543 84.0157
8.999851761421976 83.37
9.022219798361645 82.5719
9.04460562795561 82.4507
9.066991803441677 81.5483
9.089360876979615 81.5612
9.111747746589993 81.2396
9.13411751544971 80.9958
9.156505082664324 80.487
9.178875550323522 81.0755
9.20126381862328 82.213
9.223652438908596 89.5804
9.246023961427412 103.515
9.26841328802173 108.439
9.290785518039224 101.241
9.313175554425882 90.9068
9.335565947154315 84.2536
9.357939245086508 81.948
9.380330352834827 81.559
9.40270436697103 81.3624
9.425096193225055 80.9407
9.447488380180165 82.1355
9.469863475295412 82.0202
9.492256385987508 83.0076
9.514632206018318 83.2668
9.537025843935714 83.7285
9.559402392368193 84.2711
9.581796761000229 85.2485
9.604191496441521 85.5652
9.626569144158516 86.3458
9.648964615551032 86.8744
9.671343000390081 87.7029
9.693739211225699 88.9744
9.716135793237463 89.631
9.738515290448102 90.6723
9.760912617143402 91.8747
9.783292860202891 93.0586
9.805690935076182 94.5056
9.828089385495742 95.7787
9.850470754023561 98.0385
9.872869957865444 100.98299999999999
9.89525208097539 103.90700000000001
9.917652041736662 108.15799999999999
9.940052382417589 115.434
9.962435644102392 133.878
9.984836746950979 194.18200000000002
10.007220771957746 360.73400000000004
10.029622640473708 574.668
10.052007432299963 687.684
10.074410069984072 691.9739999999999
10.096813093716005 714.763
10.119199042482517 859.502
10.141602840636468 1181.47
10.163989564971628 1534.74
10.186394141051062 1600.87
10.208799107559706 1127.45
10.231187001965623 580.42
10.253592751657669 252.571
10.275981430388155 143.941
10.298387966769793 119.494
10.320794897965431 112.88
10.343184759907361 108.64200000000001
10.36559248305461 105.314
10.387983138083852 104.72399999999999
10.410391656691655 107.177
10.432800574501677 122.82600000000001
10.455192425893369 168.449
10.47760214443012 222.732
10.499994797678786 252.11900000000003
10.522405320453982 249.607
10.54479877906917 252.359
10.567210109595656 284.849
10.5896218454736 353.205
10.612016518879773 452.449
10.634429067781074 491.952
10.656824555333241 407.824
10.679237920773568 263.624
10.701651695961992 150.764
10.724048411481384 106.60700000000001
10.746463008485165 92.9047
10.768860546937125 87.021
10.791275969274796 83.6095
10.81369180576079 81.7048
10.836090585366925 80.1456
10.858507252467449 78.4545
10.88090686379991 77.3345
10.903324365036394 76.2291
10.925724811614439 74.9176
10.948143150509463 74.4926
10.970561909719066 73.5048
10.992963615930844 72.8197
11.015383218085756 71.9216
11.037785768347074 71.0108
11.06020621697282 70.36
11.082627090322113 70.0064
11.105030913430326 69.3565
11.12745263854165 68.5932
11.149857314510728 67.744
11.172279894912576 67.9586
11.194702904450653 66.797
11.217108866490921 66.2355
11.239532736615194 65.8553
11.26193956033512 65.7198
11.284364294577085 65.4428
11.306789462371718 64.7443
11.329197585398376 64.382
11.351623622610898 64.4382
11.37403261614354 63.7608
11.396459526308487 63.5296
11.418869393879497 63.482
11.441297180532617 62.8894
11.463725406927658 62.5101
11.486136592353875 62.2045
11.508565700543707 61.901
11.530977768845315 61.9969
11.553407762368774 61.4598
11.575838200059769 61.2628
11.598251599479612 61.104
11.620682927815501 61.3189
11.64309721895548 61.4177
11.665529441478206 61.0438
11.687962112597958 60.8963
11.710377748130886 61.1002
11.732811318753434 60.7653
11.755227854859067 60.495
11.777662328529495 60.5825
11.800079768750786 60.3974
11.822515149015453 60.6251
11.844950984084935 60.7881
11.867369787303163 60.6983
11.889806534289491 60.8678
11.912226250487029 62.3863
11.934663912939751 65.1049
11.9571020346363 67.5641
11.979523127133968 68.0806
12.001962169624331 67.3706
12.024384183972964 65.8436
12.046824150809913 68.3265
12.069264581333726 78.5703
12.091687985297767 92.2797
12.11412934550045 102.75299999999999
12.136553680195208 106.81299999999999
12.158995973632788 107.07700000000001
12.181438735204349 108.31200000000001
12.20386447284199 116.24600000000001
12.226308172985636 134.273
12.24873485024193 160.459
12.271179492516982 183.623
12.293607112949127 184.25099999999998
12.316052700916226 153.155
12.338498763250042 107.52799999999999
12.360927805303868 78.5152
12.383374818673879 67.4573
12.405804812803074 63.8897
12.428252780773262 63.0329
12.45070122756722 62.6435
12.473132656675375 62.2214
12.49558206341869 62.6146
12.518014453510101 62.4299
12.540464823770117 62.298
12.562915677315177 62.2323
12.58534951575545 62.8113
12.607801338171472 62.6491
12.630236146511358 63.053000000000004
12.652688941369085 63.5253
12.675124723177234 63.5612
12.697578494048786 64.1602
12.720032754458185 64.3634
12.742470003354093 64.7155
12.764925245138771 65.1886
12.787363476431278 65.5522
12.809819703166806 66.3699
12.83227642391173 66.7846
12.854716135692716 67.2856
12.877173846755147 68.4125
12.899614549869717 68.9107
12.9220732548287 69.8192
12.94453245827299 70.2133
12.966974655289818 71.1226
12.989434858002571 71.9659
13.011878055298721 72.9106
13.034339260862497 74.2478
13.056800969391883 75.8485
13.079245674017244 78.7435
13.101708390774869 80.899
13.12415410463411 86.8087
13.146617833206086 104.421
13.169064559883248 136.371
13.191529303857127 169.63299999999998
13.213994557076367 191.47299999999998
13.236442809902437 194.468
13.258909083908291 191.143
13.28135835851934 194.537
13.30382565690295 213.949
13.326293469022952 252.457
13.348744283242008 311.39099999999996
13.371213125129904 373.759
13.39366497011003 388.48
13.416134845360597 333.52099999999996
13.438605238843131 238.88099999999997
13.46105863690397 158.561
13.483530069144786 126.115
13.505984506951902 133.659
13.528456981549432 159.011
13.550929978879088 177.993
13.573385983253365 183.21200000000002
13.595860028340867 177.725
13.618317081455832 175.75
13.64079217790333 184.93099999999998
13.663250283359057 206.94
13.685726434770173 245.679
13.708203115221277 301.969
13.730662806148091 335.12300000000005
13.75314054697177 318.367
13.775601299246777 253.821
13.798080104050406 170.602
13.820559442405358 113.25399999999999
13.843021793671388 89.9962
13.865502201420897 82.5334
13.887965623051947 80.3101
13.910447103807167 78.7025
13.932929122629764 76.9961
13.955394156785959 76.3079
13.977877254034569 75.2815
14.000343367582113 74.4309
14.022827546871707 73.8601
14.045294743423524 73.0605
14.06778000837062 72.2327
14.090265817715476 72.2541
14.112734645763819 72.3013
14.13522154619454 73.7483
14.157691466286913 75.309
14.180179461423874 75.0997
14.202668005486178 73.8956
14.22513957064374 72.1494
14.247629214846473 70.2549
14.270101881097517 69.1163
14.29259262906496 68.6866
14.315083930490205 68.633
14.337558255389705 68.19800000000001
14.360050666019726 68.0295
14.382526101071944 67.8347
14.405019624534942 67.5261
14.427513705993134 67.3579
14.449990813291825 67.2417
14.47248601302899 67.043
14.49496423954951 67.6718
14.517460561197822 67.6267
14.539939910570322 67.038
14.562437357763558 67.625
14.58493536931253 67.9971
14.607416409993311 67.7531
14.62991555254159 68.0932
14.652397725157423 68.3006
14.674898002342799 68.4168
14.697398848433282 68.5177
14.719882725991326 69.5624
14.74238471217934 70.483
14.764869730765593 73.4616
14.787372860692983 80.5178
14.809876564079925 94.1831
14.83236330125751 108.95100000000001
14.854868153850365 117.82
14.877356041159485 120.04700000000001
14.899862046604186 118.301
14.922351087688757 117.95299999999999
14.944858249632887 122.09200000000001
14.967365991421232 131.952
14.989856770231246 148.349
15.012365673994204 174.25099999999998
15.03485761569738 199.282
15.05736768508665 206.766
15.07987833888692 188.769
15.102372032001655 151.417
15.124883856909658 110.314
15.14737872204565 85.4285
15.169891721717274 74.7608
15.192405310371893 71.245
15.214901940621196 69.6807
15.237416709527137 68.55
15.259914520936249 68.0559
15.282430473753607 66.7781
15.304947020131227 66.2933
15.327446610371178 66.1399
15.349964346154254 65.8484
15.372465126703139 65.5905
15.394984055556009 65.2562
15.417486030076159 65.4049
15.44000615566487 65.1989
15.462526881230803 64.8236
15.485030653812652 64.4835
15.507552581617434 64.5122
15.530057557334603 64.5786
15.55258069104857 64.7909
15.575104429329837 65.0369
15.597611216864632 64.9105
15.620136166564563 65.2548
15.6426441664095 65.828
15.665170331202765 67.8331
15.687697105158826 73.6078
15.710206930593545 84.6581
15.732734925158933 96.4577
15.755245972089478 104.655
15.77777519094324 107.584
15.800287463046663 106.39399999999999
15.822817909869592 104.27600000000001
15.84534897229804 105.381
15.867863089299354 111.955
15.890395385222186 121.976
15.912910736597423 138.41
15.935444269699861 161.183
15.957978423016485 179.378
15.980495633101265 181.158
16.003031029129367 162.651
16.02554948280019 128.648
16.048086125229432 96.1397
16.070623392487107 76.5773
16.09314371869582 67.4619
16.11568223789321 63.5346
16.13820381691126 61.6775
16.160743591742527 60.7465
16.183283996022084 60.0563
16.205807461423195 58.8984
16.228349126881973 58.2894
16.25087385432698 58.0161
16.27341678466365 57.2292
16.29594277784926 57.1256
16.31848697676433 56.5
16.341031811604868 56.0663
16.36355971058487 55.9137
16.3861058195587 55.791000000000004
16.40863499352978 55.3153
16.431182380342005 55.0272
16.453730407713202 54.8824
16.476261501364792 54.7659
16.498810812136167 54.244
16.52134319004079 54.3485
16.54389378792203 54.3585
16.566445031001553 54.2162
16.588979342490088 53.9363
16.61153187824822 53.9145
16.634067483263312 53.8361
16.656621315414416 53.7038
16.679175797408888 53.4371
16.701713349928728 53.2765
16.72426913389191 53.3477
16.74680798922351 53.4219
16.76936507887444 53.3957
16.791905240734874 53.4025
16.814463639794468 53.4071
16.837022695210294 53.29600000000001
16.859564824093756 53.6183
16.882125194503903 53.9361
16.904668639217885 53.9942
16.927230328348003 54.1711
16.949792678493612 54.6446
16.972338104193863 54.7126
16.994901778652235 54.2779
17.017448529496576 54.4141
17.040013531998152 54.663999999999994
17.06257920018044 54.9905
17.0851279459922 56.2373
17.107694947817667 58.4949
17.130245028099072 60.523999999999994
17.15281336730298 62.8576
17.17536478578733 63.9127
17.19793446610687 64.1063
17.220504818648422 63.8387
17.243058251703697 63.4491
17.265629950971032 64.3587
17.288184731571736 65.8401
17.310757781306908 68.8263
17.33333150794385 71.6848
17.355888317140174 75.8081
17.37846339986244 79.5553
17.401021565958885 80.9139
17.42359800851343 78.4444
17.44617513265564 72.8238
17.468735341390783 66.7389
17.491261035594565 61.6116
17.51396340099364 59.3992
17.536490463869136 58.4988
17.559018209820174 58.1326
17.58154663977963 58.2772
17.604251766089718 58.3699
17.626781572227713 58.4421
17.64931206518155 58.5699
17.671843245885103 59.0365
17.69455114821572 59.1263
17.717083712612634 59.6041
17.739616967569667 60.0872
17.762150914021706 60.6917
17.78486160749854 60.73
17.807396945166804 61.3392
17.829932977143503 62.3648
17.85246970436452 63.1929
17.875183204129467 65.9695
17.897721330097664 71.6844
17.920260154126645 78.8034
17.942799677153296 84.3309
17.9655159983646 87.3884
17.988056927677544 87.8462
18.010598558807683 86.8315
18.033140892692916 86.4497
18.05586005052525 87.4482
18.07840379824407 90.8235
18.10094825154059 96.4462
18.12366954819864 105.18700000000001
18.146215420998306 117.99
18.16876200220057 133.608
18.191309292745153 144.93200000000002
18.214033452627167 146.311
18.236582170236648 135.452
18.259131600016456 116.994
18.281681742907335 98.8603
18.304408781233683 87.7102
18.32696035875955 82.6191
18.349512652227624 82.2486
18.372065662579683 85.1516
18.394795594587553 89.3283
18.41735004715306 95.286
18.43990521943684 100.507
18.46246111238171 102.31200000000001
18.485193953325208 97.8812
18.507751296070428 89.0952
18.530309362314178 79.0744
18.552868153000343 70.7535
18.57560391815056 65.5256
18.59816416623245 62.9491
18.620725141597372 61.7029
18.643286845190268 61.0444
18.666025549835414 60.3036
18.688588718427933 59.7764
18.711152618092243 59.3175
18.73389353884365 58.9224
18.75645890921984 58.4037
18.77902501351406 58.1391
18.801591852673102 58.2118
18.824335739722738 57.6525
18.846904057212626 57.7452
18.8694731124168 57.3364
18.89204290628315 57.2682
18.914789774966803 56.8164
18.937361054791623 56.6217
18.959933076131318 56.4143
18.982505839934877 56.438
19.00525570560582 56.4778
19.027829963004184 56.0938
19.05040496572238 56.0165
19.072980714710468 56.2119
19.095733592739563 56.2225
19.11831084296757 56.75
19.140888842324735 57.8935
19.16346759176222 59.2766
19.18622349753803 60.4813
19.208803755869358 61.4471
19.231384767143577 61.5764
19.253966532312948 61.3822
19.276725481241822 61.2043
19.29930876296784 61.2932
19.3218928014549 61.931000000000004
19.34465404436217 62.8669
19.36723960516257 64.264
19.389825925592426 66.0701
19.412413006605938 68.6949
19.43517731967805 71.3736
19.457765930683355 73.4304
19.48035530514408 72.7454
19.50294544401556 69.775
19.525712842708348 65.4087
19.54830451925909 60.7018
19.570896963095727 56.715
19.593490175174704 54.5182
19.616260674962184 53.9655
19.638855432416964 53.1375
19.661450960992624 53.2247
19.68404726164677 53.1366
19.706820878021247 52.8333
19.729418731756834 53.0523
19.752017360452857 52.7722
19.77461676506804 52.9058
19.797393513540218 52.7586
19.819994478951667 53.1763
19.84259622316767 54.1673
19.8651987471481 55.4521
19.887978643247177 56.3075
19.91058273574792 57.4026
19.933187610901943 57.7139
19.955969879466828 57.8086
19.97857632894404 57.6113
20.00118356396599 57.3092
20.023791585494575 57.4611
20.046577028914875 58.5555
20.069186632506966 59.8989
20.091797025500632 61.8434
20.114408208858933 64.5421
20.137196842715273 67.8128
20.159809615886765 70.6329
20.18242318232135 71.4006
20.20503754298326 70.9131
20.227829382875154 68.9504
20.250445341109344 65.6092
20.27306209647285 62.2005
20.29567964993108 59.8878
20.31847471147704 59.096000000000004
20.34109387027612 59.4205
20.363713830075454 60.7147
20.386334591841646 62.5616
20.409132890679302 64.0849
20.431755265564437 64.1311
20.454378445325528 62.6138
20.477002430930366 59.9348
20.499803982716553 56.6736
20.522429589228004 53.5345
20.54505600449589 51.5062
20.567683229489194 50.722
20.590488049900088 49.996
20.61311690359731 49.8025
20.63574656993626 49.7777
20.658553853717297 49.0449
20.681185154618298 49.2107
20.703817271080066 49.1265
20.72645020407368 48.7392
20.749260783967177 48.7005
20.771895359337133 48.6011
20.794530754161617 48.6647
20.817166969412938 48.6549
20.83998086114876 48.4712
20.86261872660049 48.3383
20.885257415405402 48.1944
20.90789692853701 48.2062
20.930714147864748 47.9897
20.953355319030678 47.968999999999994
20.97599731745334 48.2497
20.99864014410749 48.2289
21.021460706796564 48.3547
21.044105199328826 48.7049
21.06675052302631 48.8627
21.089396678865015 48.8819
21.112220600704806 48.693999999999996
21.134868430275347 49.0043
21.15751709492456 48.858999999999995
21.180166595629693 48.5271
21.202993892429635 48.6256
21.22564507473034 49.0788
21.24829709602816 49.2171
21.27112693608965 49.5999
21.293780644891275 50.4693
21.316435195634053 50.7847
21.339090589297417 50.8059
21.361923832041875 50.9593
21.384580921090404 50.0801
21.407238856007325 49.4613
21.429897637773326 48.8913
21.45273429906592 48.5579
21.475394784108598 48.2124
21.498056118951983 47.9618
21.520718304578022 48.225
21.543558400304388 48.2579
21.566222297108816 48.3826
21.58888704765135 48.4334
21.61155265291521 48.7525
21.63439619898156 49.9071
21.657063523335786 50.8638
21.67973170537063 52.0816
21.7024007460706 52.7673
21.72524775840385 53.3286
21.747918526116475 53.5821
21.770590155457388 53.4496
21.79326264741238 53.3063
21.816113141960237 53.4625
21.838787368860547 54.1891
21.861462461341976 54.8973
21.884315579735777 56.4599
21.90699241312273 57.9234
21.92967011506078 59.8028
21.95234868653799 61.8306
21.9752053151131 63.8869
21.997885635446785 65.25
22.020566828293532 65.2061
22.04324889464272 63.8315
22.066109049404666 61.2436
22.088792872571794 58.0575
22.111477572219204 55.8968
22.1341631493376 54.6806
22.157026846313123 54.4255
22.179714188221507 54.9194
22.202402410582668 55.6071
22.22509151438863 55.7129
22.24795876962584 55.0852
22.270649646204486 54.1276
22.293341407213727 52.7293
22.316034053646906 51.068999999999996
22.338904883215342 49.9685
22.36159931041458 49.1739
22.38429462602756 48.7293
22.40699083104897 48.2988
22.429865251039757 48.2017
22.452563244831367 48.4453
22.47526213102522 48.3862
22.49813925616515 48.2162
22.520839937143307 48.1827
22.543541513520587 48.4413
22.56624398629403 48.1497
22.589124730075895 48.07899999999999
22.611829005656723 48.3121
22.63453418063466 48.2211
22.657240256008077 48.598
22.680124634582935 48.9237
22.70283252079775 49.6597
22.725541310413075 50.608000000000004
22.74825100442868 51.0441
22.771139033969575 51.4829
22.79385054687155 51.4177
22.81656296718292 51.1958
22.83927629590484 51.1322
22.862167992606945 51.1073
22.88488314827121 51.2154
22.907599215359284 51.4644
22.93031619487366 51.9471
22.953211574954405 52.4637
22.975930389478226 53.1645
22.998650119445763 54.4136
23.02137076586092 55.5772
23.044269845560063 56.8355
23.06699233506288 57.692
23.089715744034912 57.4687
23.112617610931565 56.3774
23.135342869061212 54.5949
23.158069049684816 52.5847
23.1807961538087 50.7169
23.20370174880544 49.6918
23.226430710184808 49.0594
23.249160598093425 48.7425
23.271891413539002 48.7923
23.294800752937697 49.2914
23.31753343374794 50.1082
23.340267045128353 50.6627
23.36300158808808 51.3235
23.38591468821339 51.3875
23.408651104658304 51.4329
23.431388455719986 51.0098
23.454126742409 50.7271
23.4770436196085 50.826
23.499783787914662 50.9338
23.522524894889884 50.9813
23.54526694154616 51.2323
23.56818761219047 51.7149
23.59093154860734 52.5051
23.613676427751283 53.8919
23.636422250635754 55.0748
23.659346731118656 56.2617
23.68209445191868 57.2114
23.704843119509587 57.2835
23.72759273490623 56.1481
23.750521041644767 54.0038
23.77327256312355 51.7833
23.796025035462787 49.4977
23.818956224555475 47.6182
23.841710609113413 46.7676
23.86446594758979 46.0254
23.887222241002014 45.6452
23.910157285144578 45.2324
23.932915498962537 45.1865
23.955674670778713 45.0547
23.978434801611975 44.8481
24.001373717286125 44.7328
24.024135776723917 44.5603
24.046898798245582 44.3519
24.06966278287146 44.2103
24.092605586582614 44.104
24.115371508023642 43.9328
24.1381383956401 43.7991
24.16090625045381 43.6253
24.183852958731244 43.6062
24.206622758582608 43.4617
24.229393528706886 43.3301
24.252165270127392 43.4388
24.27511589952438 43.4949
24.297889594216997 43.1678
24.32066426328598 43.0556
24.34343990775613 43.0621
24.36639447485003 42.8894
24.38917208083877 42.8032
24.41195066531332 42.6293
24.43490819850244 42.6891
24.457688750692377 42.4914
24.48047028445616 42.3644
24.503252800821233 42.6051
24.526214300784112 42.6036
24.548998793132213 42.7511
24.57178427117417 42.4328
24.59457073593893 42.4049
24.617536219319863 42.3604
24.64032466834748 42.5188
24.663114107195035 42.6317
24.685904536893013 42.6023
24.708874020360852 42.4017
24.731666442613744 42.4516
24.754459858818787 42.3289
24.777254270007962 42.1937
24.80022777025625 42.0199
24.82302418230472 42.0371
24.845821592443674 42.0708
24.86862000170663 42.1636
24.891597535453727 41.9247
24.914397953892728 42.235
24.93719937456671 42.2037
24.96000179851076 42.365
24.98298338249997 42.2888
25.00578782394922 42.4575
25.028593271784167 42.4978
25.05157790644186 42.8786
25.07438537804115 42.835
25.097193859145293 42.9739
25.120003350792075 43.3037
25.142992065061257 43.5249
25.165803588823465 43.5622
25.18861612625217 43.6649
25.211429678386736 43.7074
25.234422489079968 44.0403
25.257238081693636 44.1367
25.280054692141732 44.5031
25.3028723214652 44.3754
25.325869245420463 44.4428
25.348688923599397 44.0695
25.371509623787006 44.0829
25.394331347025812 44.0453
25.41733240110666 44.2424
25.440156181590016 44.3089
25.46298098826268 44.4592
25.48580682216873 44.3089
25.50881202326435 43.9019
25.53163992281684 43.0618
25.55446885274561 42.368
25.577298814096377 41.5129
25.600308179121807 40.9895
25.623140214533745 40.8981
25.64597328451537 40.7341
25.66898578564376 40.3804
25.691820936010206 40.4797
25.714657124097695 40.3373
25.737494350954734 40.2466
25.760511045684957 40.3491
25.783350361364224 40.4164
25.806190718969255 40.4422
25.82903211955018 40.7568
25.852053024868923 40.7304
25.874896522722523 40.7543
25.897741066713106 40.5955
25.920586657892454 40.5178
25.943611790812668 40.5686
25.966459487728237 40.5112
25.989308234998564 40.3055
26.01215803367705 40.4542
26.03518741123814 40.5252
26.05803932412957 40.6614
26.080892291600094 40.5335
26.10374631470478 40.6777
26.12677995397268 40.9434
26.14963609978026 41.2472
26.172493304397875 41.2606
26.19535156888223 41.6567
26.218389486949604 41.56399999999999
26.241249882640123 41.5039
26.26411134137826 41.2667
26.28715248187403 40.9741
26.31001607820869 40.6005
26.3328807407756 40.3517
26.35574647063438 40.5578
26.37879191991473 40.347
26.401659795896734 40.4322
26.424528742360263 40.5188
26.447398760366614 40.3903
26.470448535598294 40.2921
26.49332070826805 40.4059
26.516193955675355 40.62
26.53906827888316 40.5607
26.562122397260108 40.61
26.584998883685063 40.7357
26.607876449110325 40.9371
26.63075509460056 40.8954
26.65381357334404 41.1501
26.67669439061878 41.3761
26.699576291163382 41.5451
26.722459276044212 41.8721
26.745522132402975 42.0746
26.768407297649354 42.1193
26.791293550442003 41.9547
26.814180891848974 41.6833
26.837248143099337 41.1506
26.860137673466657 40.9079
26.88302829566349 40.5613
26.90592001075963 40.3271
26.92899167420566 40.2748
26.951885586870763 39.9921
26.974780595655517 39.9199
26.99785558178161 39.7553
27.020752794605112 39.3952
27.043651106772522 38.9784
27.06655051935668 38.8577
27.089629948036183 38.6131
27.112531573292053 38.6158
27.135434302194138 38.611999999999995
27.158338135817015 38.5705
27.181422024430987 38.4902
27.204328079372566 38.3939
27.22723524226965 38.4807
27.250143514198573 38.5928
27.273231880156334 38.5456
27.296142382065014 38.3848
27.319053996245536 38.3002
27.341966723775965 38.3644
27.365059584515222 38.3062
27.38797455070062 38.2423
27.410890633481237 37.9701
27.433807833936918 38.0381
27.456905206923906 38.2006
27.47982465472398 38.2157
27.502745223449743 38.3323
27.525666914182825 38.3083
27.548768816912457 38.1753
27.571692763693633 38.173
27.59461783573812 38.388000000000005
27.617723149491244 38.2948
27.640650484125285 38.2622
27.66357894728264 38.3322
27.686508540048052 38.4208
27.709618414237887 38.3881
27.732550278321757 38.2767
27.755483275279115 38.2337
27.778417406196485 38.1559
27.801531858397514 38.1505
27.824468269376716 37.9727
27.847405817586786 37.7968
27.870344504116094 37.9139
27.893463551932008 37.8692
27.916404527281053 37.9623
27.93934664422563 38.1173
27.962289903855886 37.98
27.98541356491974 38.1297
28.00835912214229 38.1042
28.03130582533231 38.2738
28.054253675581805 38.4236
28.077381967556104 38.3606
28.100332124185126 38.3871
28.123283431160893 38.5687
28.146235889577238 38.7393
28.169368830154156 38.8727
28.192323603752033 38.872
28.215279532083304 38.7236
28.238415973016764 38.6006
28.261374223145094 38.3038
28.284333631303806 37.9782
28.307294198589954 37.8781
28.330435319167677 37.6544
28.353398217078915 37.3827
28.376362277420153 37.2911
28.39932750129032 37.1849
28.422473319286713 36.9679
28.44544088262495 36.8662
28.468409612800283 36.5266
28.491379510913497 36.1064
28.51453004413313 36.0325
28.53750229057244 35.9128
28.56047570826344 35.9393
28.583450298308804 35.9425
28.606605564586562 35.5991
28.629582511831156 35.665
28.65256063474956 35.6304
28.675539934446338 35.5962
28.698699951647605 35.5911
28.72168161743193 35.3572
28.74466446331978 35.2583
28.767648490417624 35.3042
28.790813276438353 35.1257
28.813799678527303 35.1469
28.836787265157085 35.1617
28.859955641890075 35.0928
28.882945610203045 35.1407
28.905936766392035 35.0175
28.928929111566863 35.1267
28.952102288520145 34.9707
28.975097024308607 34.9333
28.998092952423807 34.8979
29.021090073977508 34.8128
29.04426806913204 34.9151
29.067267590245258 34.7934
29.090268308143695 34.7663
29.11327022394099 34.7041
29.13645305530891 34.5266
29.159457379627167 34.4684
29.18246290519685 34.2728
29.20546963313352 34.1785
29.22865731875826 34.1424
29.25166646419296 34.0663
29.27467681535305 33.8866
29.29768837335608 33.9685
29.320880931312562 33.9465
29.34389491580634 33.9531
29.366910110507334 33.7867
29.38992651653503 33.8882
29.41312396492981 33.9034
29.436142806456754 33.7165
29.45916286268059 33.7803
29.48236399319994 33.7236
29.50538649169417 33.7437
29.528410208259935 33.7088
29.55143514402014 33.6978
29.574641196749695 33.6454
29.597668583816574 33.4493
29.6206971934585 33.3248
29.64372702680042 33.2674
29.666938019934474 33.0863
29.689970313635285 32.9101
29.713003834422636 32.7799
29.73603858342347 32.7595
29.759254535188578 32.7279
29.78229175361658 32.6641
29.80533020365064 32.6583
29.82836988641968 32.5925
29.85159081507472 32.5773
29.874632976355343 32.4381
29.89767637376955 32.5956
29.920721008448314 32.4373
29.9439469322847 32.4962
29.96699405457564 32.4595
29.9900424175358 32.3488
30.013092022298157 32.326
30.03632295963995 32.277
30.059375061131373 32.364000000000004
30.08242840783577 32.3251
30.105483000888153 32.3335
30.128718970092244 32.1602
30.151776069006917 31.9887
30.17483441768648 32.1128
30.198074175317235 32.1151
30.221135036724256 32.1758
30.24419715131772 32.1913
30.267260520236203 31.9815
30.290505341942243 32.1264
30.313571232750228 32.1569
30.336638381310948 32.2737
30.35970678876503 32.1897
30.38295669299435 32.1769
30.40602763151657 32.3052
30.429099832366074 32.2023
30.452173296685572 32.0864
30.47542830191959 32.0054
30.498504306502497 31.9139
30.521581577995562 31.9272
30.544660117543582 31.9809
30.56792024229725 31.9419
30.59100133132069 31.9041
30.614083691845494 31.8966
30.637167325018545 31.9489
30.660432587840603 31.8489
30.683518779717886 31.8159
30.70660624769615 31.8016
30.729694992924372 31.8695
30.75296541239743 31.9596
30.77605672557558 31.8776
30.799149319462742 31.9856
30.8224236211637 31.9718
30.845518789950724 31.945
30.868615242910597 32.0073
30.891712981195973 31.8378
30.91499247215866 31.7075
30.938092794619365 31.7447
30.96119440587579 31.5723
30.984297307082752 31.5766
31.00758200598383 31.4056
31.030687500658694 31.2294
31.053794288760695 31.160999999999998
31.076902371446767 31.0582
31.100192296997445 31.1567
31.12330298246119 31.0426
31.14641496599209 30.8627
31.169528248749216 30.9081
31.19282341969534 30.8694
31.215939314557186 30.8131
31.239056512134788 30.9515
31.262175013589378 30.8471
31.28547544871168 30.7304
31.30859657161541 30.6098
31.331719001892175 30.6418
31.35484274070538 30.7447
31.378148458819545 30.7167
31.401274828443725 30.6988
31.424402510106933 30.5446
31.447712205419993 30.6561
31.470842524931633 30.587
31.493974159989783 30.5728
31.51710711176168 30.5857
31.54042212308802 30.6671
31.563557722100917 30.6938
31.586694641341655 30.6144
31.609832881979628 30.6068
31.63315322823208 30.5845
31.656294125521327 30.3911
31.679436347728515 30.423000000000002
31.70257989602529 30.4178
31.725905596152327 30.3332
31.74905181052835 30.1286
31.772199354521323 30.1786
31.79534822930507 30.0559
31.818679302290967 29.9848
31.84183085259981 29.9205
31.864983737233473 29.8511
31.88813795736804 29.9021
31.911474422233013 29.8669
31.934631327356435 29.8867
31.9577895715215 29.840999999999998
31.980949155906522 29.8343
32.004291031706956 29.8334
32.027453310562606 29.7336
32.05061693318573 29.7017
32.07396288236386 29.7989
32.09712920658542 29.7761
32.12029687812702 29.7052
32.14346589817093 29.6336
32.166817291729984 29.5692
32.18998902288583 29.4677
32.21316210610336 29.4154
32.23633654256711 29.3665
32.259693399663725 29.1759
32.282870556771144 29.1757
32.30604907069099 29.159000000000002
32.329228942610065 29.0825
32.35259128243769 28.9345
32.375773884550505 28.9734
32.398957848235646 28.8136
32.422143174682176 28.8299
32.445511016471215 28.6732
32.468699082679954 28.6087
32.49188851523011 28.5955
32.51507931531304 28.5308
32.538452678331 28.5048
32.56164622776311 28.4208
32.58484114831493 28.3576
32.60803744118015 28.3339
32.631416344731896 28.4185
32.654615396551876 28.3342
32.67781582427913 28.2464
32.701198898634416 28.1538
32.72440209253756 28.1022
32.747606665947124 28.1768
32.77081262006088 27.9873
32.79420126883317 28.0669
32.81740999876112 28.0399
32.840620112999424 27.9658
32.86383161274818 27.8809
32.88722585534586 27.8736
32.91044014056596 27.9949
32.933655814909734 28.0055
32.95687287957963 27.9392
32.98027273544904 27.7764
33.00349259526636 27.7278
33.026713849030116 27.819000000000003
33.04993649794511 27.7663
33.073341986570746 27.6728
33.09656744032826 27.6212
33.11979429286444 27.7393
33.14302254538647 27.6273
33.166433686291185 27.5426
33.18966475336992 27.4534
33.212897224069096 27.4047
33.23613109959831 27.443
33.259547912343415 27.3922
33.2827846121627 27.4883
33.306022720453775 27.415
33.32926223842861 27.3106
33.352684742614166 27.3761
33.37592709463173 27.3151
33.399170859982064 27.2647
33.422597648419426 27.2223
33.44584425514446 27.1438
33.46909227885668 27.0971
33.4923417207723 27.0156
33.51577423505344 27.0927
33.539026528130385 26.8982
33.56228024307245 26.8208
33.585535381098246 26.5953
33.60897364093058 26.5452
33.63223163992385 26.63
33.6554910656699 26.5797
33.678751919389796 26.590999999999998
33.702195944520106 26.4935
33.72545966903325 26.4655
33.74872482519663 26.319000000000003
33.771991414233746 26.3305
33.79544122444841 26.3499
33.81871069412428 26.1897
33.84198160035767 26.2381
33.86525394437455 26.2288
33.88870955949969 26.1259
33.911984794020626 26.1103
33.93526147001624 26.1347
33.958539588715006 26.1005
33.98200102861669 26.0284
34.0052820477047 25.9379
34.02856451319451 25.9793
34.05203033759056 25.9016
34.07531571090147 25.9084
34.09860253431845 25.8928
34.121890809074316 25.7811
34.145362493118924 25.7945
34.16865368561615 25.7133
34.191946333164054 25.6963
34.21524043699793 25.6216
34.23871800066799 25.5712
34.26201503218366 25.5031
34.28531352370466 25.524
34.30861347646881 25.4052
34.33209693978188 25.361
34.3553998301885 25.4176
34.378704185565205 25.3244
34.402010007152356 25.2236
34.42549939016683 25.2782
34.44880815937748 25.2377
34.472118398533134 25.266
34.49543010887669 25.0797
34.51892543169198 25.0311
34.54224009966052 25.0755
34.56555624255917 25.0688
34.58887386163339 24.8746
34.61237514439016 24.8322
34.6356957311114 24.854
34.65901779775809 24.8282
34.68252356662995 24.811
34.705848608458616 24.8038
34.72917513396849 24.698
34.75250314440949 24.6413
34.77601490857862 24.6339
34.799345904259795 24.5326
34.82267838863559 24.5428
34.846012362958525 24.4436
34.869530142679984 24.4547
34.89286711232212 24.4452
34.91620557568269 24.4781
34.93954553401677 24.4797
34.9630693495876 24.4143
34.986412313340814 24.4103
35.00975677584668 24.3179
35.033102738362956 24.2867
35.05663261012228 24.2054
35.0799815881786 24.2063
35.10333207003229 24.0601
35.12668405694369 24.1979
35.150220005273056 24.1106
35.17357501786656 24.1
35.19693153931268 24.0524
35.220289570874385 24.0536
35.24383161619786 23.9382
35.267192683604904 24.0041
35.290555264930376 24.0069
35.314101899412165 23.9105
35.33746752422433 23.9006
35.36083466676374 23.9257
35.38420332829803 23.8424
35.407756095629054 23.8824
35.43112781085063 23.7834
35.45450104888391 23.8171
35.477875810999194 23.795
35.50143473172161 23.6778
35.52481255774625 23.6913
35.54819191167777 23.7068
35.57157279478914 23.7082
35.595137889488406 23.6576
35.61852184675279 23.651
35.641907337029984 23.5437
35.665294361595684 23.5836
35.68886565090076 23.4954
35.7122557598848 23.4819
35.73564740699838 23.4726
35.759040593519934 23.4023
35.78261809810353 23.2912
35.80601437933051 23.2921
35.829412203814705 23.2751
35.85281157283719 23.1976
35.876395313415884 23.1338
35.8997977874528 23.1079
35.92320180988546 23.035
35.946790244133936 23.0402
35.97019737933222 23.0418
35.993606066789866 23.0375
36.01701630779276 23.0118
36.04061101440684 22.9203
36.06402437852291 22.8669
36.08743930005611 22.8619
36.1108557802951 22.7752
36.13445678011326 22.7509
36.15787639383515 22.7157
36.18129757014299 22.7158
36.20472031032821 22.7178
36.22832762423364 22.6086
36.25175350829375 22.5785
36.275180960119776 22.5341
36.298609981005924 22.5553
36.32222362992669 22.5467
36.34565580510207 22.5113
36.36908955323448 22.4177
36.39252487562093 22.3521
36.416144880530226 22.2615
36.43958336764275 22.3366
36.463023432914625 22.3186
36.486465077645676 22.2386
36.51009145956204 22.2889
36.53353627947859 22.2146
36.55698268276811 22.1487
36.58043067073321 22.1187
36.60406345072071 22.0444
36.62751462435344 22.1424
36.65096738658405 22.0539
36.67460498210655 22.0328
36.69806093788647 21.9973
36.72151848619297 21.9039
36.744977628333636 21.943
36.76862165890998 21.8231
36.79208400512205 21.8876
36.81554794910557 21.8987
36.83901349217101 21.7966
36.862663978991606 21.7198
36.88613273667352 21.7184
36.90960309738324 21.7141
36.933075062434064 21.6545
36.95673202673572 21.6177
36.98020721697122 21.5685
37.003684015502365 21.4855
37.027162423645365 21.4999
37.050825886711465 21.531999999999996
37.07430753063053 21.436
37.09779078812467 21.3915
37.121275660513014 21.3464
37.144945643673694 21.3794
37.16843376245278 21.3062
37.19192350009803 21.2598
37.215414857931435 21.2312
37.239091382563885 21.2123
37.262585997426164 21.163
37.28608223645736 21.1902
37.309763684451696 21.1016
37.33326318851098 21.0999
37.356764320726555 21.0824
37.380267082425526 21.0379
37.40395510942588 20.9689
37.42746114683234 20.9745
37.45096881771841 20.9297
37.474478123414166 20.9085
37.49817275092816 20.8125
37.52168534303452 20.8287
37.54519957395567 20.7189
37.568715445024665 20.6438
37.592416694607714 20.6517
37.61593586281424 20.7468
37.63945667518264 20.7342
37.66297913304891 20.6482
37.68668702630454 20.5702
37.710212792059274 20.4968
37.733740207334854 20.5007
37.757269273470364 20.4881
37.780983832050374 20.4469
37.80451621684926 20.3606
37.82805025654007 20.4255
37.851585952464795 20.3476
37.8753071980695 20.2515
37.89884622345676 20.3083
37.92238690911902 20.2751
37.94611318753442 20.122
37.969657210779765 20.2001
37.99320289834801 20.1725
38.016750251586465 20.072
38.04048325513017 20.0751
38.06403395679343 20.0365
38.087586328183946 20.0035
38.11114037065203 19.9382
38.13488012115898 20.0279
38.1584375229181 19.8869
38.181996599821 19.8425
38.205557353221124 19.8097
38.229303872575656 19.8612
38.2528679961576 19.8354
38.27643380031219 19.7737
38.30000128639589 19.7062
38.32375459653193 19.7604
38.34732546371299 19.7136
38.37089801690786 19.5624
38.39447225747609 19.5942
38.418232380377425 19.5172
38.441810012983396 19.503
38.46538933705673 19.4737
38.488970353960084 19.4837
38.51273731166058 19.4608
38.536321731567014 19.3688
38.55990784840681 19.4047
38.58367995004091 19.3375
38.60726947812959 19.2319
38.63086070726198 19.3194
38.654453638806274 19.2559
38.678232613930824 19.2159
38.70182896773327 19.2104
38.72542702806741 19.1506
38.7490267963045 19.1314
38.77281266709232 19.1331
38.79641586862214 19.0691
38.8200207821842 19.0005
38.843627409152944 19.1053
38.86742019782782 19.0341
38.891030269149255 18.9208
38.914642058016156 18.8887
38.938255565806124 18.935
38.96205529464307 18.8886
38.98567225787121 18.903
39.00929094417078 18.78
39.03291135492255 18.7797
39.05671804624804 18.7603
39.080341923549106 18.7183
39.103967529460334 18.6951
39.127594865365744 18.5859
39.15140854155791 18.5337
39.17503935514948 18.5551
39.19867190290282 18.6291
39.22249083587951 18.4669
39.24612686969409 18.5012
39.269764641845306 18.4773
39.293404153722804 18.4478
39.317230110864074 18.3601
39.34087311998506 18.367
39.36451787301696 18.4168
39.388164371352595 18.2232
39.41199737518003 18.2183
39.43564738196752 18.2281
39.45929913825317 18.2584
39.48295264543308 18.229
39.506792718520884 18.1636
39.530449745387216 18.1148
39.55410852735203 18.1219
39.57776906581474 18.1416
39.60161623079 18.0648
39.625280300200025 18.0356
39.64894613032202 17.9618
39.67261372255866 17.9331
39.6964680021016 17.9829
39.72013913657293 17.9649
39.74381203738292 17.9651
39.76748670593756 17.9181
39.79134812278169 17.7911
39.81502634488497 17.7818
39.83870633896685 17.7643
39.862388106436654 17.7407
39.88625668336918 17.7153
39.90994201572829 17.7604
39.933629125719285 17.6998
39.957503091207826 17.6315
39.9811937746168 17.6761
40.00488623990914 17.6036
40.02858048850006 17.5471
40.05246165409549 17.5215
40.076159487492085 17.4544
40.099859108448875 17.4832
40.123560518384345 17.4304
40.1474489070226 17.4251
40.171153913178564 17.4125
40.194860712584955 17.3878
40.2185693066637 17.4405
40.242464941335314 17.2788
40.26617714307655 17.3318
40.289891143772046 17.2574
40.3136069448471 17.2514
40.33750984859743 17.2259
40.3612292688043 17.132
40.3849504936829 17.1548
40.40867352466194 17.188
40.43258372059144 17.1254
40.45631038219906 17.0483
40.48003885420956 16.9888
40.503769138055105 17.0301
40.52768664931955 17.0011
40.55142057531802 16.958
40.57515631746428 16.9371
40.599079334038514 16.925
40.62281872700477 16.8487
40.64655994043941 16.8955
40.67030297578061 16.8142
40.69423334835778 16.8313
40.71798004609188 16.8271
40.74172857006355 16.7929
40.76547892171441 16.7514
40.7894166736039 16.7145
40.813170699248566 16.6699
40.83692655691388 16.622
40.86068424804498 16.6533
40.884629402612525 16.6108
40.908390779366385 16.56
40.932153993938 16.5695
40.95591904777605 16.4783
40.979871628443995 16.5125
41.003640379561936 16.4725
41.02741097430883 16.4742
41.05118341413683 16.477999999999998
41.075143444384416 16.3601
41.098919593177826 16.3857
41.1226975914255 16.3776
41.14647744058318 16.2695
41.170444943946755 16.2608
41.19422851378379 16.2907
41.218013938914645 16.1678
41.24198706625173 16.1305
41.26577622087193 16.1853
41.289567235177785 16.1349
41.31336011063129 16.1269
41.337340752422875 16.0204
41.361137369129835 16.0575
41.38493585138705 16.0431
41.40873620066004 16.0146
41.43272438060107 15.9549
41.45652848292052 15.9389
41.48033445666918 15.934000000000001
41.50414230331616 15.8989
41.528138045159764 15.8944
41.551949656675205 15.7488
41.575763145513235 15.7929
41.59957851314666 15.7879
41.62358184070442 15.7697
41.64740098505737 15.7225
41.6712220126409 15.7042
41.69504492493139 15.6581
41.71905586207357 15.6443
41.74288256296395 15.6469
41.766711153007456 15.5475
41.79054163368412 15.5688
41.814560204340054 15.5324
41.838394485526365 15.5671
41.86223066180303 15.4982
41.88625497706819 15.5012
41.910094962812 15.5038
41.93393684811168 15.4544
41.95778063445365 15.3859
41.981812625263366 15.3566
42.00566023303407 15.3493
42.029509746323676 15.3253
42.05336116662236 15.2538
42.077400857069705 15.3015
42.10125611078846 15.2765
42.12511327600405 15.152999999999999
42.14897235421036 15.1896
42.173019768448455 15.1205
42.19688269209613 15.1067
42.22074753323349 15.1583
42.24461429335818 15.1132
42.268669455600495 15.1088
42.292540073217886 15.0611
42.31641261433284 15.0049
42.34028708044675 15.0065
42.36435001496739 15.0006
42.38822835065557 14.9951
42.41210861586426 14.9536
42.4359908120986 14.9306
42.46006154323262 14.9026
42.48394762115317 14.833
42.507835634632315 14.8688
42.531912233047436 14.8515
42.55580413732265 14.7478
42.579697981698 14.7451
42.60359376768525 14.6993
42.62767820545945 14.6673
42.65157789440821 14.6554
42.67547952952185 14.6825
42.699383112316 14.5901
42.72347541395347 14.5711
42.74738291190531 14.4962
42.771292362102166 14.5235
42.795203766063516 14.5006
42.819303956130405 14.4506
42.843219287476536 14.5212
42.86713657716324 14.422
42.89105582671383 14.3828
42.91516392983864 14.3795
42.939087119032166 14.3386
42.963012272677304 14.3413
42.98693939230129 14.3044
43.01105543317513 14.3
43.034986504731386 14.312000000000001
43.05891954686589 14.2863
43.08285456110972 14.2366
43.10697856448665 14.2051
43.130917542983475 14.152000000000001
43.15485849820081 14.0881
43.17880143167367 14.1255
43.20293342237094 14.0451
43.226880332449 14.0115
43.25082922540554 14.1047
43.27496722682525 14.0663
43.29892010567796 13.9866
43.32287497204102 13.9437
43.34683182745632 13.9932
43.370977859791836 13.9197
43.39493871351105 13.9131
43.41890156092628 13.8799
43.44286640358341 13.8502
43.46702049182749 13.8064
43.49098934522816 13.8227
43.51496019852649 13.7937
43.5389330532723 13.783
43.56309522248204 13.7653
43.58707210044314 13.7058
43.61105098451946 13.6791
43.63503187626491 13.6264
43.659202151562134 13.6536
43.68318707902681 13.6438
43.70717401884041 13.6125
43.731162972560874 13.5715
43.75534137913236 13.5335
43.779334381108384 13.4659
43.803329401683186 13.4713
43.82732644241872 13.4768
43.8515130055166 13.4969
43.87551410707659 13.4129
43.89951723350145 13.3862
43.923709934595614 13.392999999999999
43.94771713129917 13.3637
43.97172635758096 13.3508
43.99573761501002 13.3024
44.0199385169922 13.3225
44.04395385732619 13.2898
44.067971233533086 13.2496
44.09199064718605 13.2699
44.11619977548961 13.2156
44.14022328470671 13.1573
44.16424883610785 13.1777
44.18827643127035 13.1492
44.21249381139513 13.14
44.236525514814076 13.1068
44.26055926674478 13.0971
44.28459506876863 13.0714
44.3088207262813 13.0378
44.33286064928722 13.0205
44.35690262714919 12.9704
44.38094666145278 12.8809
44.4051806219871 12.9389
44.42922879003185 12.933
44.45327901929361 12.8548
44.477331311362136 12.8829
44.501573600619416 12.7836
44.525630039221795 12.7726
44.54968854541895 12.7881
44.573937102200176 12.7606
44.5979997645541 12.7737
44.622064499300315 12.7707
44.64613130803592 12.6996
44.67038823869318 12.6801
44.69445921643748 12.6392
44.718532272981385 12.6355
44.742607409926194 12.6364
44.76687274034801 12.5937
44.79095205918753 12.527000000000001
44.81503346325094 12.5284
44.839116954143876 12.5106
44.86339071028742 12.5028
44.88747839599524 12.4529
44.91156817336837 12.4279
44.93566004401666 12.4358
44.959942251908146 12.3992
44.984038330325966 12.3973
45.00813650686762 12.3395
45.03223678314731 12.3298
45.05652746888232 12.3067
45.08063196592069 12.2759
45.104738567558705 12.2788
45.128847275414856 12.254000000000001
45.15314646515866 12.2007
45.17725940679741 12.2192
45.20137445952892 12.1957
45.22568004865265 12.1494
45.24979934496396 12.1428
45.27392075725247 12.1261
45.29804428714431 12.109000000000002
45.322358426247604 12.1333
45.346486212804315 12.0767
45.370616121861914 12.0633
45.39474815505086 12.0256
45.41907087049246 11.9726
45.4432071734666 11.9431
45.46734560548283 11.9441
45.49148616817604 11.9505
45.51581748638564 11.947000000000001
45.5399623320197 11.9126
45.56410931325473 11.8421
45.58825843173002 11.8515
45.61259837920865 11.8362
45.636751793816 11.8005
45.66090735060093 11.772
45.68506505120716 11.7304
45.7094136545275 11.720999999999998
45.73357566449271 11.6834
45.75773982322992 11.7351
45.78190613238733 11.7103
45.806263418194064 11.6283
45.83043404997326 11.6279
45.85460683713677 11.6155
45.87897065658495 11.5979
45.90314777634752 11.5763
45.92732705646868 11.5857
45.9515084986045 11.5694
45.97588104735473 11.4958
46.00006683541565 11.4841
46.02425479047904 11.4759
46.04844491420549 11.4758
46.0728262191024 11.4263
46.09702070211635 11.3885
46.12121735879483 11.4013
46.14541619080294 11.397
46.169806278764455 11.3466
46.194009483459034 11.3984
46.21821486849841 11.280999999999999
46.24242243555223 11.27
46.266821333570014 11.2459
46.29103328674601 11.2586
46.31524742696538 11.2657
46.33946375590237 11.2334
46.36387149104216 11.2375
46.38809221957392 11.1445
46.41231514186606 11.1317
46.436540259597464 11.1455
46.460956858999374 11.1292
46.48518638983522 11.1008
46.509418121166966 11.1027
46.533652054678114 11.0587
46.55807754555709 11.0299
46.58231590571962 11.0146
46.60655647313217 10.9843
46.630988654873654 10.955
46.655233659129024 10.9392
46.67948087571551 10.9139
46.70373030632484 10.9235
46.72817142736393 10.9029
46.752425308428684 10.8535
46.77668140861147 10.860999999999999
46.80093972960865 10.7957
46.82538981736788 10.798
46.849652602470904 10.7702
46.87391761349769 10.7408
46.8981848521493 10.7352
46.9226439341274 10.7072
46.946915650573224 10.6622
46.97118959976749 10.7034
46.99546578341598 10.6792
47.019933887188216 10.6538
47.04421456235744 10.5983
47.06849747711879 10.5922
47.09278263318286 10.552999999999999
47.11725978640143 10.5746
47.14154944775105 10.5447
47.165841355555656 10.5591
47.1901355115306 10.5155
47.214621741924994 10.5351
47.23892041698887 10.4764
47.26322134538975 10.4364
47.28771440635075 10.4102
47.31201986422527 10.4086
47.33632758061436 10.3792
47.360637557241866 10.3739
47.38513974410611 10.3797
47.40945426407847 10.3361
47.43377104948137 10.2792
47.45809010204344 10.2406
47.48260144275502 10.2754
47.506925052572285 10.2887
47.53125093475548 10.2324
47.55557909103813 10.2164
47.58009961361992 10.2031
47.60443234110732 10.1634
47.62876734791564 10.1655
47.65310463578333 10.1416
47.6776343683373 10.133
47.7019762413987 10.0703
47.72632040075572 10.0737
47.75066684815169 10.0545
47.77520581885936 10.0412
47.799556865477655 10.0144
47.823910205386 10.0117
47.84826584033272 9.97965
47.87281407745551 9.95932
47.89717432569297 9.99571
47.92153687423484 9.9733
47.94609208429692 9.920010000000001
47.97045925671401 9.8921
47.99482873471275 9.88313
48.01920052005013 9.84576
48.04376504619224 9.82656
48.068141469543484 9.85773
48.09252020552573 9.80133
48.11690125590099 9.808769999999999
48.1414751266064 9.75335
48.16586082917454 9.7568
48.19024885144316 9.73462
48.2146391951793 9.73269
48.239222439012764 9.72921
48.26361744916137 9.68745
48.28801478610016 9.66891
48.31241445160131 9.67036
48.337007097209366 9.66581
48.36141144338331 9.64364
48.38581812345755 9.60258
48.41022713920929 9.608189999999999
48.434829215320704 9.574489999999999
48.45924292604658 9.57296
48.48365897780325 9.558489999999999
48.50807737237308 9.53589
48.532688907799276 9.54187
48.55711201168574 9.49347
48.581537463754074 9.49193
48.60615611725119 9.47467
48.63058628942721 9.47294
48.65501881516546 9.45513
48.6794536962573 9.43613
48.70408185970339 9.43206
48.72852147531801 9.37497
48.75296345168211 9.33922
48.77740779059232 9.36464
48.80204549302823 9.33769
48.82649458091802 9.302719999999999
48.85094603676547 9.2757
48.87539986237231 9.27408
48.90004713292306 9.244580000000001
48.92450572200832 9.21004
48.94896668628025 9.20042
48.97343002754588 9.20885
48.99808689542115 9.20071
49.02255501470614 9.181460000000001
49.04702551642794 9.14976
49.0714984023988 9.10944
49.096164896893235 9.07172
49.120642575466796 9.08445
49.145122643748394 9.076130000000001
49.16960510355558 9.05781
49.19428125404938 9.04045
49.2187685210852 9.03942
49.243258185121555 9.02465
49.26794160167084 8.97915
49.2924360839405 8.98358
49.31693296869764 8.97379
49.34143225776915 8.96926
49.36612538195438 8.93962
49.39062950396021 8.9123
49.41513603578346 8.90569
49.4396449792564 8.85634
49.46434784069503 8.87473
49.488861631846454 8.86443
49.513377840166804 8.82569
49.537896467493745 8.77074
49.56260909589029 8.78325
49.587132585683285 8.74831
49.611658500018365 8.7134
49.636186840738596 8.71907
49.66090926588511 8.706610000000001
49.685442483902584 8.74526
49.70997813385706 8.68862
49.734516217597076 8.67983
49.75924846937352 8.7026
49.7837914452858 8.66872
49.80833686055187 8.62808
49.83288471702571 8.61711
49.85762682540054 8.59644
49.882179588965734 8.56658
49.9067347993235 8.526819999999999
49.93129245833333 8.57275
49.95604445336378 8.54298
49.98060703442832 8.50948
50.005172069746266 8.47033
50.02993150438364 8.48204
50.05450147301533 8.51083
50.07907390151433 8.48231
50.10364879174981 8.41966
50.12841816587289 8.412519999999999
50.1529980044635 8.423689999999999
50.17758031042124 8.37572
50.20216508562089 8.36397
50.22694442953363 8.34752
50.25153416817468 8.3558
50.27612638170508 8.34437
50.300721072005196 8.2942
50.325510416102105 8.29075
50.350110084975064 8.27524
50.37471223628208 8.22892
50.39931687190919 8.20748
50.424116246675766 8.248460000000001
50.44872587605249 8.19613
50.47333799543065 8.17914
50.49795260670191 8.16118
50.52276204271512 8.14607
50.54738166295838 8.11868
50.57200378079314 8.118139999999999
50.596628398116835 8.09009
50.62144792604559 8.08226
50.646077567609396 8.0867
50.670709714377715 8.07272
50.69553683636198 8.05609
50.72017401885922 8.0604
50.7448137122895 8.0264
50.76945591856022 7.982360000000001
50.79429318636823 8.00755
50.818940443716784 8.019680000000001
50.84359021965163 7.96403
50.868242516085964 7.964510000000001
50.893089960641895 7.91575
50.917747323549435 7.89865
50.94240721271973 7.903860000000001
50.96706963007175 7.893389999999999
50.99192728239342 7.89231
51.01659478166073 7.89165
51.04126481489051 7.85155
51.06593738400761 7.8197600000000005
51.090805275207074 7.804880000000001
51.11548294172845 7.79758
51.14016314993547 7.77993
51.164845901758845 7.77734
51.18972406304274 7.747160000000001
51.21441192780656 7.74407
51.23910234200271 7.72725
51.2637953075678 7.67513
51.288683770237945 7.65879
51.31338186432707 7.680339999999999
51.33808251561888 7.67335
51.362978729967345 7.6025100000000005
51.387684521509755 7.62012
51.41239287610203 7.60425
51.437103795691165 7.576560000000001
51.46201036644977 7.586360000000001
51.486726441956634 7.55019
51.51144508832545 7.555560000000001
51.536166307509156 7.52009
51.56108326624387 7.5161
51.58580965706056 7.51583
51.61053862657523 7.49292
51.635270176746864 7.4760800000000005
51.66019755512065 7.47205
51.68493429268881 7.45482
51.70967361681515 7.40689
51.73441552946465 7.374219999999999
51.759353359237934 7.3677
51.7841004750961 7.3891
51.80885018539685 7.376689999999999
51.833602492111254 7.34887
51.8585508051424 7.31867
51.883308330926425 7.27502
51.90806845906181 7.273060000000001
51.932831191525715 7.2589
51.95779001977161 7.230739999999999
51.98255798721516 7.20356
52.00732856494335 7.16257
52.03229530577543 7.22575
52.057071130455945 7.21117
52.081849571391054 7.16025
52.106630630568695 7.189960000000001
52.13160794279417 7.12918
52.15639426492067 7.136989999999999
52.18118321127822 7.13925
52.205974783860896 7.095689999999999
52.23096269971011 7.08258
52.255759551287994 7.054310000000001
52.280559035098186 7.0684
52.30536115314103 7.05485
52.33035970494467 7.04823
52.35516711807904 7.051069999999999
52.37997717147198 7.00202
52.40478986713005 6.98481
52.42979908731974 6.97438
52.454617094216 6.933089999999999
52.47943774942214 6.9166300000000005
52.50426105495102 6.934010000000001
52.529280976059844 6.90597
52.554109609024096 6.9271
52.57894089837482 6.8837
52.60377484613117 6.863630000000001
52.62880550079408 6.91661
52.65364479223379 6.84778
52.67848674816189 6.827210000000001
52.70352547971946 6.84898
52.72837279155837 6.806889999999999
52.753222773982785 6.7679100000000005
52.778075429022984 6.74361
52.80312495150885 6.79175
52.827982978797436 6.74638
52.85284368481815 6.73336
52.87770707160767 6.70569
52.90276741793998 6.72923
52.92763619336701 6.708539999999999
52.952507655698504 6.6637699999999995
52.977381806977576 6.66315
53.00245301017842 6.68205
53.02733256653592 6.64458
53.052214817996074 6.62145
53.077099766608484 6.62132
53.102181859804446 6.57762
53.127072229988265 6.60723
53.15196530349892 6.621110000000001
53.17686108239249 6.57644
53.20195409881522 6.52095
53.22685531582556 6.54358
53.25175924441303 6.51776
53.27666588664027 6.48646
53.30176985962693 6.46865
53.3266819565689 6.4571
53.35159677336455 6.431769999999999
53.376514312083096 6.44733
53.40162927507703 6.464230000000001
53.42655228516116 6.41814
53.45147802340193 6.40833
53.47660125628886 6.39665
53.50153247842639 6.33485
53.52646643496923 6.35429
53.55140312799818 6.3522099999999995
53.576537409691696 6.35189
53.60147960336152 6.29576
53.626424539786164 6.26816
53.65137222105307 6.26975
53.67651758529126 6.29331
53.70147078399681 6.2697400000000005
53.72642673383343 6.23144
53.75138543689533 6.25064
53.776541917524526 6.27349
53.801506154876755 6.21561
53.826473151763246 6.21079
53.851442910284916 6.17278
53.87661054126026 6.18358
53.9015858509782 6.14816
53.92656392866066 6.1420699999999995
53.95154477641532 6.1101
53.976723591801296 6.13221
54.00171000771266 6.0911800000000005
54.02669920004598 6.07799
54.051691170915745 6.08239
54.076881204886796 6.0830400000000004
54.101878760928514 6.06765
54.12687910187696 6.03099
54.152077577768296 6.0117199999999995
54.1770835166946 5.95815
54.20209224691339 5.93192
54.22710377055121 5.9373
54.25231352511594 5.88606
54.27733066384342 5.83835
54.30235060239643 5.87827
54.32737334290836 5.90489
54.35259441062629 5.85594
54.377622783395324 5.8408
54.40265396455061 5.87885
54.42768795623251 5.82512
54.45292037169559 5.78003
54.477960012857906 5.7628900000000005
54.50300247099511 5.7393
54.52804774825457 5.76025
54.55329154616743 5.70284
54.57834249018678 5.66252
54.6033962597977 5.63358
54.6284528571545 5.63793
54.653708072335164 5.5836
54.67877035378786 5.57003
54.70383546947698 5.55169
54.72890342156389 5.51521
54.7541700889442 5.48796
54.77924374251975 5.46077
54.8043202390049 5.458419999999999
54.82959552413022 5.43699
54.8546777351945 5.46485
54.87976279569621 5.40278
54.90485070780914 5.439369999999999
54.930137506558005 5.39091
54.95523115074295 5.37965
54.98032765308844 5.3360199999999995
55.005427015775496 5.31227
55.03072536339621 5.30502
55.05583047570572 5.27877
55.080938454927676 5.2611
55.10604930325027 5.25256
55.131359235107396 5.2708900000000005
55.15647585066083 5.1902
55.181595341907496 5.11466
55.20671771104285 5.07806
55.232039262617704 5.05509
55.25716741665048 5.058330000000001
55.28229845518636 5.02209
55.30743238042802 4.99127
55.33276558731939 4.9848
55.357905315183636 4.9824
55.383047936390035 4.9515400000000005
55.40819345314859 4.9795
55.433538351073295 4.92818
55.458689688238415 4.8913
55.483843927614096 4.82672
55.509197623043605 4.86114
55.53435769621134 4.836880000000001
55.55952067826466 4.81146
55.5846865714265 4.778169999999999
55.61005202069737 4.77541
55.63522376553902 4.7955
55.66039842818645 4.74605
55.68557601087004 4.78028
55.7109532500271 4.6339
55.73613670233794 4.67494
