TT I
1.2716486653135266 7.30397
1.2939594142134223 6.904
1.3162702121660406 6.2245800000000004
1.3385810600174564 6.8861
1.3608919586137629 6.90153
1.383202908801069 6.27535
1.405513911425503 5.90771
1.4278249673332093 6.663289999999999
1.4501343378461518 5.7453199999999995
1.4724455028545926 6.383430000000001
1.4947567236847858 6.43633
1.517068001182951 6.03378
1.5393793361953272 6.13298
1.5616907295681737 6.054880000000001
1.5840021821477681 5.10515
1.60631369478041 4.70478
1.6286252683124185 4.89299
1.6509369035901333 5.335459999999999
1.6732468618895553 4.92134
1.695558623192809 5.15929
1.7178704487808514 4.91301
1.7401823395001077 4.56799
1.7625012545597203 4.60004
1.7848028405262486 4.70343
1.8071218901122095 4.74679
1.8294236121921872 4.81303
1.8517427996910911 4.79058
1.8740620574440425 5.02166
1.8963639900671978 4.833080000000001
1.9186833908139995 4.96282
1.9409854680117449 4.88439
1.9633050151394713 5.00858
1.9856246367570705 4.8529800000000005
2.0079269371922672 4.56297
2.03024671027244 4.25536
2.0525491637446027 4.12571
2.074869091674931 4.21876
2.097171701569106 4.50807
2.1194917877373847 4.60992
2.141811954326636 4.57599
2.164114805233074 4.90479
2.186435135143035 5.49209
2.208738150935709 10.1302
2.231058647554722 19.2598
2.2533792288321184 14.458
2.275682498336085 7.94747
2.298003251406138 5.86867
2.3203066942619714 5.66774
2.3426276225136022 5.150469999999999
2.3649486396617507 5.31316
2.387252348930071 5.542590000000001
2.4095735463442893 5.73656
2.4318774374315884 6.29814
2.4541988185014043 6.9962100000000005
2.476502894794693 6.295780000000001
2.498824462909887 6.296819999999999
2.521146125856138 5.95783
2.5434504863470337 7.48193
2.5657723414244717 7.156439999999999
2.588076895590662 7.51708
2.610398946189713 8.31373
2.6327210958598384 8.84741
2.6550259469304716 7.8513
2.6773482972090137 7.99642
2.6996533504259 8.21621
2.7219759047039602 8.39771
2.744298562293959 7.7199800000000005
2.7666039251246595 7.39991
2.7889267918020164 7.71507
2.8112323652516555 8.17897
2.833555444408179 8.093630000000001
2.8558786311183852 8.153780000000001
2.8781845268938557 8.67329
2.9005079311721484 8.62815
2.9228140460410397 8.84565
2.9451376712799635 8.73132
2.967444008632326 9.02186
2.9897678582247247 9.57281
3.0120918213106695 9.99807
3.0343984987899373 10.799000000000001
3.0567226913198637 11.1005
3.079029599759726 11.445
3.101354025127254 12.3675
3.123678568232338 13.079
3.145985829517914 12.9797
3.16831061055229 13.6025
3.1906181112775593 14.2128
3.212943133635653 14.9801
3.2352682779763207 14.6184
3.2575761442691227 14.9077
3.2799015350264273 15.5232
3.302209649240067 16.1392
3.3245352898092655 16.7698
3.3468436553365257 17.0169
3.369169549113219 17.4089
3.3914955708171384 18.444000000000003
3.413804319727358 18.7506
3.4361305997334863 18.9716
3.4584396084414553 19.3439
3.4807661501462652 19.717
3.503092824025881 20.4032
3.5254022288463154 20.7658
3.5477291695206588 21.7166
3.5700388426251948 22.3719
3.5923660534916446 23.1562
3.6146934007816114 32.602
3.637003482731501 64.0745
3.6593311053109985 69.1877
3.681641464033634 43.6905
3.7039693653009733 27.8547
3.726297407241705 25.2982
3.7486081875460804 25.0995
3.7709365132734978 25.6466
3.793247578841633 26.4865
3.8155761917550093 26.4471
3.8378875459837216 26.8331
3.8602164494827234 27.7278
3.882545499606844 28.1769
3.9048572932539183 28.5439
3.9271866390645718 29.0021
3.9494987298666713 29.9895
3.971828374764527 29.636999999999997
3.9941581705403255 30.6034
4.016470713506008 31.4537
4.038800813471445 31.7168
4.061113662089144 32.7995
4.0834440696459176 33.1452
4.105774632334751 33.5089
4.128087945865126 34.0637
4.150418821249301 34.8894
4.172732448931298 35.8374
4.195063640413578 37.5144
4.2173775856475215 39.9935
4.239709096631102 59.9076
4.262040768704612 159.9
4.284355196706267 209.445
4.306687193387355 138.511
4.329001947444346 64.9854
4.35133427213731 45.7472
4.373666762177566 43.6631
4.395982011761091 43.4034
4.418314834921175 44.8332
4.44063041906622 50.6137
4.4629635787515625 56.3256
4.4852969080429785 56.8057
4.5076130004776225 52.5383
4.529946671403969 52.1282
4.552263106909177 53.9398
4.574597122877047 53.0185
4.596931312711224 52.9237
4.619248269273446 53.426
4.6415828092605835 54.5284
4.663900117405352 55.2707
4.686235010953232 56.7243
4.708552674085913 58.1899
4.730887924602802 60.2179
4.753223354952695 61.5021
4.775541557023902 63.7494
4.797877349456786 65.6424
4.820195915032126 67.0151
4.842532072957498 67.3383
4.864868414979744 70.1826
4.88718753227192 72.5492
4.909524244902505 74.5978
4.931843734218147 76.0758
4.954180820867835 77.7127
4.976518095879839 81.1804
4.998838149695359 83.5906
5.021175803844231 87.3837
5.043496238205739 90.1241
5.065834274903528 94.7763
5.088172504230693 100.00399999999999
5.1104935158799565 106.459
5.132832132875765 126.17
5.155153533596801 160.313
5.1774925416746225 201.89
5.199814334878411 410.44
5.2221537374521505 1103.64
5.244493338631803 3001.01
5.266815727034316 7824.38
5.289155727832427 12671.5
5.311478517248165 8721.59
5.333818921080011 2687.97
5.356159527788849 524.668
5.3784829252032536 189.328
5.400823940070432 146.53799999999998
5.423147747031976 128.232
5.445489173474152 118.955
5.467830807066149 114.77600000000001
5.490155234831516 112.086
5.512497285125229 108.18799999999999
5.534822130975162 104.853
5.557164601388673 102.39299999999999
5.579489868738879 99.3097
5.601832762690846 98.4711
5.6241758697774475 96.7844
5.646501775867269 96.1479
5.668845311622074 95.3626
5.691171647754637 94.3445
5.713515615597765 93.0719
5.735859800852677 92.5219
5.758186788542988 92.8549
5.780531411018185 94.4268
5.802858837297399 93.1782
5.825203900414495 93.3322
5.8475491852224 95.3725
5.869877275883075 95.3424
5.892223006467101 94.6912
5.914551544266608 95.3161
5.936897724049891 98.36
5.959244129804903 105.23700000000001
5.981573344815301 130.737
6.0039202049061 240.053
6.026249875609095 502.185
6.04859719346037 1021.26
6.070927323278297 2273.78
6.093275102315365 4561.61
6.115623113320588 5142.66
6.137953938319995 3115.21
6.160302415650845 911.105
6.182633708324452 216.017
6.2049826554078376 110.68700000000001
6.227331838745022 91.1689
6.249663839443684 83.7487
6.27201349767565 81.0269
6.294345974611799 83.7837
6.316696111167083 89.785
6.339046488263839 86.0979
6.361379686074702 75.9379
6.383730546639482 70.7597
6.406064229255215 68.9548
6.428415576718203 68.9443
6.450749747566656 67.79
6.47310158535871 66.3554
6.495453669698332 65.0823
6.517788579421056 64.1866
6.540141159237969 63.0282
6.562476565766648 62.9029
6.5848296444934045 62.5533
6.607182974060425 62.3398
6.6295191323281015 62.1531
6.651872965955752 63.9113
6.6742096296068985 79.5449
6.6965639707294615 106.831
6.71891856698715 107.42299999999999
6.741255995248479 80.4455
6.763611104154477 64.1561
6.785949046381137 59.6597
6.808304671371482 58.1859
6.8306605557940046 58.5616
6.852999275508618 57.8513
6.875355681171544 57.2397
6.897694923437771 56.7177
6.92005185377892 56.5342
6.9423916220322655 56.1401
6.964749080490181 55.4502
6.987106804399774 55.4173
7.009447368180821 55.5073
7.031805625367033 55.4595
7.054146723727803 55.1055
7.076505517631004 54.8232
7.098864581288365 54.765
7.121206488070854 54.8974
7.143566093607822 54.9534
7.165908543567245 55.586000000000006
7.188268694426048 55.0928
7.2106291193438095 54.8743
7.232972390625943 55.6272
7.255333366030969 63.6461
7.277677189091925 95.7396
7.300038718428332 123.94200000000001
7.322400526130865 108.948
7.344745183422596 75.4431
7.367107550224791 58.5079
7.389452767901992 55.2567
7.411815697249891 54.6565
7.434161478756298 53.8025
7.456524974096713 53.8967
7.478888753837185 53.7251
7.501235387657368 54.1833
7.523599738562711 54.4564
7.545946944825532 54.5872
7.568311870344528 55.1717
7.5906770845765665 55.0083
7.613025156078678 55.6525
7.635390950099687 56.7716
7.657739602662809 56.163999999999994
7.680105979923558 55.8173
7.702472650212829 56.1037
7.724822180948224 55.9357
7.747189439655568 55.7155
7.769539560075357 55.648999999999994
7.791907410653562 56.3702
7.81425812420825 56.1017
7.836626570110925 56.3322
7.858995315087906 57.2091
7.881346924933401 57.4769
7.903716270417482 58.2129
7.926068482028405 58.1036
7.948438431475253 59.0739
7.9708086843180235 59.3052
7.993161805171116 60.231
8.015532667162402 60.6495
8.037886398416653 61.8419
8.060257873014221 62.2013
8.082629655331942 62.7978
8.104984308787587 63.6755
8.127356708900503 66.2011
8.149711981398308 70.6723
8.172085002766314 72.4935
8.194458336181368 70.5706
8.216814543847752 69.3151
8.23918850371002 69.1671
8.26154533906492 70.2473
8.283919928836452 71.7434
8.306277395339652 72.2808
8.328652618483376 74.0669
8.351028159736202 76.0559
8.373386579575245 78.2291
8.395762759396959 80.4748
8.418121819038275 84.2244
8.440498640894003 94.0305
8.462875785192262 106.53
8.485235811156207 128.993
8.507613602688501 182.50599999999997
8.529974277114228 272.86
8.552352719347912 408.965
8.574731488360351 681.554
8.59709314210385 1230.52
8.619472567021075 1930.05
8.64183487789147 2252.67
8.664214962183097 1772.09
8.686577933647762 882.544
8.708958680784317 347.12300000000005
8.731339760774953 154.746
8.753703729764451 108.384
8.77608547780821 98.3085
8.798450116065078 94.7004
8.820832535634787 92.1493
8.843215292401656 91.6941
8.865580941199045 90.6181
8.887964374703538 89.3179
8.910330701447199 89.652
8.932714815164482 90.9002
8.955099270424924 89.4795
8.977466620733543 87.044
8.999851761421976 85.0929
9.022219798361645 83.8936
9.04460562795561 83.4462
9.066991803441677 83.561
9.089360876979615 83.0819
9.111747746589993 83.0576
9.13411751544971 82.3782
9.156505082664324 81.8168
9.178875550323522 82.0113
9.20126381862328 82.1598
9.223652438908596 82.4408
9.246023961427412 82.6168
9.26841328802173 82.0919
9.290785518039224 82.3476
9.313175554425882 83.1344
9.335565947154315 83.6147
9.357939245086508 84.1345
9.380330352834827 83.9794
9.40270436697103 83.9158
9.425096193225055 83.8007
9.447488380180165 84.4325
9.469863475295412 84.2944
9.492256385987508 84.4954
9.514632206018318 85.1624
9.537025843935714 85.2486
9.559402392368193 86.316
9.581796761000229 88.1933
9.604191496441521 89.1575
9.626569144158516 91.7832
9.648964615551032 95.1031
9.671343000390081 95.5737
9.693739211225699 94.5048
9.716135793237463 93.0307
9.738515290448102 92.9437
9.760912617143402 94.0702
9.783292860202891 95.8115
9.805690935076182 97.5375
9.828089385495742 98.5302
9.850470754023561 99.9521
9.872869957865444 105.594
9.89525208097539 115.65299999999999
9.917652041736662 125.361
9.940052382417589 130.50799999999998
9.962435644102392 150.815
9.984836746950979 195.46099999999998
10.007220771957746 258.974
10.029622640473708 364.06699999999995
10.052007432299963 545.105
10.074410069984072 844.5989999999999
10.096813093716005 1294.99
10.119199042482517 1789.77
10.141602840636468 1983.98
10.163989564971628 1562.17
10.186394141051062 839.2260000000001
10.208799107559706 365.18800000000005
10.231187001965623 175.299
10.253592751657669 122.587
10.275981430388155 111.76799999999999
10.298387966769793 110.29299999999999
10.320794897965431 110.969
10.343184759907361 110.044
10.36559248305461 106.264
10.387983138083852 104.774
10.410391656691655 110.538
10.432800574501677 123.458
10.455192425893369 140.02100000000002
10.47760214443012 164.926
10.499994797678786 212.43200000000002
10.522405320453982 291.444
10.54479877906917 410.075
10.567210109595656 512.08
10.5896218454736 571.5219999999999
10.612016518879773 496.967
10.634429067781074 332.154
10.656824555333241 192.576
10.679237920773568 120.24700000000001
10.701651695961992 94.8454
10.724048411481384 88.8202
10.746463008485165 86.1418
10.768860546937125 84.6309
10.791275969274796 83.0866
10.81369180576079 81.6148
10.836090585366925 80.7228
10.858507252467449 79.6691
10.88090686379991 78.6482
10.903324365036394 78.4304
10.925724811614439 77.8539
10.948143150509463 78.6284
10.970561909719066 77.7321
10.992963615930844 76.3853
11.015383218085756 74.3642
11.037785768347074 72.8674
11.06020621697282 72.5615
11.082627090322113 72.0205
11.105030913430326 71.4335
11.12745263854165 71.6077
11.149857314510728 73.5045
11.172279894912576 76.8877
11.194702904450653 76.8247
11.217108866490921 74.2379
11.239532736615194 71.5492
11.26193956033512 69.9507
11.284364294577085 68.9663
11.306789462371718 67.6544
11.329197585398376 66.7039
11.351623622610898 66.5532
11.37403261614354 65.7874
11.396459526308487 65.8079
11.418869393879497 65.3658
11.441297180532617 64.89699999999999
11.463725406927658 64.3936
11.486136592353875 64.4705
11.508565700543707 64.9151
11.530977768845315 65.4282
11.553407762368774 66.0671
11.575838200059769 65.6612
11.598251599479612 64.4657
11.620682927815501 63.4316
11.64309721895548 63.4673
11.665529441478206 62.792
11.687962112597958 62.7004
11.710377748130886 62.636
11.732811318753434 62.6376
11.755227854859067 62.8591
11.777662328529495 62.5909
11.800079768750786 62.5662
11.822515149015453 62.4763
11.844950984084935 62.8802
11.867369787303163 62.2188
11.889806534289491 62.1843
11.912226250487029 62.5904
11.934663912939751 62.8194
11.9571020346363 62.9146
11.979523127133968 62.9565
12.001962169624331 64.0086
12.024384183972964 65.4774
12.046824150809913 68.9924
12.069264581333726 73.7269
12.091687985297767 79.5306
12.11412934550045 88.8812
12.136553680195208 105.014
12.158995973632788 127.89399999999999
12.181438735204349 156.02100000000002
12.20386447284199 185.06
12.226308172985636 204.919
12.24873485024193 197.643
12.271179492516982 157.8
12.293607112949127 121.31700000000001
12.316052700916226 89.4712
12.338498763250042 74.8202
12.360927805303868 68.008
12.383374818673879 65.3776
12.405804812803074 64.1342
12.428252780773262 63.972
12.45070122756722 64.2201
12.473132656675375 64.0151
12.49558206341869 64.4799
12.518014453510101 64.1512
12.540464823770117 64.4743
12.562915677315177 64.6477
12.58534951575545 65.0168
12.607801338171472 65.9584
12.630236146511358 69.6571
12.652688941369085 72.6903
12.675124723177234 72.8928
12.697578494048786 71.1327
12.720032754458185 68.6235
12.742470003354093 67.5369
12.764925245138771 67.3859
12.787363476431278 67.8565
12.809819703166806 68.0937
12.83227642391173 68.8925
12.854716135692716 69.5973
12.877173846755147 70.8839
12.899614549869717 70.9142
12.9220732548287 71.8887
12.94453245827299 72.1857
12.966974655289818 73.2552
12.989434858002571 73.9684
13.011878055298721 74.688
13.034339260862497 75.9361
13.056800969391883 77.2786
13.079245674017244 80.048
13.101708390774869 83.4843
13.12415410463411 91.9192
13.146617833206086 103.176
13.169064559883248 114.32799999999999
13.191529303857127 129.191
13.213994557076367 152.518
13.236442809902437 191.41400000000002
13.258909083908291 247.38099999999997
13.28135835851934 315.145
13.30382565690295 378.645
13.326293469022952 427.723
13.348744283242008 418.626
13.371213125129904 342.805
13.39366497011003 251.835
13.416134845360597 164.979
13.438605238843131 120.334
13.46105863690397 106.613
13.483530069144786 107.87299999999999
13.505984506951902 113.21799999999999
13.528456981549432 122.62
13.550929978879088 137.842
13.573385983253365 162.944
13.595860028340867 202.857
13.618317081455832 255.47099999999998
13.64079217790333 312.703
13.663250283359057 351.663
13.685726434770173 368.705
13.708203115221277 323.905
13.730662806148091 246.524
13.75314054697177 171.18
13.775601299246777 119.81200000000001
13.798080104050406 93.649
13.820559442405358 84.2377
13.843021793671388 81.292
13.865502201420897 79.7608
13.887965623051947 79.4554
13.910447103807167 78.319
13.932929122629764 76.7128
13.955394156785959 76.5511
13.977877254034569 75.7599
14.000343367582113 74.8759
14.022827546871707 74.0219
14.045294743423524 73.4863
14.06778000837062 73.1618
14.090265817715476 72.6104
14.112734645763819 72.2787
14.13522154619454 71.928
14.157691466286913 71.8813
14.180179461423874 71.7873
14.202668005486178 71.2028
14.22513957064374 70.3587
14.247629214846473 69.9696
14.270101881097517 69.992
14.29259262906496 69.9687
14.315083930490205 70.5842
14.337558255389705 70.7287
14.360050666019726 70.4708
14.382526101071944 69.8981
14.405019624534942 69.1755
14.427513705993134 68.7379
14.449990813291825 68.6266
14.47248601302899 68.6653
14.49496423954951 69.0178
14.517460561197822 68.9613
14.539939910570322 68.6302
14.562437357763558 68.8902
14.58493536931253 69.7543
14.607416409993311 70.2114
14.62991555254159 70.9591
14.652397725157423 70.9776
14.674898002342799 70.6347
14.697398848433282 70.625
14.719882725991326 71.5278
14.74238471217934 73.2344
14.764869730765593 76.8883
14.787372860692983 80.19
14.809876564079925 84.5935
14.83236330125751 90.2905
14.854868153850365 99.3803
14.877356041159485 113.213
14.899862046604186 132.523
14.922351087688757 158.368
14.944858249632887 187.571
14.967365991421232 211.75599999999997
14.989856770231246 227.50400000000002
15.012365673994204 216.537
15.03485761569738 183.417
15.05736768508665 141.004
15.07987833888692 109.361
15.102372032001655 87.3263
15.124883856909658 75.4308
15.14737872204565 71.5982
15.169891721717274 70.3658
15.192405310371893 70.0531
15.214901940621196 69.9648
15.237416709527137 69.8175
15.259914520936249 69.8355
15.282430473753607 68.89399999999999
15.304947020131227 68.0691
15.327446610371178 67.5996
15.349964346154254 66.877
15.372465126703139 66.7379
15.394984055556009 66.3416
15.417486030076159 66.1861
15.44000615566487 65.88600000000001
15.462526881230803 65.8227
15.485030653812652 65.9204
15.507552581617434 65.5952
15.530057557334603 65.7312
15.55258069104857 65.8105
15.575104429329837 65.8579
15.597611216864632 65.7622
15.620136166564563 66.2301
15.6426441664095 67.8416
15.665170331202765 70.4451
15.687697105158826 73.5591
15.710206930593545 76.6403
15.732734925158933 80.8886
15.755245972089478 87.1715
15.77777519094324 96.3328
15.800287463046663 110.49
15.822817909869592 129.863
15.84534897229804 151.196
15.867863089299354 175.03099999999998
15.890395385222186 191.102
15.912910736597423 195.34
15.935444269699861 177.37599999999998
15.957978423016485 150.46200000000002
15.980495633101265 116.919
16.003031029129367 91.7403
16.02554948280019 74.3743
16.048086125229432 66.4942
16.070623392487107 64.2589
16.09314371869582 63.2093
16.11568223789321 62.5594
16.13820381691126 61.6742
16.160743591742527 60.8761
16.183283996022084 60.2257
16.205807461423195 59.3201
16.228349126881973 58.7588
16.25087385432698 58.7497
16.27341678466365 57.7951
16.29594277784926 57.8507
16.31848697676433 57.7875
16.341031811604868 57.7883
16.36355971058487 58.1857
16.3861058195587 57.8242
16.40863499352978 56.8199
16.431182380342005 56.4489
16.453730407713202 55.8954
16.476261501364792 55.5836
16.498810812136167 55.205
16.52134319004079 55.3798
16.54389378792203 55.342
16.566445031001553 55.0984
16.588979342490088 54.9562
16.61153187824822 54.8824
16.634067483263312 54.653999999999996
16.656621315414416 54.6666
16.679175797408888 54.3322
16.701713349928728 54.3451
16.72426913389191 54.6514
16.74680798922351 54.7249
16.76936507887444 54.6488
16.791905240734874 54.7306
16.814463639794468 54.4302
16.837022695210294 54.6055
16.859564824093756 54.8766
16.882125194503903 55.22
16.904668639217885 55.5967
16.927230328348003 55.8411
16.949792678493612 56.0176
16.972338104193863 55.5853
16.994901778652235 55.3977
17.017448529496576 55.4478
17.040013531998152 55.9331
17.06257920018044 56.6431
17.0851279459922 57.3518
17.107694947817667 58.0486
17.130245028099072 58.6783
17.15281336730298 59.9885
17.17536478578733 62.0255
17.19793446610687 64.1351
17.220504818648422 67.1547
17.243058251703697 70.4882
17.265629950971032 75.0122
17.288184731571736 79.1688
17.310757781306908 83.2099
17.33333150794385 84.0611
17.355888317140174 81.6289
17.37846339986244 75.5333
17.401021565958885 69.8113
17.42359800851343 64.4447
17.44617513265564 61.2838
17.468735341390783 59.7034
17.491261035594565 58.9158
17.51396340099364 58.7684
17.536490463869136 59.1191
17.559018209820174 58.9546
17.58154663977963 59.025
17.604251766089718 59.2906
17.626781572227713 59.4784
17.64931206518155 59.5851
17.671843245885103 60.1451
17.69455114821572 60.2643
17.717083712612634 60.393
17.739616967569667 60.6392
17.762150914021706 61.4435
17.78486160749854 61.2329
17.807396945166804 62.2261
17.829932977143503 63.4106
17.85246970436452 65.1716
17.875183204129467 66.9549
17.897721330097664 68.8782
17.920260154126645 71.2462
17.942799677153296 74.2383
17.9655159983646 78.251
17.988056927677544 83.7952
18.010598558807683 91.9339
18.033140892692916 101.792
18.05586005052525 112.693
18.07840379824407 124.53399999999999
18.10094825154059 135.067
18.12366954819864 142.673
18.146215420998306 140.366
18.16876200220057 131.036
18.191309292745153 115.315
18.214033452627167 101.037
18.236582170236648 90.1707
18.259131600016456 86.0586
18.281681742907335 86.7709
18.304408781233683 91.3082
18.32696035875955 96.432
18.349512652227624 100.859
18.372065662579683 104.897
18.394795594587553 105.695
18.41735004715306 101.50299999999999
18.43990521943684 94.4189
18.46246111238171 84.3725
18.485193953325208 75.5125
18.507751296070428 68.8863
18.530309362314178 65.134
18.552868153000343 63.0339
18.57560391815056 61.9136
18.59816416623245 61.5223
18.620725141597372 61.0673
18.643286845190268 60.8196
18.666025549835414 60.1197
18.688588718427933 59.693999999999996
18.711152618092243 59.3853
18.73389353884365 58.9956
18.75645890921984 58.7724
18.77902501351406 58.4185
18.801591852673102 58.3501
18.824335739722738 57.8037
18.846904057212626 57.8361
18.8694731124168 57.6258
18.89204290628315 57.4406
18.914789774966803 57.3169
18.937361054791623 57.0941
18.959933076131318 56.8815
18.982505839934877 56.7962
19.00525570560582 56.9537
19.027829963004184 56.7638
19.05040496572238 56.867
19.072980714710468 56.858000000000004
19.095733592739563 57.0211
19.11831084296757 57.3449
19.140888842324735 57.6766
19.16346759176222 57.855
19.18622349753803 58.5526
19.208803755869358 59.4673
19.231384767143577 60.5815
19.253966532312948 62.2498
19.276725481241822 64.4399
19.29930876296784 67.032
19.3218928014549 70.2926
19.34465404436217 73.373
19.36723960516257 75.6864
19.389825925592426 76.3076
19.412413006605938 75.0113
19.43517731967805 71.164
19.457765930683355 66.5051
19.48035530514408 61.9872
19.50294544401556 58.4962
19.525712842708348 55.9684
19.54830451925909 54.7721
19.570896963095727 53.9808
19.593490175174704 53.6626
19.616260674962184 53.6341
19.638855432416964 53.4579
19.661450960992624 53.5779
19.68404726164677 53.4788
19.706820878021247 53.1557
19.729418731756834 53.4941
19.752017360452857 53.1671
19.77461676506804 53.3902
19.797393513540218 53.6083
19.819994478951667 54.0412
19.84259622316767 54.4386
19.8651987471481 54.8112
19.887978643247177 55.0335
19.91058273574792 55.48
19.933187610901943 56.1733
19.955969879466828 57.6213
19.97857632894404 59.0883
20.00118356396599 60.7584
20.023791585494575 62.8873
20.046577028914875 65.46600000000001
20.069186632506966 67.6422
20.091797025500632 69.3489
20.114408208858933 70.0247
20.137196842715273 69.4024
20.159809615886765 67.6095
20.18242318232135 65.2043
20.20503754298326 63.1795
20.227829382875154 62.1742
20.250445341109344 62.0048
20.27306209647285 62.7085
20.29567964993108 64.0291
20.31847471147704 64.9417
20.34109387027612 65.1831
20.363713830075454 64.7537
20.386334591841646 63.1044
20.409132890679302 60.6183
20.431755265564437 57.512
20.454378445325528 54.8345
20.477002430930366 52.9436
20.499803982716553 51.757
20.522429589228004 51.1332
20.54505600449589 50.6983
20.567683229489194 50.6053
20.590488049900088 50.309
20.61311690359731 50.0384
20.63574656993626 50.0756
20.658553853717297 49.5658
20.681185154618298 49.4342
20.703817271080066 49.2045
20.72645020407368 48.8214
20.749260783967177 48.8495
20.771895359337133 48.9209
20.794530754161617 48.849
20.817166969412938 48.7133
20.83998086114876 48.8865
20.86261872660049 48.6287
20.885257415405402 48.6512
20.90789692853701 48.5216
20.930714147864748 48.5154
20.953355319030678 48.5963
20.97599731745334 48.7518
20.99864014410749 48.3818
21.021460706796564 48.4293
21.044105199328826 48.7208
21.06675052302631 48.8759
21.089396678865015 49.0741
21.112220600704806 49.4545
21.134868430275347 49.7864
21.15751709492456 50.1503
21.180166595629693 50.3562
21.202993892429635 50.9041
21.22564507473034 51.0518
21.24829709602816 51.1721
21.27112693608965 51.4115
21.293780644891275 51.3938
21.316435195634053 50.70399999999999
21.339090589297417 49.8845
21.361923832041875 49.2941
21.384580921090404 48.7407
21.407238856007325 48.2846
21.429897637773326 48.2073
21.45273429906592 48.3027
21.475394784108598 48.242
21.498056118951983 48.2891
21.520718304578022 48.4197
21.543558400304388 48.7327
21.566222297108816 48.9789
21.58888704765135 49.147
21.61155265291521 49.5278
21.63439619898156 49.9449
21.657063523335786 50.0106
21.67973170537063 50.5996
21.7024007460706 50.8673
21.72524775840385 51.5716
21.747918526116475 52.7929
21.770590155457388 54.0847
21.79326264741238 55.7613
21.816113141960237 57.7699
21.838787368860547 59.5809
21.861462461341976 61.4251
21.884315579735777 63.2377
21.90699241312273 64.1667
21.92967011506078 64.9461
21.95234868653799 64.1932
21.9752053151131 62.83
21.997885635446785 60.8863
22.020566828293532 58.9167
22.04324889464272 57.321000000000005
22.066109049404666 56.4063
22.088792872571794 55.9737
22.111477572219204 56.0996
22.1341631493376 55.9401
22.157026846313123 55.8537
22.179714188221507 54.9673
22.202402410582668 53.8802
22.22509151438863 52.375
22.24795876962584 50.8798
22.270649646204486 50.2011
22.293341407213727 49.49
22.316034053646906 49.2953
22.338904883215342 48.8885
22.36159931041458 48.9508
22.38429462602756 48.7766
22.40699083104897 48.5544
22.429865251039757 48.6486
22.452563244831367 48.7789
22.47526213102522 48.7148
22.49813925616515 48.6752
22.520839937143307 48.4906
22.543541513520587 48.519
22.56624398629403 48.4973
22.589124730075895 48.5533
22.611829005656723 48.6655
22.63453418063466 48.6822
22.657240256008077 48.9462
22.680124634582935 48.9883
22.70283252079775 49.1567
22.725541310413075 49.5446
22.74825100442868 49.7767
22.771139033969575 50.192
22.79385054687155 50.4534
22.81656296718292 51.1759
22.83927629590484 52.1345
22.862167992606945 53.2187
22.88488314827121 54.275
22.907599215359284 55.3214
22.93031619487366 56.4121
22.953211574954405 57.1625
22.975930389478226 57.9687
22.998650119445763 58.0185
23.02137076586092 57.157
23.044269845560063 55.7398
23.06699233506288 53.961999999999996
23.089715744034912 52.2752
23.112617610931565 50.786
23.135342869061212 49.7224
23.158069049684816 48.9601
23.1807961538087 48.5234
23.20370174880544 48.5884
23.226430710184808 48.7287
23.249160598093425 48.7986
23.271891413539002 48.9682
23.294800752937697 48.8737
23.31753343374794 48.9615
23.340267045128353 49.0234
23.36300158808808 49.4594
23.38591468821339 49.8554
23.408651104658304 50.2986
23.431388455719986 50.9421
23.454126742409 51.7996
23.4770436196085 52.9744
23.499783787914662 54.1018
23.522524894889884 55.0052
23.54526694154616 56.0982
23.56818761219047 57.2729
23.59093154860734 57.9314
23.613676427751283 57.8394
23.636422250635754 56.6686
23.659346731118656 55.0272
23.68209445191868 53.1103
23.704843119509587 50.8556
23.72759273490623 49.0869
23.750521041644767 47.798
23.77327256312355 46.9915
23.796025035462787 46.3891
23.818956224555475 45.986999999999995
23.841710609113413 45.8388
23.86446594758979 45.5903
23.887222241002014 45.4129
23.910157285144578 45.0513
23.932915498962537 45.1735
23.955674670778713 44.96
23.978434801611975 44.765
24.001373717286125 44.6451
24.024135776723917 44.59
24.046898798245582 44.25
24.06966278287146 44.2047
24.092605586582614 44.2399
24.115371508023642 44.0725
24.1381383956401 43.8443
24.16090625045381 43.7763
24.183852958731244 43.7237
24.206622758582608 43.7205
24.229393528706886 43.4128
24.252165270127392 43.4784
24.27511589952438 43.5785
24.297889594216997 43.2188
24.32066426328598 43.0614
24.34343990775613 43.1165
24.36639447485003 43.0564
24.38917208083877 43.0647
24.41195066531332 43.0219
24.43490819850244 43.0689
24.457688750692377 42.931000000000004
24.48047028445616 42.8525
24.503252800821233 42.9803
24.526214300784112 42.8898
24.548998793132213 42.9897
24.57178427117417 42.8631
24.59457073593893 42.8602
24.617536219319863 42.9247
24.64032466834748 42.9846
24.663114107195035 42.7478
24.685904536893013 42.4565
24.708874020360852 42.2148
24.731666442613744 42.2512
24.754459858818787 42.2774
24.777254270007962 42.211999999999996
24.80022777025625 42.1589
24.82302418230472 42.1234
24.845821592443674 42.1385
24.86862000170663 42.1508
24.891597535453727 41.9675
24.914397953892728 42.2701
24.93719937456671 42.1268
24.96000179851076 42.2627
24.98298338249997 42.3784
25.00578782394922 42.6545
25.028593271784167 42.8006
25.05157790644186 43.28
25.07438537804115 43.3904
25.097193859145293 43.604
25.120003350792075 43.7363
25.142992065061257 44.1415
25.165803588823465 44.2751
25.18861612625217 44.6067
25.211429678386736 44.5881
25.234422489079968 44.6818
25.257238081693636 44.7215
25.280054692141732 44.8945
25.3028723214652 44.8054
25.325869245420463 44.8682
25.348688923599397 44.9192
25.371509623787006 44.8407
25.394331347025812 44.5458
25.41733240110666 44.0098
25.440156181590016 43.3591
25.46298098826268 42.8087
25.48580682216873 42.1823
25.50881202326435 41.7568
25.53163992281684 41.4573
25.55446885274561 41.1005
25.577298814096377 40.7644
25.600308179121807 40.6695
25.623140214533745 40.803000000000004
25.64597328451537 40.6407
25.66898578564376 40.3265
25.691820936010206 40.4259
25.714657124097695 40.3751
25.737494350954734 40.499
25.760511045684957 40.3901
25.783350361364224 40.4781
25.806190718969255 40.4947
25.82903211955018 40.5886
25.852053024868923 40.6524
25.874896522722523 40.6969
25.897741066713106 40.5884
25.920586657892454 40.6597
25.943611790812668 40.8104
25.966459487728237 40.9219
25.989308234998564 41.0223
26.01215803367705 41.3233
26.03518741123814 41.4181
26.05803932412957 41.5133
26.080892291600094 41.4668
26.10374631470478 41.5802
26.12677995397268 41.6765
26.14963609978026 41.5039
26.172493304397875 41.1901
26.19535156888223 41.0077
26.218389486949604 40.6715
26.241249882640123 40.3445
26.26411134137826 40.2652
26.28715248187403 40.148
26.31001607820869 40.0065
26.3328807407756 39.8528
26.35574647063438 40.1118
26.37879191991473 40.0078
26.401659795896734 40.0274
26.424528742360263 40.2179
26.447398760366614 40.3324
26.470448535598294 40.4447
26.49332070826805 40.7619
26.516193955675355 41.0217
26.53906827888316 41.2275
26.562122397260108 41.3227
26.584998883685063 41.7009
26.607876449110325 41.9983
26.63075509460056 42.0303
26.65381357334404 42.1834
26.67669439061878 42.1542
26.699576291163382 42.0195
26.722459276044212 41.9647
26.745522132402975 41.6601
26.768407297649354 41.2884
26.791293550442003 41.0081
26.814180891848974 40.7859
26.837248143099337 40.4569
26.860137673466657 40.2543
26.88302829566349 40.1111
26.90592001075963 39.9961
26.92899167420566 39.7903
26.951885586870763 39.4247
26.974780595655517 39.1803
26.99785558178161 39.1371
27.020752794605112 39.014
27.043651106772522 38.7854
27.06655051935668 38.7594
27.089629948036183 38.6589
27.112531573292053 38.6695
27.135434302194138 38.7476
27.158338135817015 38.3906
27.181422024430987 38.4923
27.204328079372566 38.3088
27.22723524226965 38.5369
27.250143514198573 38.5882
27.273231880156334 38.4321
27.296142382065014 38.3253
27.319053996245536 38.2231
27.341966723775965 38.398
27.365059584515222 38.4534
27.38797455070062 38.4704
27.410890633481237 38.3703
27.433807833936918 38.5436
27.456905206923906 38.5241
27.47982465472398 38.4458
27.502745223449743 38.4508
27.525666914182825 38.614000000000004
27.548768816912457 38.5806
27.571692763693633 38.4296
27.59461783573812 38.3692
27.617723149491244 38.1646
27.640650484125285 38.1207
27.66357894728264 38.0988
27.686508540048052 37.9986
27.709618414237887 37.8344
27.732550278321757 37.7952
27.755483275279115 37.6718
27.778417406196485 37.8634
27.801531858397514 37.9745
27.824468269376716 37.8554
27.847405817586786 37.7647
27.870344504116094 38.0612
27.893463551932008 38.1121
27.916404527281053 38.3654
27.93934664422563 38.35
27.962289903855886 38.3709
27.98541356491974 38.6759
28.00835912214229 38.7679
28.03130582533231 38.9908
28.054253675581805 39.1623
28.077381967556104 38.8883
28.100332124185126 38.9709
28.123283431160893 38.8677
28.146235889577238 38.7567
28.169368830154156 38.5013
28.192323603752033 38.4484
28.215279532083304 38.0268
28.238415973016764 37.7868
28.261374223145094 37.7557
28.284333631303806 37.5632
28.307294198589954 37.434
28.330435319167677 36.9999
28.353398217078915 36.724000000000004
28.376362277420153 36.6175
28.39932750129032 36.4346
28.422473319286713 36.3312
28.44544088262495 36.3217
28.468409612800283 36.2909
28.491379510913497 36.0136
28.51453004413313 35.8997
28.53750229057244 35.8705
28.56047570826344 35.7391
28.583450298308804 35.8254
28.606605564586562 35.6747
28.629582511831156 35.6491
28.65256063474956 35.5236
28.675539934446338 35.611999999999995
28.698699951647605 35.5245
28.72168161743193 35.3362
28.74466446331978 35.4902
28.767648490417624 35.3595
28.790813276438353 35.3612
28.813799678527303 35.3338
28.836787265157085 35.3899
28.859955641890075 35.4118
28.882945610203045 35.3535
28.905936766392035 35.1861
28.928929111566863 35.2465
28.952102288520145 35.1514
28.975097024308607 35.1469
28.998092952423807 35.0146
29.021090073977508 34.9155
29.04426806913204 34.8941
29.067267590245258 34.5988
29.090268308143695 34.5727
29.11327022394099 34.5187
29.13645305530891 34.4169
29.159457379627167 34.3429
29.18246290519685 34.2956
29.20546963313352 34.2475
29.22865731875826 34.2743
29.25166646419296 34.4644
29.27467681535305 34.2204
29.29768837335608 34.2206
29.320880931312562 34.2465
29.34389491580634 34.3196
29.366910110507334 34.0621
29.38992651653503 34.2384
29.41312396492981 34.2367
29.436142806456754 34.0509
29.45916286268059 33.9717
29.48236399319994 33.8099
29.50538649169417 33.7199
29.528410208259935 33.6149
29.55143514402014 33.3313
29.574641196749695 33.3262
29.597668583816574 33.2003
29.6206971934585 32.9958
29.64372702680042 33.0863
29.666938019934474 33.0228
29.689970313635285 32.8679
29.713003834422636 32.8541
29.73603858342347 32.7468
29.759254535188578 32.7664
29.78229175361658 32.8095
29.80533020365064 32.7462
29.82836988641968 32.8254
29.85159081507472 32.6907
29.874632976355343 32.6171
29.89767637376955 32.6456
29.920721008448314 32.5226
29.9439469322847 32.5891
29.96699405457564 32.4586
29.9900424175358 32.4794
30.013092022298157 32.4301
30.03632295963995 32.37
30.059375061131373 32.4045
30.08242840783577 32.4175
30.105483000888153 32.5336
30.128718970092244 32.3753
30.151776069006917 32.2918
30.17483441768648 32.302
30.198074175317235 32.2538
30.221135036724256 32.3581
30.24419715131772 32.2325
30.267260520236203 32.1771
30.290505341942243 32.2295
30.313571232750228 32.3058
30.336638381310948 32.239000000000004
30.35970678876503 32.2111
30.38295669299435 32.1642
30.40602763151657 32.1574
30.429099832366074 32.0039
30.452173296685572 32.0417
30.47542830191959 32.0036
30.498504306502497 32.0666
30.521581577995562 32.0492
30.544660117543582 32.0353
30.56792024229725 32.1562
30.59100133132069 32.1422
30.614083691845494 32.0632
30.637167325018545 32.2569
30.660432587840603 32.2128
30.683518779717886 32.1788
30.70660624769615 32.2591
30.729694992924372 32.2517
30.75296541239743 32.0977
30.77605672557558 32.022
30.799149319462742 31.9987
30.8224236211637 31.8724
30.845518789950724 31.8082
30.868615242910597 31.7865
30.891712981195973 31.6426
30.91499247215866 31.4966
30.938092794619365 31.5027
30.96119440587579 31.3835
30.984297307082752 31.3086
31.00758200598383 31.2436
31.030687500658694 31.2006
31.053794288760695 31.08
31.076902371446767 31.0624
31.100192296997445 31.0303
31.12330298246119 30.9696
31.14641496599209 30.8871
31.169528248749216 30.8915
31.19282341969534 30.8558
31.215939314557186 30.978
31.239056512134788 30.9309
31.262175013589378 30.7636
31.28547544871168 30.725
31.30859657161541 30.7829
31.331719001892175 30.7319
31.35484274070538 30.864
31.378148458819545 30.9551
31.401274828443725 30.8209
31.424402510106933 30.8768
31.447712205419993 31.0044
31.470842524931633 30.7941
31.493974159989783 30.7538
31.51710711176168 30.7758
31.54042212308802 30.7316
31.563557722100917 30.7519
31.586694641341655 30.6244
31.609832881979628 30.4826
31.63315322823208 30.4606
31.656294125521327 30.252
31.679436347728515 30.1423
31.70257989602529 30.2002
31.725905596152327 30.2157
31.74905181052835 30.0334
31.772199354521323 30.1019
31.79534822930507 30.1024
31.818679302290967 30.1318
31.84183085259981 30.0838
31.864983737233473 30.1424
31.88813795736804 30.2082
31.911474422233013 30.0688
31.934631327356435 30.1238
31.9577895715215 30.0495
31.980949155906522 29.9508
32.004291031706956 29.963
32.027453310562606 29.8404
32.05061693318573 29.6654
32.07396288236386 29.7436
32.09712920658542 29.7458
32.12029687812702 29.607
32.14346589817093 29.5214
32.166817291729984 29.5593
32.18998902288583 29.2906
32.21316210610336 29.2679
32.23633654256711 29.1766
32.259693399663725 29.1427
32.282870556771144 29.1136
32.30604907069099 29.1403
32.329228942610065 29.1231
32.35259128243769 28.9326
32.375773884550505 28.8223
32.398957848235646 28.8906
32.422143174682176 28.8306
32.445511016471215 28.7481
32.468699082679954 28.7086
32.49188851523011 28.6885
32.51507931531304 28.5616
32.538452678331 28.5821
32.56164622776311 28.4717
32.58484114831493 28.3654
32.60803744118015 28.4203
32.631416344731896 28.4699
32.654615396551876 28.3912
32.67781582427913 28.3055
32.701198898634416 28.2364
32.72440209253756 28.1816
32.747606665947124 28.1807
32.77081262006088 28.0742
32.79420126883317 28.1059
32.81740999876112 28.1323
32.840620112999424 28.0962
32.86383161274818 27.9982
32.88722585534586 28.0417
32.91044014056596 28.0394
32.933655814909734 27.9667
32.95687287957963 27.9461
32.98027273544904 27.8339
33.00349259526636 27.8312
33.026713849030116 27.9101
33.04993649794511 27.7771
33.073341986570746 27.7518
33.09656744032826 27.7972
33.11979429286444 27.8277
33.14302254538647 27.7654
33.166433686291185 27.7061
33.18966475336992 27.6756
33.212897224069096 27.5423
33.23613109959831 27.4985
33.259547912343415 27.5427
33.2827846121627 27.5232
33.306022720453775 27.4467
33.32926223842861 27.3721
33.352684742614166 27.3548
33.37592709463173 27.3554
33.399170859982064 27.2652
33.422597648419426 27.1757
33.44584425514446 27.0371
33.46909227885668 27.0455
33.4923417207723 26.9359
33.51577423505344 26.9042
33.539026528130385 26.854
33.56228024307245 26.8929
33.585535381098246 26.7577
33.60897364093058 26.7049
33.63223163992385 26.7457
33.6554910656699 26.6395
33.678751919389796 26.6417
33.702195944520106 26.5431
33.72545966903325 26.6198
33.74872482519663 26.5204
33.771991414233746 26.5391
33.79544122444841 26.4041
33.81871069412428 26.3805
33.84198160035767 26.4495
33.86525394437455 26.3766
33.88870955949969 26.2709
33.911984794020626 26.2275
33.93526147001624 26.1618
33.958539588715006 26.2042
33.98200102861669 26.1218
34.0052820477047 26.0513
34.02856451319451 25.9908
34.05203033759056 25.8536
34.07531571090147 25.9072
34.09860253431845 25.9778
34.121890809074316 25.932
34.145362493118924 25.8374
34.16865368561615 25.7678
34.191946333164054 25.6873
34.21524043699793 25.7345
34.23871800066799 25.7006
34.26201503218366 25.6373
34.28531352370466 25.5638
34.30861347646881 25.5076
34.33209693978188 25.4614
34.3553998301885 25.4934
34.378704185565205 25.3558
34.402010007152356 25.3603
34.42549939016683 25.2885
34.44880815937748 25.2446
34.472118398533134 25.1851
34.49543010887669 25.1119
34.51892543169198 25.151999999999997
34.54224009966052 25.1924
34.56555624255917 25.0839
34.58887386163339 24.9596
34.61237514439016 24.9348
34.6356957311114 24.9435
34.65901779775809 24.8759
34.68252356662995 24.8726
34.705848608458616 24.7912
34.72917513396849 24.7811
34.75250314440949 24.7178
34.77601490857862 24.6789
34.799345904259795 24.6514
34.82267838863559 24.6527
34.846012362958525 24.6057
34.869530142679984 24.6069
34.89286711232212 24.4809
34.91620557568269 24.49
34.93954553401677 24.5147
34.9630693495876 24.4239
34.986412313340814 24.4971
35.00975677584668 24.4656
35.033102738362956 24.4139
35.05663261012228 24.2761
35.0799815881786 24.2714
35.10333207003229 24.1986
35.12668405694369 24.2393
35.150220005273056 24.2196
35.17357501786656 24.2247
35.19693153931268 24.1099
35.220289570874385 24.0431
35.24383161619786 24.0055
35.267192683604904 24.1431
35.290555264930376 24.1468
35.314101899412165 24.1259
35.33746752422433 24.0076
35.36083466676374 24.0729
35.38420332829803 24.0185
35.407756095629054 23.9514
35.43112781085063 23.9273
35.45450104888391 23.9323
35.477875810999194 23.8459
35.50143473172161 23.7747
35.52481255774625 23.7867
35.54819191167777 23.6149
35.57157279478914 23.7491
35.595137889488406 23.6929
35.61852184675279 23.679000000000002
35.641907337029984 23.6235
35.665294361595684 23.6151
35.68886565090076 23.6146
35.7122557598848 23.4538
35.73564740699838 23.4405
35.759040593519934 23.3749
35.78261809810353 23.3905
35.80601437933051 23.3469
35.829412203814705 23.2922
35.85281157283719 23.2121
35.876395313415884 23.2166
35.8997977874528 23.1983
35.92320180988546 23.2046
35.946790244133936 23.0809
35.97019737933222 23.0844
35.993606066789866 22.9856
36.01701630779276 23.0192
36.04061101440684 23.005
36.06402437852291 23.0851
36.08743930005611 22.956
36.1108557802951 22.875999999999998
36.13445678011326 22.8845
36.15787639383515 22.8958
36.18129757014299 22.8186
36.20472031032821 22.7424
36.22832762423364 22.629
36.25175350829375 22.7275
36.275180960119776 22.6333
36.298609981005924 22.6053
36.32222362992669 22.5837
36.34565580510207 22.5767
36.36908955323448 22.5173
36.39252487562093 22.3875
36.416144880530226 22.4001
36.43958336764275 22.3347
36.463023432914625 22.4551
36.486465077645676 22.3358
36.51009145956204 22.392
36.53353627947859 22.3264
36.55698268276811 22.2999
36.58043067073321 22.243000000000002
36.60406345072071 22.1657
36.62751462435344 22.1927
36.65096738658405 22.1624
36.67460498210655 22.0879
36.69806093788647 22.0941
36.72151848619297 21.9811
36.744977628333636 21.9377
36.76862165890998 21.884
36.79208400512205 21.8649
36.81554794910557 21.8976
36.83901349217101 21.8274
36.862663978991606 21.7074
36.88613273667352 21.764
36.90960309738324 21.7575
36.933075062434064 21.6416
36.95673202673572 21.6343
36.98020721697122 21.6244
37.003684015502365 21.5927
37.027162423645365 21.6065
37.050825886711465 21.5758
37.07430753063053 21.4519
37.09779078812467 21.4308
37.121275660513014 21.475
37.144945643673694 21.4509
37.16843376245278 21.3846
37.19192350009803 21.3888
37.215414857931435 21.3626
37.239091382563885 21.259
37.262585997426164 21.1671
37.28608223645736 21.2107
37.309763684451696 21.1087
37.33326318851098 21.0594
37.356764320726555 21.1043
37.380267082425526 21.0646
37.40395510942588 21.0791
37.42746114683234 21.0103
37.45096881771841 20.9262
37.474478123414166 20.9399
37.49817275092816 20.965
37.52168534303452 20.9518
37.54519957395567 20.8567
37.568715445024665 20.8005
37.592416694607714 20.7238
37.61593586281424 20.7372
37.63945667518264 20.7389
37.66297913304891 20.704
37.68668702630454 20.662
37.710212792059274 20.5532
37.733740207334854 20.5339
37.757269273470364 20.4529
37.780983832050374 20.5356
37.80451621684926 20.4522
37.82805025654007 20.4639
37.851585952464795 20.3816
37.8753071980695 20.3355
37.89884622345676 20.2429
37.92238690911902 20.2825
37.94611318753442 20.3477
37.969657210779765 20.2242
37.99320289834801 20.2215
38.016750251586465 20.1735
38.04048325513017 20.1656
38.06403395679343 20.0607
38.087586328183946 20.0495
38.11114037065203 20.0024
38.13488012115898 20.0316
38.1584375229181 19.9467
38.181996599821 19.9203
38.205557353221124 19.9643
38.229303872575656 19.8936
38.2528679961576 19.8658
38.27643380031219 19.7829
38.30000128639589 19.7522
38.32375459653193 19.7218
38.34732546371299 19.7834
38.37089801690786 19.7036
38.39447225747609 19.6445
38.418232380377425 19.6976
38.441810012983396 19.6174
38.46538933705673 19.6
38.488970353960084 19.549
38.51273731166058 19.5217
38.536321731567014 19.4604
38.55990784840681 19.4906
38.58367995004091 19.3962
38.60726947812959 19.3769
38.63086070726198 19.4499
38.654453638806274 19.4002
38.678232613930824 19.2463
38.70182896773327 19.1903
38.72542702806741 19.2498
38.7490267963045 19.2494
38.77281266709232 19.225
38.79641586862214 19.1311
38.8200207821842 19.0613
38.843627409152944 19.1173
38.86742019782782 19.046
38.891030269149255 19.0405
38.914642058016156 18.9905
38.938255565806124 18.948
38.96205529464307 18.9345
38.98567225787121 18.9102
39.00929094417078 18.8526
39.03291135492255 18.8707
39.05671804624804 18.9025
39.080341923549106 18.7944
39.103967529460334 18.7126
39.127594865365744 18.6871
39.15140854155791 18.6549
39.17503935514948 18.6349
39.19867190290282 18.6112
39.22249083587951 18.5689
39.24612686969409 18.5457
39.269764641845306 18.5939
39.293404153722804 18.5088
39.317230110864074 18.4506
39.34087311998506 18.4154
39.36451787301696 18.4307
39.388164371352595 18.3622
39.41199737518003 18.3663
39.43564738196752 18.3387
39.45929913825317 18.2821
39.48295264543308 18.2486
39.506792718520884 18.2286
39.530449745387216 18.199
39.55410852735203 18.2041
39.57776906581474 18.19
39.60161623079 18.1343
39.625280300200025 18.1214
39.64894613032202 18.0588
39.67261372255866 18.0527
39.6964680021016 18.0418
39.72013913657293 18.0703
39.74381203738292 17.9961
39.76748670593756 17.8885
39.79134812278169 17.9601
39.81502634488497 17.8865
39.83870633896685 17.86
39.862388106436654 17.8309
39.88625668336918 17.8167
39.90994201572829 17.8409
39.933629125719285 17.7528
39.957503091207826 17.7288
39.9811937746168 17.7484
40.00488623990914 17.6563
40.02858048850006 17.6009
40.05246165409549 17.5557
40.076159487492085 17.5345
40.099859108448875 17.5523
40.123560518384345 17.5126
40.1474489070226 17.4944
40.171153913178564 17.485
40.194860712584955 17.4317
40.2185693066637 17.4067
40.242464941335314 17.3409
40.26617714307655 17.363
40.289891143772046 17.3115
40.3136069448471 17.305
40.33750984859743 17.3105
40.3612292688043 17.271
40.3849504936829 17.2202
40.40867352466194 17.2487
40.43258372059144 17.1586
40.45631038219906 17.1551
40.48003885420956 17.0751
40.503769138055105 17.0623
40.52768664931955 17.0539
40.55142057531802 17.0427
40.57515631746428 17.002
40.599079334038514 16.9674
40.62281872700477 16.8949
40.64655994043941 16.8783
40.67030297578061 16.8938
40.69423334835778 16.8926
40.71798004609188 16.8242
40.74172857006355 16.7829
40.76547892171441 16.8461
40.7894166736039 16.7881
40.813170699248566 16.7266
40.83692655691388 16.7438
40.86068424804498 16.6791
40.884629402612525 16.6974
40.908390779366385 16.6339
40.932153993938 16.5955
40.95591904777605 16.557000000000002
40.979871628443995 16.5863
41.003640379561936 16.5502
41.02741097430883 16.5162
41.05118341413683 16.4634
41.075143444384416 16.4607
41.098919593177826 16.4621
41.1226975914255 16.3826
41.14647744058318 16.3563
41.170444943946755 16.2879
41.19422851378379 16.2869
41.218013938914645 16.2848
41.24198706625173 16.2289
41.26577622087193 16.2353
41.289567235177785 16.2007
41.31336011063129 16.1783
41.337340752422875 16.1352
41.361137369129835 16.108
41.38493585138705 16.1277
41.40873620066004 16.0464
41.43272438060107 16.0059
41.45652848292052 16.0051
41.48033445666918 15.9237
41.50414230331616 15.8878
41.528138045159764 15.9462
41.551949656675205 15.8457
41.575763145513235 15.8385
41.59957851314666 15.8529
41.62358184070442 15.8205
41.64740098505737 15.7527
41.6712220126409 15.7532
41.69504492493139 15.7402
41.71905586207357 15.6951
41.74288256296395 15.6834
41.766711153007456 15.6434
41.79054163368412 15.6427
41.814560204340054 15.6117
41.838394485526365 15.5518
41.86223066180303 15.5429
41.88625497706819 15.5443
41.910094962812 15.5162
41.93393684811168 15.4945
41.95778063445365 15.3845
41.981812625263366 15.362
42.00566023303407 15.3966
42.029509746323676 15.3705
42.05336116662236 15.3388
42.077400857069705 15.3604
42.10125611078846 15.2983
42.12511327600405 15.2729
42.14897235421036 15.2516
42.173019768448455 15.2095
42.19688269209613 15.1674
42.22074753323349 15.1815
42.24461429335818 15.1545
42.268669455600495 15.1162
42.292540073217886 15.0341
42.31641261433284 15.0117
42.34028708044675 15.0542
42.36435001496739 15.0212
42.38822835065557 15.0293
42.41210861586426 14.9436
42.4359908120986 14.8938
42.46006154323262 14.9485
42.48394762115317 14.8911
42.507835634632315 14.8589
42.531912233047436 14.7783
42.55580413732265 14.8247
42.579697981698 14.8167
42.60359376768525 14.7983
42.62767820545945 14.777999999999999
42.65157789440821 14.7367
42.67547952952185 14.6973
42.699383112316 14.6113
42.72347541395347 14.6025
42.74738291190531 14.6114
42.771292362102166 14.628
42.795203766063516 14.6053
42.819303956130405 14.5232
42.843219287476536 14.527999999999999
42.86713657716324 14.5074
42.89105582671383 14.4938
42.91516392983864 14.4659
42.939087119032166 14.4188
42.963012272677304 14.3984
42.98693939230129 14.3384
43.01105543317513 14.3058
43.034986504731386 14.3204
43.05891954686589 14.2855
43.08285456110972 14.2871
43.10697856448665 14.2134
43.130917542983475 14.1725
43.15485849820081 14.1926
43.17880143167367 14.1748
43.20293342237094 14.1079
43.226880332449 14.1236
43.25082922540554 14.1455
43.27496722682525 14.0899
43.29892010567796 14.0959
43.32287497204102 14.0383
43.34683182745632 13.9534
43.370977859791836 13.9678
43.39493871351105 13.9897
43.41890156092628 13.9453
43.44286640358341 13.9274
43.46702049182749 13.8882
43.49098934522816 13.8699
43.51496019852649 13.8549
43.5389330532723 13.7762
43.56309522248204 13.7135
43.58707210044314 13.7599
43.61105098451946 13.7031
43.63503187626491 13.7602
43.659202151562134 13.7005
43.68318707902681 13.7017
43.70717401884041 13.647
43.731162972560874 13.6002
43.75534137913236 13.6023
43.779334381108384 13.5631
43.803329401683186 13.5407
43.82732644241872 13.5184
43.8515130055166 13.4972
43.87551410707659 13.5024
43.89951723350145 13.4515
43.923709934595614 13.4008
43.94771713129917 13.4345
43.97172635758096 13.4126
43.99573761501002 13.347999999999999
44.0199385169922 13.3732
44.04395385732619 13.328
44.067971233533086 13.3406
44.09199064718605 13.2671
44.11619977548961 13.2527
44.14022328470671 13.1986
44.16424883610785 13.1929
44.18827643127035 13.1825
44.21249381139513 13.1752
44.236525514814076 13.1755
44.26055926674478 13.1299
44.28459506876863 13.0978
44.3088207262813 13.0312
44.33286064928722 13.0008
44.35690262714919 13.0035
44.38094666145278 12.9566
44.4051806219871 12.9872
44.42922879003185 12.934000000000001
44.45327901929361 12.9359
44.477331311362136 12.890999999999998
44.501573600619416 12.860999999999999
44.525630039221795 12.8488
44.54968854541895 12.8608
44.573937102200176 12.8041
44.5979997645541 12.8274
44.622064499300315 12.7794
44.64613130803592 12.7319
44.67038823869318 12.7479
44.69445921643748 12.6758
44.718532272981385 12.59
44.742607409926194 12.6701
44.76687274034801 12.658
44.79095205918753 12.5938
44.81503346325094 12.5744
44.839116954143876 12.5633
44.86339071028742 12.5488
44.88747839599524 12.4875
44.91156817336837 12.4768
44.93566004401666 12.4773
44.959942251908146 12.4677
44.984038330325966 12.4697
45.00813650686762 12.3968
45.03223678314731 12.4142
45.05652746888232 12.3591
45.08063196592069 12.3352
45.104738567558705 12.3326
45.128847275414856 12.299000000000001
45.15314646515866 12.2795
45.17725940679741 12.2313
45.20137445952892 12.2179
45.22568004865265 12.2296
45.24979934496396 12.2097
45.27392075725247 12.1164
45.29804428714431 12.1385
45.322358426247604 12.1395
45.346486212804315 12.106
45.370616121861914 12.095
45.39474815505086 12.0588
45.41907087049246 12.0278
45.4432071734666 12.0191
45.46734560548283 12.0482
45.49148616817604 11.9884
45.51581748638564 12.0023
45.5399623320197 11.9169
45.56410931325473 11.9063
45.58825843173002 11.9446
45.61259837920865 11.8924
45.636751793816 11.8589
45.66090735060093 11.7893
45.68506505120716 11.7998
45.7094136545275 11.7767
45.73357566449271 11.7737
45.75773982322992 11.7964
45.78190613238733 11.7487
45.806263418194064 11.6787
45.83043404997326 11.7118
45.85460683713677 11.6968
45.87897065658495 11.6491
45.90314777634752 11.6598
45.92732705646868 11.6212
45.9515084986045 11.5878
45.97588104735473 11.5827
46.00006683541565 11.5511
46.02425479047904 11.5388
46.04844491420549 11.511
46.0728262191024 11.4784
46.09702070211635 11.4457
46.12121735879483 11.4672
46.14541619080294 11.454
46.169806278764455 11.4358
46.194009483459034 11.4057
46.21821486849841 11.3763
46.24242243555223 11.3276
46.266821333570014 11.3175
46.29103328674601 11.2974
46.31524742696538 11.2924
46.33946375590237 11.2775
46.36387149104216 11.2576
46.38809221957392 11.2149
46.41231514186606 11.1811
46.436540259597464 11.1554
46.460956858999374 11.148
46.48518638983522 11.1456
46.509418121166966 11.1077
46.533652054678114 11.0786
46.55807754555709 11.0663
46.58231590571962 11.0846
46.60655647313217 11.0251
46.630988654873654 10.9698
46.655233659129024 10.9838
46.67948087571551 10.9956
46.70373030632484 10.9777
46.72817142736393 10.9548
46.752425308428684 10.9115
46.77668140861147 10.9317
46.80093972960865 10.8637
46.82538981736788 10.8029
46.849652602470904 10.7693
46.87391761349769 10.7971
46.8981848521493 10.7647
46.9226439341274 10.7581
46.946915650573224 10.7476
46.97118959976749 10.7451
46.99546578341598 10.7183
47.019933887188216 10.7009
47.04421456235744 10.7165
47.06849747711879 10.685
47.09278263318286 10.6069
47.11725978640143 10.6107
47.14154944775105 10.5611
47.165841355555656 10.5597
47.1901355115306 10.5366
47.214621741924994 10.5124
47.23892041698887 10.488
47.26322134538975 10.4679
47.28771440635075 10.4769
47.31201986422527 10.4805
47.33632758061436 10.4626
47.360637557241866 10.4332
47.38513974410611 10.3908
47.40945426407847 10.3467
47.43377104948137 10.3178
47.45809010204344 10.337
47.48260144275502 10.3117
47.506925052572285 10.2889
47.53125093475548 10.2413
47.55557909103813 10.2354
47.58009961361992 10.1919
47.60443234110732 10.1984
47.62876734791564 10.2262
47.65310463578333 10.1976
47.6776343683373 10.1961
47.7019762413987 10.1033
47.72632040075572 10.1169
47.75066684815169 10.0965
47.77520581885936 10.0926
47.799556865477655 10.0904
47.823910205386 10.0374
47.84826584033272 10.0341
47.87281407745551 9.97762
47.89717432569297 10.0302
47.92153687423484 9.99639
47.94609208429692 9.97434
47.97045925671401 9.937000000000001
47.99482873471275 9.895560000000001
48.01920052005013 9.90103
48.04376504619224 9.84746
48.068141469543484 9.89715
48.09252020552573 9.83127
48.11690125590099 9.83634
48.1414751266064 9.81327
48.16586082917454 9.80601
48.19024885144316 9.7827
48.2146391951793 9.763530000000001
48.239222439012764 9.77328
48.26361744916137 9.736419999999999
48.28801478610016 9.71765
48.31241445160131 9.694980000000001
48.337007097209366 9.663739999999999
48.36141144338331 9.69857
48.38581812345755 9.609960000000001
48.41022713920929 9.603060000000001
48.434829215320704 9.61275
48.45924292604658 9.61076
48.48365897780325 9.58752
48.50807737237308 9.53203
48.532688907799276 9.5034
48.55711201168574 9.4934
48.581537463754074 9.50997
48.60615611725119 9.52412
48.63058628942721 9.51065
48.65501881516546 9.480839999999999
48.6794536962573 9.46077
48.70408185970339 9.42549
48.72852147531801 9.39055
48.75296345168211 9.368910000000001
48.77740779059232 9.37245
48.80204549302823 9.38826
48.82649458091802 9.33963
48.85094603676547 9.31146
48.87539986237231 9.26165
48.90004713292306 9.2604
48.92450572200832 9.28505
48.94896668628025 9.24809
48.97343002754588 9.24607
48.99808689542115 9.217210000000001
49.02255501470614 9.20406
49.04702551642794 9.16536
49.0714984023988 9.13684
49.096164896893235 9.15855
49.120642575466796 9.13437
49.145122643748394 9.09328
49.16960510355558 9.07206
49.19428125404938 9.09558
49.2187685210852 9.08886
49.243258185121555 9.0677
49.26794160167084 9.02362
49.2924360839405 9.01914
49.31693296869764 8.983080000000001
49.34143225776915 8.932089999999999
49.36612538195438 8.901069999999999
49.39062950396021 8.91403
49.41513603578346 8.923169999999999
49.4396449792564 8.88822
49.46434784069503 8.86347
49.488861631846454 8.84452
49.513377840166804 8.85161
49.537896467493745 8.82426
49.56260909589029 8.8183
49.587132585683285 8.79079
49.611658500018365 8.789639999999999
49.636186840738596 8.745389999999999
49.66090926588511 8.76138
49.685442483902584 8.749410000000001
49.70997813385706 8.69033
49.734516217597076 8.71387
49.75924846937352 8.71625
49.7837914452858 8.64245
49.80833686055187 8.64817
49.83288471702571 8.63921
49.85762682540054 8.63477
49.882179588965734 8.59822
49.9067347993235 8.57531
49.93129245833333 8.569989999999999
49.95604445336378 8.569289999999999
49.98060703442832 8.52058
50.005172069746266 8.51562
50.02993150438364 8.491810000000001
50.05450147301533 8.48635
50.07907390151433 8.43879
50.10364879174981 8.45481
50.12841816587289 8.41337
50.1529980044635 8.42574
50.17758031042124 8.3589
50.20216508562089 8.387319999999999
50.22694442953363 8.34553
50.25153416817468 8.3338
50.27612638170508 8.33268
50.300721072005196 8.279010000000001
50.325510416102105 8.29995
50.350110084975064 8.278089999999999
50.37471223628208 8.28157
50.39931687190919 8.24818
50.424116246675766 8.201089999999999
50.44872587605249 8.23273
50.47333799543065 8.212489999999999
50.49795260670191 8.19442
50.52276204271512 8.196760000000001
50.54738166295838 8.17452
50.57200378079314 8.15322
50.596628398116835 8.14216
50.62144792604559 8.123389999999999
50.646077567609396 8.09332
50.670709714377715 8.0877
50.69553683636198 8.0535
50.72017401885922 8.0562
50.7448137122895 7.9938
50.76945591856022 8.012360000000001
50.79429318636823 7.96846
50.818940443716784 7.97048
50.84359021965163 7.9265300000000005
50.868242516085964 7.97525
50.893089960641895 7.91615
50.917747323549435 7.899369999999999
50.94240721271973 7.893389999999999
50.96706963007175 7.8566199999999995
50.99192728239342 7.870589999999999
51.01659478166073 7.86948
51.04126481489051 7.892739999999999
51.06593738400761 7.84518
51.090805275207074 7.7993
51.11548294172845 7.822019999999999
51.14016314993547 7.78538
51.164845901758845 7.76748
51.18972406304274 7.738639999999999
51.21441192780656 7.7427399999999995
51.23910234200271 7.72687
51.2637953075678 7.71063
51.288683770237945 7.68295
51.31338186432707 7.6665399999999995
51.33808251561888 7.66173
51.362978729967345 7.62973
51.387684521509755 7.64871
51.41239287610203 7.60655
51.437103795691165 7.62953
51.46201036644977 7.57688
51.486726441956634 7.558960000000001
51.51144508832545 7.56376
51.536166307509156 7.57113
51.56108326624387 7.471010000000001
51.58580965706056 7.515639999999999
51.61053862657523 7.4995199999999995
51.635270176746864 7.45653
51.66019755512065 7.43927
51.68493429268881 7.39595
51.70967361681515 7.424510000000001
51.73441552946465 7.410760000000001
51.759353359237934 7.410819999999999
51.7841004750961 7.36797
51.80885018539685 7.374439999999999
51.833602492111254 7.336010000000001
51.8585508051424 7.31765
51.883308330926425 7.33351
51.90806845906181 7.30545
51.932831191525715 7.295439999999999
51.95779001977161 7.29599
51.98255798721516 7.24321
52.00732856494335 7.248469999999999
52.03229530577543 7.22497
52.057071130455945 7.231339999999999
52.081849571391054 7.19688
52.106630630568695 7.17629
52.13160794279417 7.12909
52.15639426492067 7.19723
52.18118321127822 7.176310000000001
52.205974783860896 7.14306
52.23096269971011 7.11866
52.255759551287994 7.10288
52.280559035098186 7.05282
52.30536115314103 7.0712
52.33035970494467 7.07159
52.35516711807904 7.054060000000001
52.37997717147198 7.02786
52.40478986713005 7.006539999999999
52.42979908731974 6.95858
52.454617094216 6.98695
52.47943774942214 6.9558100000000005
52.50426105495102 6.9486
52.529280976059844 6.9512
52.554109609024096 6.92973
52.57894089837482 6.9226
52.60377484613117 6.936160000000001
52.62880550079408 6.869339999999999
52.65364479223379 6.864719999999999
52.67848674816189 6.85182
52.70352547971946 6.818560000000001
52.72837279155837 6.8146
52.753222773982785 6.78874
52.778075429022984 6.77647
52.80312495150885 6.786010000000001
52.827982978797436 6.720619999999999
52.85284368481815 6.7205699999999995
52.87770707160767 6.72233
52.90276741793998 6.71358
52.92763619336701 6.67415
52.952507655698504 6.6511
52.977381806977576 6.669969999999999
53.00245301017842 6.686260000000001
53.02733256653592 6.681439999999999
53.052214817996074 6.64836
53.077099766608484 6.628610000000001
53.102181859804446 6.6305
53.127072229988265 6.584810000000001
53.15196530349892 6.60348
53.17686108239249 6.59992
53.20195409881522 6.599880000000001
53.22685531582556 6.5372900000000005
53.25175924441303 6.52265
53.27666588664027 6.48203
53.30176985962693 6.47234
53.3266819565689 6.4838
53.35159677336455 6.45289
53.376514312083096 6.4560900000000006
53.40162927507703 6.475709999999999
53.42655228516116 6.4400900000000005
53.45147802340193 6.4306
53.47660125628886 6.3725
53.50153247842639 6.38098
53.52646643496923 6.323980000000001
53.55140312799818 6.35422
53.576537409691696 6.3552800000000005
53.60147960336152 6.30086
53.626424539786164 6.29151
53.65137222105307 6.253909999999999
53.67651758529126 6.2944
53.70147078399681 6.27961
53.72642673383343 6.280869999999999
53.75138543689533 6.27393
53.776541917524526 6.25476
53.801506154876755 6.22923
53.826473151763246 6.17096
53.851442910284916 6.14115
53.87661054126026 6.1830099999999995
53.9015858509782 6.168880000000001
53.92656392866066 6.170380000000001
53.95154477641532 6.15677
53.976723591801296 6.0738900000000005
54.00171000771266 6.07468
54.02669920004598 6.1001900000000004
54.051691170915745 6.07335
54.076881204886796 6.04183
54.101878760928514 6.0414
54.12687910187696 6.00365
54.152077577768296 6.03115
54.1770835166946 6.00402
54.20209224691339 6.00387
54.22710377055121 5.9941
54.25231352511594 5.9802599999999995
54.27733066384342 5.958069999999999
54.30235060239643 5.95757
54.32737334290836 5.94131
54.35259441062629 5.86762
54.377622783395324 5.89521
54.40265396455061 5.85878
54.42768795623251 5.8529599999999995
54.45292037169559 5.84403
54.477960012857906 5.82468
54.50300247099511 5.7954300000000005
54.52804774825457 5.7577
54.55329154616743 5.76357
54.57834249018678 5.74385
54.6033962597977 5.73163
54.6284528571545 5.72524
54.653708072335164 5.70627
54.67877035378786 5.68159
54.70383546947698 5.638380000000001
54.72890342156389 5.64157
54.7541700889442 5.60095
54.77924374251975 5.57219
54.8043202390049 5.58915
54.82959552413022 5.5511
54.8546777351945 5.51745
54.87976279569621 5.47131
54.90485070780914 5.49591
54.930137506558005 5.49491
54.95523115074295 5.48473
54.98032765308844 5.43646
55.005427015775496 5.3829199999999995
55.03072536339621 5.424980000000001
55.05583047570572 5.38218
55.080938454927676 5.35053
55.10604930325027 5.34614
55.131359235107396 5.34649
55.15647585066083 5.23957
55.181595341907496 5.26105
55.20671771104285 5.21472
55.232039262617704 5.19806
55.25716741665048 5.19081
55.28229845518636 5.17569
55.30743238042802 5.16359
55.33276558731939 5.15218
55.357905315183636 5.11524
55.383047936390035 5.04502
55.40819345314859 5.0408599999999995
55.433538351073295 5.03012
55.458689688238415 5.0022199999999994
55.483843927614096 5.02144
55.509197623043605 4.99637
55.53435769621134 4.9358900000000006
55.55952067826466 4.8992
55.5846865714265 4.89797
55.61005202069737 4.90396
55.63522376553902 4.890630000000001
55.66039842818645 4.8712800000000005
55.68557601087004 4.862080000000001
55.7109532500271 4.7886
55.73613670233794 4.82138
