TT I
1.2716486653135266 7.30284
1.2939594142134223 6.5921
1.3162702121660406 6.15131
1.3385810600174564 6.21957
1.3608919586137629 6.12208
1.383202908801069 6.24121
1.405513911425503 6.5211
1.4278249673332093 6.6763
1.4501343378461518 6.544630000000001
1.4724455028545926 5.807230000000001
1.4947567236847858 5.94433
1.517068001182951 5.788069999999999
1.5393793361953272 5.19
1.5616907295681737 5.2367300000000006
1.5840021821477681 5.27123
1.60631369478041 5.6957699999999996
1.6286252683124185 5.67141
1.6509369035901333 5.10801
1.6732468618895553 5.61981
1.695558623192809 5.2041900000000005
1.7178704487808514 4.90057
1.7401823395001077 4.73684
1.7625012545597203 5.23074
1.7848028405262486 5.19665
1.8071218901122095 4.40954
1.8294236121921872 4.64591
1.8517427996910911 4.74982
1.8740620574440425 4.756469999999999
1.8963639900671978 4.63151
1.9186833908139995 4.63687
1.9409854680117449 5.0808800000000005
1.9633050151394713 4.60131
1.9856246367570705 4.75766
2.0079269371922672 4.77323
2.03024671027244 4.6528
2.0525491637446027 4.6098300000000005
2.074869091674931 4.34703
2.097171701569106 4.65534
2.1194917877373847 5.5722
2.141811954326636 5.06744
2.164114805233074 5.23735
2.186435135143035 5.7853
2.208738150935709 12.9312
2.231058647554722 24.9342
2.2533792288321184 19.6266
2.275682498336085 10.1608
2.298003251406138 6.41296
2.3203066942619714 5.9672
2.3426276225136022 6.22066
2.3649486396617507 5.56769
2.387252348930071 6.44917
2.4095735463442893 5.886909999999999
2.4318774374315884 6.4695800000000006
2.4541988185014043 6.95175
2.476502894794693 7.55565
2.498824462909887 7.21926
2.521146125856138 7.29132
2.5434504863470337 7.499510000000001
2.5657723414244717 8.09689
2.588076895590662 9.15291
2.610398946189713 8.79036
2.6327210958598384 8.24254
2.6550259469304716 8.13008
2.6773482972090137 8.52638
2.6996533504259 8.70631
2.7219759047039602 9.45769
2.744298562293959 9.21063
2.7666039251246595 8.60029
2.7889267918020164 8.126339999999999
2.8112323652516555 8.425130000000001
2.833555444408179 9.041089999999999
2.8558786311183852 8.4219
2.8781845268938557 9.212769999999999
2.9005079311721484 9.48569
2.9228140460410397 9.095080000000001
2.9451376712799635 9.308639999999999
2.967444008632326 9.94457
2.9897678582247247 9.921339999999999
3.0120918213106695 10.9405
3.0343984987899373 11.1246
3.0567226913198637 11.3483
3.079029599759726 12.0273
3.101354025127254 12.8215
3.123678568232338 13.4693
3.145985829517914 12.962
3.16831061055229 13.814
3.1906181112775593 14.6011
3.212943133635653 15.0682
3.2352682779763207 15.5399
3.2575761442691227 15.3468
3.2799015350264273 15.7082
3.302209649240067 16.824
3.3245352898092655 16.7181
3.3468436553365257 17.4838
3.369169549113219 18.0593
3.3914955708171384 18.5602
3.413804319727358 19.0134
3.4361305997334863 19.0604
3.4584396084414553 19.8216
3.4807661501462652 20.1499
3.503092824025881 20.7765
3.5254022288463154 21.2084
3.5477291695206588 21.6258
3.5700388426251948 22.5053
3.5923660534916446 23.8736
3.6146934007816114 36.865
3.637003482731501 78.587
3.6593311053109985 86.8955
3.681641464033634 51.8989
3.7039693653009733 29.9175
3.726297407241705 26.131999999999998
3.7486081875460804 25.7701
3.7709365132734978 26.1087
3.793247578841633 26.555999999999997
3.8155761917550093 26.5671
3.8378875459837216 26.9508
3.8602164494827234 27.5198
3.882545499606844 28.2647
3.9048572932539183 28.6592
3.9271866390645718 29.0378
3.9494987298666713 29.761
3.971828374764527 30.1574
3.9941581705403255 30.2441
4.016470713506008 30.8392
4.038800813471445 31.65
4.061113662089144 32.1853
4.0834440696459176 33.2412
4.105774632334751 33.3524
4.128087945865126 34.3936
4.150418821249301 35.1507
4.172732448931298 36.4865
4.195063640413578 38.0068
4.2173775856475215 41.9962
4.239709096631102 70.2384
4.262040768704612 210.554
4.284355196706267 277.613
4.306687193387355 181.457
4.329001947444346 75.4599
4.35133427213731 46.9968
4.373666762177566 43.8577
4.395982011761091 43.9993
4.418314834921175 45.2367
4.44063041906622 52.3216
4.4629635787515625 60.9416
4.4852969080429785 61.6641
4.5076130004776225 53.4949
4.529946671403969 50.6279
4.552263106909177 50.9216
4.574597122877047 51.1455
4.596931312711224 51.6118
4.619248269273446 52.7526
4.6415828092605835 53.5861
4.663900117405352 54.7241
4.686235010953232 55.8635
4.708552674085913 57.2596
4.730887924602802 58.7143
4.753223354952695 59.7183
4.775541557023902 61.6446
4.797877349456786 63.0132
4.820195915032126 65.0877
4.842532072957498 66.1387
4.864868414979744 68.1413
4.88718753227192 70.5589
4.909524244902505 72.688
4.931843734218147 74.1626
4.954180820867835 76.26
4.976518095879839 78.9832
4.998838149695359 81.6727
5.021175803844231 84.6184
5.043496238205739 88.1927
5.065834274903528 92.1913
5.088172504230693 96.4701
5.1104935158799565 102.39399999999999
5.132832132875765 122.40299999999999
5.155153533596801 158.606
5.1774925416746225 185.139
5.199814334878411 287.052
5.2221537374521505 780.404
5.244493338631803 2507.37
5.266815727034316 7755.01
5.289155727832427 13460.8
5.311478517248165 9027.2
5.333818921080011 2855.81
5.356159527788849 527.428
5.3784829252032536 174.34400000000002
5.400823940070432 138.85
5.423147747031976 124.19
5.445489173474152 115.656
5.467830807066149 110.975
5.490155234831516 108.055
5.512497285125229 104.139
5.534822130975162 101.885
5.557164601388673 100.212
5.579489868738879 97.4707
5.601832762690846 96.8148
5.6241758697774475 95.5811
5.646501775867269 94.7309
5.668845311622074 93.4481
5.691171647754637 92.3792
5.713515615597765 91.3767
5.735859800852677 90.3477
5.758186788542988 90.1065
5.780531411018185 90.5167
5.802858837297399 90.1462
5.825203900414495 90.0447
5.8475491852224 90.2003
5.869877275883075 90.5979
5.892223006467101 90.8671
5.914551544266608 91.2389
5.936897724049891 93.0459
5.959244129804903 96.7388
5.981573344815301 109.954
6.0039202049061 177.905
6.026249875609095 376.441
6.04859719346037 834.197
6.070927323278297 2156.21
6.093275102315365 4588.73
6.115623113320588 5298.53
6.137953938319995 3120.7
6.160302415650845 906.586
6.182633708324452 213.37599999999998
6.2049826554078376 107.15799999999999
6.227331838745022 88.4952
6.249663839443684 82.5005
6.27201349767565 80.0909
6.294345974611799 85.9125
6.316696111167083 95.491
6.339046488263839 90.3321
6.361379686074702 77.3874
6.383730546639482 70.6779
6.406064229255215 68.0004
6.428415576718203 67.2625
6.450749747566656 66.2527
6.47310158535871 64.953
6.495453669698332 64.507
6.517788579421056 63.8325
6.540141159237969 62.563
6.562476565766648 62.7145
6.5848296444934045 62.203
6.607182974060425 61.6054
6.6295191323281015 61.9256
6.651872965955752 65.0288
6.6742096296068985 87.8953
6.6965639707294615 126.339
6.71891856698715 125.825
6.741255995248479 88.8643
6.763611104154477 66.1189
6.785949046381137 59.437
6.808304671371482 57.8373
6.8306605557940046 57.5724
6.852999275508618 57.0823
6.875355681171544 56.5574
6.897694923437771 56.1937
6.92005185377892 56.018
6.9423916220322655 55.6817
6.964749080490181 55.167
6.987106804399774 55.0672
7.009447368180821 55.283
7.031805625367033 54.6924
7.054146723727803 54.9317
7.076505517631004 54.565
7.098864581288365 54.5374
7.121206488070854 54.1018
7.143566093607822 53.7597
7.165908543567245 54.1649
7.188268694426048 54.6315
7.2106291193438095 54.8644
7.232972390625943 56.0942
7.255333366030969 67.6853
7.277677189091925 115.275
7.300038718428332 152.852
7.322400526130865 129.178
7.344745183422596 83.0794
7.367107550224791 60.4099
7.389452767901992 55.5504
7.411815697249891 54.7629
7.434161478756298 53.9961
7.456524974096713 53.7129
7.478888753837185 53.619
7.501235387657368 53.805
7.523599738562711 53.9764
7.545946944825532 53.9589
7.568311870344528 54.6066
7.5906770845765665 54.5856
7.613025156078678 55.4388
7.635390950099687 56.783
7.657739602662809 55.7362
7.680105979923558 54.9953
7.702472650212829 55.3339
7.724822180948224 55.4697
7.747189439655568 55.4409
7.769539560075357 55.413000000000004
7.791907410653562 55.8422
7.81425812420825 55.6977
7.836626570110925 55.7774
7.858995315087906 56.4719
7.881346924933401 56.8371
7.903716270417482 57.3769
7.926068482028405 57.9271
7.948438431475253 58.31
7.9708086843180235 58.8402
7.993161805171116 59.5968
8.015532667162402 59.8115
8.037886398416653 60.8615
8.060257873014221 61.2804
8.082629655331942 61.7483
8.104984308787587 62.838
8.127356708900503 66.1382
8.149711981398308 71.4562
8.172085002766314 73.2635
8.194458336181368 70.5919
8.216814543847752 67.9547
8.23918850371002 68.3807
8.26154533906492 69.0574
8.283919928836452 70.7396
8.306277395339652 71.1745
8.328652618483376 72.5109
8.351028159736202 74.3924
8.373386579575245 76.3336
8.395762759396959 78.2242
8.418121819038275 82.7727
8.440498640894003 94.3527
8.462875785192262 106.73200000000001
8.485235811156207 114.835
8.507613602688501 145.725
8.529974277114228 220.165
8.552352719347912 343.727
8.574731488360351 596.28
8.59709314210385 1164.37
8.619472567021075 1881.03
8.64183487789147 2241.01
8.664214962183097 1765.82
8.686577933647762 908.0310000000001
8.708958680784317 341.69199999999995
8.731339760774953 155.119
8.753703729764451 107.39399999999999
8.77608547780821 96.4017
8.798450116065078 93.2723
8.820832535634787 90.189
8.843215292401656 89.2161
8.865580941199045 88.2773
8.887964374703538 87.5265
8.910330701447199 88.4724
8.932714815164482 90.5522
8.955099270424924 89.2338
8.977466620733543 86.1176
8.999851761421976 83.7651
9.022219798361645 82.5995
9.04460562795561 82.2758
9.066991803441677 81.6314
9.089360876979615 81.58800000000001
9.111747746589993 81.9159
9.13411751544971 81.0789
9.156505082664324 80.5268
9.178875550323522 80.7232
9.20126381862328 81.2281
9.223652438908596 81.5071
9.246023961427412 80.8228
9.26841328802173 80.2623
9.290785518039224 80.3034
9.313175554425882 81.1976
9.335565947154315 81.4196
9.357939245086508 81.90100000000001
9.380330352834827 81.825
9.40270436697103 81.8231
9.425096193225055 81.7526
9.447488380180165 82.8189
9.469863475295412 82.9796
9.492256385987508 83.3709
9.514632206018318 83.9226
9.537025843935714 84.1725
9.559402392368193 84.9595
9.581796761000229 85.9492
9.604191496441521 86.9688
9.626569144158516 90.2418
9.648964615551032 94.1253
9.671343000390081 95.5225
9.693739211225699 93.5783
9.716135793237463 91.9295
9.738515290448102 91.4069
9.760912617143402 92.5598
9.783292860202891 93.6414
9.805690935076182 94.7037
9.828089385495742 95.728
9.850470754023561 98.2264
9.872869957865444 105.18
9.89525208097539 117.90299999999999
9.917652041736662 127.94200000000001
9.940052382417589 127.505
9.962435644102392 131.674
9.984836746950979 159.34799999999998
10.007220771957746 213.94099999999997
10.029622640473708 307.467
10.052007432299963 484.163
10.074410069984072 788.743
10.096813093716005 1284.05
10.119199042482517 1805.45
10.141602840636468 1983.85
10.163989564971628 1547.12
10.186394141051062 844.318
10.208799107559706 360.444
10.231187001965623 176.477
10.253592751657669 122.184
10.275981430388155 110.34899999999999
10.298387966769793 109.81700000000001
10.320794897965431 111.65899999999999
10.343184759907361 110.609
10.36559248305461 105.693
10.387983138083852 101.823
10.410391656691655 103.05799999999999
10.432800574501677 111.959
10.455192425893369 125.801
10.47760214443012 150.47899999999998
10.499994797678786 194.80200000000002
10.522405320453982 277.453
10.54479877906917 409.37199999999996
10.567210109595656 528.754
10.5896218454736 594.649
10.612016518879773 494.903
10.634429067781074 341.718
10.656824555333241 195.21400000000003
10.679237920773568 120.18799999999999
10.701651695961992 94.14399999999999
10.724048411481384 87.5038
10.746463008485165 84.7784
10.768860546937125 83.3186
10.791275969274796 81.3947
10.81369180576079 80.6823
10.836090585366925 79.4677
10.858507252467449 78.1964
10.88090686379991 77.3246
10.903324365036394 77.1224
10.925724811614439 77.0017
10.948143150509463 77.9019
10.970561909719066 76.8991
10.992963615930844 75.5831
11.015383218085756 73.5126
11.037785768347074 72.214
11.06020621697282 71.44800000000001
11.082627090322113 71.2518
11.105030913430326 70.5035
11.12745263854165 71.0846
11.149857314510728 74.0044
11.172279894912576 78.8407
11.194702904450653 79.5059
11.217108866490921 75.8587
11.239532736615194 72.0019
11.26193956033512 70.5136
11.284364294577085 68.6537
11.306789462371718 66.8348
11.329197585398376 65.8555
11.351623622610898 66.0268
11.37403261614354 64.9709
11.396459526308487 64.6382
11.418869393879497 64.3036
11.441297180532617 64.2327
11.463725406927658 63.7648
11.486136592353875 63.6397
11.508565700543707 64.0676
11.530977768845315 65.5504
11.553407762368774 66.3594
11.575838200059769 65.5045
11.598251599479612 64.0082
11.620682927815501 62.7805
11.64309721895548 62.4107
11.665529441478206 62.1379
11.687962112597958 61.7832
11.710377748130886 61.8347
11.732811318753434 61.8024
11.755227854859067 61.9136
11.777662328529495 61.6849
11.800079768750786 61.607
11.822515149015453 61.5161
11.844950984084935 61.6736
11.867369787303163 61.0943
11.889806534289491 61.2964
11.912226250487029 61.6248
11.934663912939751 61.7919
11.9571020346363 61.7826
11.979523127133968 61.4704
12.001962169624331 62.0847
12.024384183972964 62.9054
12.046824150809913 65.4787
12.069264581333726 69.7892
12.091687985297767 75.3556
12.11412934550045 84.4188
12.136553680195208 99.7012
12.158995973632788 125.00399999999999
12.181438735204349 155.878
12.20386447284199 188.433
12.226308172985636 206.361
12.24873485024193 196.80200000000002
12.271179492516982 161.934
12.293607112949127 121.54700000000001
12.316052700916226 93.9669
12.338498763250042 76.24
12.360927805303868 68.4863
12.383374818673879 64.8936
12.405804812803074 63.2828
12.428252780773262 62.9912
12.45070122756722 62.9452
12.473132656675375 62.9222
12.49558206341869 63.1751
12.518014453510101 63.1577
12.540464823770117 63.1441
12.562915677315177 63.611999999999995
12.58534951575545 64.4697
12.607801338171472 66.3142
12.630236146511358 70.7623
12.652688941369085 74.7753
12.675124723177234 74.8007
12.697578494048786 71.7173
12.720032754458185 68.3151
12.742470003354093 66.6601
12.764925245138771 66.5903
12.787363476431278 66.5097
12.809819703166806 67.0827
12.83227642391173 67.6284
12.854716135692716 68.2707
12.877173846755147 69.416
12.899614549869717 69.6494
12.9220732548287 70.3066
12.94453245827299 70.9066
12.966974655289818 72.0014
12.989434858002571 72.5827
13.011878055298721 73.3623
13.034339260862497 74.0053
13.056800969391883 75.4019
13.079245674017244 77.2035
13.101708390774869 78.8484
13.12415410463411 84.3986
13.146617833206086 94.3899
13.169064559883248 104.853
13.191529303857127 118.822
13.213994557076367 141.04
13.236442809902437 177.929
13.258909083908291 237.90099999999998
13.28135835851934 310.17900000000003
13.30382565690295 382.964
13.326293469022952 429.149
13.348744283242008 423.52
13.371213125129904 347.89599999999996
13.39366497011003 247.153
13.416134845360597 164.916
13.438605238843131 118.695
13.46105863690397 101.531
13.483530069144786 100.53
13.505984506951902 104.88600000000001
13.528456981549432 113.935
13.550929978879088 128.34
13.573385983253365 151.936
13.595860028340867 193.426
13.618317081455832 249.0
13.64079217790333 313.413
13.663250283359057 356.83099999999996
13.685726434770173 368.72
13.708203115221277 323.899
13.730662806148091 247.46
13.75314054697177 177.00599999999997
13.775601299246777 123.52
13.798080104050406 94.7443
13.820559442405358 83.8156
13.843021793671388 80.3127
13.865502201420897 78.6154
13.887965623051947 77.882
13.910447103807167 76.9032
13.932929122629764 75.6104
13.955394156785959 75.1888
13.977877254034569 74.3459
14.000343367582113 73.8527
14.022827546871707 73.0528
14.045294743423524 72.3221
14.06778000837062 71.4193
14.090265817715476 71.6858
14.112734645763819 71.3459
14.13522154619454 71.2965
14.157691466286913 71.0131
14.180179461423874 70.8199
14.202668005486178 70.007
14.22513957064374 69.5806
14.247629214846473 68.9962
14.270101881097517 68.816
14.29259262906496 68.9928
14.315083930490205 69.7612
14.337558255389705 69.8406
14.360050666019726 69.6704
14.382526101071944 68.8215
14.405019624534942 68.1271
14.427513705993134 67.5872
14.449990813291825 67.4979
14.47248601302899 67.2936
14.49496423954951 67.3968
14.517460561197822 67.8084
14.539939910570322 67.5137
14.562437357763558 67.6917
14.58493536931253 68.684
14.607416409993311 69.4015
14.62991555254159 70.0367
14.652397725157423 69.7841
14.674898002342799 69.3201
14.697398848433282 69.1122
14.719882725991326 69.6313
14.74238471217934 70.195
14.764869730765593 72.65899999999999
14.787372860692983 75.5661
14.809876564079925 79.5874
14.83236330125751 85.0936
14.854868153850365 93.2531
14.877356041159485 106.92200000000001
14.899862046604186 126.68
14.922351087688757 154.395
14.944858249632887 187.113
14.967365991421232 215.137
14.989856770231246 227.77200000000002
15.012365673994204 216.769
15.03485761569738 183.52200000000002
15.05736768508665 144.736
15.07987833888692 110.081
15.102372032001655 87.0792
15.124883856909658 74.7035
15.14737872204565 70.6464
15.169891721717274 69.18
15.192405310371893 69.0421
15.214901940621196 69.64
15.237416709527137 69.3066
15.259914520936249 69.3159
15.282430473753607 68.3848
15.304947020131227 67.2749
15.327446610371178 66.3482
15.349964346154254 65.6752
15.372465126703139 65.4526
15.394984055556009 65.055
15.417486030076159 65.1764
15.44000615566487 64.6847
15.462526881230803 64.5335
15.485030653812652 64.9261
15.507552581617434 64.8819
15.530057557334603 64.7051
15.55258069104857 64.5099
15.575104429329837 64.9459
15.597611216864632 64.5646
15.620136166564563 64.3506
15.6426441664095 65.0052
15.665170331202765 66.668
15.687697105158826 69.4166
15.710206930593545 72.671
15.732734925158933 76.6081
15.755245972089478 82.7376
15.77777519094324 91.8404
15.800287463046663 105.54
15.822817909869592 125.68700000000001
15.84534897229804 149.351
15.867863089299354 174.563
15.890395385222186 190.199
15.912910736597423 193.196
15.935444269699861 177.888
15.957978423016485 148.342
15.980495633101265 117.806
16.003031029129367 92.0981
16.02554948280019 74.8647
16.048086125229432 66.42699999999999
16.070623392487107 63.7911
16.09314371869582 62.9346
16.11568223789321 62.1683
16.13820381691126 61.0442
16.160743591742527 60.1852
16.183283996022084 59.4034
16.205807461423195 58.4449
16.228349126881973 57.9585
16.25087385432698 57.5752
16.27341678466365 57.1467
16.29594277784926 57.2893
16.31848697676433 57.3138
16.341031811604868 57.6807
16.36355971058487 57.8959
16.3861058195587 57.4106
16.40863499352978 56.3162
16.431182380342005 55.8483
16.453730407713202 55.0662
16.476261501364792 54.6612
16.498810812136167 54.4778
16.52134319004079 54.7483
16.54389378792203 54.3939
16.566445031001553 54.3006
16.588979342490088 54.1027
16.61153187824822 54.0096
16.634067483263312 53.8263
16.656621315414416 53.717
16.679175797408888 53.1957
16.701713349928728 53.533
16.72426913389191 53.8478
16.74680798922351 53.955
16.76936507887444 53.9224
16.791905240734874 53.8908
16.814463639794468 53.7202
16.837022695210294 53.8559
16.859564824093756 54.0014
16.882125194503903 54.6705
16.904668639217885 55.4047
16.927230328348003 55.2401
16.949792678493612 55.4433
16.972338104193863 54.8902
16.994901778652235 54.5964
17.017448529496576 54.387
17.040013531998152 54.5441
17.06257920018044 54.9533
17.0851279459922 55.6053
17.107694947817667 56.2812
17.130245028099072 56.9646
17.15281336730298 58.4515
17.17536478578733 60.1996
17.19793446610687 62.6164
17.220504818648422 65.5615
17.243058251703697 69.3623
17.265629950971032 74.3316
17.288184731571736 78.8847
17.310757781306908 82.6545
17.33333150794385 82.5866
17.355888317140174 80.1169
17.37846339986244 74.8606
17.401021565958885 69.0419
17.42359800851343 63.7653
17.44617513265564 60.9102
17.468735341390783 58.8355
17.491261035594565 58.0015
17.51396340099364 57.8909
17.536490463869136 57.7819
17.559018209820174 57.9038
17.58154663977963 58.0661
17.604251766089718 58.31100000000001
17.626781572227713 58.555
17.64931206518155 58.5674
17.671843245885103 59.2661
17.69455114821572 59.3154
17.717083712612634 59.5636
17.739616967569667 59.788000000000004
17.762150914021706 59.8931
17.78486160749854 59.8085
17.807396945166804 60.5969
17.829932977143503 61.3034
17.85246970436452 62.3982
17.875183204129467 64.1151
17.897721330097664 66.0233
17.920260154126645 68.1645
17.942799677153296 71.2714
17.9655159983646 74.9557
17.988056927677544 80.4465
18.010598558807683 88.1589
18.033140892692916 99.307
18.05586005052525 111.47200000000001
18.07840379824407 122.809
18.10094825154059 132.451
18.12366954819864 137.172
18.146215420998306 134.398
18.16876200220057 125.05
18.191309292745153 111.729
18.214033452627167 99.3763
18.236582170236648 88.648
18.259131600016456 84.271
18.281681742907335 85.0154
18.304408781233683 90.1646
18.32696035875955 95.9198
18.349512652227624 100.786
18.372065662579683 104.363
18.394795594587553 104.613
18.41735004715306 99.836
18.43990521943684 93.3117
18.46246111238171 83.7965
18.485193953325208 75.1546
18.507751296070428 68.3305
18.530309362314178 64.3945
18.552868153000343 62.2208
18.57560391815056 61.0527
18.59816416623245 60.4453
18.620725141597372 60.0819
18.643286845190268 59.6534
18.666025549835414 59.3054
18.688588718427933 58.802
18.711152618092243 58.6556
18.73389353884365 58.3165
18.75645890921984 57.7079
18.77902501351406 57.4829
18.801591852673102 57.4176
18.824335739722738 57.04600000000001
18.846904057212626 57.1625
18.8694731124168 56.621
18.89204290628315 56.6226
18.914789774966803 56.4537
18.937361054791623 56.2491
18.959933076131318 56.0803
18.982505839934877 55.9777
19.00525570560582 56.0444
19.027829963004184 55.6821
19.05040496572238 55.8174
19.072980714710468 55.6483
19.095733592739563 55.7466
19.11831084296757 56.0648
19.140888842324735 56.4774
19.16346759176222 56.7122
19.18622349753803 57.2871
19.208803755869358 58.1756
19.231384767143577 59.1257
19.253966532312948 60.7302
19.276725481241822 62.9738
19.29930876296784 65.8881
19.3218928014549 68.7065
19.34465404436217 71.7672
19.36723960516257 74.2242
19.389825925592426 74.6015
19.412413006605938 73.6313
19.43517731967805 70.1562
19.457765930683355 65.8067
19.48035530514408 61.482
19.50294544401556 58.0672
19.525712842708348 55.537
19.54830451925909 54.163000000000004
19.570896963095727 53.294
19.593490175174704 52.8788
19.616260674962184 52.6614
19.638855432416964 52.239
19.661450960992624 52.5675
19.68404726164677 52.3581
19.706820878021247 52.1354
19.729418731756834 52.5814
19.752017360452857 52.3954
19.77461676506804 52.4683
19.797393513540218 52.4747
19.819994478951667 52.4343
19.84259622316767 53.0595
19.8651987471481 53.5646
19.887978643247177 53.6902
19.91058273574792 54.2008
19.933187610901943 54.9839
19.955969879466828 56.2081
19.97857632894404 57.7682
20.00118356396599 59.7199
20.023791585494575 61.9087
20.046577028914875 64.562
20.069186632506966 66.8481
20.091797025500632 68.4596
20.114408208858933 68.6267
20.137196842715273 67.7597
20.159809615886765 65.9035
20.18242318232135 63.8121
20.20503754298326 61.9922
20.227829382875154 61.3318
20.250445341109344 61.4795
20.27306209647285 62.388000000000005
20.29567964993108 63.8105
20.31847471147704 64.5757
20.34109387027612 64.8472
20.363713830075454 64.2586
20.386334591841646 62.5981
20.409132890679302 59.648
20.431755265564437 57.0556
20.454378445325528 54.4548
20.477002430930366 52.3868
20.499803982716553 51.3775
20.522429589228004 50.6959
20.54505600449589 50.0962
20.567683229489194 49.8112
20.590488049900088 49.452
20.61311690359731 49.3469
20.63574656993626 49.1607
20.658553853717297 48.8246
20.681185154618298 48.7587
20.703817271080066 48.5269
20.72645020407368 48.2085
20.749260783967177 48.1888
20.771895359337133 48.3291
20.794530754161617 48.0055
20.817166969412938 48.0105
20.83998086114876 47.9641
20.86261872660049 47.7804
20.885257415405402 47.7785
20.90789692853701 47.6919
20.930714147864748 47.7119
20.953355319030678 47.6185
20.97599731745334 47.5126
20.99864014410749 47.5271
21.021460706796564 47.5234
21.044105199328826 47.9958
21.06675052302631 48.0272
21.089396678865015 48.2272
21.112220600704806 48.6019
21.134868430275347 49.0062
21.15751709492456 49.2113
21.180166595629693 49.7114
21.202993892429635 50.0623
21.22564507473034 50.4841
21.24829709602816 50.4803
21.27112693608965 50.5405
21.293780644891275 50.2122
21.316435195634053 49.5881
21.339090589297417 48.9535
21.361923832041875 48.7575
21.384580921090404 48.0281
21.407238856007325 47.6239
21.429897637773326 47.5003
21.45273429906592 47.5289
21.475394784108598 47.5449
21.498056118951983 47.3094
21.520718304578022 47.582
21.543558400304388 47.6566
21.566222297108816 47.8686
21.58888704765135 47.821000000000005
21.61155265291521 48.2147
21.63439619898156 48.5862
21.657063523335786 48.7495
21.67973170537063 49.0676
21.7024007460706 49.5579
21.72524775840385 50.3599
21.747918526116475 51.2659
21.770590155457388 52.7092
21.79326264741238 54.3062
21.816113141960237 56.3093
21.838787368860547 58.5604
21.861462461341976 60.4848
21.884315579735777 62.3056
21.90699241312273 63.1933
21.92967011506078 63.3036
21.95234868653799 62.8037
21.9752053151131 61.4478
21.997885635446785 59.5761
22.020566828293532 58.0177
22.04324889464272 56.6465
22.066109049404666 55.6533
22.088792872571794 55.2138
22.111477572219204 55.375
22.1341631493376 55.1655
22.157026846313123 54.6766
22.179714188221507 53.9161
22.202402410582668 52.8817
22.22509151438863 51.4733
22.24795876962584 50.3406
22.270649646204486 49.3623
22.293341407213727 48.8595
22.316034053646906 48.3631
22.338904883215342 48.2945
22.36159931041458 48.1703
22.38429462602756 48.0287
22.40699083104897 47.7015
22.429865251039757 47.988
22.452563244831367 48.0168
22.47526213102522 47.816
22.49813925616515 47.7698
22.520839937143307 47.5449
22.543541513520587 47.7538
22.56624398629403 47.5058
22.589124730075895 47.4921
22.611829005656723 47.7648
22.63453418063466 47.6928
22.657240256008077 48.0071
22.680124634582935 48.0117
22.70283252079775 48.273
22.725541310413075 48.4083
22.74825100442868 48.6163
22.771139033969575 49.1115
22.79385054687155 49.3846
22.81656296718292 49.8974
22.83927629590484 50.8865
22.862167992606945 52.2203
22.88488314827121 53.46
22.907599215359284 54.4315
22.93031619487366 55.6607
22.953211574954405 56.2364
22.975930389478226 56.9306
22.998650119445763 56.8404
23.02137076586092 56.0106
23.044269845560063 54.823
23.06699233506288 53.1597
23.089715744034912 51.4996
23.112617610931565 49.9503
23.135342869061212 48.9282
23.158069049684816 48.1993
23.1807961538087 47.8237
23.20370174880544 47.8795
23.226430710184808 47.7686
23.249160598093425 47.8422
23.271891413539002 47.7531
23.294800752937697 47.7417
23.31753343374794 47.9
23.340267045128353 48.0407
23.36300158808808 48.3601
23.38591468821339 48.6619
23.408651104658304 49.2297
23.431388455719986 49.8501
23.454126742409 50.6315
23.4770436196085 51.8371
23.499783787914662 53.2915
23.522524894889884 54.4105
23.54526694154616 55.675
23.56818761219047 56.425
23.59093154860734 56.7511
23.613676427751283 56.9059
23.636422250635754 56.0284
23.659346731118656 54.3674
23.68209445191868 52.4777
23.704843119509587 50.3764
23.72759273490623 48.5658
23.750521041644767 47.3005
23.77327256312355 46.3678
23.796025035462787 45.8148
23.818956224555475 45.35
23.841710609113413 45.3098
23.86446594758979 44.9053
23.887222241002014 44.6561
23.910157285144578 44.5366
23.932915498962537 44.3149
23.955674670778713 44.2433
23.978434801611975 43.9929
24.001373717286125 43.9455
24.024135776723917 43.732
24.046898798245582 43.7475
24.06966278287146 43.6119
24.092605586582614 43.5593
24.115371508023642 43.43
24.1381383956401 43.188
24.16090625045381 43.0802
24.183852958731244 43.1313
24.206622758582608 43.0716
24.229393528706886 42.7483
24.252165270127392 42.8458
24.27511589952438 42.7708
24.297889594216997 42.6072
24.32066426328598 42.4462
24.34343990775613 42.4206
24.36639447485003 42.3299
24.38917208083877 42.5014
24.41195066531332 42.4455
24.43490819850244 42.3061
24.457688750692377 42.1249
24.48047028445616 42.1909
24.503252800821233 42.542
24.526214300784112 42.5247
24.548998793132213 42.33
24.57178427117417 42.2184
24.59457073593893 42.2197
24.617536219319863 42.0586
24.64032466834748 42.088
24.663114107195035 42.0634
24.685904536893013 41.8568
24.708874020360852 41.619
24.731666442613744 41.56
24.754459858818787 41.6321
24.777254270007962 41.5296
24.80022777025625 41.4957
24.82302418230472 41.4262
24.845821592443674 41.5591
24.86862000170663 41.4311
24.891597535453727 41.1686
24.914397953892728 41.3785
24.93719937456671 41.483000000000004
24.96000179851076 41.4417
24.98298338249997 41.8033
25.00578782394922 41.9289
25.028593271784167 42.0233
25.05157790644186 42.4883
25.07438537804115 42.4824
25.097193859145293 42.8917
25.120003350792075 43.0893
25.142992065061257 43.3418
25.165803588823465 43.6017
25.18861612625217 43.7767
25.211429678386736 43.8399
25.234422489079968 43.8356
25.257238081693636 44.1034
25.280054692141732 44.3498
25.3028723214652 44.2175
25.325869245420463 44.2865
25.348688923599397 44.26
25.371509623787006 44.1785
25.394331347025812 43.7756
25.41733240110666 43.1269
25.440156181590016 42.5302
25.46298098826268 42.0595
25.48580682216873 41.5825
25.50881202326435 41.1276
25.53163992281684 40.6816
25.55446885274561 40.5417
25.577298814096377 40.2185
25.600308179121807 40.1189
25.623140214533745 40.1297
25.64597328451537 39.9764
25.66898578564376 39.8296
25.691820936010206 39.8696
25.714657124097695 39.7863
25.737494350954734 39.8222
25.760511045684957 39.721
25.783350361364224 39.8221
25.806190718969255 39.8298
25.82903211955018 39.8297
25.852053024868923 39.9577
25.874896522722523 39.9136
25.897741066713106 39.8488
25.920586657892454 39.9088
25.943611790812668 40.0926
25.966459487728237 40.1301
25.989308234998564 40.2921
26.01215803367705 40.7573
26.03518741123814 40.7896
26.05803932412957 40.9629
26.080892291600094 40.9571
26.10374631470478 40.8966
26.12677995397268 40.8335
26.14963609978026 40.8088
26.172493304397875 40.6058
26.19535156888223 40.3487
26.218389486949604 39.9728
26.241249882640123 39.7607
26.26411134137826 39.5425
26.28715248187403 39.5035
26.31001607820869 39.4197
26.3328807407756 39.2084
26.35574647063438 39.3623
26.37879191991473 39.2649
26.401659795896734 39.3293
26.424528742360263 39.6517
26.447398760366614 39.6642
26.470448535598294 39.7727
26.49332070826805 39.9806
26.516193955675355 40.4594
26.53906827888316 40.6379
26.562122397260108 40.7371
26.584998883685063 41.099
26.607876449110325 41.316
26.63075509460056 41.4324
26.65381357334404 41.4894
26.67669439061878 41.4346
26.699576291163382 41.3131
26.722459276044212 41.1166
26.745522132402975 40.8567
26.768407297649354 40.6457
26.791293550442003 40.174
26.814180891848974 40.1094
26.837248143099337 39.9463
26.860137673466657 39.8834
26.88302829566349 39.5329
26.90592001075963 39.2954
26.92899167420566 39.111
26.951885586870763 38.6744
26.974780595655517 38.6435
26.99785558178161 38.4542
27.020752794605112 38.3077
27.043651106772522 38.1394
27.06655051935668 38.1674
27.089629948036183 38.0537
27.112531573292053 37.9398
27.135434302194138 38.0216
27.158338135817015 37.775999999999996
27.181422024430987 37.9107
27.204328079372566 37.8487
27.22723524226965 37.7132
27.250143514198573 37.8565
27.273231880156334 37.9133
27.296142382065014 37.845
27.319053996245536 37.6432
27.341966723775965 37.7575
27.365059584515222 37.8361
27.38797455070062 37.7968
27.410890633481237 37.704
27.433807833936918 37.7555
27.456905206923906 37.884
27.47982465472398 37.6962
27.502745223449743 37.86
27.525666914182825 37.8675
27.548768816912457 37.7517
27.571692763693633 37.7556
27.59461783573812 37.7311
27.617723149491244 37.5814
27.640650484125285 37.5744
27.66357894728264 37.5462
27.686508540048052 37.3851
27.709618414237887 37.1435
27.732550278321757 37.2135
27.755483275279115 37.1997
27.778417406196485 37.0406
27.801531858397514 37.1769
27.824468269376716 37.1096
27.847405817586786 37.0532
27.870344504116094 37.2377
27.893463551932008 37.3929
27.916404527281053 37.6019
27.93934664422563 37.7561
27.962289903855886 37.7355
27.98541356491974 37.9362
28.00835912214229 38.0299
28.03130582533231 38.2895
28.054253675581805 38.3813
28.077381967556104 38.37
28.100332124185126 38.3088
28.123283431160893 38.2793
28.146235889577238 38.041
28.169368830154156 37.9991
28.192323603752033 37.6969
28.215279532083304 37.4671
28.238415973016764 37.3832
28.261374223145094 37.2654
28.284333631303806 37.0239
28.307294198589954 36.7746
28.330435319167677 36.4724
28.353398217078915 36.3008
28.376362277420153 36.0388
28.39932750129032 35.8608
28.422473319286713 35.7163
28.44544088262495 35.7221
28.468409612800283 35.6418
28.491379510913497 35.3993
28.51453004413313 35.2907
28.53750229057244 35.2965
28.56047570826344 35.2636
28.583450298308804 35.1678
28.606605564586562 35.0328
28.629582511831156 35.0803
28.65256063474956 35.0627
28.675539934446338 34.9417
28.698699951647605 34.8971
28.72168161743193 34.914
28.74466446331978 34.9487
28.767648490417624 34.8295
28.790813276438353 34.7725
28.813799678527303 34.6115
28.836787265157085 34.8438
28.859955641890075 34.8789
28.882945610203045 34.8302
28.905936766392035 34.7044
28.928929111566863 34.7207
28.952102288520145 34.6098
28.975097024308607 34.5127
28.998092952423807 34.3522
29.021090073977508 34.3115
29.04426806913204 34.2057
29.067267590245258 34.0961
29.090268308143695 33.9967
29.11327022394099 34.004
29.13645305530891 33.8811
29.159457379627167 33.8763
29.18246290519685 33.7097
29.20546963313352 33.6838
29.22865731875826 33.7502
29.25166646419296 33.8391
29.27467681535305 33.6408
29.29768837335608 33.6525
29.320880931312562 33.718
29.34389491580634 33.6979
29.366910110507334 33.635
29.38992651653503 33.5844
29.41312396492981 33.6336
29.436142806456754 33.6052
29.45916286268059 33.4097
29.48236399319994 33.4243
29.50538649169417 33.2381
29.528410208259935 33.1038
29.55143514402014 32.9164
29.574641196749695 32.8169
29.597668583816574 32.6845
29.6206971934585 32.5442
29.64372702680042 32.6453
29.666938019934474 32.5095
29.689970313635285 32.4682
29.713003834422636 32.4365
29.73603858342347 32.2751
29.759254535188578 32.1708
29.78229175361658 32.2674
29.80533020365064 32.3645
29.82836988641968 32.2914
29.85159081507472 32.217
29.874632976355343 32.2176
29.89767637376955 32.1358
29.920721008448314 32.0721
29.9439469322847 31.9928
29.96699405457564 32.0039
29.9900424175358 31.9964
30.013092022298157 31.8704
30.03632295963995 31.9057
30.059375061131373 31.9289
30.08242840783577 31.9386
30.105483000888153 31.9201
30.128718970092244 31.8979
30.151776069006917 31.8806
30.17483441768648 31.9229
30.198074175317235 31.924
30.221135036724256 31.8304
30.24419715131772 31.768
30.267260520236203 31.6196
30.290505341942243 31.7206
30.313571232750228 31.7788
30.336638381310948 31.7347
30.35970678876503 31.6052
30.38295669299435 31.5118
30.40602763151657 31.5468
30.429099832366074 31.5428
30.452173296685572 31.5654
30.47542830191959 31.5172
30.498504306502497 31.3874
30.521581577995562 31.4953
30.544660117543582 31.5672
30.56792024229725 31.64
30.59100133132069 31.5688
30.614083691845494 31.5728
30.637167325018545 31.7029
30.660432587840603 31.7074
30.683518779717886 31.6785
30.70660624769615 31.7317
30.729694992924372 31.6225
30.75296541239743 31.4986
30.77605672557558 31.5193
30.799149319462742 31.4962
30.8224236211637 31.4453
30.845518789950724 31.2891
30.868615242910597 31.2793
30.891712981195973 31.0552
30.91499247215866 30.9824
30.938092794619365 31.0386
30.96119440587579 30.866999999999997
30.984297307082752 30.7915
31.00758200598383 30.6529
31.030687500658694 30.6199
31.053794288760695 30.6339
31.076902371446767 30.5455
31.100192296997445 30.5614
31.12330298246119 30.5698
31.14641496599209 30.3964
31.169528248749216 30.381
31.19282341969534 30.3914
31.215939314557186 30.3814
31.239056512134788 30.5498
31.262175013589378 30.4661
31.28547544871168 30.2669
31.30859657161541 30.2226
31.331719001892175 30.3808
31.35484274070538 30.4849
31.378148458819545 30.4279
31.401274828443725 30.3564
31.424402510106933 30.2648
31.447712205419993 30.4039
31.470842524931633 30.2962
31.493974159989783 30.2129
31.51710711176168 30.2145
31.54042212308802 30.3837
31.563557722100917 30.3217
31.586694641341655 30.144000000000002
31.609832881979628 29.9638
31.63315322823208 30.0046
31.656294125521327 29.8646
31.679436347728515 29.7315
31.70257989602529 29.7231
31.725905596152327 29.6311
31.74905181052835 29.5604
31.772199354521323 29.6659
31.79534822930507 29.6603
31.818679302290967 29.6599
31.84183085259981 29.5659
31.864983737233473 29.6263
31.88813795736804 29.6834
31.911474422233013 29.4747
31.934631327356435 29.5428
31.9577895715215 29.5354
31.980949155906522 29.6041
32.004291031706956 29.5594
32.027453310562606 29.3574
32.05061693318573 29.3637
32.07396288236386 29.2218
32.09712920658542 29.2001
32.12029687812702 29.1262
32.14346589817093 29.073
32.166817291729984 28.9646
32.18998902288583 28.9476
32.21316210610336 28.8568
32.23633654256711 28.7454
32.259693399663725 28.7117
32.282870556771144 28.686
32.30604907069099 28.6712
32.329228942610065 28.61
32.35259128243769 28.4202
32.375773884550505 28.4009
32.398957848235646 28.3764
32.422143174682176 28.3838
32.445511016471215 28.3434
32.468699082679954 28.2453
32.49188851523011 28.1891
32.51507931531304 28.1192
32.538452678331 28.0904
32.56164622776311 28.1035
32.58484114831493 27.9829
32.60803744118015 27.9912
32.631416344731896 28.0307
32.654615396551876 27.9291
32.67781582427913 27.8678
32.701198898634416 27.9108
32.72440209253756 27.7801
32.747606665947124 27.7158
32.77081262006088 27.6142
32.79420126883317 27.6602
32.81740999876112 27.7213
32.840620112999424 27.5421
32.86383161274818 27.541
32.88722585534586 27.565
32.91044014056596 27.5821
32.933655814909734 27.4681
32.95687287957963 27.475
32.98027273544904 27.3982
33.00349259526636 27.2717
33.026713849030116 27.3432
33.04993649794511 27.2773
33.073341986570746 27.3623
33.09656744032826 27.3255
33.11979429286444 27.3126
33.14302254538647 27.3386
33.166433686291185 27.2489
33.18966475336992 27.1933
33.212897224069096 27.1029
33.23613109959831 27.0389
33.259547912343415 27.0828
33.2827846121627 27.0496
33.306022720453775 26.9823
33.32926223842861 26.9
33.352684742614166 26.9231
33.37592709463173 26.9303
33.399170859982064 26.7752
33.422597648419426 26.7227
33.44584425514446 26.6215
33.46909227885668 26.6133
33.4923417207723 26.5662
33.51577423505344 26.5618
33.539026528130385 26.3988
33.56228024307245 26.3834
33.585535381098246 26.3061
33.60897364093058 26.2254
33.63223163992385 26.2579
33.6554910656699 26.3132
33.678751919389796 26.2971
33.702195944520106 26.1599
33.72545966903325 26.1627
33.74872482519663 26.0258
33.771991414233746 26.0851
33.79544122444841 26.0551
33.81871069412428 25.9553
33.84198160035767 25.9234
33.86525394437455 26.0051
33.88870955949969 25.9556
33.911984794020626 25.8494
33.93526147001624 25.7698
33.958539588715006 25.6673
33.98200102861669 25.6667
34.0052820477047 25.6432
34.02856451319451 25.6198
34.05203033759056 25.5783
34.07531571090147 25.58
34.09860253431845 25.4931
34.121890809074316 25.4835
34.145362493118924 25.4669
34.16865368561615 25.389
34.191946333164054 25.2968
34.21524043699793 25.3152
34.23871800066799 25.2319
34.26201503218366 25.2125
34.28531352370466 25.1817
34.30861347646881 25.1391
34.33209693978188 25.0953
34.3553998301885 25.0249
34.378704185565205 24.9566
34.402010007152356 24.9828
34.42549939016683 24.910999999999998
34.44880815937748 24.7885
34.472118398533134 24.8539
34.49543010887669 24.8298
34.51892543169198 24.7353
34.54224009966052 24.7506
34.56555624255917 24.7281
34.58887386163339 24.6267
34.61237514439016 24.5429
34.6356957311114 24.4363
34.65901779775809 24.4759
34.68252356662995 24.494
34.705848608458616 24.5955
34.72917513396849 24.4653
34.75250314440949 24.3887
34.77601490857862 24.3908
34.799345904259795 24.2573
34.82267838863559 24.2186
34.846012362958525 24.1776
34.869530142679984 24.1513
34.89286711232212 24.1593
34.91620557568269 24.1138
34.93954553401677 24.1459
34.9630693495876 24.0628
34.986412313340814 24.0827
35.00975677584668 24.0723
35.033102738362956 23.9403
35.05663261012228 23.9188
35.0799815881786 23.9426
35.10333207003229 23.8933
35.12668405694369 23.8929
35.150220005273056 23.7898
35.17357501786656 23.7621
35.19693153931268 23.7702
35.220289570874385 23.7542
35.24383161619786 23.7046
35.267192683604904 23.6883
35.290555264930376 23.6132
35.314101899412165 23.6101
35.33746752422433 23.6567
35.36083466676374 23.6425
35.38420332829803 23.6035
35.407756095629054 23.5876
35.43112781085063 23.5334
35.45450104888391 23.5187
35.477875810999194 23.5749
35.50143473172161 23.5326
35.52481255774625 23.4885
35.54819191167777 23.4058
35.57157279478914 23.3418
35.595137889488406 23.3433
35.61852184675279 23.2304
35.641907337029984 23.2338
35.665294361595684 23.265
35.68886565090076 23.1544
35.7122557598848 23.1588
35.73564740699838 23.1258
35.759040593519934 23.0376
35.78261809810353 23.0613
35.80601437933051 23.0205
35.829412203814705 22.8994
35.85281157283719 22.8166
35.876395313415884 22.919
35.8997977874528 22.7288
35.92320180988546 22.7626
35.946790244133936 22.756999999999998
35.97019737933222 22.7105
35.993606066789866 22.6624
36.01701630779276 22.6564
36.04061101440684 22.6193
36.06402437852291 22.6118
36.08743930005611 22.6074
36.1108557802951 22.5092
36.13445678011326 22.5591
36.15787639383515 22.5241
36.18129757014299 22.46
36.20472031032821 22.4539
36.22832762423364 22.3702
36.25175350829375 22.3554
36.275180960119776 22.2848
36.298609981005924 22.2756
36.32222362992669 22.2414
36.34565580510207 22.2913
36.36908955323448 22.2314
36.39252487562093 22.0865
36.416144880530226 22.0982
36.43958336764275 22.0942
36.463023432914625 22.0448
36.486465077645676 21.9723
36.51009145956204 22.0567
36.53353627947859 22.0014
36.55698268276811 21.96
36.58043067073321 21.8684
36.60406345072071 21.7518
36.62751462435344 21.8488
36.65096738658405 21.8359
36.67460498210655 21.7285
36.69806093788647 21.6916
36.72151848619297 21.6324
36.744977628333636 21.6593
36.76862165890998 21.5691
36.79208400512205 21.5947
36.81554794910557 21.5594
36.83901349217101 21.4937
36.862663978991606 21.4538
36.88613273667352 21.4402
36.90960309738324 21.4158
36.933075062434064 21.3311
36.95673202673572 21.3217
36.98020721697122 21.2795
37.003684015502365 21.2378
37.027162423645365 21.1487
37.050825886711465 21.2063
37.07430753063053 21.1221
37.09779078812467 21.1029
37.121275660513014 21.098000000000003
37.144945643673694 20.9968
37.16843376245278 21.0277
37.19192350009803 21.0521
37.215414857931435 20.9938
37.239091382563885 20.9591
37.262585997426164 20.8923
37.28608223645736 20.9048
37.309763684451696 20.8773
37.33326318851098 20.8304
37.356764320726555 20.7472
37.380267082425526 20.753
37.40395510942588 20.684
37.42746114683234 20.6942
37.45096881771841 20.6722
37.474478123414166 20.5281
37.49817275092816 20.5387
37.52168534303452 20.5695
37.54519957395567 20.4872
37.568715445024665 20.4822
37.592416694607714 20.4279
37.61593586281424 20.4922
37.63945667518264 20.4895
37.66297913304891 20.4134
37.68668702630454 20.4
37.710212792059274 20.2878
37.733740207334854 20.2638
37.757269273470364 20.1462
37.780983832050374 20.2211
37.80451621684926 20.1573
37.82805025654007 20.1685
37.851585952464795 20.0688
37.8753071980695 19.9875
37.89884622345676 19.9848
37.92238690911902 19.9421
37.94611318753442 19.8972
37.969657210779765 19.9027
37.99320289834801 19.8892
38.016750251586465 19.8653
38.04048325513017 19.8161
38.06403395679343 19.8048
38.087586328183946 19.7499
38.11114037065203 19.7792
38.13488012115898 19.6772
38.1584375229181 19.6323
38.181996599821 19.599
38.205557353221124 19.5871
38.229303872575656 19.5731
38.2528679961576 19.5579
38.27643380031219 19.5122
38.30000128639589 19.4579
38.32375459653193 19.5302
38.34732546371299 19.4578
38.37089801690786 19.4158
38.39447225747609 19.3464
38.418232380377425 19.3061
38.441810012983396 19.2729
38.46538933705673 19.2966
38.488970353960084 19.2437
38.51273731166058 19.277
38.536321731567014 19.1968
38.55990784840681 19.136
38.58367995004091 19.0775
38.60726947812959 18.9872
38.63086070726198 19.0421
38.654453638806274 19.0378
38.678232613930824 18.9779
38.70182896773327 18.9113
38.72542702806741 18.9146
38.7490267963045 18.8806
38.77281266709232 18.8302
38.79641586862214 18.9098
38.8200207821842 18.805999999999997
38.843627409152944 18.7737
38.86742019782782 18.7897
38.891030269149255 18.6944
38.914642058016156 18.7122
38.938255565806124 18.6795
38.96205529464307 18.6044
38.98567225787121 18.6396
39.00929094417078 18.5899
39.03291135492255 18.6404
39.05671804624804 18.5587
39.080341923549106 18.5234
39.103967529460334 18.4252
39.127594865365744 18.3757
39.15140854155791 18.3501
39.17503935514948 18.333
39.19867190290282 18.3469
39.22249083587951 18.3482
39.24612686969409 18.3554
39.269764641845306 18.2574
39.293404153722804 18.2303
39.317230110864074 18.1007
39.34087311998506 18.0839
39.36451787301696 18.1681
39.388164371352595 18.0453
39.41199737518003 18.0342
39.43564738196752 18.0339
39.45929913825317 18.0527
39.48295264543308 17.9925
39.506792718520884 17.976
39.530449745387216 17.9721
39.55410852735203 17.9441
39.57776906581474 17.9629
39.60161623079 17.89
39.625280300200025 17.8278
39.64894613032202 17.7518
39.67261372255866 17.7247
39.6964680021016 17.7433
39.72013913657293 17.7674
39.74381203738292 17.7005
39.76748670593756 17.6597
39.79134812278169 17.6696
39.81502634488497 17.6472
39.83870633896685 17.5343
39.862388106436654 17.4928
39.88625668336918 17.4477
39.90994201572829 17.5257
39.933629125719285 17.5036
39.957503091207826 17.3834
39.9811937746168 17.4176
40.00488623990914 17.351
40.02858048850006 17.3387
40.05246165409549 17.3417
40.076159487492085 17.2342
40.099859108448875 17.269000000000002
40.123560518384345 17.2421
40.1474489070226 17.1942
40.171153913178564 17.156
40.194860712584955 17.1847
40.2185693066637 17.1184
40.242464941335314 17.0322
40.26617714307655 17.0238
40.289891143772046 17.0661
40.3136069448471 17.0977
40.33750984859743 17.0104
40.3612292688043 16.9589
40.3849504936829 16.9102
40.40867352466194 16.9239
40.43258372059144 16.9096
40.45631038219906 16.8641
40.48003885420956 16.7895
40.503769138055105 16.7665
40.52768664931955 16.8528
40.55142057531802 16.7932
40.57515631746428 16.7401
40.599079334038514 16.7405
40.62281872700477 16.6974
40.64655994043941 16.6843
40.67030297578061 16.6926
40.69423334835778 16.6081
40.71798004609188 16.5672
40.74172857006355 16.4886
40.76547892171441 16.4874
40.7894166736039 16.4704
40.813170699248566 16.4359
40.83692655691388 16.445
40.86068424804498 16.4672
40.884629402612525 16.4257
40.908390779366385 16.3875
40.932153993938 16.3236
40.95591904777605 16.3511
40.979871628443995 16.3534
41.003640379561936 16.2708
41.02741097430883 16.2475
41.05118341413683 16.2022
41.075143444384416 16.1873
41.098919593177826 16.1864
41.1226975914255 16.1435
41.14647744058318 16.0856
41.170444943946755 16.0897
41.19422851378379 16.0732
41.218013938914645 16.0574
41.24198706625173 16.0069
41.26577622087193 15.9573
41.289567235177785 15.9285
41.31336011063129 15.8836
41.337340752422875 15.8912
41.361137369129835 15.8858
41.38493585138705 15.8222
41.40873620066004 15.7793
41.43272438060107 15.7942
41.45652848292052 15.7335
41.48033445666918 15.6579
41.50414230331616 15.7089
41.528138045159764 15.6908
41.551949656675205 15.6387
41.575763145513235 15.5916
41.59957851314666 15.6266
41.62358184070442 15.5098
41.64740098505737 15.4692
41.6712220126409 15.4555
41.69504492493139 15.4406
41.71905586207357 15.4559
41.74288256296395 15.4431
41.766711153007456 15.4309
41.79054163368412 15.3991
41.814560204340054 15.3621
41.838394485526365 15.3301
41.86223066180303 15.3066
41.88625497706819 15.3126
41.910094962812 15.2943
41.93393684811168 15.2424
41.95778063445365 15.1637
41.981812625263366 15.1939
42.00566023303407 15.1576
42.029509746323676 15.1228
42.05336116662236 15.1386
42.077400857069705 15.0871
42.10125611078846 15.0642
42.12511327600405 15.0232
42.14897235421036 14.970999999999998
42.173019768448455 15.0031
42.19688269209613 14.9491
42.22074753323349 14.9016
42.24461429335818 14.8433
42.268669455600495 14.9181
42.292540073217886 14.8495
42.31641261433284 14.8414
42.34028708044675 14.8127
42.36435001496739 14.8112
42.38822835065557 14.7895
42.41210861586426 14.6982
42.4359908120986 14.6822
42.46006154323262 14.6437
42.48394762115317 14.7021
42.507835634632315 14.6861
42.531912233047436 14.6057
42.55580413732265 14.5636
42.579697981698 14.5807
42.60359376768525 14.5506
42.62767820545945 14.561
42.65157789440821 14.5196
42.67547952952185 14.5092
42.699383112316 14.4742
42.72347541395347 14.3321
42.74738291190531 14.3617
42.771292362102166 14.4006
42.795203766063516 14.3221
42.819303956130405 14.3188
42.843219287476536 14.2892
42.86713657716324 14.2937
42.89105582671383 14.3449
42.91516392983864 14.2208
42.939087119032166 14.1718
42.963012272677304 14.154000000000002
42.98693939230129 14.1633
43.01105543317513 14.1084
43.034986504731386 14.0977
43.05891954686589 14.0955
43.08285456110972 14.0699
43.10697856448665 13.9845
43.130917542983475 13.9543
43.15485849820081 13.9764
43.17880143167367 13.9312
43.20293342237094 13.9409
43.226880332449 13.8972
43.25082922540554 13.9244
43.27496722682525 13.887
43.29892010567796 13.8326
43.32287497204102 13.8473
43.34683182745632 13.8051
43.370977859791836 13.8015
43.39493871351105 13.714
43.41890156092628 13.7231
43.44286640358341 13.6769
43.46702049182749 13.6534
43.49098934522816 13.6073
43.51496019852649 13.6285
43.5389330532723 13.6206
43.56309522248204 13.4948
43.58707210044314 13.575
43.61105098451946 13.5066
43.63503187626491 13.5034
43.659202151562134 13.4731
43.68318707902681 13.4423
43.70717401884041 13.4529
43.731162972560874 13.4521
43.75534137913236 13.3846
43.779334381108384 13.3712
43.803329401683186 13.3583
43.82732644241872 13.3184
43.8515130055166 13.3147
43.87551410707659 13.2486
43.89951723350145 13.2819
43.923709934595614 13.252
43.94771713129917 13.249
43.97172635758096 13.1854
43.99573761501002 13.1783
44.0199385169922 13.151
44.04395385732619 13.129000000000001
44.067971233533086 13.1203
44.09199064718605 13.1029
44.11619977548961 13.0416
44.14022328470671 13.0201
44.16424883610785 13.0332
44.18827643127035 12.9866
44.21249381139513 12.9262
44.236525514814076 12.9465
44.26055926674478 12.8894
44.28459506876863 12.8818
44.3088207262813 12.8574
44.33286064928722 12.8382
44.35690262714919 12.7959
44.38094666145278 12.7999
44.4051806219871 12.8265
44.42922879003185 12.7843
44.45327901929361 12.7429
44.477331311362136 12.762
44.501573600619416 12.6823
44.525630039221795 12.6166
44.54968854541895 12.6289
44.573937102200176 12.5832
44.5979997645541 12.6231
44.622064499300315 12.5542
44.64613130803592 12.5194
44.67038823869318 12.5365
44.69445921643748 12.5033
44.718532272981385 12.4607
44.742607409926194 12.4598
44.76687274034801 12.4648
44.79095205918753 12.3898
44.81503346325094 12.4243
44.839116954143876 12.4208
44.86339071028742 12.3603
44.88747839599524 12.3285
44.91156817336837 12.3216
44.93566004401666 12.3151
44.959942251908146 12.2816
44.984038330325966 12.3073
45.00813650686762 12.2267
45.03223678314731 12.1692
45.05652746888232 12.2055
45.08063196592069 12.2143
45.104738567558705 12.142000000000001
45.128847275414856 12.1327
45.15314646515866 12.142000000000001
45.17725940679741 12.1011
45.20137445952892 12.0181
45.22568004865265 12.0237
45.24979934496396 12.012
45.27392075725247 11.982999999999999
45.29804428714431 11.982999999999999
45.322358426247604 11.9328
45.346486212804315 11.9104
45.370616121861914 11.9439
45.39474815505086 11.879000000000001
45.41907087049246 11.8476
45.4432071734666 11.7802
45.46734560548283 11.8465
45.49148616817604 11.8022
45.51581748638564 11.8184
45.5399623320197 11.7397
45.56410931325473 11.7401
45.58825843173002 11.7128
45.61259837920865 11.6803
45.636751793816 11.7009
45.66090735060093 11.6542
45.68506505120716 11.6504
45.7094136545275 11.6023
45.73357566449271 11.6023
45.75773982322992 11.5775
45.78190613238733 11.5688
45.806263418194064 11.4898
45.83043404997326 11.5155
45.85460683713677 11.5369
45.87897065658495 11.4763
45.90314777634752 11.4033
45.92732705646868 11.4297
45.9515084986045 11.4096
45.97588104735473 11.3803
46.00006683541565 11.3882
46.02425479047904 11.3512
46.04844491420549 11.3299
46.0728262191024 11.3383
46.09702070211635 11.3219
46.12121735879483 11.2791
46.14541619080294 11.2714
46.169806278764455 11.2226
46.194009483459034 11.2573
46.21821486849841 11.2118
46.24242243555223 11.165
46.266821333570014 11.1682
46.29103328674601 11.1433
46.31524742696538 11.1397
46.33946375590237 11.0918
46.36387149104216 11.0751
46.38809221957392 11.0263
46.41231514186606 11.0589
46.436540259597464 11.0245
46.460956858999374 11.0054
46.48518638983522 10.9761
46.509418121166966 10.9269
46.533652054678114 10.9455
46.55807754555709 10.8807
46.58231590571962 10.9334
46.60655647313217 10.8851
46.630988654873654 10.8193
46.655233659129024 10.8201
46.67948087571551 10.8175
46.70373030632484 10.767000000000001
46.72817142736393 10.7741
46.752425308428684 10.7559
46.77668140861147 10.725999999999999
46.80093972960865 10.6754
46.82538981736788 10.6957
46.849652602470904 10.6717
46.87391761349769 10.6428
46.8981848521493 10.6215
46.9226439341274 10.6043
46.946915650573224 10.5406
46.97118959976749 10.5419
46.99546578341598 10.5408
47.019933887188216 10.5613
47.04421456235744 10.5177
47.06849747711879 10.505
47.09278263318286 10.4897
47.11725978640143 10.4657
47.14154944775105 10.4607
47.165841355555656 10.376
47.1901355115306 10.39
47.214621741924994 10.3903
47.23892041698887 10.3586
47.26322134538975 10.2843
47.28771440635075 10.3007
47.31201986422527 10.2936
47.33632758061436 10.2661
47.360637557241866 10.2343
47.38513974410611 10.255999999999998
47.40945426407847 10.247
47.43377104948137 10.2059
47.45809010204344 10.1668
47.48260144275502 10.1411
47.506925052572285 10.1518
47.53125093475548 10.1381
47.55557909103813 10.0927
47.58009961361992 10.0993
47.60443234110732 10.0918
47.62876734791564 10.0387
47.65310463578333 10.0405
47.6776343683373 10.0385
47.7019762413987 10.0024
47.72632040075572 9.99629
47.75066684815169 9.946530000000001
47.77520581885936 9.92576
47.799556865477655 9.9188
47.823910205386 9.91588
47.84826584033272 9.89035
47.87281407745551 9.84373
47.89717432569297 9.84186
47.92153687423484 9.855260000000001
47.94609208429692 9.83558
47.97045925671401 9.81625
47.99482873471275 9.77179
48.01920052005013 9.757719999999999
48.04376504619224 9.73666
48.068141469543484 9.743360000000001
48.09252020552573 9.71219
48.11690125590099 9.67884
48.1414751266064 9.68947
48.16586082917454 9.67732
48.19024885144316 9.63004
48.2146391951793 9.62813
48.239222439012764 9.62014
48.26361744916137 9.58731
48.28801478610016 9.576030000000001
48.31241445160131 9.562389999999999
48.337007097209366 9.59764
48.36141144338331 9.55488
48.38581812345755 9.49923
48.41022713920929 9.49039
48.434829215320704 9.47015
48.45924292604658 9.4367
48.48365897780325 9.46214
48.50807737237308 9.40404
48.532688907799276 9.40066
48.55711201168574 9.39292
48.581537463754074 9.34405
48.60615611725119 9.3727
48.63058628942721 9.34442
48.65501881516546 9.31166
48.6794536962573 9.29975
48.70408185970339 9.303510000000001
48.72852147531801 9.27248
48.75296345168211 9.23748
48.77740779059232 9.26555
48.80204549302823 9.26148
48.82649458091802 9.22097
48.85094603676547 9.18206
48.87539986237231 9.164589999999999
48.90004713292306 9.13991
48.92450572200832 9.14494
48.94896668628025 9.11392
48.97343002754588 9.05301
48.99808689542115 9.03378
49.02255501470614 9.0468
49.04702551642794 9.052999999999999
49.0714984023988 9.02218
49.096164896893235 8.99435
49.120642575466796 8.97713
49.145122643748394 8.9306
49.16960510355558 8.94785
49.19428125404938 8.929960000000001
49.2187685210852 8.92517
49.243258185121555 8.90696
49.26794160167084 8.843630000000001
49.2924360839405 8.8591
49.31693296869764 8.86635
49.34143225776915 8.82744
49.36612538195438 8.82897
49.39062950396021 8.79313
49.41513603578346 8.7759
49.4396449792564 8.747810000000001
49.46434784069503 8.72966
49.488861631846454 8.71621
49.513377840166804 8.72638
49.537896467493745 8.7199
49.56260909589029 8.65408
49.587132585683285 8.675939999999999
49.611658500018365 8.62995
49.636186840738596 8.62998
49.66090926588511 8.598289999999999
49.685442483902584 8.62805
49.70997813385706 8.578560000000001
49.734516217597076 8.58806
49.75924846937352 8.57496
49.7837914452858 8.51927
49.80833686055187 8.47136
49.83288471702571 8.48523
49.85762682540054 8.50032
49.882179588965734 8.46535
49.9067347993235 8.41629
49.93129245833333 8.432160000000001
49.95604445336378 8.41774
49.98060703442832 8.39306
50.005172069746266 8.36166
50.02993150438364 8.36662
50.05450147301533 8.33563
50.07907390151433 8.3217
50.10364879174981 8.33361
50.12841816587289 8.28616
50.1529980044635 8.28778
50.17758031042124 8.2976
50.20216508562089 8.25362
50.22694442953363 8.23963
50.25153416817468 8.21884
50.27612638170508 8.18688
50.300721072005196 8.18337
50.325510416102105 8.17343
50.350110084975064 8.17525
50.37471223628208 8.16124
50.39931687190919 8.171660000000001
50.424116246675766 8.10914
50.44872587605249 8.12861
50.47333799543065 8.09653
50.49795260670191 8.05713
50.52276204271512 8.05303
50.54738166295838 8.042689999999999
50.57200378079314 8.014710000000001
50.596628398116835 8.01649
50.62144792604559 7.99155
50.646077567609396 7.97165
50.670709714377715 7.97987
50.69553683636198 7.950810000000001
50.72017401885922 7.9638800000000005
50.7448137122895 7.936389999999999
50.76945591856022 7.931189999999999
50.79429318636823 7.92962
50.818940443716784 7.882630000000001
50.84359021965163 7.8516699999999995
50.868242516085964 7.82723
50.893089960641895 7.83662
50.917747323549435 7.806710000000001
50.94240721271973 7.80472
50.96706963007175 7.74259
50.99192728239342 7.748539999999999
51.01659478166073 7.76555
51.04126481489051 7.7564
51.06593738400761 7.73435
51.090805275207074 7.715960000000001
51.11548294172845 7.7186
51.14016314993547 7.688839999999999
51.164845901758845 7.66413
51.18972406304274 7.67018
51.21441192780656 7.650860000000001
51.23910234200271 7.63466
51.2637953075678 7.596210000000001
51.288683770237945 7.573910000000001
51.31338186432707 7.55963
51.33808251561888 7.52646
51.362978729967345 7.52843
51.387684521509755 7.535489999999999
51.41239287610203 7.4858199999999995
51.437103795691165 7.4607399999999995
51.46201036644977 7.433339999999999
51.486726441956634 7.44862
51.51144508832545 7.42937
51.536166307509156 7.42105
51.56108326624387 7.43
51.58580965706056 7.414569999999999
51.61053862657523 7.3800300000000005
51.635270176746864 7.32159
51.66019755512065 7.336860000000001
51.68493429268881 7.3426
51.70967361681515 7.3082899999999995
51.73441552946465 7.28632
51.759353359237934 7.30462
51.7841004750961 7.27924
51.80885018539685 7.24712
51.833602492111254 7.22364
51.8585508051424 7.236680000000001
51.883308330926425 7.207960000000001
51.90806845906181 7.176019999999999
51.932831191525715 7.15148
51.95779001977161 7.14883
51.98255798721516 7.1375399999999996
52.00732856494335 7.108560000000001
52.03229530577543 7.13064
52.057071130455945 7.0877300000000005
52.081849571391054 7.0758600000000005
52.106630630568695 7.1010100000000005
52.13160794279417 7.056889999999999
52.15639426492067 7.0574
52.18118321127822 7.03683
52.205974783860896 7.0663
52.23096269971011 6.993469999999999
52.255759551287994 6.993869999999999
52.280559035098186 6.94718
52.30536115314103 6.95028
52.33035970494467 6.96307
52.35516711807904 6.920610000000001
52.37997717147198 6.895739999999999
52.40478986713005 6.915210000000001
52.42979908731974 6.85765
52.454617094216 6.880160000000001
52.47943774942214 6.866460000000001
52.50426105495102 6.846760000000001
52.529280976059844 6.81619
52.554109609024096 6.85612
52.57894089837482 6.813860000000001
52.60377484613117 6.79502
52.62880550079408 6.80577
52.65364479223379 6.75887
52.67848674816189 6.75888
52.70352547971946 6.76071
52.72837279155837 6.733169999999999
52.753222773982785 6.683889999999999
52.778075429022984 6.724469999999999
52.80312495150885 6.690169999999999
52.827982978797436 6.660769999999999
52.85284368481815 6.66131
52.87770707160767 6.62304
52.90276741793998 6.6344199999999995
52.92763619336701 6.619689999999999
52.952507655698504 6.59515
52.977381806977576 6.57455
53.00245301017842 6.606260000000001
53.02733256653592 6.56807
53.052214817996074 6.54746
53.077099766608484 6.5206599999999995
53.102181859804446 6.5055
53.127072229988265 6.50817
53.15196530349892 6.485130000000001
53.17686108239249 6.4655
53.20195409881522 6.467969999999999
53.22685531582556 6.4328
53.25175924441303 6.41
53.27666588664027 6.42129
53.30176985962693 6.41291
53.3266819565689 6.39192
53.35159677336455 6.39703
53.376514312083096 6.38065
53.40162927507703 6.36293
53.42655228516116 6.36529
53.45147802340193 6.33875
53.47660125628886 6.30694
53.50153247842639 6.33317
53.52646643496923 6.29699
53.55140312799818 6.26475
53.576537409691696 6.22647
53.60147960336152 6.25671
53.626424539786164 6.2711
53.65137222105307 6.23094
53.67651758529126 6.20924
53.70147078399681 6.16933
53.72642673383343 6.16317
53.75138543689533 6.1673
53.776541917524526 6.139130000000001
53.801506154876755 6.13079
53.826473151763246 6.11621
53.851442910284916 6.10113
53.87661054126026 6.10571
53.9015858509782 6.0769
53.92656392866066 6.072430000000001
53.95154477641532 6.07261
53.976723591801296 6.03207
54.00171000771266 6.03946
54.02669920004598 6.02161
54.051691170915745 6.03607
54.076881204886796 5.989730000000001
54.101878760928514 5.97582
54.12687910187696 5.93984
54.152077577768296 6.00052
54.1770835166946 5.91568
54.20209224691339 5.93644
54.22710377055121 5.91688
54.25231352511594 5.8733900000000006
54.27733066384342 5.8591
54.30235060239643 5.85142
54.32737334290836 5.825880000000001
54.35259441062629 5.7825
54.377622783395324 5.79243
54.40265396455061 5.809480000000001
54.42768795623251 5.78969
54.45292037169559 5.75549
54.477960012857906 5.7333
54.50300247099511 5.71232
54.52804774825457 5.7078
54.55329154616743 5.6775199999999995
54.57834249018678 5.67325
54.6033962597977 5.65091
54.6284528571545 5.668880000000001
54.653708072335164 5.60759
54.67877035378786 5.59427
54.70383546947698 5.57256
54.72890342156389 5.57466
54.7541700889442 5.550680000000001
54.77924374251975 5.5037400000000005
54.8043202390049 5.47537
54.82959552413022 5.510330000000001
54.8546777351945 5.45361
54.87976279569621 5.40348
54.90485070780914 5.46197
54.930137506558005 5.3990800000000005
54.95523115074295 5.38924
54.98032765308844 5.34042
55.005427015775496 5.3363
55.03072536339621 5.30556
55.05583047570572 5.320819999999999
55.080938454927676 5.31462
55.10604930325027 5.22874
55.131359235107396 5.26445
55.15647585066083 5.2388900000000005
55.181595341907496 5.18264
55.20671771104285 5.16101
55.232039262617704 5.1715800000000005
55.25716741665048 5.12179
55.28229845518636 5.15822
55.30743238042802 5.02569
55.33276558731939 5.03148
55.357905315183636 5.05311
55.383047936390035 4.9931
55.40819345314859 4.95962
55.433538351073295 5.00765
55.458689688238415 4.97462
55.483843927614096 4.94543
55.509197623043605 4.92395
55.53435769621134 4.90416
55.55952067826466 4.82838
55.5846865714265 4.8486199999999995
55.61005202069737 4.84471
55.63522376553902 4.8445800000000006
55.66039842818645 4.80565
55.68557601087004 4.75889
55.7109532500271 4.7293
55.73613670233794 4.71891
