TT I
1.2716486653135266 7.74257
1.2939594142134223 7.484710000000001
1.3162702121660406 6.31717
1.3385810600174564 6.74087
1.3608919586137629 6.82684
1.383202908801069 6.77203
1.405513911425503 6.6503
1.4278249673332093 6.20136
1.4501343378461518 6.54929
1.4724455028545926 6.1301
1.4947567236847858 6.655930000000001
1.517068001182951 6.3922300000000005
1.5393793361953272 6.2743199999999995
1.5616907295681737 4.9996599999999995
1.5840021821477681 5.71172
1.60631369478041 4.730569999999999
1.6286252683124185 5.17439
1.6509369035901333 4.38952
1.6732468618895553 5.13772
1.695558623192809 4.70067
1.7178704487808514 5.20959
1.7401823395001077 4.59809
1.7625012545597203 4.74098
1.7848028405262486 4.97693
1.8071218901122095 4.76173
1.8294236121921872 4.6374699999999995
1.8517427996910911 5.062
1.8740620574440425 4.41375
1.8963639900671978 4.90605
1.9186833908139995 4.90991
1.9409854680117449 4.67247
1.9633050151394713 4.7717
1.9856246367570705 4.99485
2.0079269371922672 5.28408
2.03024671027244 5.00517
2.0525491637446027 4.8516
2.074869091674931 4.67589
2.097171701569106 5.4509300000000005
2.1194917877373847 5.09645
2.141811954326636 4.67183
2.164114805233074 4.2889800000000005
2.186435135143035 5.12659
2.208738150935709 8.05945
2.231058647554722 14.0984
2.2533792288321184 11.3347
2.275682498336085 6.96974
2.298003251406138 5.24464
2.3203066942619714 4.88701
2.3426276225136022 5.6150400000000005
2.3649486396617507 5.633780000000001
2.387252348930071 5.72807
2.4095735463442893 5.751930000000001
2.4318774374315884 5.93116
2.4541988185014043 5.4932
2.476502894794693 6.73906
2.498824462909887 6.62202
2.521146125856138 6.6760600000000005
2.5434504863470337 6.590669999999999
2.5657723414244717 7.08812
2.588076895590662 6.995430000000001
2.610398946189713 8.154530000000001
2.6327210958598384 7.392510000000001
2.6550259469304716 7.149789999999999
2.6773482972090137 7.33373
2.6996533504259 7.65567
2.7219759047039602 7.98265
2.744298562293959 7.606339999999999
2.7666039251246595 7.5176300000000005
2.7889267918020164 7.6459399999999995
2.8112323652516555 8.26275
2.833555444408179 8.108939999999999
2.8558786311183852 8.87814
2.8781845268938557 8.72035
2.9005079311721484 8.77388
2.9228140460410397 9.06986
2.9451376712799635 9.59765
2.967444008632326 9.57928
2.9897678582247247 9.79518
3.0120918213106695 10.1113
3.0343984987899373 10.3234
3.0567226913198637 10.7261
3.079029599759726 11.6933
3.101354025127254 12.0835
3.123678568232338 12.4059
3.145985829517914 13.0074
3.16831061055229 13.6102
3.1906181112775593 14.2835
3.212943133635653 15.4146
3.2352682779763207 15.3777
3.2575761442691227 15.3569
3.2799015350264273 15.870999999999999
3.302209649240067 16.0026
3.3245352898092655 16.8829
3.3468436553365257 17.4257
3.369169549113219 17.5357
3.3914955708171384 18.3085
3.413804319727358 18.9836
3.4361305997334863 18.8686
3.4584396084414553 19.7314
3.4807661501462652 20.327
3.503092824025881 20.6697
3.5254022288463154 20.8653
3.5477291695206588 21.2989
3.5700388426251948 21.6905
3.5923660534916446 22.8046
3.6146934007816114 29.6733
3.637003482731501 48.8081
3.6593311053109985 53.4505
3.681641464033634 36.4412
3.7039693653009733 26.8543
3.726297407241705 25.7153
3.7486081875460804 25.451
3.7709365132734978 26.0282
3.793247578841633 26.6382
3.8155761917550093 26.8536
3.8378875459837216 26.9052
3.8602164494827234 27.1876
3.882545499606844 28.0131
3.9048572932539183 28.8716
3.9271866390645718 28.77
3.9494987298666713 29.4834
3.971828374764527 30.1936
3.9941581705403255 30.5464
4.016470713506008 31.3098
4.038800813471445 32.1965
4.061113662089144 32.2506
4.0834440696459176 33.3531
4.105774632334751 33.5174
4.128087945865126 34.2247
4.150418821249301 35.2803
4.172732448931298 36.1972
4.195063640413578 37.2271
4.2173775856475215 39.6169
4.239709096631102 53.5015
4.262040768704612 117.415
4.284355196706267 145.791
4.306687193387355 102.712
4.329001947444346 56.3207
4.35133427213731 44.8298
4.373666762177566 43.3583
4.395982011761091 43.9131
4.418314834921175 45.222
4.44063041906622 48.9873
4.4629635787515625 53.4386
4.4852969080429785 54.1855
4.5076130004776225 52.8055
4.529946671403969 55.8304
4.552263106909177 58.196999999999996
4.574597122877047 56.8921
4.596931312711224 54.3529
4.619248269273446 54.1561
4.6415828092605835 55.6846
4.663900117405352 56.0927
4.686235010953232 57.2416
4.708552674085913 58.9882
4.730887924602802 60.342
4.753223354952695 62.236000000000004
4.775541557023902 65.6047
4.797877349456786 68.0151
4.820195915032126 68.6846
4.842532072957498 68.8409
4.864868414979744 71.7294
4.88718753227192 75.047
4.909524244902505 76.7642
4.931843734218147 77.1816
4.954180820867835 79.8266
4.976518095879839 82.1392
4.998838149695359 84.9927
5.021175803844231 88.4913
5.043496238205739 92.7134
5.065834274903528 97.083
5.088172504230693 101.755
5.1104935158799565 109.82
5.132832132875765 129.501
5.155153533596801 159.705
5.1774925416746225 216.765
5.199814334878411 482.77099999999996
5.2221537374521505 1268.32
5.244493338631803 3261.59
5.266815727034316 7787.22
5.289155727832427 12214.8
5.311478517248165 8216.37
5.333818921080011 2724.36
5.356159527788849 569.364
5.3784829252032536 203.77900000000002
5.400823940070432 155.19899999999998
5.423147747031976 133.31
5.445489173474152 122.37
5.467830807066149 120.661
5.490155234831516 118.76
5.512497285125229 112.212
5.534822130975162 107.366
5.557164601388673 103.93799999999999
5.579489868738879 100.796
5.601832762690846 99.4538
5.6241758697774475 98.3024
5.646501775867269 97.1033
5.668845311622074 96.9234
5.691171647754637 96.4212
5.713515615597765 95.0746
5.735859800852677 94.4571
5.758186788542988 95.7909
5.780531411018185 98.6064
5.802858837297399 98.8402
5.825203900414495 97.8806
5.8475491852224 101.039
5.869877275883075 100.695
5.892223006467101 97.9839
5.914551544266608 97.7118
5.936897724049891 100.986
5.959244129804903 109.26299999999999
5.981573344815301 145.588
6.0039202049061 279.23
6.026249875609095 555.714
6.04859719346037 1109.43
6.070927323278297 2349.36
6.093275102315365 4402.52
6.115623113320588 5428.72
6.137953938319995 3284.17
6.160302415650845 980.0
6.182633708324452 232.87900000000002
6.2049826554078376 113.78399999999999
6.227331838745022 93.0452
6.249663839443684 85.7582
6.27201349767565 81.7494
6.294345974611799 82.1167
6.316696111167083 85.0541
6.339046488263839 82.4355
6.361379686074702 75.0711
6.383730546639482 71.5342
6.406064229255215 70.3513
6.428415576718203 70.9472
6.450749747566656 69.6688
6.47310158535871 67.0837
6.495453669698332 66.1027
6.517788579421056 65.0664
6.540141159237969 63.966
6.562476565766648 63.3454
6.5848296444934045 63.2773
6.607182974060425 63.2318
6.6295191323281015 63.1306
6.651872965955752 63.8143
6.6742096296068985 73.8413
6.6965639707294615 91.8146
6.71891856698715 90.8654
6.741255995248479 73.3224
6.763611104154477 62.6682
6.785949046381137 59.4155
6.808304671371482 59.5446
6.8306605557940046 60.5387
6.852999275508618 59.3724
6.875355681171544 57.9549
6.897694923437771 56.839
6.92005185377892 56.7859
6.9423916220322655 56.6128
6.964749080490181 55.8701
6.987106804399774 55.9753
7.009447368180821 56.2772
7.031805625367033 55.8392
7.054146723727803 55.504
7.076505517631004 55.445
7.098864581288365 54.99
7.121206488070854 54.7848
7.143566093607822 55.6762
7.165908543567245 56.1097
7.188268694426048 56.1604
7.2106291193438095 55.2604
7.232972390625943 55.6357
7.255333366030969 60.728
7.277677189091925 81.4081
7.300038718428332 99.7902
7.322400526130865 88.9247
7.344745183422596 67.5389
7.367107550224791 57.288999999999994
7.389452767901992 55.4157
7.411815697249891 54.9454
7.434161478756298 53.9995
7.456524974096713 54.4267
7.478888753837185 53.9421
7.501235387657368 54.7384
7.523599738562711 54.948
7.545946944825532 55.1899
7.568311870344528 55.4861
7.5906770845765665 55.3841
7.613025156078678 56.1112
7.635390950099687 56.8047
7.657739602662809 56.4141
7.680105979923558 56.1812
7.702472650212829 57.0734
7.724822180948224 57.2172
7.747189439655568 56.8108
7.769539560075357 56.7105
7.791907410653562 56.8987
7.81425812420825 56.7171
7.836626570110925 57.1465
7.858995315087906 57.9376
7.881346924933401 58.0946
7.903716270417482 58.6466
7.926068482028405 59.1176
7.948438431475253 59.4762
7.9708086843180235 59.9186
7.993161805171116 60.6441
8.015532667162402 61.4507
8.037886398416653 62.7385
8.060257873014221 63.0399
8.082629655331942 63.6509
8.104984308787587 64.5456
8.127356708900503 66.8067
8.149711981398308 70.8641
8.172085002766314 72.4116
8.194458336181368 70.7951
8.216814543847752 69.3773
8.23918850371002 70.0747
8.26154533906492 71.2061
8.283919928836452 72.7092
8.306277395339652 73.6306
8.328652618483376 74.9131
8.351028159736202 77.2358
8.373386579575245 79.5722
8.395762759396959 81.3813
8.418121819038275 85.1045
8.440498640894003 92.8291
8.462875785192262 106.43
8.485235811156207 136.506
8.507613602688501 198.915
8.529974277114228 292.154
8.552352719347912 438.64
8.574731488360351 725.503
8.59709314210385 1259.98
8.619472567021075 1933.71
8.64183487789147 2200.6
8.664214962183097 1772.71
8.686577933647762 920.2669999999999
8.708958680784317 347.564
8.731339760774953 155.047
8.753703729764451 110.06200000000001
8.77608547780821 99.6469
8.798450116065078 96.1438
8.820832535634787 93.5478
8.843215292401656 92.9837
8.865580941199045 92.604
8.887964374703538 92.1185
8.910330701447199 92.1387
8.932714815164482 91.8778
8.955099270424924 90.0156
8.977466620733543 87.285
8.999851761421976 86.1686
9.022219798361645 84.9321
9.04460562795561 84.4993
9.066991803441677 84.5102
9.089360876979615 84.8231
9.111747746589993 84.8965
9.13411751544971 83.956
9.156505082664324 83.0526
9.178875550323522 83.1714
9.20126381862328 83.1592
9.223652438908596 82.9953
9.246023961427412 83.0245
9.26841328802173 82.6013
9.290785518039224 83.1926
9.313175554425882 85.3838
9.335565947154315 86.4486
9.357939245086508 86.8758
9.380330352834827 86.1841
9.40270436697103 86.2693
9.425096193225055 85.6012
9.447488380180165 85.6818
9.469863475295412 85.4588
9.492256385987508 85.5715
9.514632206018318 86.0888
9.537025843935714 86.8511
9.559402392368193 87.772
9.581796761000229 89.9644
9.604191496441521 91.8029
9.626569144158516 94.0983
9.648964615551032 95.9113
9.671343000390081 95.5834
9.693739211225699 94.492
9.716135793237463 93.7258
9.738515290448102 94.7205
9.760912617143402 96.0713
9.783292860202891 98.4489
9.805690935076182 100.531
9.828089385495742 101.302
9.850470754023561 102.387
9.872869957865444 106.397
9.89525208097539 113.46600000000001
9.917652041736662 121.366
9.940052382417589 132.136
9.962435644102392 162.58100000000002
9.984836746950979 211.74400000000003
10.007220771957746 275.623
10.029622640473708 384.085
10.052007432299963 581.144
10.074410069984072 880.3789999999999
10.096813093716005 1284.16
10.119199042482517 1719.11
10.141602840636468 1884.39
10.163989564971628 1493.01
10.186394141051062 837.9839999999999
10.208799107559706 359.265
10.231187001965623 174.622
10.253592751657669 124.396
10.275981430388155 113.419
10.298387966769793 110.916
10.320794897965431 110.699
10.343184759907361 109.449
10.36559248305461 107.225
10.387983138083852 107.47
10.410391656691655 115.83
10.432800574501677 128.091
10.455192425893369 145.07399999999998
10.47760214443012 172.33599999999998
10.499994797678786 219.75599999999997
10.522405320453982 303.07599999999996
10.54479877906917 416.379
10.567210109595656 518.495
10.5896218454736 580.102
10.612016518879773 477.954
10.634429067781074 320.67400000000004
10.656824555333241 188.16
10.679237920773568 118.38
10.701651695961992 95.3367
10.724048411481384 89.7828
10.746463008485165 87.1382
10.768860546937125 85.4958
10.791275969274796 84.0161
10.81369180576079 83.0666
10.836090585366925 81.6369
10.858507252467449 80.2501
10.88090686379991 79.5054
10.903324365036394 79.1132
10.925724811614439 78.4237
10.948143150509463 78.8707
10.970561909719066 78.4984
10.992963615930844 77.4534
11.015383218085756 75.8127
11.037785768347074 74.4701
11.06020621697282 73.3535
11.082627090322113 72.523
11.105030913430326 71.8143
11.12745263854165 71.8212
11.149857314510728 72.6497
11.172279894912576 75.2439
11.194702904450653 74.9855
11.217108866490921 72.8767
11.239532736615194 70.868
11.26193956033512 69.8951
11.284364294577085 68.8135
11.306789462371718 68.0
11.329197585398376 67.4439
11.351623622610898 67.4243
11.37403261614354 66.6762
11.396459526308487 66.8681
11.418869393879497 66.1094
11.441297180532617 65.884
11.463725406927658 65.2964
11.486136592353875 65.1426
11.508565700543707 65.0366
11.530977768845315 65.866
11.553407762368774 65.9714
11.575838200059769 65.8329
11.598251599479612 64.6333
11.620682927815501 64.1595
11.64309721895548 63.9172
11.665529441478206 63.428999999999995
11.687962112597958 63.2315
11.710377748130886 63.3717
11.732811318753434 63.1447
11.755227854859067 62.9364
11.777662328529495 63.1797
11.800079768750786 63.105
11.822515149015453 63.3561
11.844950984084935 63.7456
11.867369787303163 63.0813
11.889806534289491 62.873000000000005
11.912226250487029 63.1333
11.934663912939751 63.3144
11.9571020346363 63.7144
11.979523127133968 63.9712
12.001962169624331 65.2387
12.024384183972964 67.1298
12.046824150809913 70.9797
12.069264581333726 75.6898
12.091687985297767 82.2101
12.11412934550045 92.1442
12.136553680195208 107.384
12.158995973632788 130.484
12.181438735204349 157.804
12.20386447284199 185.729
12.226308172985636 206.047
12.24873485024193 200.02700000000002
12.271179492516982 161.69
12.293607112949127 122.87899999999999
12.316052700916226 89.58200000000001
12.338498763250042 73.4659
12.360927805303868 67.3504
12.383374818673879 65.4655
12.405804812803074 64.4764
12.428252780773262 64.47800000000001
12.45070122756722 64.7187
12.473132656675375 64.5278
12.49558206341869 65.2591
12.518014453510101 65.1059
12.540464823770117 65.523
12.562915677315177 65.3767
12.58534951575545 65.6126
12.607801338171472 66.4424
12.630236146511358 68.6653
12.652688941369085 71.1853
12.675124723177234 71.3823
12.697578494048786 70.3628
12.720032754458185 68.5025
12.742470003354093 68.2277
12.764925245138771 68.0838
12.787363476431278 68.6802
12.809819703166806 69.0109
12.83227642391173 69.7983
12.854716135692716 70.4626
12.877173846755147 71.7463
12.899614549869717 72.0472
12.9220732548287 72.9665
12.94453245827299 73.5832
12.966974655289818 74.4179
12.989434858002571 75.2847
13.011878055298721 75.988
13.034339260862497 77.1133
13.056800969391883 78.3486
13.079245674017244 81.7056
13.101708390774869 86.5172
13.12415410463411 96.287
13.146617833206086 106.875
13.169064559883248 117.74600000000001
13.191529303857127 133.606
13.213994557076367 159.122
13.236442809902437 198.817
13.258909083908291 254.543
13.28135835851934 317.111
13.30382565690295 379.70599999999996
13.326293469022952 426.25
13.348744283242008 419.99
13.371213125129904 345.889
13.39366497011003 249.74099999999999
13.416134845360597 164.87
13.438605238843131 121.76299999999999
13.46105863690397 109.868
13.483530069144786 111.118
13.505984506951902 116.204
13.528456981549432 126.88600000000001
13.550929978879088 143.504
13.573385983253365 168.851
13.595860028340867 207.93900000000002
13.618317081455832 256.783
13.64079217790333 308.53
13.663250283359057 349.452
13.685726434770173 366.19
13.708203115221277 327.039
13.730662806148091 250.08700000000002
13.75314054697177 178.295
13.775601299246777 124.80799999999999
13.798080104050406 96.6318
13.820559442405358 85.7971
13.843021793671388 82.4835
13.865502201420897 81.0151
13.887965623051947 80.387
13.910447103807167 79.2257
13.932929122629764 77.7667
13.955394156785959 77.3587
13.977877254034569 76.3543
14.000343367582113 75.523
14.022827546871707 74.9154
14.045294743423524 74.3096
14.06778000837062 73.8705
14.090265817715476 73.8277
14.112734645763819 73.0638
14.13522154619454 72.7159
14.157691466286913 72.5057
14.180179461423874 72.2507
14.202668005486178 71.6729
14.22513957064374 71.4172
14.247629214846473 71.0141
14.270101881097517 70.9281
14.29259262906496 70.6722
14.315083930490205 70.9587
14.337558255389705 70.8631
14.360050666019726 70.7958
14.382526101071944 70.2187
14.405019624534942 69.6235
14.427513705993134 69.6405
14.449990813291825 69.5754
14.47248601302899 69.4345
14.49496423954951 69.559
14.517460561197822 69.6519
14.539939910570322 69.2006
14.562437357763558 69.4882
14.58493536931253 70.0998
14.607416409993311 70.6889
14.62991555254159 71.1214
14.652397725157423 71.3389
14.674898002342799 71.2004
14.697398848433282 71.3366
14.719882725991326 73.0397
14.74238471217934 75.358
14.764869730765593 79.0426
14.787372860692983 82.3365
14.809876564079925 86.7804
14.83236330125751 92.9009
14.854868153850365 102.279
14.877356041159485 117.037
14.899862046604186 136.07399999999998
14.922351087688757 160.084
14.944858249632887 185.542
14.967365991421232 212.112
14.989856770231246 221.267
15.012365673994204 212.80700000000002
15.03485761569738 182.081
15.05736768508665 143.041
15.07987833888692 109.6
15.102372032001655 88.12299999999999
15.124883856909658 76.3821
15.14737872204565 72.7007
15.169891721717274 71.0703
15.192405310371893 70.84
15.214901940621196 70.6276
15.237416709527137 70.2097
15.259914520936249 70.0013
15.282430473753607 69.2327
15.304947020131227 68.6225
15.327446610371178 67.9867
15.349964346154254 67.6318
15.372465126703139 67.2169
15.394984055556009 67.2608
15.417486030076159 66.7889
15.44000615566487 66.6718
15.462526881230803 66.561
15.485030653812652 66.5352
15.507552581617434 66.3591
15.530057557334603 66.3457
15.55258069104857 66.5779
15.575104429329837 66.8975
15.597611216864632 66.8193
15.620136166564563 67.6263
15.6426441664095 69.6479
15.665170331202765 72.375
15.687697105158826 75.1262
15.710206930593545 78.7995
15.732734925158933 82.9155
15.755245972089478 90.0338
15.77777519094324 99.9824
15.800287463046663 113.64200000000001
15.822817909869592 132.311
15.84534897229804 153.149
15.867863089299354 173.447
15.890395385222186 189.687
15.912910736597423 192.385
15.935444269699861 178.423
15.957978423016485 148.399
15.980495633101265 117.044
16.003031029129367 91.9539
16.02554948280019 74.5943
16.048086125229432 66.9905
16.070623392487107 64.4728
16.09314371869582 63.5756
16.11568223789321 62.7088
16.13820381691126 61.7304
16.160743591742527 61.4102
16.183283996022084 60.762
16.205807461423195 59.7264
16.228349126881973 59.1601
16.25087385432698 59.2432
16.27341678466365 58.6421
16.29594277784926 58.3802
16.31848697676433 58.4205
16.341031811604868 58.2343
16.36355971058487 58.1126
16.3861058195587 57.9984
16.40863499352978 57.0896
16.431182380342005 56.7594
16.453730407713202 56.4017
16.476261501364792 56.0017
16.498810812136167 55.7149
16.52134319004079 55.8837
16.54389378792203 55.7712
16.566445031001553 55.62
16.588979342490088 55.4779
16.61153187824822 55.3526
16.634067483263312 55.3546
16.656621315414416 55.1276
16.679175797408888 54.9179
16.701713349928728 55.0416
16.72426913389191 55.3095
16.74680798922351 55.244
16.76936507887444 55.2982
16.791905240734874 54.9954
16.814463639794468 55.0724
16.837022695210294 55.1091
16.859564824093756 55.3869
16.882125194503903 55.6721
16.904668639217885 55.8813
16.927230328348003 55.9834
16.949792678493612 56.3405
16.972338104193863 55.9511
16.994901778652235 55.8736
17.017448529496576 56.1961
17.040013531998152 56.6156
17.06257920018044 57.1717
17.0851279459922 57.9911
17.107694947817667 58.92100000000001
17.130245028099072 59.558
17.15281336730298 60.9145
17.17536478578733 62.9028
17.19793446610687 65.2274
17.220504818648422 68.3619
17.243058251703697 71.3345
17.265629950971032 75.4422
17.288184731571736 79.2269
17.310757781306908 82.837
17.33333150794385 84.6201
17.355888317140174 82.1515
17.37846339986244 77.3087
17.401021565958885 70.862
17.42359800851343 65.7216
17.44617513265564 62.1885
17.468735341390783 60.5887
17.491261035594565 59.7925
17.51396340099364 59.637
17.536490463869136 59.5181
17.559018209820174 59.4446
17.58154663977963 59.7295
17.604251766089718 59.8087
17.626781572227713 60.1784
17.64931206518155 60.3066
17.671843245885103 60.9083
17.69455114821572 60.9909
17.717083712612634 61.0772
17.739616967569667 61.406000000000006
17.762150914021706 62.0325
17.78486160749854 62.123000000000005
17.807396945166804 63.246
17.829932977143503 64.7274
17.85246970436452 66.3492
17.875183204129467 68.0771
17.897721330097664 69.9631
17.920260154126645 72.5392
17.942799677153296 75.8969
17.9655159983646 79.9239
17.988056927677544 85.9254
18.010598558807683 93.8138
18.033140892692916 103.50200000000001
18.05586005052525 113.324
18.07840379824407 124.365
18.10094825154059 134.36700000000002
18.12366954819864 141.365
18.146215420998306 140.937
18.16876200220057 131.02700000000002
18.191309292745153 115.758
18.214033452627167 102.01299999999999
18.236582170236648 91.6028
18.259131600016456 87.1127
18.281681742907335 88.2621
18.304408781233683 92.3346
18.32696035875955 96.7332
18.349512652227624 100.956
18.372065662579683 105.491
18.394795594587553 105.77799999999999
18.41735004715306 101.949
18.43990521943684 94.5092
18.46246111238171 85.3854
18.485193953325208 76.3709
18.507751296070428 69.3931
18.530309362314178 65.6077
18.552868153000343 63.4419
18.57560391815056 62.4316
18.59816416623245 62.2444
18.620725141597372 61.6851
18.643286845190268 61.1712
18.666025549835414 60.7616
18.688588718427933 60.2528
18.711152618092243 60.1965
18.73389353884365 59.7663
18.75645890921984 59.3547
18.77902501351406 59.0675
18.801591852673102 58.9731
18.824335739722738 58.5616
18.846904057212626 58.5858
18.8694731124168 58.2691
18.89204290628315 58.2691
18.914789774966803 58.0982
18.937361054791623 57.7571
18.959933076131318 57.4895
18.982505839934877 57.2437
19.00525570560582 57.2772
19.027829963004184 57.2402
19.05040496572238 57.6342
19.072980714710468 57.7336
19.095733592739563 57.7455
19.11831084296757 57.9202
19.140888842324735 58.2941
19.16346759176222 58.468
19.18622349753803 58.8977
19.208803755869358 60.031000000000006
19.231384767143577 61.2923
19.253966532312948 62.9944
19.276725481241822 65.3686
19.29930876296784 67.6771
19.3218928014549 70.1888
19.34465404436217 72.8163
19.36723960516257 75.2088
19.389825925592426 75.9134
19.412413006605938 75.0767
19.43517731967805 71.6436
19.457765930683355 66.9699
19.48035530514408 62.8062
19.50294544401556 59.0616
19.525712842708348 56.8948
19.54830451925909 55.3542
19.570896963095727 54.4339
19.593490175174704 54.1209
19.616260674962184 54.1588
19.638855432416964 53.9541
19.661450960992624 54.1519
19.68404726164677 53.9645
19.706820878021247 53.5055
19.729418731756834 53.863
19.752017360452857 53.6754
19.77461676506804 53.9423
19.797393513540218 54.138999999999996
19.819994478951667 54.6341
19.84259622316767 54.9059
19.8651987471481 55.4226
19.887978643247177 55.7029
19.91058273574792 56.2006
19.933187610901943 56.7024
19.955969879466828 58.2834
19.97857632894404 59.8547
20.00118356396599 61.4409
20.023791585494575 63.6004
20.046577028914875 66.2856
20.069186632506966 67.9113
20.091797025500632 69.5052
20.114408208858933 70.056
20.137196842715273 69.5582
20.159809615886765 67.9926
20.18242318232135 65.5864
20.20503754298326 63.7943
20.227829382875154 62.6043
20.250445341109344 62.6159
20.27306209647285 63.3472
20.29567964993108 64.2005
20.31847471147704 65.193
20.34109387027612 65.4963
20.363713830075454 65.199
20.386334591841646 63.8627
20.409132890679302 61.2221
20.431755265564437 58.1879
20.454378445325528 55.1713
20.477002430930366 53.5634
20.499803982716553 52.3626
20.522429589228004 51.608000000000004
20.54505600449589 51.1324
20.567683229489194 50.8503
20.590488049900088 50.6682
20.61311690359731 50.4375
20.63574656993626 50.3727
20.658553853717297 50.0534
20.681185154618298 50.0103
20.703817271080066 49.8221
20.72645020407368 49.2892
20.749260783967177 49.443000000000005
20.771895359337133 49.4405
20.794530754161617 49.3259
20.817166969412938 49.2054
20.83998086114876 49.0488
20.86261872660049 49.1179
20.885257415405402 48.9984
20.90789692853701 48.9047
20.930714147864748 48.909
20.953355319030678 49.1063
20.97599731745334 49.3193
20.99864014410749 48.9935
21.021460706796564 49.0211
21.044105199328826 49.3181
21.06675052302631 49.5273
21.089396678865015 49.6612
21.112220600704806 50.0633
21.134868430275347 50.3821
21.15751709492456 50.518
21.180166595629693 50.6802
21.202993892429635 51.2281
21.22564507473034 51.5481
21.24829709602816 51.667
21.27112693608965 51.7808
21.293780644891275 51.8486
21.316435195634053 50.9246
21.339090589297417 50.281000000000006
21.361923832041875 49.8628
21.384580921090404 49.1469
21.407238856007325 48.6205
21.429897637773326 48.8151
21.45273429906592 48.8179
21.475394784108598 48.6943
21.498056118951983 48.792
21.520718304578022 49.1106
21.543558400304388 49.1965
21.566222297108816 49.3738
21.58888704765135 49.5872
21.61155265291521 50.0462
21.63439619898156 50.3096
21.657063523335786 50.5347
21.67973170537063 51.195
21.7024007460706 51.4563
21.72524775840385 52.3519
21.747918526116475 53.4528
21.770590155457388 54.8237
21.79326264741238 56.4218
21.816113141960237 58.0248
21.838787368860547 59.6514
21.861462461341976 61.4578
21.884315579735777 63.2481
21.90699241312273 64.4535
21.92967011506078 64.9416
21.95234868653799 64.35300000000001
21.9752053151131 63.0784
21.997885635446785 61.2283
22.020566828293532 59.3906
22.04324889464272 57.7923
22.066109049404666 56.58
22.088792872571794 56.305
22.111477572219204 56.3027
22.1341631493376 56.5665
22.157026846313123 56.2278
22.179714188221507 55.4963
22.202402410582668 54.2729
22.22509151438863 52.7385
22.24795876962584 51.4497
22.270649646204486 50.6513
22.293341407213727 50.0075
22.316034053646906 49.6779
22.338904883215342 49.3029
22.36159931041458 49.358000000000004
22.38429462602756 49.2541
22.40699083104897 48.9718
22.429865251039757 49.0735
22.452563244831367 48.8976
22.47526213102522 49.1815
22.49813925616515 48.9036
22.520839937143307 48.849
22.543541513520587 48.9682
22.56624398629403 48.9131
22.589124730075895 49.0284
22.611829005656723 49.3036
22.63453418063466 49.191
22.657240256008077 49.3221
22.680124634582935 49.5096
22.70283252079775 49.7426
22.725541310413075 50.1674
22.74825100442868 50.3313
22.771139033969575 50.6595
22.79385054687155 50.9509
22.81656296718292 51.8371
22.83927629590484 52.656000000000006
22.862167992606945 53.6307
22.88488314827121 54.714
22.907599215359284 55.6351
22.93031619487366 56.5758
22.953211574954405 57.2062
22.975930389478226 58.1021
22.998650119445763 58.1428
23.02137076586092 57.177
23.044269845560063 55.9099
23.06699233506288 54.3811
23.089715744034912 52.6545
23.112617610931565 51.0393
23.135342869061212 49.9861
23.158069049684816 49.4056
23.1807961538087 49.0298
23.20370174880544 49.1043
23.226430710184808 49.3242
23.249160598093425 49.3923
23.271891413539002 49.3378
23.294800752937697 49.3488
23.31753343374794 49.4794
23.340267045128353 49.5443
23.36300158808808 50.113
23.38591468821339 50.3755
23.408651104658304 50.748000000000005
23.431388455719986 51.5188
23.454126742409 52.3714
23.4770436196085 53.4505
23.499783787914662 54.6949
23.522524894889884 55.3015
23.54526694154616 56.4036
23.56818761219047 57.3962
23.59093154860734 57.7677
23.613676427751283 58.141999999999996
23.636422250635754 56.9919
23.659346731118656 55.5226
23.68209445191868 53.4399
23.704843119509587 51.31
23.72759273490623 49.5804
23.750521041644767 48.2961
23.77327256312355 47.3263
23.796025035462787 46.6537
23.818956224555475 46.2213
23.841710609113413 46.2669
23.86446594758979 45.9686
23.887222241002014 45.7837
23.910157285144578 45.3364
23.932915498962537 45.391000000000005
23.955674670778713 45.386
23.978434801611975 45.2558
24.001373717286125 45.1591
24.024135776723917 44.8663
24.046898798245582 44.8566
24.06966278287146 44.6565
24.092605586582614 44.4613
24.115371508023642 44.3818
24.1381383956401 44.1433
24.16090625045381 44.1576
24.183852958731244 44.1412
24.206622758582608 43.9942
24.229393528706886 43.8762
24.252165270127392 43.9287
24.27511589952438 43.9256
24.297889594216997 43.674
24.32066426328598 43.5006
24.34343990775613 43.6655
24.36639447485003 43.5414
24.38917208083877 43.3707
24.41195066531332 43.2765
24.43490819850244 43.2868
24.457688750692377 43.2278
24.48047028445616 43.1307
24.503252800821233 43.3306
24.526214300784112 43.2974
24.548998793132213 43.336999999999996
24.57178427117417 43.1531
24.59457073593893 43.2396
24.617536219319863 43.0436
24.64032466834748 43.1038
24.663114107195035 43.003
24.685904536893013 42.8448
24.708874020360852 42.8422
24.731666442613744 42.8106
24.754459858818787 42.6322
24.777254270007962 42.64
24.80022777025625 42.4695
24.82302418230472 42.4869
24.845821592443674 42.465
24.86862000170663 42.496
24.891597535453727 42.4012
24.914397953892728 42.5435
24.93719937456671 42.5866
24.96000179851076 42.824
24.98298338249997 43.0233
25.00578782394922 43.0688
25.028593271784167 43.3023
25.05157790644186 43.6675
25.07438537804115 43.7923
25.097193859145293 43.8972
25.120003350792075 44.0911
25.142992065061257 44.4901
25.165803588823465 44.7075
25.18861612625217 44.9358
25.211429678386736 45.1154
25.234422489079968 45.0104
25.257238081693636 45.1444
25.280054692141732 45.2032
25.3028723214652 45.1791
25.325869245420463 45.1175
25.348688923599397 45.1364
25.371509623787006 45.016000000000005
25.394331347025812 44.6498
25.41733240110666 44.1605
25.440156181590016 43.5412
25.46298098826268 43.1033
25.48580682216873 42.5121
25.50881202326435 41.8818
25.53163992281684 41.6557
25.55446885274561 41.3087
25.577298814096377 41.1077
25.600308179121807 41.1436
25.623140214533745 41.1872
25.64597328451537 41.0383
25.66898578564376 40.7489
25.691820936010206 40.8346
25.714657124097695 40.9162
25.737494350954734 40.9773
25.760511045684957 40.675
25.783350361364224 40.8241
25.806190718969255 40.7508
25.82903211955018 40.8488
25.852053024868923 40.8497
25.874896522722523 40.8848
25.897741066713106 40.8115
25.920586657892454 40.9864
25.943611790812668 41.0915
25.966459487728237 41.3113
25.989308234998564 41.3478
26.01215803367705 41.7006
26.03518741123814 41.8215
26.05803932412957 41.8208
26.080892291600094 41.7375
26.10374631470478 41.9024
26.12677995397268 42.0095
26.14963609978026 41.9126
26.172493304397875 41.5557
26.19535156888223 41.3463
26.218389486949604 41.0436
26.241249882640123 40.7093
26.26411134137826 40.5302
26.28715248187403 40.4636
26.31001607820869 40.2387
26.3328807407756 40.0661
26.35574647063438 40.3322
26.37879191991473 40.3435
26.401659795896734 40.3672
26.424528742360263 40.6367
26.447398760366614 40.7493
26.470448535598294 40.7838
26.49332070826805 41.0595
26.516193955675355 41.4216
26.53906827888316 41.5492
26.562122397260108 41.8516
26.584998883685063 42.0257
26.607876449110325 42.2005
26.63075509460056 42.3175
26.65381357334404 42.5254
26.67669439061878 42.4431
26.699576291163382 42.2883
26.722459276044212 42.2515
26.745522132402975 41.8888
26.768407297649354 41.5849
26.791293550442003 41.3542
26.814180891848974 41.0265
26.837248143099337 40.8048
26.860137673466657 40.5402
26.88302829566349 40.4013
26.90592001075963 40.2389
26.92899167420566 40.0463
26.951885586870763 39.6975
26.974780595655517 39.6483
26.99785558178161 39.4821
27.020752794605112 39.3111
27.043651106772522 39.1811
27.06655051935668 39.189
27.089629948036183 38.986999999999995
27.112531573292053 38.9702
27.135434302194138 39.0647
27.158338135817015 38.8304
27.181422024430987 38.8288
27.204328079372566 38.6888
27.22723524226965 38.9385
27.250143514198573 38.9243
27.273231880156334 38.7317
27.296142382065014 38.6691
27.319053996245536 38.6017
27.341966723775965 38.6563
27.365059584515222 38.7497
27.38797455070062 38.8583
27.410890633481237 38.7874
27.433807833936918 38.7695
27.456905206923906 38.8358
27.47982465472398 38.7259
27.502745223449743 38.864000000000004
27.525666914182825 38.8309
27.548768816912457 38.856
27.571692763693633 38.7963
27.59461783573812 38.6478
27.617723149491244 38.4961
27.640650484125285 38.3724
27.66357894728264 38.3493
27.686508540048052 38.3713
27.709618414237887 38.3226
27.732550278321757 38.2519
27.755483275279115 38.1897
27.778417406196485 38.203
27.801531858397514 38.3427
27.824468269376716 38.1547
27.847405817586786 38.1331
27.870344504116094 38.292
27.893463551932008 38.4312
27.916404527281053 38.6768
27.93934664422563 38.6722
27.962289903855886 38.7132
27.98541356491974 38.9743
28.00835912214229 38.9657
28.03130582533231 39.2572
28.054253675581805 39.3385
28.077381967556104 39.1651
28.100332124185126 39.2134
28.123283431160893 39.1376
28.146235889577238 39.1229
28.169368830154156 38.7318
28.192323603752033 38.6539
28.215279532083304 38.4068
28.238415973016764 38.154
28.261374223145094 37.9603
28.284333631303806 37.8735
28.307294198589954 37.7256
28.330435319167677 37.2928
28.353398217078915 37.1263
28.376362277420153 36.8813
28.39932750129032 36.7299
28.422473319286713 36.5355
28.44544088262495 36.5295
28.468409612800283 36.5037
28.491379510913497 36.2563
28.51453004413313 36.239000000000004
28.53750229057244 36.1935
28.56047570826344 36.0396
28.583450298308804 36.0972
28.606605564586562 35.9009
28.629582511831156 35.8597
28.65256063474956 35.7936
28.675539934446338 35.8332
28.698699951647605 35.7898
28.72168161743193 35.6957
28.74466446331978 35.6566
28.767648490417624 35.7283
28.790813276438353 35.6001
28.813799678527303 35.6478
28.836787265157085 35.6951
28.859955641890075 35.7272
28.882945610203045 35.5865
28.905936766392035 35.621
28.928929111566863 35.5203
28.952102288520145 35.5678
28.975097024308607 35.437
28.998092952423807 35.2676
29.021090073977508 35.1664
29.04426806913204 35.0665
29.067267590245258 34.8348
29.090268308143695 34.7925
29.11327022394099 34.7405
29.13645305530891 34.6839
29.159457379627167 34.6806
29.18246290519685 34.6019
29.20546963313352 34.5423
29.22865731875826 34.6618
29.25166646419296 34.5941
29.27467681535305 34.3722
29.29768837335608 34.4993
29.320880931312562 34.602
29.34389491580634 34.4431
29.366910110507334 34.44
29.38992651653503 34.4537
29.41312396492981 34.5009
29.436142806456754 34.2861
29.45916286268059 34.1745
29.48236399319994 34.0801
29.50538649169417 33.9881
29.528410208259935 33.983000000000004
29.55143514402014 33.7197
29.574641196749695 33.4972
29.597668583816574 33.3502
29.6206971934585 33.2569
29.64372702680042 33.4534
29.666938019934474 33.3159
29.689970313635285 33.2363
29.713003834422636 33.1953
29.73603858342347 33.0963
29.759254535188578 33.0094
29.78229175361658 33.0052
29.80533020365064 33.0889
29.82836988641968 33.0695
29.85159081507472 32.9726
29.874632976355343 32.8153
29.89767637376955 33.0017
29.920721008448314 32.7866
29.9439469322847 32.7976
29.96699405457564 32.649
29.9900424175358 32.7211
30.013092022298157 32.6375
30.03632295963995 32.6219
30.059375061131373 32.6978
30.08242840783577 32.6868
30.105483000888153 32.5978
30.128718970092244 32.5419
30.151776069006917 32.5925
30.17483441768648 32.6654
30.198074175317235 32.5639
30.221135036724256 32.5984
30.24419715131772 32.5167
30.267260520236203 32.4923
30.290505341942243 32.584
30.313571232750228 32.5978
30.336638381310948 32.5097
30.35970678876503 32.4912
30.38295669299435 32.4382
30.40602763151657 32.4152
30.429099832366074 32.409
30.452173296685572 32.3048
30.47542830191959 32.2832
30.498504306502497 32.2431
30.521581577995562 32.4524
30.544660117543582 32.3809
30.56792024229725 32.4159
30.59100133132069 32.3208
30.614083691845494 32.3802
30.637167325018545 32.3965
30.660432587840603 32.4174
30.683518779717886 32.3107
30.70660624769615 32.3906
30.729694992924372 32.3022
30.75296541239743 32.4477
30.77605672557558 32.4391
30.799149319462742 32.2508
30.8224236211637 32.1352
30.845518789950724 32.0413
30.868615242910597 31.9836
30.891712981195973 31.9131
30.91499247215866 31.7976
30.938092794619365 31.745
30.96119440587579 31.6212
30.984297307082752 31.5726
31.00758200598383 31.5815
31.030687500658694 31.461
31.053794288760695 31.3287
31.076902371446767 31.2455
31.100192296997445 31.2728
31.12330298246119 31.241999999999997
31.14641496599209 31.1303
31.169528248749216 31.2021
31.19282341969534 31.0937
31.215939314557186 31.191
31.239056512134788 31.1682
31.262175013589378 31.1545
31.28547544871168 30.9712
31.30859657161541 30.9926
31.331719001892175 30.9956
31.35484274070538 31.0069
31.378148458819545 31.138
31.401274828443725 30.9948
31.424402510106933 31.0526
31.447712205419993 31.1225
31.470842524931633 30.9288
31.493974159989783 30.9641
31.51710711176168 31.0177
31.54042212308802 30.98
31.563557722100917 30.9252
31.586694641341655 30.8655
31.609832881979628 30.6986
31.63315322823208 30.7005
31.656294125521327 30.4759
31.679436347728515 30.5063
31.70257989602529 30.5055
31.725905596152327 30.4041
31.74905181052835 30.3488
31.772199354521323 30.3984
31.79534822930507 30.3576
31.818679302290967 30.2635
31.84183085259981 30.2893
31.864983737233473 30.326
31.88813795736804 30.3936
31.911474422233013 30.2222
31.934631327356435 30.3048
31.9577895715215 30.2072
31.980949155906522 30.1724
32.004291031706956 30.1727
32.027453310562606 30.1799
32.05061693318573 30.066
32.07396288236386 29.9944
32.09712920658542 29.9695
32.12029687812702 29.7992
32.14346589817093 29.71
32.166817291729984 29.7022
32.18998902288583 29.5813
32.21316210610336 29.4898
32.23633654256711 29.4512
32.259693399663725 29.4282
32.282870556771144 29.3335
32.30604907069099 29.3297
32.329228942610065 29.3256
32.35259128243769 29.1456
32.375773884550505 29.1102
32.398957848235646 29.0974
32.422143174682176 28.9961
32.445511016471215 28.9542
32.468699082679954 28.8996
32.49188851523011 28.8461
32.51507931531304 28.8012
32.538452678331 28.7903
32.56164622776311 28.6743
32.58484114831493 28.5694
32.60803744118015 28.6045
32.631416344731896 28.6368
32.654615396551876 28.6411
32.67781582427913 28.6159
32.701198898634416 28.424
32.72440209253756 28.2902
32.747606665947124 28.378
32.77081262006088 28.3164
32.79420126883317 28.3888
32.81740999876112 28.4154
32.840620112999424 28.2474
32.86383161274818 28.1241
32.88722585534586 28.1019
32.91044014056596 28.2453
32.933655814909734 28.2038
32.95687287957963 28.186
32.98027273544904 28.1888
33.00349259526636 28.0647
33.026713849030116 28.0099
33.04993649794511 28.0254
33.073341986570746 28.0368
33.09656744032826 27.9814
33.11979429286444 27.9722
33.14302254538647 27.994
33.166433686291185 27.9134
33.18966475336992 27.8986
33.212897224069096 27.7456
33.23613109959831 27.7891
33.259547912343415 27.6783
33.2827846121627 27.7862
33.306022720453775 27.6416
33.32926223842861 27.5217
33.352684742614166 27.6549
33.37592709463173 27.611
33.399170859982064 27.4761
33.422597648419426 27.37
33.44584425514446 27.2639
33.46909227885668 27.3128
33.4923417207723 27.1005
33.51577423505344 27.166
33.539026528130385 27.0639
33.56228024307245 27.0478
33.585535381098246 26.9976
33.60897364093058 26.8928
33.63223163992385 26.9665
33.6554910656699 27.0063
33.678751919389796 26.916999999999998
33.702195944520106 26.7283
33.72545966903325 26.8111
33.74872482519663 26.7764
33.771991414233746 26.6655
33.79544122444841 26.5891
33.81871069412428 26.5457
33.84198160035767 26.5627
33.86525394437455 26.6086
33.88870955949969 26.4189
33.911984794020626 26.4254
33.93526147001624 26.4365
33.958539588715006 26.3495
33.98200102861669 26.2876
34.0052820477047 26.2291
34.02856451319451 26.2269
34.05203033759056 26.1056
34.07531571090147 26.1511
34.09860253431845 26.1136
34.121890809074316 26.1072
34.145362493118924 26.073
34.16865368561615 26.0294
34.191946333164054 25.8973
34.21524043699793 25.8508
34.23871800066799 25.9397
34.26201503218366 25.8657
34.28531352370466 25.8888
34.30861347646881 25.698
34.33209693978188 25.7356
34.3553998301885 25.6551
34.378704185565205 25.5597
34.402010007152356 25.5758
34.42549939016683 25.5551
34.44880815937748 25.4662
34.472118398533134 25.381999999999998
34.49543010887669 25.3595
34.51892543169198 25.301
34.54224009966052 25.25
34.56555624255917 25.2957
34.58887386163339 25.2578
34.61237514439016 25.1665
34.6356957311114 25.1776
34.65901779775809 25.0706
34.68252356662995 25.046999999999997
34.705848608458616 25.0108
34.72917513396849 24.9894
34.75250314440949 25.0164
34.77601490857862 24.8553
34.799345904259795 24.8822
34.82267838863559 24.7812
34.846012362958525 24.7488
34.869530142679984 24.714000000000002
34.89286711232212 24.7286
34.91620557568269 24.7051
34.93954553401677 24.7178
34.9630693495876 24.6198
34.986412313340814 24.6669
35.00975677584668 24.6786
35.033102738362956 24.5451
35.05663261012228 24.4123
35.0799815881786 24.4656
35.10333207003229 24.451999999999998
35.12668405694369 24.4553
35.150220005273056 24.3803
35.17357501786656 24.3787
35.19693153931268 24.4688
35.220289570874385 24.3926
35.24383161619786 24.3002
35.267192683604904 24.2608
35.290555264930376 24.1816
35.314101899412165 24.2577
35.33746752422433 24.2352
35.36083466676374 24.2421
35.38420332829803 24.1329
35.407756095629054 24.1586
35.43112781085063 24.1314
35.45450104888391 24.0274
35.477875810999194 24.116
35.50143473172161 24.016
35.52481255774625 24.0784
35.54819191167777 23.9131
35.57157279478914 23.9349
35.595137889488406 23.9136
35.61852184675279 23.8349
35.641907337029984 23.7474
35.665294361595684 23.8256
35.68886565090076 23.6482
35.7122557598848 23.6098
35.73564740699838 23.6472
35.759040593519934 23.6089
35.78261809810353 23.4951
35.80601437933051 23.5133
35.829412203814705 23.4771
35.85281157283719 23.388
35.876395313415884 23.4637
35.8997977874528 23.3714
35.92320180988546 23.296
35.946790244133936 23.2282
35.97019737933222 23.2772
35.993606066789866 23.193
36.01701630779276 23.1287
36.04061101440684 23.1571
36.06402437852291 23.1801
36.08743930005611 23.1277
36.1108557802951 22.9707
36.13445678011326 23.0224
36.15787639383515 23.0001
36.18129757014299 23.0131
36.20472031032821 22.9729
36.22832762423364 22.7736
36.25175350829375 22.8226
36.275180960119776 22.7504
36.298609981005924 22.791999999999998
36.32222362992669 22.7665
36.34565580510207 22.6571
36.36908955323448 22.6693
36.39252487562093 22.5421
36.416144880530226 22.5155
36.43958336764275 22.5963
36.463023432914625 22.6098
36.486465077645676 22.4607
36.51009145956204 22.5684
36.53353627947859 22.4857
36.55698268276811 22.4961
36.58043067073321 22.4527
36.60406345072071 22.3909
36.62751462435344 22.3785
36.65096738658405 22.2975
36.67460498210655 22.3398
36.69806093788647 22.2703
36.72151848619297 22.154
36.744977628333636 22.189
36.76862165890998 22.0912
36.79208400512205 22.0745
36.81554794910557 22.048000000000002
36.83901349217101 21.9512
36.862663978991606 21.8851
36.88613273667352 21.8841
36.90960309738324 21.9239
36.933075062434064 21.8175
36.95673202673572 21.8264
36.98020721697122 21.8001
37.003684015502365 21.7216
37.027162423645365 21.6935
37.050825886711465 21.7339
37.07430753063053 21.5929
37.09779078812467 21.5458
37.121275660513014 21.5694
37.144945643673694 21.4783
37.16843376245278 21.5341
37.19192350009803 21.5189
37.215414857931435 21.4163
37.239091382563885 21.3462
37.262585997426164 21.3947
37.28608223645736 21.4083
37.309763684451696 21.2274
37.33326318851098 21.2773
37.356764320726555 21.2828
37.380267082425526 21.2444
37.40395510942588 21.1629
37.42746114683234 21.1199
37.45096881771841 21.0676
37.474478123414166 21.0996
37.49817275092816 21.0586
37.52168534303452 21.0084
37.54519957395567 20.939
37.568715445024665 20.9299
37.592416694607714 20.9171
37.61593586281424 20.9535
37.63945667518264 20.9546
37.66297913304891 20.8065
37.68668702630454 20.778000000000002
37.710212792059274 20.7128
37.733740207334854 20.7273
37.757269273470364 20.685
37.780983832050374 20.666
37.80451621684926 20.709
37.82805025654007 20.590999999999998
37.851585952464795 20.5765
37.8753071980695 20.452
37.89884622345676 20.4494
37.92238690911902 20.4982
37.94611318753442 20.4107
37.969657210779765 20.3394
37.99320289834801 20.3447
38.016750251586465 20.3126
38.04048325513017 20.3143
38.06403395679343 20.2004
38.087586328183946 20.2027
38.11114037065203 20.1611
38.13488012115898 20.2202
38.1584375229181 20.0834
38.181996599821 20.0645
38.205557353221124 20.0351
38.229303872575656 20.0477
38.2528679961576 19.9982
38.27643380031219 19.9124
38.30000128639589 19.9114
38.32375459653193 19.9194
38.34732546371299 19.8937
38.37089801690786 19.8046
38.39447225747609 19.7453
38.418232380377425 19.7816
38.441810012983396 19.7977
38.46538933705673 19.7005
38.488970353960084 19.7291
38.51273731166058 19.662
38.536321731567014 19.6936
38.55990784840681 19.577
38.58367995004091 19.5849
38.60726947812959 19.518
38.63086070726198 19.494
38.654453638806274 19.4742
38.678232613930824 19.4055
38.70182896773327 19.3841
38.72542702806741 19.3018
38.7490267963045 19.2663
38.77281266709232 19.26
38.79641586862214 19.2851
38.8200207821842 19.2568
38.843627409152944 19.2411
38.86742019782782 19.2357
38.891030269149255 19.1545
38.914642058016156 19.142
38.938255565806124 19.092
38.96205529464307 19.0329
38.98567225787121 19.0756
39.00929094417078 19.0562
39.03291135492255 19.042
39.05671804624804 18.9923
39.080341923549106 18.8962
39.103967529460334 18.9128
39.127594865365744 18.8542
39.15140854155791 18.7882
39.17503935514948 18.8786
39.19867190290282 18.8425
39.22249083587951 18.7495
39.24612686969409 18.7464
39.269764641845306 18.724
39.293404153722804 18.6893
39.317230110864074 18.6333
39.34087311998506 18.5496
39.36451787301696 18.5508
39.388164371352595 18.5203
39.41199737518003 18.4581
39.43564738196752 18.4658
39.45929913825317 18.4566
39.48295264543308 18.410999999999998
39.506792718520884 18.348
39.530449745387216 18.2963
39.55410852735203 18.2996
39.57776906581474 18.3247
39.60161623079 18.2303
39.625280300200025 18.2298
39.64894613032202 18.1637
39.67261372255866 18.217
39.6964680021016 18.1371
39.72013913657293 18.1326
39.74381203738292 18.1335
39.76748670593756 18.1189
39.79134812278169 18.046
39.81502634488497 18.0072
39.83870633896685 17.9321
39.862388106436654 17.9162
39.88625668336918 17.9593
39.90994201572829 17.9198
39.933629125719285 17.8874
39.957503091207826 17.8137
39.9811937746168 17.857
40.00488623990914 17.7863
40.02858048850006 17.7334
40.05246165409549 17.6694
40.076159487492085 17.6769
40.099859108448875 17.7215
40.123560518384345 17.6484
40.1474489070226 17.6355
40.171153913178564 17.5559
40.194860712584955 17.5746
40.2185693066637 17.549
40.242464941335314 17.4156
40.26617714307655 17.4878
40.289891143772046 17.4412
40.3136069448471 17.4002
40.33750984859743 17.4027
40.3612292688043 17.3695
40.3849504936829 17.355
40.40867352466194 17.3183
40.43258372059144 17.2629
40.45631038219906 17.2772
40.48003885420956 17.1897
40.503769138055105 17.1911
40.52768664931955 17.1915
40.55142057531802 17.1164
40.57515631746428 17.1019
40.599079334038514 17.0758
40.62281872700477 17.0444
40.64655994043941 17.0063
40.67030297578061 16.9897
40.69423334835778 16.9767
40.71798004609188 16.9227
40.74172857006355 16.8994
40.76547892171441 16.9192
40.7894166736039 16.915
40.813170699248566 16.7988
40.83692655691388 16.7816
40.86068424804498 16.7957
40.884629402612525 16.750999999999998
40.908390779366385 16.7964
40.932153993938 16.7022
40.95591904777605 16.6758
40.979871628443995 16.6928
41.003640379561936 16.6811
41.02741097430883 16.6279
41.05118341413683 16.5978
41.075143444384416 16.5687
41.098919593177826 16.5942
41.1226975914255 16.5131
41.14647744058318 16.4887
41.170444943946755 16.4109
41.19422851378379 16.4762
41.218013938914645 16.4475
41.24198706625173 16.3691
41.26577622087193 16.3335
41.289567235177785 16.2718
41.31336011063129 16.2992
41.337340752422875 16.2387
41.361137369129835 16.2433
41.38493585138705 16.2092
41.40873620066004 16.224
41.43272438060107 16.1625
41.45652848292052 16.1067
41.48033445666918 16.0964
41.50414230331616 16.0758
41.528138045159764 16.0429
41.551949656675205 15.9896
41.575763145513235 15.9796
41.59957851314666 15.9855
41.62358184070442 15.919
41.64740098505737 15.8457
41.6712220126409 15.8351
41.69504492493139 15.8014
41.71905586207357 15.8309
41.74288256296395 15.7764
41.766711153007456 15.742
41.79054163368412 15.6758
41.814560204340054 15.7126
41.838394485526365 15.741
41.86223066180303 15.6463
41.88625497706819 15.6361
41.910094962812 15.6644
41.93393684811168 15.6067
41.95778063445365 15.5259
41.981812625263366 15.5088
42.00566023303407 15.498
42.029509746323676 15.4323
42.05336116662236 15.4217
42.077400857069705 15.4218
42.10125611078846 15.3797
42.12511327600405 15.3879
42.14897235421036 15.3357
42.173019768448455 15.3027
42.19688269209613 15.286
42.22074753323349 15.2826
42.24461429335818 15.2004
42.268669455600495 15.1801
42.292540073217886 15.1989
42.31641261433284 15.164000000000001
42.34028708044675 15.1175
42.36435001496739 15.1527
42.38822835065557 15.1442
42.41210861586426 15.1296
42.4359908120986 15.0885
42.46006154323262 15.0039
42.48394762115317 15.012
42.507835634632315 14.9319
42.531912233047436 14.9139
42.55580413732265 14.8815
42.579697981698 14.9175
42.60359376768525 14.8739
42.62767820545945 14.8307
42.65157789440821 14.7873
42.67547952952185 14.8467
42.699383112316 14.7688
42.72347541395347 14.7294
42.74738291190531 14.6489
42.771292362102166 14.7311
42.795203766063516 14.7013
42.819303956130405 14.6345
42.843219287476536 14.578
42.86713657716324 14.5805
42.89105582671383 14.5817
42.91516392983864 14.5303
42.939087119032166 14.505
42.963012272677304 14.4674
42.98693939230129 14.4538
43.01105543317513 14.3955
43.034986504731386 14.4352
43.05891954686589 14.3559
43.08285456110972 14.3886
43.10697856448665 14.2981
43.130917542983475 14.2705
43.15485849820081 14.3256
43.17880143167367 14.2587
43.20293342237094 14.2791
43.226880332449 14.2986
43.25082922540554 14.2557
43.27496722682525 14.1237
43.29892010567796 14.0943
43.32287497204102 14.0732
43.34683182745632 14.0517
43.370977859791836 14.075999999999999
43.39493871351105 14.0631
43.41890156092628 14.0467
43.44286640358341 14.0011
43.46702049182749 13.9598
43.49098934522816 13.9206
43.51496019852649 13.9042
43.5389330532723 13.8851
43.56309522248204 13.9174
43.58707210044314 13.8902
43.61105098451946 13.8103
43.63503187626491 13.7915
43.659202151562134 13.7858
43.68318707902681 13.8002
43.70717401884041 13.7186
43.731162972560874 13.7133
43.75534137913236 13.6171
43.779334381108384 13.623
43.803329401683186 13.6454
43.82732644241872 13.5953
43.8515130055166 13.6154
43.87551410707659 13.5415
43.89951723350145 13.5802
43.923709934595614 13.5032
43.94771713129917 13.547
43.97172635758096 13.4848
43.99573761501002 13.4348
44.0199385169922 13.4229
44.04395385732619 13.3793
44.067971233533086 13.3883
44.09199064718605 13.382
44.11619977548961 13.3699
44.14022328470671 13.2933
44.16424883610785 13.3539
44.18827643127035 13.277999999999999
44.21249381139513 13.2138
44.236525514814076 13.2321
44.26055926674478 13.2223
44.28459506876863 13.2401
44.3088207262813 13.1731
44.33286064928722 13.1006
44.35690262714919 13.091
44.38094666145278 13.0676
44.4051806219871 13.1016
44.42922879003185 13.0644
44.45327901929361 13.039000000000001
44.477331311362136 12.995
44.501573600619416 12.9557
44.525630039221795 12.9191
44.54968854541895 12.8843
44.573937102200176 12.8793
44.5979997645541 12.8902
44.622064499300315 12.8753
44.64613130803592 12.8407
44.67038823869318 12.8148
44.69445921643748 12.7685
44.718532272981385 12.732999999999999
44.742607409926194 12.7338
44.76687274034801 12.6804
44.79095205918753 12.677999999999999
44.81503346325094 12.659
44.839116954143876 12.6365
44.86339071028742 12.6331
44.88747839599524 12.6463
44.91156817336837 12.5481
44.93566004401666 12.5611
44.959942251908146 12.5121
44.984038330325966 12.54
45.00813650686762 12.440999999999999
45.03223678314731 12.4892
45.05652746888232 12.4381
45.08063196592069 12.4702
45.104738567558705 12.4306
45.128847275414856 12.3302
45.15314646515866 12.3542
45.17725940679741 12.3593
45.20137445952892 12.2878
45.22568004865265 12.325999999999999
45.24979934496396 12.2819
45.27392075725247 12.2622
45.29804428714431 12.274000000000001
45.322358426247604 12.2467
45.346486212804315 12.1958
45.370616121861914 12.1782
45.39474815505086 12.1523
45.41907087049246 12.0924
45.4432071734666 12.1096
45.46734560548283 12.0553
45.49148616817604 12.0804
45.51581748638564 12.0298
45.5399623320197 12.0351
45.56410931325473 11.9634
45.58825843173002 11.9714
45.61259837920865 11.9639
45.636751793816 11.9657
45.66090735060093 11.8964
45.68506505120716 11.8858
45.7094136545275 11.8676
45.73357566449271 11.802
45.75773982322992 11.8215
45.78190613238733 11.8195
45.806263418194064 11.7487
45.83043404997326 11.7562
45.85460683713677 11.7115
45.87897065658495 11.7182
45.90314777634752 11.7094
45.92732705646868 11.6701
45.9515084986045 11.6381
45.97588104735473 11.6296
46.00006683541565 11.6296
46.02425479047904 11.6114
46.04844491420549 11.5871
46.0728262191024 11.595999999999998
46.09702070211635 11.53
46.12121735879483 11.5345
46.14541619080294 11.4771
46.169806278764455 11.4829
46.194009483459034 11.4707
46.21821486849841 11.455
46.24242243555223 11.4328
46.266821333570014 11.3627
46.29103328674601 11.3645
46.31524742696538 11.3938
46.33946375590237 11.3765
46.36387149104216 11.3305
46.38809221957392 11.299000000000001
46.41231514186606 11.2322
46.436540259597464 11.203
46.460956858999374 11.2087
46.48518638983522 11.2036
46.509418121166966 11.2225
46.533652054678114 11.1762
46.55807754555709 11.1043
46.58231590571962 11.1129
46.60655647313217 11.0998
46.630988654873654 11.0736
46.655233659129024 11.0877
46.67948087571551 11.0827
46.70373030632484 11.0323
46.72817142736393 11.0009
46.752425308428684 11.0147
46.77668140861147 10.9618
46.80093972960865 10.888
46.82538981736788 10.9113
46.849652602470904 10.9575
46.87391761349769 10.8907
46.8981848521493 10.8595
46.9226439341274 10.8415
46.946915650573224 10.8179
46.97118959976749 10.850999999999999
46.99546578341598 10.7908
47.019933887188216 10.7575
47.04421456235744 10.7452
47.06849747711879 10.6812
47.09278263318286 10.6441
47.11725978640143 10.6643
47.14154944775105 10.6749
47.165841355555656 10.6494
47.1901355115306 10.6201
47.214621741924994 10.6598
47.23892041698887 10.5991
47.26322134538975 10.5425
47.28771440635075 10.5455
47.31201986422527 10.5632
47.33632758061436 10.4943
47.360637557241866 10.4983
47.38513974410611 10.4643
47.40945426407847 10.4385
47.43377104948137 10.4479
47.45809010204344 10.4521
47.48260144275502 10.3908
47.506925052572285 10.3633
47.53125093475548 10.355
47.55557909103813 10.3152
47.58009961361992 10.2887
47.60443234110732 10.2742
47.62876734791564 10.3058
47.65310463578333 10.259
47.6776343683373 10.2633
47.7019762413987 10.1788
47.72632040075572 10.1889
47.75066684815169 10.1645
47.77520581885936 10.1417
47.799556865477655 10.1042
47.823910205386 10.133
47.84826584033272 10.1137
47.87281407745551 10.0487
47.89717432569297 10.0617
47.92153687423484 10.0607
47.94609208429692 10.0399
47.97045925671401 10.008
47.99482873471275 9.96804
48.01920052005013 9.96598
48.04376504619224 9.95752
48.068141469543484 9.94461
48.09252020552573 9.927489999999999
48.11690125590099 9.90668
48.1414751266064 9.916080000000001
48.16586082917454 9.90579
48.19024885144316 9.81913
48.2146391951793 9.8179
48.239222439012764 9.80777
48.26361744916137 9.8045
48.28801478610016 9.80618
48.31241445160131 9.76622
48.337007097209366 9.74183
48.36141144338331 9.736239999999999
48.38581812345755 9.70936
48.41022713920929 9.69872
48.434829215320704 9.68984
48.45924292604658 9.66648
48.48365897780325 9.661760000000001
48.50807737237308 9.656889999999999
48.532688907799276 9.616660000000001
48.55711201168574 9.596739999999999
48.581537463754074 9.559510000000001
48.60615611725119 9.59121
48.63058628942721 9.56025
48.65501881516546 9.52303
48.6794536962573 9.51931
48.70408185970339 9.48425
48.72852147531801 9.47449
48.75296345168211 9.4111
48.77740779059232 9.42508
48.80204549302823 9.44317
48.82649458091802 9.37064
48.85094603676547 9.396139999999999
48.87539986237231 9.39522
48.90004713292306 9.35743
48.92450572200832 9.31108
48.94896668628025 9.31129
48.97343002754588 9.26468
48.99808689542115 9.27542
49.02255501470614 9.29853
49.04702551642794 9.26708
49.0714984023988 9.21969
49.096164896893235 9.22357
49.120642575466796 9.20453
49.145122643748394 9.18711
49.16960510355558 9.154760000000001
49.19428125404938 9.13463
49.2187685210852 9.15524
49.243258185121555 9.11973
49.26794160167084 9.09409
49.2924360839405 9.07852
49.31693296869764 9.03477
49.34143225776915 9.00579
49.36612538195438 9.02957
49.39062950396021 8.99752
49.41513603578346 8.95011
49.4396449792564 8.92675
49.46434784069503 8.91721
49.488861631846454 8.94577
49.513377840166804 8.867230000000001
49.537896467493745 8.872910000000001
49.56260909589029 8.864930000000001
49.587132585683285 8.84901
49.611658500018365 8.83569
49.636186840738596 8.819189999999999
49.66090926588511 8.79555
49.685442483902584 8.7974
49.70997813385706 8.79169
49.734516217597076 8.756260000000001
49.75924846937352 8.7432
49.7837914452858 8.732000000000001
49.80833686055187 8.71183
49.83288471702571 8.677760000000001
49.85762682540054 8.68095
49.882179588965734 8.66012
49.9067347993235 8.64136
49.93129245833333 8.629010000000001
49.95604445336378 8.58801
49.98060703442832 8.54912
50.005172069746266 8.54302
50.02993150438364 8.55605
50.05450147301533 8.557889999999999
50.07907390151433 8.5753
50.10364879174981 8.50196
50.12841816587289 8.500639999999999
50.1529980044635 8.49113
50.17758031042124 8.462010000000001
50.20216508562089 8.4438
50.22694442953363 8.40155
50.25153416817468 8.39153
50.27612638170508 8.41427
50.300721072005196 8.340489999999999
50.325510416102105 8.34781
50.350110084975064 8.36057
50.37471223628208 8.35573
50.39931687190919 8.303360000000001
50.424116246675766 8.32227
50.44872587605249 8.31075
50.47333799543065 8.302769999999999
50.49795260670191 8.22752
50.52276204271512 8.19068
50.54738166295838 8.230319999999999
50.57200378079314 8.19192
50.596628398116835 8.20964
50.62144792604559 8.18931
50.646077567609396 8.16008
50.670709714377715 8.1522
50.69553683636198 8.14982
50.72017401885922 8.1339
50.7448137122895 8.076130000000001
50.76945591856022 8.099210000000001
50.79429318636823 8.0903
50.818940443716784 8.08554
50.84359021965163 8.007589999999999
50.868242516085964 8.00527
50.893089960641895 7.99586
50.917747323549435 7.97271
50.94240721271973 7.980760000000001
50.96706963007175 7.938039999999999
50.99192728239342 7.94757
51.01659478166073 7.944
51.04126481489051 7.91908
51.06593738400761 7.906460000000001
51.090805275207074 7.904660000000001
51.11548294172845 7.8553
51.14016314993547 7.8119
51.164845901758845 7.78447
51.18972406304274 7.78768
51.21441192780656 7.76817
51.23910234200271 7.770760000000001
51.2637953075678 7.77624
51.288683770237945 7.73755
51.31338186432707 7.73228
51.33808251561888 7.7075
51.362978729967345 7.73992
51.387684521509755 7.73186
51.41239287610203 7.63722
51.437103795691165 7.6360600000000005
51.46201036644977 7.63777
51.486726441956634 7.597239999999999
51.51144508832545 7.621860000000001
51.536166307509156 7.582789999999999
51.56108326624387 7.55686
51.58580965706056 7.55575
51.61053862657523 7.54013
51.635270176746864 7.53253
51.66019755512065 7.52117
51.68493429268881 7.487839999999999
51.70967361681515 7.48838
51.73441552946465 7.43889
51.759353359237934 7.443410000000001
51.7841004750961 7.4317
51.80885018539685 7.424410000000001
51.833602492111254 7.35555
51.8585508051424 7.37211
51.883308330926425 7.36625
51.90806845906181 7.33829
51.932831191525715 7.3169699999999995
51.95779001977161 7.331519999999999
51.98255798721516 7.296710000000001
52.00732856494335 7.2648399999999995
52.03229530577543 7.25391
52.057071130455945 7.2645100000000005
52.081849571391054 7.236219999999999
52.106630630568695 7.27687
52.13160794279417 7.1818100000000005
52.15639426492067 7.20972
52.18118321127822 7.181960000000001
52.205974783860896 7.158989999999999
52.23096269971011 7.13629
52.255759551287994 7.17232
52.280559035098186 7.129239999999999
52.30536115314103 7.079680000000001
52.33035970494467 7.080369999999999
52.35516711807904 7.09768
52.37997717147198 7.066389999999999
52.40478986713005 7.0594600000000005
52.42979908731974 7.02257
52.454617094216 7.02618
52.47943774942214 7.0331399999999995
52.50426105495102 7.0393
52.529280976059844 7.03505
52.554109609024096 6.9654
52.57894089837482 6.94827
52.60377484613117 6.94428
52.62880550079408 6.88892
52.65364479223379 6.91777
52.67848674816189 6.8582399999999994
52.70352547971946 6.907830000000001
52.72837279155837 6.851369999999999
52.753222773982785 6.815910000000001
52.778075429022984 6.86755
52.80312495150885 6.8719399999999995
52.827982978797436 6.82752
52.85284368481815 6.76169
52.87770707160767 6.74108
52.90276741793998 6.73113
52.92763619336701 6.745839999999999
52.952507655698504 6.72214
52.977381806977576 6.73198
53.00245301017842 6.69429
53.02733256653592 6.685969999999999
53.052214817996074 6.66184
53.077099766608484 6.666189999999999
53.102181859804446 6.64215
53.127072229988265 6.6668899999999995
53.15196530349892 6.650510000000001
53.17686108239249 6.61485
53.20195409881522 6.6433100000000005
53.22685531582556 6.59742
53.25175924441303 6.5407
53.27666588664027 6.54898
53.30176985962693 6.56076
53.3266819565689 6.536580000000001
53.35159677336455 6.51675
53.376514312083096 6.48263
53.40162927507703 6.49254
53.42655228516116 6.47426
53.45147802340193 6.43229
53.47660125628886 6.43812
53.50153247842639 6.4446699999999995
53.52646643496923 6.425619999999999
53.55140312799818 6.39136
53.576537409691696 6.338080000000001
53.60147960336152 6.3276900000000005
53.626424539786164 6.32568
53.65137222105307 6.33725
53.67651758529126 6.34245
53.70147078399681 6.3394
53.72642673383343 6.33443
53.75138543689533 6.30769
53.776541917524526 6.26399
53.801506154876755 6.2462599999999995
53.826473151763246 6.25655
53.851442910284916 6.2394099999999995
53.87661054126026 6.2182900000000005
53.9015858509782 6.2006
53.92656392866066 6.20567
53.95154477641532 6.22359
53.976723591801296 6.20705
54.00171000771266 6.174169999999999
54.02669920004598 6.16629
54.051691170915745 6.11749
54.076881204886796 6.11419
54.101878760928514 6.10532
54.12687910187696 6.0503800000000005
54.152077577768296 6.06966
54.1770835166946 6.00844
54.20209224691339 6.00546
54.22710377055121 5.99926
54.25231352511594 6.0111099999999995
54.27733066384342 5.99108
54.30235060239643 5.99442
54.32737334290836 5.9911900000000005
54.35259441062629 5.94341
54.377622783395324 5.89895
54.40265396455061 5.92662
54.42768795623251 5.86293
54.45292037169559 5.86287
54.477960012857906 5.81734
54.50300247099511 5.799980000000001
54.52804774825457 5.82966
54.55329154616743 5.82891
54.57834249018678 5.80949
54.6033962597977 5.7674199999999995
54.6284528571545 5.7494
54.653708072335164 5.71995
54.67877035378786 5.70515
54.70383546947698 5.70445
54.72890342156389 5.66915
54.7541700889442 5.66519
54.77924374251975 5.64671
54.8043202390049 5.65186
54.82959552413022 5.60921
54.8546777351945 5.54702
54.87976279569621 5.52079
54.90485070780914 5.52651
54.930137506558005 5.49465
54.95523115074295 5.55125
54.98032765308844 5.48808
55.005427015775496 5.43975
55.03072536339621 5.45363
55.05583047570572 5.40468
55.080938454927676 5.39812
55.10604930325027 5.39837
55.131359235107396 5.38825
55.15647585066083 5.3401
55.181595341907496 5.30499
55.20671771104285 5.29237
55.232039262617704 5.2714099999999995
55.25716741665048 5.25788
55.28229845518636 5.26954
55.30743238042802 5.20493
55.33276558731939 5.17924
55.357905315183636 5.19035
55.383047936390035 5.13467
55.40819345314859 5.04863
55.433538351073295 5.068569999999999
55.458689688238415 5.043019999999999
55.483843927614096 5.022469999999999
55.509197623043605 4.98838
55.53435769621134 4.98594
55.55952067826466 4.9515400000000005
55.5846865714265 4.93386
55.61005202069737 4.9348
55.63522376553902 4.9806
55.66039842818645 4.881530000000001
55.68557601087004 4.88812
55.7109532500271 4.8067
55.73613670233794 4.818569999999999
