TT I
1.2716486653135266 7.1597800000000005
1.2939594142134223 7.18019
1.3162702121660406 6.79052
1.3385810600174564 7.177169999999999
1.3608919586137629 6.94491
1.383202908801069 6.040830000000001
1.405513911425503 5.95057
1.4278249673332093 6.36299
1.4501343378461518 6.361190000000001
1.4724455028545926 6.0436
1.4947567236847858 6.33245
1.517068001182951 6.18084
1.5393793361953272 5.77515
1.5616907295681737 5.50436
1.5840021821477681 5.3368400000000005
1.60631369478041 5.12732
1.6286252683124185 5.0370099999999995
1.6509369035901333 3.95555
1.6732468618895553 4.6992
1.695558623192809 4.7373400000000006
1.7178704487808514 4.8554900000000005
1.7401823395001077 4.84125
1.7625012545597203 5.0631
1.7848028405262486 4.97016
1.8071218901122095 4.907109999999999
1.8294236121921872 4.9453
1.8517427996910911 4.71871
1.8740620574440425 4.21675
1.8963639900671978 4.44715
1.9186833908139995 4.88532
1.9409854680117449 5.2134
1.9633050151394713 5.1795599999999995
1.9856246367570705 5.10915
2.0079269371922672 4.72979
2.03024671027244 4.43679
2.0525491637446027 4.6753800000000005
2.074869091674931 4.52848
2.097171701569106 4.83369
2.1194917877373847 5.16622
2.141811954326636 5.03461
2.164114805233074 4.89145
2.186435135143035 6.429869999999999
2.208738150935709 17.2488
2.231058647554722 38.4858
2.2533792288321184 29.2116
2.275682498336085 12.5929
2.298003251406138 6.44295
2.3203066942619714 5.57492
2.3426276225136022 5.32651
2.3649486396617507 5.3879
2.387252348930071 5.56011
2.4095735463442893 5.391769999999999
2.4318774374315884 5.54363
2.4541988185014043 6.09659
2.476502894794693 6.3032699999999995
2.498824462909887 6.54641
2.521146125856138 6.28841
2.5434504863470337 6.66126
2.5657723414244717 6.85813
2.588076895590662 7.881889999999999
2.610398946189713 7.8434800000000005
2.6327210958598384 7.152710000000001
2.6550259469304716 7.55485
2.6773482972090137 7.74109
2.6996533504259 7.936660000000001
2.7219759047039602 7.9619
2.744298562293959 7.3459699999999994
2.7666039251246595 7.91517
2.7889267918020164 7.8881
2.8112323652516555 8.18495
2.833555444408179 8.45716
2.8558786311183852 8.070110000000001
2.8781845268938557 8.433810000000001
2.9005079311721484 8.50825
2.9228140460410397 8.745439999999999
2.9451376712799635 9.719510000000001
2.967444008632326 9.52571
2.9897678582247247 9.59906
3.0120918213106695 10.4019
3.0343984987899373 11.0792
3.0567226913198637 11.1659
3.079029599759726 11.4699
3.101354025127254 12.2285
3.123678568232338 13.0709
3.145985829517914 13.1607
3.16831061055229 13.7593
3.1906181112775593 14.682
3.212943133635653 14.9661
3.2352682779763207 14.8437
3.2575761442691227 15.5244
3.2799015350264273 16.1341
3.302209649240067 16.6565
3.3245352898092655 17.1739
3.3468436553365257 17.2908
3.369169549113219 18.0584
3.3914955708171384 18.9394
3.413804319727358 19.1783
3.4361305997334863 19.0404
3.4584396084414553 19.9256
3.4807661501462652 20.5917
3.503092824025881 21.1522
3.5254022288463154 21.2257
3.5477291695206588 22.0928
3.5700388426251948 22.7931
3.5923660534916446 24.8189
3.6146934007816114 43.8283
3.637003482731501 116.09899999999999
3.6593311053109985 131.171
3.681641464033634 72.3725
3.7039693653009733 33.8592
3.726297407241705 26.7747
3.7486081875460804 26.2948
3.7709365132734978 26.5465
3.793247578841633 27.2226
3.8155761917550093 27.2936
3.8378875459837216 27.6038
3.8602164494827234 27.8979
3.882545499606844 29.0436
3.9048572932539183 29.458000000000002
3.9271866390645718 29.9776
3.9494987298666713 29.986
3.971828374764527 31.0929
3.9941581705403255 31.4013
4.016470713506008 31.8584
4.038800813471445 32.7929
4.061113662089144 33.2315
4.0834440696459176 34.7097
4.105774632334751 34.8141
4.128087945865126 35.9856
4.150418821249301 36.5977
4.172732448931298 37.7136
4.195063640413578 39.5787
4.2173775856475215 45.4039
4.239709096631102 86.87799999999999
4.262040768704612 312.67400000000004
4.284355196706267 446.236
4.306687193387355 284.552
4.329001947444346 99.94
4.35133427213731 51.3534
4.373666762177566 45.7593
4.395982011761091 45.532
4.418314834921175 46.8183
4.44063041906622 57.4327
4.4629635787515625 73.8227
4.4852969080429785 73.0431
4.5076130004776225 57.4457
4.529946671403969 51.2512
4.552263106909177 50.2568
4.574597122877047 51.5676
4.596931312711224 52.4453
4.619248269273446 53.365
4.6415828092605835 54.5408
4.663900117405352 55.4293
4.686235010953232 57.1065
4.708552674085913 58.6008
4.730887924602802 60.0898
4.753223354952695 61.1835
4.775541557023902 62.8478
4.797877349456786 64.1884
4.820195915032126 65.9188
4.842532072957498 67.9237
4.864868414979744 69.6699
4.88718753227192 71.281
4.909524244902505 73.2364
4.931843734218147 74.8925
4.954180820867835 77.6354
4.976518095879839 80.9328
4.998838149695359 83.8455
5.021175803844231 86.9563
5.043496238205739 90.6274
5.065834274903528 94.9638
5.088172504230693 99.8929
5.1104935158799565 106.785
5.132832132875765 133.468
5.155153533596801 193.165
5.1774925416746225 231.71599999999998
5.199814334878411 369.755
5.2221537374521505 1008.34
5.244493338631803 2706.76
5.266815727034316 7015.44
5.289155727832427 11825.2
5.311478517248165 9426.19
5.333818921080011 3344.41
5.356159527788849 675.055
5.3784829252032536 207.342
5.400823940070432 152.791
5.423147747031976 133.366
5.445489173474152 122.323
5.467830807066149 116.346
5.490155234831516 111.564
5.512497285125229 107.554
5.534822130975162 105.975
5.557164601388673 103.432
5.579489868738879 100.431
5.601832762690846 99.9957
5.6241758697774475 99.4342
5.646501775867269 98.2747
5.668845311622074 96.3905
5.691171647754637 95.11200000000001
5.713515615597765 93.7069
5.735859800852677 92.9639
5.758186788542988 92.4177
5.780531411018185 92.2608
5.802858837297399 91.6106
5.825203900414495 91.7131
5.8475491852224 92.0529
5.869877275883075 92.7788
5.892223006467101 93.4479
5.914551544266608 94.4631
5.936897724049891 97.3216
5.959244129804903 102.431
5.981573344815301 119.43700000000001
6.0039202049061 205.226
6.026249875609095 440.798
6.04859719346037 930.138
6.070927323278297 2018.05
6.093275102315365 4109.72
6.115623113320588 5293.77
6.137953938319995 3572.74
6.160302415650845 1250.21
6.182633708324452 297.873
6.2049826554078376 125.22399999999999
6.227331838745022 98.0192
6.249663839443684 88.5196
6.27201349767565 85.5642
6.294345974611799 94.9827
6.316696111167083 113.08
6.339046488263839 106.178
6.361379686074702 85.2684
6.383730546639482 73.982
6.406064229255215 70.5136
6.428415576718203 69.444
6.450749747566656 68.5098
6.47310158535871 67.4983
6.495453669698332 66.6843
6.517788579421056 65.741
6.540141159237969 64.59
6.562476565766648 64.4491
6.5848296444934045 64.2275
6.607182974060425 63.6691
6.6295191323281015 64.2562
6.651872965955752 68.8091
6.6742096296068985 104.556
6.6965639707294615 172.205
6.71891856698715 175.676
6.741255995248479 112.527
6.763611104154477 73.3576
6.785949046381137 62.2077
6.808304671371482 59.7921
6.8306605557940046 59.2226
6.852999275508618 58.29600000000001
6.875355681171544 57.8584
6.897694923437771 57.6319
6.92005185377892 57.5027
6.9423916220322655 57.4808
6.964749080490181 56.8138
6.987106804399774 56.8384
7.009447368180821 56.9358
7.031805625367033 56.9482
7.054146723727803 56.5686
7.076505517631004 56.3477
7.098864581288365 56.3325
7.121206488070854 56.4133
7.143566093607822 56.1915
7.165908543567245 56.4313
7.188268694426048 56.409
7.2106291193438095 57.0213
7.232972390625943 58.7553
7.255333366030969 75.4706
7.277677189091925 151.344
7.300038718428332 223.608
7.322400526130865 185.53
7.344745183422596 106.699
7.367107550224791 66.4958
7.389452767901992 58.2217
7.411815697249891 56.7433
7.434161478756298 55.724
7.456524974096713 55.4374
7.478888753837185 55.305
7.501235387657368 55.9297
7.523599738562711 55.8867
7.545946944825532 56.3855
7.568311870344528 56.4927
7.5906770845765665 56.4587
7.613025156078678 58.1925
7.635390950099687 60.0627
7.657739602662809 58.9965
7.680105979923558 57.2478
7.702472650212829 57.1838
7.724822180948224 56.5809
7.747189439655568 56.7398
7.769539560075357 57.1474
7.791907410653562 57.3529
7.81425812420825 57.4075
7.836626570110925 57.8616
7.858995315087906 58.2944
7.881346924933401 58.5827
7.903716270417482 59.3355
7.926068482028405 59.448
7.948438431475253 60.0879
7.9708086843180235 60.5519
7.993161805171116 61.181999999999995
8.015532667162402 61.3387
8.037886398416653 62.3634
8.060257873014221 62.7499
8.082629655331942 63.4067
8.104984308787587 64.8364
8.127356708900503 69.0422
8.149711981398308 77.028
8.172085002766314 80.265
8.194458336181368 75.1028
8.216814543847752 70.9797
8.23918850371002 70.2956
8.26154533906492 70.985
8.283919928836452 72.4662
8.306277395339652 73.0943
8.328652618483376 74.545
8.351028159736202 76.6519
8.373386579575245 79.0321
8.395762759396959 80.7131
8.418121819038275 86.5432
8.440498640894003 103.821
8.462875785192262 123.162
8.485235811156207 132.887
8.507613602688501 165.363
8.529974277114228 246.90200000000002
8.552352719347912 376.46
8.574731488360351 627.206
8.59709314210385 1089.85
8.619472567021075 1737.44
8.64183487789147 2165.36
8.664214962183097 1928.35
8.686577933647762 1089.33
8.708958680784317 461.532
8.731339760774953 199.938
8.753703729764451 119.62899999999999
8.77608547780821 102.084
8.798450116065078 97.609
8.820832535634787 94.2713
8.843215292401656 92.1706
8.865580941199045 90.5827
8.887964374703538 89.3721
8.910330701447199 91.0501
8.932714815164482 95.2516
8.955099270424924 94.8663
8.977466620733543 90.3576
8.999851761421976 86.6609
9.022219798361645 84.6662
9.04460562795561 84.2279
9.066991803441677 84.0419
9.089360876979615 83.5412
9.111747746589993 82.9607
9.13411751544971 82.5508
9.156505082664324 82.4637
9.178875550323522 82.8031
9.20126381862328 83.3476
9.223652438908596 83.8617
9.246023961427412 83.7031
9.26841328802173 82.68799999999999
9.290785518039224 82.8332
9.313175554425882 83.2112
9.335565947154315 83.1151
9.357939245086508 83.0605
9.380330352834827 83.4388
9.40270436697103 83.4046
9.425096193225055 83.5151
9.447488380180165 84.0667
9.469863475295412 85.0561
9.492256385987508 85.1922
9.514632206018318 86.0634
9.537025843935714 86.2582
9.559402392368193 86.8255
9.581796761000229 87.7584
9.604191496441521 89.1623
9.626569144158516 93.7558
9.648964615551032 100.02799999999999
9.671343000390081 102.62700000000001
9.693739211225699 99.1313
9.716135793237463 95.3948
9.738515290448102 93.9098
9.760912617143402 94.6425
9.783292860202891 95.9698
9.805690935076182 97.1171
9.828089385495742 97.8969
9.850470754023561 100.79899999999999
9.872869957865444 110.47
9.89525208097539 131.659
9.917652041736662 149.025
9.940052382417589 146.566
9.962435644102392 144.933
9.984836746950979 172.899
10.007220771957746 232.547
10.029622640473708 330.954
10.052007432299963 492.76300000000003
10.074410069984072 749.245
10.096813093716005 1146.89
10.119199042482517 1626.17
10.141602840636468 1941.53
10.163989564971628 1716.67
10.186394141051062 1038.57
10.208799107559706 470.061
10.231187001965623 216.05
10.253592751657669 134.869
10.275981430388155 117.022
10.298387966769793 117.421
10.320794897965431 121.59700000000001
10.343184759907361 120.27
10.36559248305461 112.271
10.387983138083852 106.539
10.410391656691655 108.007
10.432800574501677 117.54700000000001
10.455192425893369 132.94299999999998
10.47760214443012 157.469
10.499994797678786 196.815
10.522405320453982 267.077
10.54479877906917 373.236
10.567210109595656 499.269
10.5896218454736 563.646
10.612016518879773 544.456
10.634429067781074 392.039
10.656824555333241 226.502
10.679237920773568 136.46
10.701651695961992 100.28299999999999
10.724048411481384 90.9641
10.746463008485165 87.6372
10.768860546937125 85.9149
10.791275969274796 84.1936
10.81369180576079 83.1288
10.836090585366925 82.0162
10.858507252467449 81.1039
10.88090686379991 79.8683
10.903324365036394 79.2396
10.925724811614439 79.5875
10.948143150509463 81.5579
10.970561909719066 80.7339
10.992963615930844 78.6634
11.015383218085756 75.9931
11.037785768347074 74.2732
11.06020621697282 73.6052
11.082627090322113 73.4724
11.105030913430326 73.2573
11.12745263854165 74.0597
11.149857314510728 79.0936
11.172279894912576 87.96
11.194702904450653 89.3346
11.217108866490921 83.7161
11.239532736615194 77.7904
11.26193956033512 74.4886
11.284364294577085 72.2392
11.306789462371718 69.8228
11.329197585398376 68.1033
11.351623622610898 67.7271
11.37403261614354 66.7786
11.396459526308487 66.5949
11.418869393879497 66.4978
11.441297180532617 66.0056
11.463725406927658 65.8169
11.486136592353875 65.712
11.508565700543707 66.6373
11.530977768845315 69.2375
11.553407762368774 70.7886
11.575838200059769 69.6742
11.598251599479612 66.9691
11.620682927815501 65.2865
11.64309721895548 64.8362
11.665529441478206 64.0724
11.687962112597958 64.0398
11.710377748130886 63.8313
11.732811318753434 63.8573
11.755227854859067 63.9153
11.777662328529495 63.8269
11.800079768750786 63.4585
11.822515149015453 63.3154
11.844950984084935 63.4055
11.867369787303163 62.9574
11.889806534289491 62.9991
11.912226250487029 63.3687
11.934663912939751 63.4867
11.9571020346363 63.4673
11.979523127133968 63.7033
12.001962169624331 64.378
12.024384183972964 65.0366
12.046824150809913 67.9728
12.069264581333726 73.0891
12.091687985297767 79.4237
12.11412934550045 88.0878
12.136553680195208 101.71799999999999
12.158995973632788 120.214
12.181438735204349 147.352
12.20386447284199 174.80900000000003
12.226308172985636 204.204
12.24873485024193 212.05
12.271179492516982 178.68599999999998
12.293607112949127 140.608
12.316052700916226 105.90700000000001
12.338498763250042 85.0657
12.360927805303868 73.8945
12.383374818673879 68.4079
12.405804812803074 65.9464
12.428252780773262 65.2636
12.45070122756722 65.2841
12.473132656675375 64.9918
12.49558206341869 65.3128
12.518014453510101 65.1711
12.540464823770117 65.4776
12.562915677315177 65.5171
12.58534951575545 66.5489
12.607801338171472 69.2577
12.630236146511358 76.8299
12.652688941369085 83.5869
12.675124723177234 84.4883
12.697578494048786 78.6985
12.720032754458185 72.0132
12.742470003354093 69.25399999999999
12.764925245138771 68.8435
12.787363476431278 68.8377
12.809819703166806 68.8573
12.83227642391173 69.7232
12.854716135692716 70.3978
12.877173846755147 71.5073
12.899614549869717 71.6835
12.9220732548287 72.4368
12.94453245827299 73.1223
12.966974655289818 74.0321
12.989434858002571 74.6996
13.011878055298721 75.2877
13.034339260862497 76.2264
13.056800969391883 77.2193
13.079245674017244 79.1303
13.101708390774869 81.2136
13.12415410463411 87.7382
13.146617833206086 99.337
13.169064559883248 111.135
13.191529303857127 125.49600000000001
13.213994557076367 146.213
13.236442809902437 177.56799999999998
13.258909083908291 224.264
13.28135835851934 281.79400000000004
13.30382565690295 348.51099999999997
13.326293469022952 410.43300000000005
13.348744283242008 437.452
13.371213125129904 390.476
13.39366497011003 293.097
13.416134845360597 194.56400000000002
13.438605238843131 132.705
13.46105863690397 109.26
13.483530069144786 106.62799999999999
13.505984506951902 111.10600000000001
13.528456981549432 119.54899999999999
13.550929978879088 133.148
13.573385983253365 154.06
13.595860028340867 187.205
13.618317081455832 231.653
13.64079217790333 283.70099999999996
13.663250283359057 334.01
13.685726434770173 368.436
13.708203115221277 354.83
13.730662806148091 283.895
13.75314054697177 203.896
13.775601299246777 140.504
13.798080104050406 103.2
13.820559442405358 87.725
13.843021793671388 83.3288
13.865502201420897 81.0991
13.887965623051947 80.579
13.910447103807167 79.3465
13.932929122629764 77.7677
13.955394156785959 77.6015
13.977877254034569 76.575
14.000343367582113 75.5478
14.022827546871707 75.2545
14.045294743423524 74.6097
14.06778000837062 73.6357
14.090265817715476 73.6446
14.112734645763819 73.5396
14.13522154619454 73.5791
14.157691466286913 73.5814
14.180179461423874 73.4401
14.202668005486178 72.4759
14.22513957064374 71.556
14.247629214846473 70.91199999999999
14.270101881097517 70.7719
14.29259262906496 71.3824
14.315083930490205 72.7334
14.337558255389705 73.1712
14.360050666019726 72.8489
14.382526101071944 71.5855
14.405019624534942 70.3492
14.427513705993134 69.5578
14.449990813291825 69.4469
14.47248601302899 69.2776
14.49496423954951 69.33800000000001
14.517460561197822 69.2587
14.539939910570322 69.0582
14.562437357763558 69.7307
14.58493536931253 71.1622
14.607416409993311 72.5228
14.62991555254159 73.5581
14.652397725157423 73.0822
14.674898002342799 72.1843
14.697398848433282 71.1304
14.719882725991326 71.5657
14.74238471217934 72.0832
14.764869730765593 75.0775
14.787372860692983 78.531
14.809876564079925 82.9634
14.83236330125751 88.3612
14.854868153850365 96.1773
14.877356041159485 107.74
14.899862046604186 124.12200000000001
14.922351087688757 145.989
14.944858249632887 172.34900000000002
14.967365991421232 198.773
14.989856770231246 220.49200000000002
15.012365673994204 222.699
15.03485761569738 202.22099999999998
15.05736768508665 161.784
15.07987833888692 123.75399999999999
15.102372032001655 96.8746
15.124883856909658 80.27600000000001
15.14737872204565 73.8613
15.169891721717274 71.6379
15.192405310371893 71.5241
15.214901940621196 72.1761
15.237416709527137 72.8705
15.259914520936249 73.0937
15.282430473753607 72.2044
15.304947020131227 70.4554
15.327446610371178 69.3883
15.349964346154254 68.4279
15.372465126703139 67.8967
15.394984055556009 67.623
15.417486030076159 67.2243
15.44000615566487 66.9483
15.462526881230803 66.947
15.485030653812652 67.0698
15.507552581617434 67.1492
15.530057557334603 67.4234
15.55258069104857 67.09
15.575104429329837 67.0983
15.597611216864632 66.465
15.620136166564563 66.4524
15.6426441664095 67.3023
15.665170331202765 69.2772
15.687697105158826 72.5405
15.710206930593545 75.419
15.732734925158933 79.4828
15.755245972089478 85.1507
15.77777519094324 93.4011
15.800287463046663 104.48100000000001
15.822817909869592 120.444
15.84534897229804 138.616
15.867863089299354 161.868
15.890395385222186 180.44099999999997
15.912910736597423 193.513
15.935444269699861 190.06900000000002
15.957978423016485 165.635
15.980495633101265 133.863
16.003031029129367 103.84
16.02554948280019 81.542
16.048086125229432 70.7457
16.070623392487107 67.26100000000001
16.09314371869582 66.5536
16.11568223789321 65.6627
16.13820381691126 64.3451
16.160743591742527 62.626000000000005
16.183283996022084 61.7322
16.205807461423195 60.5481
16.228349126881973 59.8389
16.25087385432698 59.9768
16.27341678466365 59.1298
16.29594277784926 59.4141
16.31848697676433 59.8822
16.341031811604868 60.4921
16.36355971058487 60.9733
16.3861058195587 60.397
16.40863499352978 59.1345
16.431182380342005 57.9641
16.453730407713202 56.9951
16.476261501364792 56.5695
16.498810812136167 56.2365
16.52134319004079 56.2823
16.54389378792203 56.1179
16.566445031001553 55.906000000000006
16.588979342490088 55.8846
16.61153187824822 56.0212
16.634067483263312 55.5812
16.656621315414416 55.5045
16.679175797408888 55.1556
16.701713349928728 55.2097
16.72426913389191 55.6763
16.74680798922351 55.7871
16.76936507887444 55.7185
16.791905240734874 55.8207
16.814463639794468 55.5486
16.837022695210294 55.5245
16.859564824093756 56.1065
16.882125194503903 57.216
16.904668639217885 58.3474
16.927230328348003 58.4955
16.949792678493612 58.385
16.972338104193863 57.3334
16.994901778652235 56.6696
17.017448529496576 56.3347
17.040013531998152 56.4303
17.06257920018044 56.7864
17.0851279459922 57.513999999999996
17.107694947817667 58.2943
17.130245028099072 59.2237
17.15281336730298 60.3236
17.17536478578733 61.8587
17.19793446610687 63.9922
17.220504818648422 66.4475
17.243058251703697 69.3793
17.265629950971032 73.4521
17.288184731571736 77.37100000000001
17.310757781306908 81.914
17.33333150794385 83.508
17.355888317140174 83.1048
17.37846339986244 79.1422
17.401021565958885 73.7805
17.42359800851343 67.747
17.44617513265564 63.6078
17.468735341390783 61.1725
17.491261035594565 59.9208
17.51396340099364 59.6232
17.536490463869136 59.7912
17.559018209820174 59.7747
17.58154663977963 60.0138
17.604251766089718 59.9779
17.626781572227713 60.1375
17.64931206518155 60.3703
17.671843245885103 61.1696
17.69455114821572 61.4041
17.717083712612634 61.8161
17.739616967569667 61.8761
17.762150914021706 61.8488
17.78486160749854 61.7343
17.807396945166804 62.4072
17.829932977143503 63.0338
17.85246970436452 64.3294
17.875183204129467 66.3402
17.897721330097664 68.3544
17.920260154126645 70.5055
17.942799677153296 73.6715
17.9655159983646 77.2956
17.988056927677544 81.6272
18.010598558807683 88.1694
18.033140892692916 96.6165
18.05586005052525 106.265
18.07840379824407 116.955
18.10094825154059 128.641
18.12366954819864 137.832
18.146215420998306 141.654
18.16876200220057 135.689
18.191309292745153 122.84200000000001
18.214033452627167 108.919
18.236582170236648 95.514
18.259131600016456 88.1892
18.281681742907335 86.2441
18.304408781233683 89.2003
18.32696035875955 93.6782
18.349512652227624 98.9414
18.372065662579683 104.389
18.394795594587553 107.081
18.41735004715306 106.053
18.43990521943684 100.473
18.46246111238171 91.1946
18.485193953325208 81.211
18.507751296070428 72.9449
18.530309362314178 67.7819
18.552868153000343 64.5047
18.57560391815056 63.1761
18.59816416623245 62.6285
18.620725141597372 62.2822
18.643286845190268 61.5541
18.666025549835414 61.3873
18.688588718427933 60.7184
18.711152618092243 60.5452
18.73389353884365 60.2898
18.75645890921984 59.7579
18.77902501351406 59.3581
18.801591852673102 59.1916
18.824335739722738 58.6496
18.846904057212626 58.6824
18.8694731124168 58.2924
18.89204290628315 58.187
18.914789774966803 58.0833
18.937361054791623 57.8243
18.959933076131318 57.6132
18.982505839934877 57.7189
19.00525570560582 57.8794
19.027829963004184 57.5935
19.05040496572238 57.7595
19.072980714710468 57.7285
19.095733592739563 57.7004
19.11831084296757 58.2516
19.140888842324735 58.6318
19.16346759176222 59.2102
19.18622349753803 59.6936
19.208803755869358 60.2185
19.231384767143577 60.9926
19.253966532312948 62.2222
19.276725481241822 64.0327
19.29930876296784 66.266
19.3218928014549 68.9628
19.34465404436217 72.2674
19.36723960516257 75.3331
19.389825925592426 76.9923
19.412413006605938 77.2068
19.43517731967805 74.4893
19.457765930683355 70.0615
19.48035530514408 64.9967
19.50294544401556 61.0785
19.525712842708348 57.9207
19.54830451925909 56.2863
19.570896963095727 55.038000000000004
19.593490175174704 54.6152
19.616260674962184 54.4474
19.638855432416964 54.0086
19.661450960992624 54.3384
19.68404726164677 54.2207
19.706820878021247 54.0456
19.729418731756834 54.2236
19.752017360452857 53.8597
19.77461676506804 54.0058
19.797393513540218 54.1208
19.819994478951667 54.4583
19.84259622316767 54.9632
19.8651987471481 55.4607
19.887978643247177 55.5723
19.91058273574792 56.0401
19.933187610901943 56.7684
19.955969879466828 57.537
19.97857632894404 58.94
20.00118356396599 60.0354
20.023791585494575 61.8325
20.046577028914875 64.4072
20.069186632506966 66.5725
20.091797025500632 69.015
20.114408208858933 70.3555
20.137196842715273 70.8562
20.159809615886765 69.9342
20.18242318232135 67.1568
20.20503754298326 64.696
20.227829382875154 63.0531
20.250445341109344 62.386
20.27306209647285 62.8353
20.29567964993108 63.6594
20.31847471147704 64.7239
20.34109387027612 66.2175
20.363713830075454 66.4141
20.386334591841646 65.5714
20.409132890679302 63.2987
20.431755265564437 59.8278
20.454378445325528 57.0008
20.477002430930366 54.8235
20.499803982716553 53.4977
20.522429589228004 52.6784
20.54505600449589 52.0761
20.567683229489194 51.8553
20.590488049900088 51.5143
20.61311690359731 50.9961
20.63574656993626 50.7283
20.658553853717297 50.3564
20.681185154618298 50.3315
20.703817271080066 50.0009
20.72645020407368 49.6885
20.749260783967177 49.7727
20.771895359337133 49.623000000000005
20.794530754161617 49.5726
20.817166969412938 49.5379
20.83998086114876 49.3343
20.86261872660049 49.3257
20.885257415405402 49.3773
20.90789692853701 49.174
20.930714147864748 49.131
20.953355319030678 49.1058
20.97599731745334 49.4073
20.99864014410749 49.0383
21.021460706796564 49.333
21.044105199328826 49.4246
21.06675052302631 49.5705
21.089396678865015 49.6517
21.112220600704806 49.9951
21.134868430275347 50.3803
21.15751709492456 50.4349
21.180166595629693 50.8684
21.202993892429635 51.1793
21.22564507473034 51.5468
21.24829709602816 51.8664
21.27112693608965 52.1486
21.293780644891275 52.3673
21.316435195634053 51.7191
21.339090589297417 50.8407
21.361923832041875 50.3909
21.384580921090404 49.6445
21.407238856007325 48.9916
21.429897637773326 49.0211
21.45273429906592 49.022
21.475394784108598 48.8791
21.498056118951983 48.7629
21.520718304578022 49.0689
21.543558400304388 49.1427
21.566222297108816 49.4529
21.58888704765135 49.4865
21.61155265291521 49.7743
21.63439619898156 50.2227
21.657063523335786 50.1782
21.67973170537063 50.7826
21.7024007460706 51.3321
21.72524775840385 51.9689
21.747918526116475 52.8553
21.770590155457388 53.9014
21.79326264741238 55.2968
21.816113141960237 56.9118
21.838787368860547 58.3695
21.861462461341976 60.2525
21.884315579735777 62.3288
21.90699241312273 63.8184
21.92967011506078 65.1263
21.95234868653799 65.6919
21.9752053151131 64.9083
21.997885635446785 63.196000000000005
22.020566828293532 61.2162
22.04324889464272 59.1174
22.066109049404666 57.5167
22.088792872571794 56.6871
22.111477572219204 56.5352
22.1341631493376 56.5829
22.157026846313123 56.6006
22.179714188221507 56.3858
22.202402410582668 55.4511
22.22509151438863 53.9823
22.24795876962584 52.6503
22.270649646204486 51.5803
22.293341407213727 50.5872
22.316034053646906 50.1557
22.338904883215342 49.7578
22.36159931041458 49.6889
22.38429462602756 49.7556
22.40699083104897 49.5651
22.429865251039757 49.6107
22.452563244831367 49.6969
22.47526213102522 49.7589
22.49813925616515 49.5623
22.520839937143307 49.2964
22.543541513520587 49.2858
22.56624398629403 49.0736
22.589124730075895 49.0725
22.611829005656723 49.256
22.63453418063466 49.306000000000004
22.657240256008077 49.3683
22.680124634582935 49.4289
22.70283252079775 49.7531
22.725541310413075 49.8324
22.74825100442868 50.0278
22.771139033969575 50.5412
22.79385054687155 50.8176
22.81656296718292 51.4325
22.83927629590484 52.2307
22.862167992606945 53.028
22.88488314827121 54.1295
22.907599215359284 55.1707
22.93031619487366 56.0675
22.953211574954405 57.1087
22.975930389478226 58.31399999999999
22.998650119445763 58.7101
23.02137076586092 58.3728
23.044269845560063 57.381
23.06699233506288 55.7688
23.089715744034912 53.9649
23.112617610931565 52.268
23.135342869061212 50.8447
23.158069049684816 49.9449
23.1807961538087 49.5088
23.20370174880544 49.3885
23.226430710184808 49.4397
23.249160598093425 49.3803
23.271891413539002 49.4474
23.294800752937697 49.3618
23.31753343374794 49.5331
23.340267045128353 49.6968
23.36300158808808 49.894
23.38591468821339 50.1304
23.408651104658304 50.5187
23.431388455719986 51.0738
23.454126742409 51.6928
23.4770436196085 52.6278
23.499783787914662 53.8752
23.522524894889884 54.6143
23.54526694154616 55.6339
23.56818761219047 56.7587
23.59093154860734 57.7248
23.613676427751283 58.4347
23.636422250635754 58.1215
23.659346731118656 56.9977
23.68209445191868 55.2379
23.704843119509587 52.8636
23.72759273490623 50.8858
23.750521041644767 49.3021
23.77327256312355 48.1534
23.796025035462787 47.3471
23.818956224555475 46.7855
23.841710609113413 46.6361
23.86446594758979 46.4504
23.887222241002014 46.1911
23.910157285144578 45.7698
23.932915498962537 45.6665
23.955674670778713 45.5463
23.978434801611975 45.508
24.001373717286125 45.3552
24.024135776723917 45.2143
24.046898798245582 45.1691
24.06966278287146 45.0501
24.092605586582614 44.782
24.115371508023642 44.6931
24.1381383956401 44.6022
24.16090625045381 44.6501
24.183852958731244 44.5249
24.206622758582608 44.5882
24.229393528706886 44.0322
24.252165270127392 44.2195
24.27511589952438 44.2215
24.297889594216997 43.9678
24.32066426328598 43.8157
24.34343990775613 43.8134
24.36639447485003 43.7027
24.38917208083877 43.7451
24.41195066531332 43.6911
24.43490819850244 43.5979
24.457688750692377 43.453
24.48047028445616 43.4002
24.503252800821233 43.5991
24.526214300784112 43.6224
24.548998793132213 43.6595
24.57178427117417 43.3964
24.59457073593893 43.5173
24.617536219319863 43.4406
24.64032466834748 43.4547
24.663114107195035 43.3953
24.685904536893013 43.1079
24.708874020360852 43.0602
24.731666442613744 43.0111
24.754459858818787 42.9884
24.777254270007962 42.8772
24.80022777025625 42.7059
24.82302418230472 42.6655
24.845821592443674 42.7292
24.86862000170663 42.6981
24.891597535453727 42.6043
24.914397953892728 42.7741
24.93719937456671 42.6491
24.96000179851076 42.7657
24.98298338249997 42.8946
25.00578782394922 43.1294
25.028593271784167 43.2255
25.05157790644186 43.6708
25.07438537804115 43.7982
25.097193859145293 43.9105
25.120003350792075 44.0731
25.142992065061257 44.5626
25.165803588823465 44.8414
25.18861612625217 44.9543
25.211429678386736 45.1122
25.234422489079968 45.2016
25.257238081693636 45.2787
25.280054692141732 45.2218
25.3028723214652 45.1373
25.325869245420463 45.2363
25.348688923599397 45.4479
25.371509623787006 45.5762
25.394331347025812 45.3127
25.41733240110666 45.0042
25.440156181590016 44.3607
25.46298098826268 43.8194
25.48580682216873 43.2652
25.50881202326435 42.6404
25.53163992281684 42.0753
25.55446885274561 41.7764
25.577298814096377 41.5029
25.600308179121807 41.3883
25.623140214533745 41.3788
25.64597328451537 41.3342
25.66898578564376 40.9625
25.691820936010206 41.1991
25.714657124097695 41.0874
25.737494350954734 41.1092
25.760511045684957 40.986999999999995
25.783350361364224 40.937
25.806190718969255 40.8581
25.82903211955018 41.086000000000006
25.852053024868923 41.17
25.874896522722523 41.2574
25.897741066713106 41.0793
25.920586657892454 41.1959
25.943611790812668 41.3498
25.966459487728237 41.394
25.989308234998564 41.4321
26.01215803367705 41.7297
26.03518741123814 41.7209
26.05803932412957 41.882
26.080892291600094 41.8693
26.10374631470478 42.0652
26.12677995397268 42.269
26.14963609978026 42.2231
26.172493304397875 41.9929
26.19535156888223 41.821000000000005
26.218389486949604 41.4172
26.241249882640123 41.1571
26.26411134137826 40.809
26.28715248187403 40.8585
26.31001607820869 40.5762
26.3328807407756 40.3668
26.35574647063438 40.6085
26.37879191991473 40.5205
26.401659795896734 40.563
26.424528742360263 40.6495
26.447398760366614 40.887
26.470448535598294 40.9552
26.49332070826805 41.0507
26.516193955675355 41.4835
26.53906827888316 41.6602
26.562122397260108 41.7933
26.584998883685063 42.0536
26.607876449110325 42.2587
26.63075509460056 42.3193
26.65381357334404 42.4961
26.67669439061878 42.7154
26.699576291163382 42.7188
26.722459276044212 42.4967
26.745522132402975 42.3304
26.768407297649354 41.9818
26.791293550442003 41.7256
26.814180891848974 41.4516
26.837248143099337 40.9671
26.860137673466657 40.8836
26.88302829566349 40.5211
26.90592001075963 40.5198
26.92899167420566 40.4587
26.951885586870763 39.9698
26.974780595655517 39.7389
26.99785558178161 39.714
27.020752794605112 39.6566
27.043651106772522 39.465
27.06655051935668 39.3571
27.089629948036183 39.179
27.112531573292053 39.1691
27.135434302194138 39.262
27.158338135817015 39.0145
27.181422024430987 39.0625
27.204328079372566 38.8684
27.22723524226965 39.032
27.250143514198573 38.9862
27.273231880156334 39.0353
27.296142382065014 38.8366
27.319053996245536 38.6955
27.341966723775965 38.8594
27.365059584515222 38.9643
27.38797455070062 39.0006
27.410890633481237 38.7672
27.433807833936918 38.8482
27.456905206923906 38.8926
27.47982465472398 38.8821
27.502745223449743 38.891
27.525666914182825 39.2141
27.548768816912457 39.0382
27.571692763693633 38.8984
27.59461783573812 38.6976
27.617723149491244 38.7312
27.640650484125285 38.7215
27.66357894728264 38.5818
27.686508540048052 38.4628
27.709618414237887 38.5314
27.732550278321757 38.2583
27.755483275279115 38.3086
27.778417406196485 38.2799
27.801531858397514 38.2913
27.824468269376716 38.2692
27.847405817586786 38.3179
27.870344504116094 38.4662
27.893463551932008 38.5645
27.916404527281053 38.6261
27.93934664422563 38.8083
27.962289903855886 38.6846
27.98541356491974 38.944
28.00835912214229 39.1476
28.03130582533231 39.2584
28.054253675581805 39.3885
28.077381967556104 39.2868
28.100332124185126 39.3202
28.123283431160893 39.3476
28.146235889577238 39.309
28.169368830154156 39.1461
28.192323603752033 39.0188
28.215279532083304 38.7822
28.238415973016764 38.5243
28.261374223145094 38.3765
28.284333631303806 38.0032
28.307294198589954 38.0531
28.330435319167677 37.6424
28.353398217078915 37.476
28.376362277420153 37.235
28.39932750129032 37.1013
28.422473319286713 36.8896
28.44544088262495 36.9359
28.468409612800283 36.7167
28.491379510913497 36.5114
28.51453004413313 36.4634
28.53750229057244 36.3598
28.56047570826344 36.352
28.583450298308804 36.4305
28.606605564586562 36.1187
28.629582511831156 36.3042
28.65256063474956 36.1502
28.675539934446338 36.1095
28.698699951647605 36.06
28.72168161743193 35.992
28.74466446331978 35.9555
28.767648490417624 35.8147
28.790813276438353 35.7565
28.813799678527303 35.8651
28.836787265157085 35.9123
28.859955641890075 35.9706
28.882945610203045 35.8362
28.905936766392035 35.8245
28.928929111566863 35.8033
28.952102288520145 35.7389
28.975097024308607 35.5524
28.998092952423807 35.5016
29.021090073977508 35.3548
29.04426806913204 35.3456
29.067267590245258 35.124
29.090268308143695 35.1228
29.11327022394099 35.0303
29.13645305530891 34.9523
29.159457379627167 34.7531
29.18246290519685 34.6494
29.20546963313352 34.6976
29.22865731875826 34.7775
29.25166646419296 34.7325
29.27467681535305 34.6307
29.29768837335608 34.7327
29.320880931312562 34.7812
29.34389491580634 34.7551
29.366910110507334 34.6292
29.38992651653503 34.6398
29.41312396492981 34.6707
29.436142806456754 34.5588
29.45916286268059 34.5147
29.48236399319994 34.4835
29.50538649169417 34.2883
29.528410208259935 34.1832
29.55143514402014 33.9364
29.574641196749695 33.946
29.597668583816574 33.8024
29.6206971934585 33.5893
29.64372702680042 33.5537
29.666938019934474 33.4545
29.689970313635285 33.398
29.713003834422636 33.38
29.73603858342347 33.3804
29.759254535188578 33.2637
29.78229175361658 33.2268
29.80533020365064 33.1923
29.82836988641968 33.3531
29.85159081507472 33.2096
29.874632976355343 33.0911
29.89767637376955 33.1186
29.920721008448314 33.0056
29.9439469322847 33.0526
29.96699405457564 33.0641
29.9900424175358 32.9888
30.013092022298157 32.9093
30.03632295963995 32.8528
30.059375061131373 32.8195
30.08242840783577 32.9856
30.105483000888153 32.8694
30.128718970092244 32.6979
30.151776069006917 32.7842
30.17483441768648 32.7728
30.198074175317235 32.7124
30.221135036724256 32.8666
30.24419715131772 32.7038
30.267260520236203 32.7084
30.290505341942243 32.7612
30.313571232750228 32.7662
30.336638381310948 32.7676
30.35970678876503 32.6534
30.38295669299435 32.5982
30.40602763151657 32.5883
30.429099832366074 32.5527
30.452173296685572 32.4557
30.47542830191959 32.4455
30.498504306502497 32.4413
30.521581577995562 32.4818
30.544660117543582 32.5632
30.56792024229725 32.4711
30.59100133132069 32.5048
30.614083691845494 32.5297
30.637167325018545 32.5999
30.660432587840603 32.6582
30.683518779717886 32.5545
30.70660624769615 32.6558
30.729694992924372 32.5992
30.75296541239743 32.5881
30.77605672557558 32.5603
30.799149319462742 32.4442
30.8224236211637 32.3355
30.845518789950724 32.2026
30.868615242910597 32.1928
30.891712981195973 32.0817
30.91499247215866 32.099000000000004
30.938092794619365 32.0432
30.96119440587579 31.9877
30.984297307082752 31.9107
31.00758200598383 31.6606
31.030687500658694 31.64
31.053794288760695 31.5767
31.076902371446767 31.482
31.100192296997445 31.4982
31.12330298246119 31.3984
31.14641496599209 31.3104
31.169528248749216 31.3831
31.19282341969534 31.3688
31.215939314557186 31.2879
31.239056512134788 31.2249
31.262175013589378 31.2105
31.28547544871168 31.2093
31.30859657161541 31.294
31.331719001892175 31.2176
31.35484274070538 31.2472
31.378148458819545 31.2351
31.401274828443725 31.1241
31.424402510106933 31.2015
31.447712205419993 31.2441
31.470842524931633 31.2255
31.493974159989783 31.1492
31.51710711176168 31.1995
31.54042212308802 31.164
31.563557722100917 31.0843
31.586694641341655 30.9393
31.609832881979628 30.8741
31.63315322823208 30.8139
31.656294125521327 30.7626
31.679436347728515 30.6847
31.70257989602529 30.625
31.725905596152327 30.5545
31.74905181052835 30.3815
31.772199354521323 30.5262
31.79534822930507 30.5316
31.818679302290967 30.5844
31.84183085259981 30.4927
31.864983737233473 30.4416
31.88813795736804 30.4609
31.911474422233013 30.4305
31.934631327356435 30.4032
31.9577895715215 30.3862
31.980949155906522 30.3972
32.004291031706956 30.4652
32.027453310562606 30.2664
32.05061693318573 30.0824
32.07396288236386 30.0606
32.09712920658542 30.1272
32.12029687812702 30.0169
32.14346589817093 29.9546
32.166817291729984 29.9692
32.18998902288583 29.9062
32.21316210610336 29.7579
32.23633654256711 29.7376
32.259693399663725 29.6352
32.282870556771144 29.5844
32.30604907069099 29.4724
32.329228942610065 29.4191
32.35259128243769 29.4001
32.375773884550505 29.2625
32.398957848235646 29.2924
32.422143174682176 29.2679
32.445511016471215 29.1177
32.468699082679954 29.0321
32.49188851523011 29.0085
32.51507931531304 29.0299
32.538452678331 29.0046
32.56164622776311 28.8567
32.58484114831493 28.7902
32.60803744118015 28.8109
32.631416344731896 28.8822
32.654615396551876 28.826999999999998
32.67781582427913 28.7828
32.701198898634416 28.7407
32.72440209253756 28.6319
32.747606665947124 28.6812
32.77081262006088 28.5104
32.79420126883317 28.498
32.81740999876112 28.4503
32.840620112999424 28.3892
32.86383161274818 28.3568
32.88722585534586 28.3127
32.91044014056596 28.4379
32.933655814909734 28.4363
32.95687287957963 28.4363
32.98027273544904 28.2919
33.00349259526636 28.1896
33.026713849030116 28.2417
33.04993649794511 28.1612
33.073341986570746 28.0864
33.09656744032826 28.0959
33.11979429286444 28.0611
33.14302254538647 28.1476
33.166433686291185 28.0207
33.18966475336992 27.9915
33.212897224069096 27.8307
33.23613109959831 27.9353
33.259547912343415 27.8169
33.2827846121627 27.8728
33.306022720453775 27.8186
33.32926223842861 27.7965
33.352684742614166 27.7854
33.37592709463173 27.7834
33.399170859982064 27.6434
33.422597648419426 27.5292
33.44584425514446 27.4549
33.46909227885668 27.4721
33.4923417207723 27.2865
33.51577423505344 27.4144
33.539026528130385 27.2659
33.56228024307245 27.2441
33.585535381098246 27.1134
33.60897364093058 27.0491
33.63223163992385 27.1012
33.6554910656699 26.976999999999997
33.678751919389796 26.9458
33.702195944520106 26.8954
33.72545966903325 26.8715
33.74872482519663 26.8547
33.771991414233746 26.7571
33.79544122444841 26.7327
33.81871069412428 26.6792
33.84198160035767 26.6882
33.86525394437455 26.7078
33.88870955949969 26.6185
33.911984794020626 26.6289
33.93526147001624 26.5742
33.958539588715006 26.593000000000004
33.98200102861669 26.4619
34.0052820477047 26.425
34.02856451319451 26.3973
34.05203033759056 26.2977
34.07531571090147 26.3158
34.09860253431845 26.3486
34.121890809074316 26.2377
34.145362493118924 26.2537
34.16865368561615 26.1275
34.191946333164054 25.9728
34.21524043699793 26.0365
34.23871800066799 26.0412
34.26201503218366 25.8789
34.28531352370466 25.9278
34.30861347646881 25.9239
34.33209693978188 25.893
34.3553998301885 25.8882
34.378704185565205 25.7785
34.402010007152356 25.6785
34.42549939016683 25.6283
34.44880815937748 25.598000000000003
34.472118398533134 25.538
34.49543010887669 25.5024
34.51892543169198 25.4289
34.54224009966052 25.3988
34.56555624255917 25.4406
34.58887386163339 25.3637
34.61237514439016 25.316
34.6356957311114 25.3335
34.65901779775809 25.2991
34.68252356662995 25.2646
34.705848608458616 25.2126
34.72917513396849 25.1483
34.75250314440949 25.1275
34.77601490857862 24.9913
34.799345904259795 25.0736
34.82267838863559 25.0823
34.846012362958525 24.9296
34.869530142679984 24.9258
34.89286711232212 24.9252
34.91620557568269 24.9374
34.93954553401677 24.8467
34.9630693495876 24.7968
34.986412313340814 24.7729
35.00975677584668 24.7346
35.033102738362956 24.7557
35.05663261012228 24.5923
35.0799815881786 24.6045
35.10333207003229 24.5186
35.12668405694369 24.6242
35.150220005273056 24.5618
35.17357501786656 24.5492
35.19693153931268 24.5005
35.220289570874385 24.4005
35.24383161619786 24.4537
35.267192683604904 24.4191
35.290555264930376 24.3876
35.314101899412165 24.3401
35.33746752422433 24.4001
35.36083466676374 24.3166
35.38420332829803 24.2935
35.407756095629054 24.3691
35.43112781085063 24.3193
35.45450104888391 24.2379
35.477875810999194 24.2002
35.50143473172161 24.1569
35.52481255774625 24.2424
35.54819191167777 24.0919
35.57157279478914 24.1696
35.595137889488406 24.0734
35.61852184675279 24.0461
35.641907337029984 23.9652
35.665294361595684 23.9681
35.68886565090076 23.8109
35.7122557598848 23.7622
35.73564740699838 23.7854
35.759040593519934 23.6989
35.78261809810353 23.6916
35.80601437933051 23.6674
35.829412203814705 23.6368
35.85281157283719 23.4603
35.876395313415884 23.5718
35.8997977874528 23.535
35.92320180988546 23.4334
35.946790244133936 23.3673
35.97019737933222 23.4275
35.993606066789866 23.3533
36.01701630779276 23.3539
36.04061101440684 23.3921
36.06402437852291 23.3118
36.08743930005611 23.2391
36.1108557802951 23.1855
36.13445678011326 23.1493
36.15787639383515 23.17
36.18129757014299 23.101999999999997
36.20472031032821 23.0298
36.22832762423364 23.0252
36.25175350829375 23.02
36.275180960119776 22.9697
36.298609981005924 22.9831
36.32222362992669 22.9113
36.34565580510207 22.8715
36.36908955323448 22.8444
36.39252487562093 22.7161
36.416144880530226 22.7168
36.43958336764275 22.704
36.463023432914625 22.7762
36.486465077645676 22.6508
36.51009145956204 22.7228
36.53353627947859 22.6811
36.55698268276811 22.5785
36.58043067073321 22.5948
36.60406345072071 22.5029
36.62751462435344 22.4192
36.65096738658405 22.4707
36.67460498210655 22.4027
36.69806093788647 22.3967
36.72151848619297 22.3808
36.744977628333636 22.338
36.76862165890998 22.2072
36.79208400512205 22.2396
36.81554794910557 22.221
36.83901349217101 22.1855
36.862663978991606 22.0894
36.88613273667352 22.0667
36.90960309738324 22.0928
36.933075062434064 22.0191
36.95673202673572 21.9932
36.98020721697122 21.9348
37.003684015502365 21.9254
37.027162423645365 21.8425
37.050825886711465 21.8499
37.07430753063053 21.7488
37.09779078812467 21.7295
37.121275660513014 21.7035
37.144945643673694 21.6573
37.16843376245278 21.6503
37.19192350009803 21.6725
37.215414857931435 21.5648
37.239091382563885 21.5012
37.262585997426164 21.4766
37.28608223645736 21.4938
37.309763684451696 21.4817
37.33326318851098 21.372
37.356764320726555 21.374000000000002
37.380267082425526 21.3661
37.40395510942588 21.3581
37.42746114683234 21.2981
37.45096881771841 21.2554
37.474478123414166 21.2488
37.49817275092816 21.2081
37.52168534303452 21.2078
37.54519957395567 21.124000000000002
37.568715445024665 21.1023
37.592416694607714 21.0518
37.61593586281424 21.033
37.63945667518264 21.0943
37.66297913304891 20.9892
37.68668702630454 20.9249
37.710212792059274 20.8981
37.733740207334854 20.858
37.757269273470364 20.8464
37.780983832050374 20.8421
37.80451621684926 20.8328
37.82805025654007 20.7521
37.851585952464795 20.7069
37.8753071980695 20.6722
37.89884622345676 20.6184
37.92238690911902 20.5471
37.94611318753442 20.5411
37.969657210779765 20.5009
37.99320289834801 20.5288
38.016750251586465 20.4538
38.04048325513017 20.4376
38.06403395679343 20.4414
38.087586328183946 20.4046
38.11114037065203 20.3603
38.13488012115898 20.361
38.1584375229181 20.2147
38.181996599821 20.1964
38.205557353221124 20.1657
38.229303872575656 20.1548
38.2528679961576 20.1715
38.27643380031219 20.1369
38.30000128639589 20.1369
38.32375459653193 20.0386
38.34732546371299 20.0283
38.37089801690786 19.9838
38.39447225747609 19.8977
38.418232380377425 19.9435
38.441810012983396 19.8614
38.46538933705673 19.8424
38.488970353960084 19.8501
38.51273731166058 19.7999
38.536321731567014 19.7612
38.55990784840681 19.7253
38.58367995004091 19.6648
38.60726947812959 19.6439
38.63086070726198 19.6279
38.654453638806274 19.6178
38.678232613930824 19.6249
38.70182896773327 19.4747
38.72542702806741 19.4402
38.7490267963045 19.4426
38.77281266709232 19.4312
38.79641586862214 19.4333
38.8200207821842 19.3798
38.843627409152944 19.3896
38.86742019782782 19.3765
38.891030269149255 19.2951
38.914642058016156 19.3089
38.938255565806124 19.2893
38.96205529464307 19.1979
38.98567225787121 19.1751
39.00929094417078 19.1884
39.03291135492255 19.1437
39.05671804624804 19.1042
39.080341923549106 19.1415
39.103967529460334 19.0467
39.127594865365744 18.9417
39.15140854155791 18.8951
39.17503935514948 18.9615
39.19867190290282 18.8879
39.22249083587951 18.8785
39.24612686969409 18.914
39.269764641845306 18.8569
39.293404153722804 18.8247
39.317230110864074 18.7258
39.34087311998506 18.719
39.36451787301696 18.6806
39.388164371352595 18.5937
39.41199737518003 18.6175
39.43564738196752 18.6002
39.45929913825317 18.537
39.48295264543308 18.5246
39.506792718520884 18.4906
39.530449745387216 18.4463
39.55410852735203 18.4331
39.57776906581474 18.4473
39.60161623079 18.3853
39.625280300200025 18.4414
39.64894613032202 18.3139
39.67261372255866 18.2945
39.6964680021016 18.276
39.72013913657293 18.284000000000002
39.74381203738292 18.2162
39.76748670593756 18.2056
39.79134812278169 18.1368
39.81502634488497 18.1566
39.83870633896685 18.0868
39.862388106436654 18.1296
39.88625668336918 18.1225
39.90994201572829 18.0587
39.933629125719285 17.9971
39.957503091207826 17.9347
39.9811937746168 17.9869
40.00488623990914 17.9057
40.02858048850006 17.8989
40.05246165409549 17.8218
40.076159487492085 17.7787
40.099859108448875 17.7833
40.123560518384345 17.7488
40.1474489070226 17.7409
40.171153913178564 17.7146
40.194860712584955 17.7194
40.2185693066637 17.6111
40.242464941335314 17.6178
40.26617714307655 17.5764
40.289891143772046 17.5585
40.3136069448471 17.6123
40.33750984859743 17.6118
40.3612292688043 17.4916
40.3849504936829 17.4257
40.40867352466194 17.4836
40.43258372059144 17.4415
40.45631038219906 17.4741
40.48003885420956 17.4125
40.503769138055105 17.3662
40.52768664931955 17.2658
40.55142057531802 17.2645
40.57515631746428 17.2789
40.599079334038514 17.2443
40.62281872700477 17.1514
40.64655994043941 17.1703
40.67030297578061 17.1588
40.69423334835778 17.1376
40.71798004609188 17.1329
40.74172857006355 17.0572
40.76547892171441 17.0457
40.7894166736039 17.0106
40.813170699248566 17.0018
40.83692655691388 16.96
40.86068424804498 17.0135
40.884629402612525 16.9193
40.908390779366385 16.8776
40.932153993938 16.8463
40.95591904777605 16.8749
40.979871628443995 16.8489
41.003640379561936 16.7615
41.02741097430883 16.7064
41.05118341413683 16.6969
41.075143444384416 16.7419
41.098919593177826 16.671
41.1226975914255 16.6211
41.14647744058318 16.5468
41.170444943946755 16.5609
41.19422851378379 16.5586
41.218013938914645 16.5068
41.24198706625173 16.4607
41.26577622087193 16.407
41.289567235177785 16.4455
41.31336011063129 16.4404
41.337340752422875 16.3696
41.361137369129835 16.362000000000002
41.38493585138705 16.3154
41.40873620066004 16.2861
41.43272438060107 16.2709
41.45652848292052 16.2131
41.48033445666918 16.2211
41.50414230331616 16.1907
41.528138045159764 16.1041
41.551949656675205 16.0874
41.575763145513235 16.052
41.59957851314666 16.1052
41.62358184070442 16.0172
41.64740098505737 16.0178
41.6712220126409 16.0249
41.69504492493139 15.9939
41.71905586207357 15.934000000000001
41.74288256296395 15.8875
41.766711153007456 15.7799
41.79054163368412 15.8302
41.814560204340054 15.9151
41.838394485526365 15.8433
41.86223066180303 15.7571
41.88625497706819 15.796
41.910094962812 15.7045
41.93393684811168 15.7239
41.95778063445365 15.6567
41.981812625263366 15.6646
42.00566023303407 15.6432
42.029509746323676 15.5992
42.05336116662236 15.5606
42.077400857069705 15.5422
42.10125611078846 15.5395
42.12511327600405 15.4633
42.14897235421036 15.4103
42.173019768448455 15.4652
42.19688269209613 15.4421
42.22074753323349 15.3637
42.24461429335818 15.3398
42.268669455600495 15.3761
42.292540073217886 15.3666
42.31641261433284 15.2566
42.34028708044675 15.2269
42.36435001496739 15.2313
42.38822835065557 15.2358
42.41210861586426 15.1893
42.4359908120986 15.1983
42.46006154323262 15.2022
42.48394762115317 15.1762
42.507835634632315 15.0793
42.531912233047436 15.1021
42.55580413732265 15.0684
42.579697981698 14.9835
42.60359376768525 14.9926
42.62767820545945 14.9981
42.65157789440821 14.952
42.67547952952185 14.9145
42.699383112316 14.9103
42.72347541395347 14.8883
42.74738291190531 14.8458
42.771292362102166 14.8455
42.795203766063516 14.7583
42.819303956130405 14.7684
42.843219287476536 14.7526
42.86713657716324 14.6756
42.89105582671383 14.68
42.91516392983864 14.627
42.939087119032166 14.604000000000001
42.963012272677304 14.6276
42.98693939230129 14.6032
43.01105543317513 14.6066
43.034986504731386 14.581
43.05891954686589 14.4587
43.08285456110972 14.4895
43.10697856448665 14.422
43.130917542983475 14.4237
43.15485849820081 14.4199
43.17880143167367 14.3979
43.20293342237094 14.3699
43.226880332449 14.314
43.25082922540554 14.3389
43.27496722682525 14.3176
43.29892010567796 14.2591
43.32287497204102 14.2728
43.34683182745632 14.208
43.370977859791836 14.1671
43.39493871351105 14.1135
43.41890156092628 14.1259
43.44286640358341 14.1514
43.46702049182749 14.095999999999998
43.49098934522816 14.0521
43.51496019852649 14.0656
43.5389330532723 14.0048
43.56309522248204 13.9642
43.58707210044314 13.9378
43.61105098451946 13.911
43.63503187626491 13.9448
43.659202151562134 13.9109
43.68318707902681 13.9052
43.70717401884041 13.8529
43.731162972560874 13.8209
43.75534137913236 13.7916
43.779334381108384 13.7487
43.803329401683186 13.7501
43.82732644241872 13.7814
43.8515130055166 13.7306
43.87551410707659 13.6579
43.89951723350145 13.6634
43.923709934595614 13.645
43.94771713129917 13.625
43.97172635758096 13.5891
43.99573761501002 13.5634
44.0199385169922 13.48
44.04395385732619 13.5483
44.067971233533086 13.5197
44.09199064718605 13.4983
44.11619977548961 13.4383
44.14022328470671 13.3875
44.16424883610785 13.419
44.18827643127035 13.4164
44.21249381139513 13.3718
44.236525514814076 13.3031
44.26055926674478 13.2566
44.28459506876863 13.3108
44.3088207262813 13.235
44.33286064928722 13.2155
44.35690262714919 13.2282
44.38094666145278 13.187000000000001
44.4051806219871 13.2114
44.42922879003185 13.1727
44.45327901929361 13.1725
44.477331311362136 13.1213
44.501573600619416 13.0494
44.525630039221795 13.046
44.54968854541895 13.0465
44.573937102200176 13.0021
44.5979997645541 12.9741
44.622064499300315 12.9677
44.64613130803592 12.9239
44.67038823869318 12.9486
44.69445921643748 12.914000000000001
44.718532272981385 12.8431
44.742607409926194 12.8834
44.76687274034801 12.832
44.79095205918753 12.764000000000001
44.81503346325094 12.7478
44.839116954143876 12.7588
44.86339071028742 12.7251
44.88747839599524 12.7084
44.91156817336837 12.7011
44.93566004401666 12.6997
44.959942251908146 12.6118
44.984038330325966 12.6223
45.00813650686762 12.5576
45.03223678314731 12.6173
45.05652746888232 12.5919
45.08063196592069 12.5274
45.104738567558705 12.5018
45.128847275414856 12.4466
45.15314646515866 12.4312
45.17725940679741 12.463
45.20137445952892 12.447000000000001
45.22568004865265 12.3441
45.24979934496396 12.3628
45.27392075725247 12.3576
45.29804428714431 12.3252
45.322358426247604 12.2953
45.346486212804315 12.2788
45.370616121861914 12.2933
45.39474815505086 12.2246
45.41907087049246 12.1899
45.4432071734666 12.1776
45.46734560548283 12.1905
45.49148616817604 12.1789
45.51581748638564 12.1321
45.5399623320197 12.1381
45.56410931325473 12.0807
45.58825843173002 12.100999999999999
45.61259837920865 12.1079
45.636751793816 12.039000000000001
45.66090735060093 11.9612
45.68506505120716 12.0208
45.7094136545275 11.9444
45.73357566449271 11.9162
45.75773982322992 11.9345
45.78190613238733 11.9014
45.806263418194064 11.8472
45.83043404997326 11.8562
45.85460683713677 11.8556
45.87897065658495 11.8317
45.90314777634752 11.8052
45.92732705646868 11.8017
45.9515084986045 11.7777
45.97588104735473 11.745
46.00006683541565 11.7044
46.02425479047904 11.7037
46.04844491420549 11.6799
46.0728262191024 11.6595
46.09702070211635 11.6352
46.12121735879483 11.6403
46.14541619080294 11.6417
46.169806278764455 11.6072
46.194009483459034 11.5784
46.21821486849841 11.5334
46.24242243555223 11.4948
46.266821333570014 11.4772
46.29103328674601 11.4548
46.31524742696538 11.413
46.33946375590237 11.4406
46.36387149104216 11.4321
46.38809221957392 11.392999999999999
46.41231514186606 11.3738
46.436540259597464 11.3691
46.460956858999374 11.3273
46.48518638983522 11.3383
46.509418121166966 11.2668
46.533652054678114 11.3008
46.55807754555709 11.2538
46.58231590571962 11.2268
46.60655647313217 11.1881
46.630988654873654 11.1661
46.655233659129024 11.1684
46.67948087571551 11.1608
46.70373030632484 11.1388
46.72817142736393 11.1258
46.752425308428684 11.0809
46.77668140861147 11.0823
46.80093972960865 11.02
46.82538981736788 10.9718
46.849652602470904 10.9771
46.87391761349769 10.9856
46.8981848521493 10.9278
46.9226439341274 10.9321
46.946915650573224 10.8914
46.97118959976749 10.8894
46.99546578341598 10.8711
47.019933887188216 10.8276
47.04421456235744 10.8509
47.06849747711879 10.8053
47.09278263318286 10.777999999999999
47.11725978640143 10.7515
47.14154944775105 10.7681
47.165841355555656 10.6958
47.1901355115306 10.6781
47.214621741924994 10.7128
47.23892041698887 10.6764
47.26322134538975 10.5878
47.28771440635075 10.6202
47.31201986422527 10.609000000000002
47.33632758061436 10.5985
47.360637557241866 10.5799
47.38513974410611 10.5596
47.40945426407847 10.5462
47.43377104948137 10.5366
47.45809010204344 10.4817
47.48260144275502 10.4693
47.506925052572285 10.4825
47.53125093475548 10.4379
47.55557909103813 10.4461
47.58009961361992 10.3749
47.60443234110732 10.3771
47.62876734791564 10.3506
47.65310463578333 10.3294
47.6776343683373 10.3357
47.7019762413987 10.2934
47.72632040075572 10.2827
47.75066684815169 10.276
47.77520581885936 10.2496
47.799556865477655 10.2411
47.823910205386 10.259
47.84826584033272 10.2019
47.87281407745551 10.1363
47.89717432569297 10.1848
47.92153687423484 10.1551
47.94609208429692 10.0715
47.97045925671401 10.0945
47.99482873471275 10.0972
48.01920052005013 10.075
48.04376504619224 10.0067
48.068141469543484 10.0458
48.09252020552573 10.032
48.11690125590099 9.98813
48.1414751266064 9.96983
48.16586082917454 9.96733
48.19024885144316 9.92603
48.2146391951793 9.92863
48.239222439012764 9.91816
48.26361744916137 9.8787
48.28801478610016 9.8637
48.31241445160131 9.85695
48.337007097209366 9.847610000000001
48.36141144338331 9.8316
48.38581812345755 9.81977
48.41022713920929 9.78393
48.434829215320704 9.76445
48.45924292604658 9.75765
48.48365897780325 9.74059
48.50807737237308 9.719610000000001
48.532688907799276 9.68147
48.55711201168574 9.68455
48.581537463754074 9.64205
48.60615611725119 9.67654
48.63058628942721 9.670960000000001
48.65501881516546 9.63753
48.6794536962573 9.56761
48.70408185970339 9.603819999999999
48.72852147531801 9.55332
48.75296345168211 9.51223
48.77740779059232 9.52791
48.80204549302823 9.51938
48.82649458091802 9.44572
48.85094603676547 9.449689999999999
48.87539986237231 9.39771
48.90004713292306 9.41138
48.92450572200832 9.40995
48.94896668628025 9.39897
48.97343002754588 9.36995
48.99808689542115 9.33295
49.02255501470614 9.35929
49.04702551642794 9.34378
49.0714984023988 9.3075
49.096164896893235 9.31519
49.120642575466796 9.29553
49.145122643748394 9.271289999999999
49.16960510355558 9.26351
49.19428125404938 9.19721
49.2187685210852 9.168460000000001
49.243258185121555 9.15938
49.26794160167084 9.19483
49.2924360839405 9.12911
49.31693296869764 9.09879
49.34143225776915 9.1166
49.36612538195438 9.06315
49.39062950396021 9.10421
49.41513603578346 9.06915
49.4396449792564 9.06965
49.46434784069503 9.0191
49.488861631846454 8.9948
49.513377840166804 8.97449
49.537896467493745 8.93565
49.56260909589029 8.91514
49.587132585683285 8.93679
49.611658500018365 8.90017
49.636186840738596 8.85183
49.66090926588511 8.85447
49.685442483902584 8.86642
49.70997813385706 8.82581
49.734516217597076 8.84193
49.75924846937352 8.81387
49.7837914452858 8.77941
49.80833686055187 8.76003
49.83288471702571 8.76165
49.85762682540054 8.73645
49.882179588965734 8.70277
49.9067347993235 8.69998
49.93129245833333 8.6851
49.95604445336378 8.68249
49.98060703442832 8.64147
50.005172069746266 8.623560000000001
50.02993150438364 8.645710000000001
50.05450147301533 8.62701
50.07907390151433 8.59492
50.10364879174981 8.58054
50.12841816587289 8.57086
50.1529980044635 8.53955
50.17758031042124 8.56541
50.20216508562089 8.522960000000001
50.22694442953363 8.47788
50.25153416817468 8.49569
50.27612638170508 8.45957
50.300721072005196 8.40875
50.325510416102105 8.40742
50.350110084975064 8.41573
50.37471223628208 8.43719
50.39931687190919 8.40922
50.424116246675766 8.35568
50.44872587605249 8.33778
50.47333799543065 8.310030000000001
50.49795260670191 8.34574
50.52276204271512 8.32634
50.54738166295838 8.32439
50.57200378079314 8.29353
50.596628398116835 8.26878
50.62144792604559 8.28236
50.646077567609396 8.2292
50.670709714377715 8.21358
50.69553683636198 8.19482
50.72017401885922 8.151480000000001
50.7448137122895 8.20734
50.76945591856022 8.17722
50.79429318636823 8.14753
50.818940443716784 8.11974
50.84359021965163 8.0993
50.868242516085964 8.107660000000001
50.893089960641895 8.05222
50.917747323549435 8.04285
50.94240721271973 8.02167
50.96706963007175 7.985689999999999
50.99192728239342 7.97642
51.01659478166073 8.00579
51.04126481489051 7.9933
51.06593738400761 7.96223
51.090805275207074 7.9342
51.11548294172845 7.92466
51.14016314993547 7.90982
51.164845901758845 7.90963
51.18972406304274 7.84955
51.21441192780656 7.85135
51.23910234200271 7.86568
51.2637953075678 7.85895
51.288683770237945 7.79874
51.31338186432707 7.76617
51.33808251561888 7.76135
51.362978729967345 7.795160000000001
51.387684521509755 7.736269999999999
51.41239287610203 7.764880000000001
51.437103795691165 7.73685
51.46201036644977 7.68428
51.486726441956634 7.646389999999999
51.51144508832545 7.68007
51.536166307509156 7.67105
51.56108326624387 7.62717
51.58580965706056 7.61848
51.61053862657523 7.60157
51.635270176746864 7.591069999999999
51.66019755512065 7.55854
51.68493429268881 7.5458
51.70967361681515 7.55018
51.73441552946465 7.5213399999999995
51.759353359237934 7.53326
51.7841004750961 7.52618
51.80885018539685 7.50645
51.833602492111254 7.48285
51.8585508051424 7.5033199999999995
51.883308330926425 7.4398800000000005
51.90806845906181 7.4165
51.932831191525715 7.39992
51.95779001977161 7.401210000000001
51.98255798721516 7.3787899999999995
52.00732856494335 7.352539999999999
52.03229530577543 7.3700600000000005
52.057071130455945 7.3138
52.081849571391054 7.3090399999999995
52.106630630568695 7.30052
52.13160794279417 7.272060000000001
52.15639426492067 7.273460000000001
52.18118321127822 7.27265
52.205974783860896 7.23861
52.23096269971011 7.20672
52.255759551287994 7.2188300000000005
52.280559035098186 7.18841
52.30536115314103 7.145739999999999
52.33035970494467 7.169239999999999
52.35516711807904 7.165360000000001
52.37997717147198 7.161989999999999
52.40478986713005 7.13515
52.42979908731974 7.1044
52.454617094216 7.13422
52.47943774942214 7.04793
52.50426105495102 7.0781
52.529280976059844 7.07269
52.554109609024096 7.051410000000001
52.57894089837482 7.0139
52.60377484613117 6.989310000000001
52.62880550079408 6.993930000000001
52.65364479223379 6.97007
52.67848674816189 6.960719999999999
52.70352547971946 6.9462399999999995
52.72837279155837 6.929360000000001
52.753222773982785 6.87591
52.778075429022984 6.8796800000000005
52.80312495150885 6.902019999999999
52.827982978797436 6.88243
52.85284368481815 6.87033
52.87770707160767 6.85308
52.90276741793998 6.8547899999999995
52.92763619336701 6.84421
52.952507655698504 6.7955
52.977381806977576 6.743289999999999
53.00245301017842 6.77548
53.02733256653592 6.76853
53.052214817996074 6.735869999999999
53.077099766608484 6.739960000000001
53.102181859804446 6.735930000000001
53.127072229988265 6.6993
53.15196530349892 6.70685
53.17686108239249 6.65914
53.20195409881522 6.659960000000001
53.22685531582556 6.65954
53.25175924441303 6.596089999999999
53.27666588664027 6.588439999999999
53.30176985962693 6.592169999999999
53.3266819565689 6.583939999999999
53.35159677336455 6.567069999999999
53.376514312083096 6.59646
53.40162927507703 6.5598
53.42655228516116 6.52219
53.45147802340193 6.539969999999999
53.47660125628886 6.52184
53.50153247842639 6.51229
53.52646643496923 6.45809
53.55140312799818 6.43239
53.576537409691696 6.43214
53.60147960336152 6.41025
53.626424539786164 6.37312
53.65137222105307 6.39423
53.67651758529126 6.39388
53.70147078399681 6.388780000000001
53.72642673383343 6.39939
53.75138543689533 6.3288199999999994
53.776541917524526 6.36338
53.801506154876755 6.31335
53.826473151763246 6.3070699999999995
53.851442910284916 6.27574
53.87661054126026 6.2683
53.9015858509782 6.281000000000001
53.92656392866066 6.26118
53.95154477641532 6.254980000000001
53.976723591801296 6.20486
54.00171000771266 6.21593
54.02669920004598 6.2203800000000005
54.051691170915745 6.18754
54.076881204886796 6.187180000000001
54.101878760928514 6.15329
54.12687910187696 6.11749
54.152077577768296 6.144419999999999
54.1770835166946 6.11939
54.20209224691339 6.0776699999999995
54.22710377055121 6.04047
54.25231352511594 6.06465
54.27733066384342 6.0172300000000005
54.30235060239643 6.00352
54.32737334290836 6.02517
54.35259441062629 5.9528
54.377622783395324 5.98647
54.40265396455061 5.97891
54.42768795623251 5.9311300000000005
54.45292037169559 5.92666
54.477960012857906 5.95345
54.50300247099511 5.8766
54.52804774825457 5.90716
54.55329154616743 5.85665
54.57834249018678 5.82201
54.6033962597977 5.79303
54.6284528571545 5.78399
54.653708072335164 5.7728
54.67877035378786 5.73846
54.70383546947698 5.7779
54.72890342156389 5.7516
54.7541700889442 5.69624
54.77924374251975 5.67091
54.8043202390049 5.64506
54.82959552413022 5.61685
54.8546777351945 5.62545
54.87976279569621 5.61394
54.90485070780914 5.60309
54.930137506558005 5.5446
54.95523115074295 5.594119999999999
54.98032765308844 5.565180000000001
55.005427015775496 5.51969
55.03072536339621 5.48652
55.05583047570572 5.48382
55.080938454927676 5.47593
55.10604930325027 5.43198
55.131359235107396 5.4130400000000005
55.15647585066083 5.33845
55.181595341907496 5.32406
55.20671771104285 5.33839
55.232039262617704 5.29745
55.25716741665048 5.27451
55.28229845518636 5.28885
55.30743238042802 5.24379
55.33276558731939 5.22663
55.357905315183636 5.22992
55.383047936390035 5.17917
55.40819345314859 5.17049
55.433538351073295 5.18171
55.458689688238415 5.14126
55.483843927614096 5.10263
55.509197623043605 5.06099
55.53435769621134 5.01473
55.55952067826466 4.99559
55.5846865714265 4.99936
55.61005202069737 5.0042800000000005
55.63522376553902 4.958480000000001
55.66039842818645 4.93072
55.68557601087004 4.92046
55.7109532500271 4.8327
55.73613670233794 4.8442
