TT I
1.2716486653135266 7.32527
1.2939594142134223 6.73539
1.3162702121660406 6.565989999999999
1.3385810600174564 6.5454
1.3608919586137629 6.59248
1.383202908801069 6.218999999999999
1.405513911425503 5.23097
1.4278249673332093 6.01222
1.4501343378461518 6.298080000000001
1.4724455028545926 5.94039
1.4947567236847858 5.78188
1.517068001182951 5.82759
1.5393793361953272 5.935219999999999
1.5616907295681737 5.48249
1.5840021821477681 5.28905
1.60631369478041 5.312819999999999
1.6286252683124185 5.14842
1.6509369035901333 5.1239300000000005
1.6732468618895553 4.92319
1.695558623192809 5.0489999999999995
1.7178704487808514 4.57147
1.7401823395001077 4.72502
1.7625012545597203 5.07658
1.7848028405262486 4.9316699999999996
1.8071218901122095 4.743530000000001
1.8294236121921872 4.52208
1.8517427996910911 4.80109
1.8740620574440425 5.29619
1.8963639900671978 4.50545
1.9186833908139995 4.37061
1.9409854680117449 4.5778
1.9633050151394713 4.54174
1.9856246367570705 4.23599
2.0079269371922672 5.05018
2.03024671027244 4.9608099999999995
2.0525491637446027 5.10392
2.074869091674931 4.9866
2.097171701569106 4.77055
2.1194917877373847 4.54565
2.141811954326636 4.96275
2.164114805233074 5.06355
2.186435135143035 6.51591
2.208738150935709 16.5735
2.231058647554722 36.335
2.2533792288321184 28.016
2.275682498336085 12.2284
2.298003251406138 7.2392
2.3203066942619714 5.54962
2.3426276225136022 5.54056
2.3649486396617507 5.69916
2.387252348930071 6.1185
2.4095735463442893 5.682119999999999
2.4318774374315884 6.34272
2.4541988185014043 6.91375
2.476502894794693 7.30725
2.498824462909887 7.14433
2.521146125856138 6.87248
2.5434504863470337 7.53138
2.5657723414244717 7.8487
2.588076895590662 8.15656
2.610398946189713 8.33963
2.6327210958598384 7.72991
2.6550259469304716 7.44263
2.6773482972090137 8.01724
2.6996533504259 8.49573
2.7219759047039602 8.47751
2.744298562293959 8.21972
2.7666039251246595 8.63241
2.7889267918020164 7.98371
2.8112323652516555 8.5592
2.833555444408179 8.63531
2.8558786311183852 8.25028
2.8781845268938557 8.9248
2.9005079311721484 9.02089
2.9228140460410397 9.75763
2.9451376712799635 9.62974
2.967444008632326 8.95669
2.9897678582247247 9.99059
3.0120918213106695 10.312000000000001
3.0343984987899373 10.7666
3.0567226913198637 11.4145
3.079029599759726 11.7368
3.101354025127254 12.0321
3.123678568232338 12.845999999999998
3.145985829517914 13.124
3.16831061055229 13.5235
3.1906181112775593 14.5157
3.212943133635653 15.2104
3.2352682779763207 15.3219
3.2575761442691227 15.5587
3.2799015350264273 15.3573
3.302209649240067 15.7618
3.3245352898092655 17.0315
3.3468436553365257 17.4227
3.369169549113219 17.7059
3.3914955708171384 18.5255
3.413804319727358 19.2281
3.4361305997334863 19.0014
3.4584396084414553 19.6307
3.4807661501462652 20.4153
3.503092824025881 21.1936
3.5254022288463154 21.425
3.5477291695206588 21.9942
3.5700388426251948 22.4553
3.5923660534916446 24.5298
3.6146934007816114 43.0265
3.637003482731501 110.14399999999999
3.6593311053109985 124.367
3.681641464033634 68.4876
3.7039693653009733 33.1287
3.726297407241705 26.4002
3.7486081875460804 25.8368
3.7709365132734978 26.3031
3.793247578841633 26.9114
3.8155761917550093 26.9969
3.8378875459837216 27.1007
3.8602164494827234 27.7868
3.882545499606844 28.6444
3.9048572932539183 29.1237
3.9271866390645718 29.4438
3.9494987298666713 29.9991
3.971828374764527 30.5254
3.9941581705403255 30.7454
4.016470713506008 31.6556
4.038800813471445 32.2732
4.061113662089144 32.515
4.0834440696459176 33.7569
4.105774632334751 34.061
4.128087945865126 35.0523
4.150418821249301 35.6791
4.172732448931298 37.2916
4.195063640413578 39.1519
4.2173775856475215 44.6772
4.239709096631102 83.1861
4.262040768704612 294.923
4.284355196706267 414.235
4.306687193387355 264.192
4.329001947444346 94.9283
4.35133427213731 50.4966
4.373666762177566 45.0804
4.395982011761091 44.8691
4.418314834921175 46.0777
4.44063041906622 56.1843
4.4629635787515625 70.7947
4.4852969080429785 70.9448
4.5076130004776225 56.2646
4.529946671403969 50.3299
4.552263106909177 49.9188
4.574597122877047 51.2383
4.596931312711224 52.3932
4.619248269273446 52.9942
4.6415828092605835 54.2915
4.663900117405352 55.395
4.686235010953232 56.2517
4.708552674085913 57.5724
4.730887924602802 59.1135
4.753223354952695 60.4813
4.775541557023902 61.8426
4.797877349456786 63.4618
4.820195915032126 65.4174
4.842532072957498 66.2265
4.864868414979744 68.3908
4.88718753227192 70.5347
4.909524244902505 72.5477
4.931843734218147 74.2636
4.954180820867835 76.5808
4.976518095879839 79.2885
4.998838149695359 82.21799999999999
5.021175803844231 85.4379
5.043496238205739 88.4942
5.065834274903528 92.2976
5.088172504230693 96.7512
5.1104935158799565 103.186
5.132832132875765 126.486
5.155153533596801 178.59900000000002
5.1774925416746225 210.75099999999998
5.199814334878411 303.439
5.2221537374521505 821.329
5.244493338631803 2440.91
5.266815727034316 7236.02
5.289155727832427 12889.6
5.311478517248165 9241.4
5.333818921080011 3024.18
5.356159527788849 583.429
5.3784829252032536 188.24900000000002
5.400823940070432 144.357
5.423147747031976 128.131
5.445489173474152 118.395
5.467830807066149 111.969
5.490155234831516 107.947
5.512497285125229 104.65899999999999
5.534822130975162 102.76700000000001
5.557164601388673 100.73299999999999
5.579489868738879 98.0104
5.601832762690846 97.2129
5.6241758697774475 97.3042
5.646501775867269 95.9697
5.668845311622074 94.3067
5.691171647754637 93.535
5.713515615597765 92.0302
5.735859800852677 91.5358
5.758186788542988 90.45100000000001
5.780531411018185 90.3453
5.802858837297399 89.8101
5.825203900414495 89.4439
5.8475491852224 89.0993
5.869877275883075 90.3259
5.892223006467101 91.3467
5.914551544266608 92.0575
5.936897724049891 93.6511
5.959244129804903 98.0163
5.981573344815301 111.124
6.0039202049061 179.3
6.026249875609095 380.851
6.04859719346037 834.528
6.070927323278297 1960.58
6.093275102315365 4271.75
6.115623113320588 5277.97
6.137953938319995 3297.57
6.160302415650845 1037.36
6.182633708324452 243.821
6.2049826554078376 113.57600000000001
6.227331838745022 92.5128
6.249663839443684 84.8998
6.27201349767565 82.6561
6.294345974611799 91.565
6.316696111167083 108.265
6.339046488263839 101.81700000000001
6.361379686074702 82.9243
6.383730546639482 72.1907
6.406064229255215 68.9438
6.428415576718203 68.3755
6.450749747566656 66.7781
6.47310158535871 66.0933
6.495453669698332 65.2759
6.517788579421056 64.9458
6.540141159237969 63.9427
6.562476565766648 63.111000000000004
6.5848296444934045 62.4368
6.607182974060425 62.4192
6.6295191323281015 62.6608
6.651872965955752 67.3216
6.6742096296068985 100.429
6.6965639707294615 162.718
6.71891856698715 165.843
6.741255995248479 107.39200000000001
6.763611104154477 71.4374
6.785949046381137 61.2738
6.808304671371482 58.8946
6.8306605557940046 58.1862
6.852999275508618 57.1889
6.875355681171544 57.2109
6.897694923437771 56.7644
6.92005185377892 56.6524
6.9423916220322655 56.5203
6.964749080490181 56.0761
6.987106804399774 55.2816
7.009447368180821 55.6054
7.031805625367033 55.2676
7.054146723727803 55.3274
7.076505517631004 55.1906
7.098864581288365 55.3755
7.121206488070854 55.3282
7.143566093607822 54.868
7.165908543567245 55.7012
7.188268694426048 55.5275
7.2106291193438095 55.8755
7.232972390625943 57.7582
7.255333366030969 73.7863
7.277677189091925 145.188
7.300038718428332 210.175
7.322400526130865 177.21599999999998
7.344745183422596 101.205
7.367107550224791 64.2233
7.389452767901992 56.9562
7.411815697249891 55.766000000000005
7.434161478756298 54.6785
7.456524974096713 54.7218
7.478888753837185 54.2775
7.501235387657368 55.1307
7.523599738562711 54.7986
7.545946944825532 54.9456
7.568311870344528 55.452
7.5906770845765665 55.7271
7.613025156078678 57.4757
7.635390950099687 58.8304
7.657739602662809 57.9177
7.680105979923558 56.1703
7.702472650212829 55.9707
7.724822180948224 55.9477
7.747189439655568 56.086000000000006
7.769539560075357 55.8825
7.791907410653562 56.6418
7.81425812420825 56.3749
7.836626570110925 56.8721
7.858995315087906 57.5314
7.881346924933401 57.6421
7.903716270417482 58.1628
7.926068482028405 58.8646
7.948438431475253 59.2495
7.9708086843180235 59.5424
7.993161805171116 60.0037
8.015532667162402 60.6802
8.037886398416653 61.4695
8.060257873014221 62.1007
8.082629655331942 62.4559
8.104984308787587 63.4828
8.127356708900503 67.7431
8.149711981398308 74.3888
8.172085002766314 77.5168
8.194458336181368 73.3689
8.216814543847752 69.7862
8.23918850371002 69.118
8.26154533906492 69.6411
8.283919928836452 71.0395
8.306277395339652 71.8435
8.328652618483376 73.1745
8.351028159736202 75.4186
8.373386579575245 77.3133
8.395762759396959 78.7823
8.418121819038275 84.4547
8.440498640894003 100.212
8.462875785192262 117.053
8.485235811156207 124.87899999999999
8.507613602688501 150.936
8.529974277114228 222.498
8.552352719347912 351.70300000000003
8.574731488360351 583.674
8.59709314210385 1094.73
8.619472567021075 1789.6
8.64183487789147 2177.39
8.664214962183097 1863.6
8.686577933647762 1029.11
8.708958680784317 387.749
8.731339760774953 169.033
8.753703729764451 112.492
8.77608547780821 98.8353
8.798450116065078 94.7068
8.820832535634787 91.6673
8.843215292401656 90.2167
8.865580941199045 89.066
8.887964374703538 88.23200000000001
8.910330701447199 89.7655
8.932714815164482 93.3696
8.955099270424924 92.9112
8.977466620733543 88.6097
8.999851761421976 85.0412
9.022219798361645 82.9989
9.04460562795561 82.6266
9.066991803441677 82.3429
9.089360876979615 81.9004
9.111747746589993 81.692
9.13411751544971 81.148
9.156505082664324 80.8628
9.178875550323522 81.2195
9.20126381862328 81.8608
9.223652438908596 82.5596
9.246023961427412 82.0937
9.26841328802173 81.5375
9.290785518039224 81.1498
9.313175554425882 81.7367
9.335565947154315 81.7276
9.357939245086508 81.8266
9.380330352834827 81.9148
9.40270436697103 82.4853
9.425096193225055 82.4786
9.447488380180165 83.3761
9.469863475295412 83.1137
9.492256385987508 83.8349
9.514632206018318 84.6532
9.537025843935714 84.8639
9.559402392368193 85.4397
9.581796761000229 86.15100000000001
9.604191496441521 87.7487
9.626569144158516 91.8673
9.648964615551032 97.9169
9.671343000390081 99.7524
9.693739211225699 96.7939
9.716135793237463 93.4924
9.738515290448102 92.1925
9.760912617143402 93.1139
9.783292860202891 94.133
9.805690935076182 95.0208
9.828089385495742 96.2849
9.850470754023561 98.57600000000001
9.872869957865444 107.835
9.89525208097539 127.005
9.917652041736662 143.431
9.940052382417589 140.003
9.962435644102392 136.066
9.984836746950979 158.91
10.007220771957746 211.79
10.029622640473708 302.719
10.052007432299963 467.582
10.074410069984072 748.414
10.096813093716005 1212.81
10.119199042482517 1740.66
10.141602840636468 2018.06
10.163989564971628 1624.07
10.186394141051062 916.062
10.208799107559706 405.213
10.231187001965623 191.226
10.253592751657669 126.773
10.275981430388155 113.484
10.298387966769793 113.729
10.320794897965431 117.624
10.343184759907361 117.094
10.36559248305461 110.148
10.387983138083852 104.15299999999999
10.410391656691655 104.713
10.432800574501677 112.905
10.455192425893369 127.363
10.47760214443012 149.34
10.499994797678786 190.81599999999997
10.522405320453982 265.529
10.54479877906917 386.92199999999997
10.567210109595656 507.12699999999995
10.5896218454736 581.96
10.612016518879773 517.318
10.634429067781074 363.79
10.656824555333241 211.012
10.679237920773568 128.376
10.701651695961992 96.8719
10.724048411481384 88.9894
10.746463008485165 85.9493
10.768860546937125 84.4014
10.791275969274796 82.7563
10.81369180576079 81.7073
10.836090585366925 80.9983
10.858507252467449 79.7473
10.88090686379991 78.305
10.903324365036394 78.054
10.925724811614439 78.3663
10.948143150509463 80.0663
10.970561909719066 79.4622
10.992963615930844 77.2698
11.015383218085756 74.6694
11.037785768347074 73.1891
11.06020621697282 72.5899
11.082627090322113 71.9246
11.105030913430326 71.7935
11.12745263854165 72.4653
11.149857314510728 76.852
11.172279894912576 85.5084
11.194702904450653 86.7071
11.217108866490921 81.6245
11.239532736615194 75.8515
11.26193956033512 72.9142
11.284364294577085 71.0451
11.306789462371718 68.6887
11.329197585398376 66.9669
11.351623622610898 66.8451
11.37403261614354 65.6929
11.396459526308487 65.5441
11.418869393879497 65.3525
11.441297180532617 64.7889
11.463725406927658 64.3817
11.486136592353875 64.3941
11.508565700543707 65.6297
11.530977768845315 67.87899999999999
11.553407762368774 68.9051
11.575838200059769 68.3679
11.598251599479612 65.9271
11.620682927815501 64.1205
11.64309721895548 63.5088
11.665529441478206 62.9289
11.687962112597958 62.5886
11.710377748130886 62.9491
11.732811318753434 62.6668
11.755227854859067 62.4151
11.777662328529495 62.6099
11.800079768750786 62.338
11.822515149015453 62.1616
11.844950984084935 62.4644
11.867369787303163 62.1073
11.889806534289491 62.0607
11.912226250487029 62.6877
11.934663912939751 62.4151
11.9571020346363 62.3017
11.979523127133968 62.2776
12.001962169624331 62.7297
12.024384183972964 63.4828
12.046824150809913 66.0711
12.069264581333726 70.5673
12.091687985297767 75.9594
12.11412934550045 84.4502
12.136553680195208 98.2291
12.158995973632788 120.647
12.181438735204349 147.518
12.20386447284199 181.93099999999998
12.226308172985636 209.918
12.24873485024193 207.53
12.271179492516982 175.515
12.293607112949127 132.39700000000002
12.316052700916226 101.111
12.338498763250042 82.2196
12.360927805303868 71.6783
12.383374818673879 67.2068
12.405804812803074 64.6789
12.428252780773262 64.0303
12.45070122756722 63.7485
12.473132656675375 63.8676
12.49558206341869 63.7669
12.518014453510101 63.7752
12.540464823770117 64.1729
12.562915677315177 64.3919
12.58534951575545 65.3546
12.607801338171472 68.0476
12.630236146511358 74.4804
12.652688941369085 80.9751
12.675124723177234 81.5139
12.697578494048786 76.2924
12.720032754458185 70.3742
12.742470003354093 68.0136
12.764925245138771 67.4061
12.787363476431278 67.8757
12.809819703166806 67.8483
12.83227642391173 68.5111
12.854716135692716 69.0234
12.877173846755147 70.3546
12.899614549869717 70.4321
12.9220732548287 71.0484
12.94453245827299 71.6326
12.966974655289818 72.4017
12.989434858002571 73.4532
13.011878055298721 74.0104
13.034339260862497 74.9152
13.056800969391883 75.9979
13.079245674017244 77.7427
13.101708390774869 79.4178
13.12415410463411 84.8864
13.146617833206086 95.4263
13.169064559883248 106.26799999999999
13.191529303857127 119.007
13.213994557076367 139.428
13.236442809902437 173.761
13.258909083908291 225.764
13.28135835851934 291.939
13.30382565690295 366.04400000000004
13.326293469022952 423.51099999999997
13.348744283242008 433.75
13.371213125129904 371.86400000000003
13.39366497011003 273.995
13.416134845360597 182.252
13.438605238843131 126.721
13.46105863690397 105.007
13.483530069144786 102.059
13.505984506951902 106.193
13.528456981549432 114.383
13.550929978879088 127.60600000000001
13.573385983253365 148.744
13.595860028340867 185.674
13.618317081455832 236.72299999999998
13.64079217790333 296.48900000000003
13.663250283359057 343.907
13.685726434770173 374.589
13.708203115221277 346.6
13.730662806148091 267.916
13.75314054697177 189.773
13.775601299246777 131.218
13.798080104050406 98.432
13.820559442405358 85.2439
13.843021793671388 81.2319
13.865502201420897 79.6815
13.887965623051947 78.8726
13.910447103807167 78.0671
13.932929122629764 76.5218
13.955394156785959 76.2653
13.977877254034569 75.5267
14.000343367582113 74.7173
14.022827546871707 73.8573
14.045294743423524 72.9175
14.06778000837062 72.3346
14.090265817715476 72.283
14.112734645763819 72.1657
14.13522154619454 72.1526
14.157691466286913 72.2384
14.180179461423874 71.8658
14.202668005486178 70.8865
14.22513957064374 70.1626
14.247629214846473 69.7411
14.270101881097517 69.902
14.29259262906496 70.1058
14.315083930490205 71.1412
14.337558255389705 71.721
14.360050666019726 71.3353
14.382526101071944 70.0364
14.405019624534942 68.8783
14.427513705993134 68.2981
14.449990813291825 68.4032
14.47248601302899 68.0447
14.49496423954951 68.3113
14.517460561197822 68.3995
14.539939910570322 68.0228
14.562437357763558 68.5328
14.58493536931253 70.0131
14.607416409993311 71.1005
14.62991555254159 72.0469
14.652397725157423 71.7587
14.674898002342799 70.7675
14.697398848433282 70.007
14.719882725991326 70.332
14.74238471217934 70.8821
14.764869730765593 72.7749
14.787372860692983 76.2149
14.809876564079925 80.3346
14.83236330125751 85.1861
14.854868153850365 93.0662
14.877356041159485 105.537
14.899862046604186 122.65799999999999
14.922351087688757 147.266
14.944858249632887 175.484
14.967365991421232 204.05700000000002
14.989856770231246 221.71
15.012365673994204 222.076
15.03485761569738 192.584
15.05736768508665 151.503
15.07987833888692 118.24
15.102372032001655 91.9721
15.124883856909658 77.3673
15.14737872204565 72.028
15.169891721717274 70.1827
15.192405310371893 70.003
15.214901940621196 70.7307
15.237416709527137 71.0823
15.259914520936249 71.7275
15.282430473753607 70.5172
15.304947020131227 69.1078
15.327446610371178 68.0152
15.349964346154254 66.8811
15.372465126703139 66.4203
15.394984055556009 66.1577
15.417486030076159 65.7952
15.44000615566487 65.4435
15.462526881230803 65.6145
15.485030653812652 65.7395
15.507552581617434 65.8497
15.530057557334603 66.0482
15.55258069104857 65.7232
15.575104429329837 65.6554
15.597611216864632 65.2783
15.620136166564563 65.2267
15.6426441664095 65.8014
15.665170331202765 67.3633
15.687697105158826 70.1267
15.710206930593545 73.2106
15.732734925158933 76.7837
15.755245972089478 82.4932
15.77777519094324 90.9158
15.800287463046663 102.853
15.822817909869592 120.74799999999999
15.84534897229804 142.668
15.867863089299354 165.53099999999998
15.890395385222186 185.514
15.912910736597423 193.984
15.935444269699861 183.66400000000002
15.957978423016485 158.107
15.980495633101265 126.462
16.003031029129367 98.5245
16.02554948280019 78.1906
16.048086125229432 68.4928
16.070623392487107 65.5568
16.09314371869582 65.0746
16.11568223789321 64.1741
16.13820381691126 63.0357
16.160743591742527 61.638000000000005
16.183283996022084 60.5377
16.205807461423195 59.3818
16.228349126881973 58.8449
16.25087385432698 58.8325
16.27341678466365 58.0847
16.29594277784926 58.2088
16.31848697676433 58.7228
16.341031811604868 59.4383
16.36355971058487 59.7399
16.3861058195587 59.16
16.40863499352978 57.9211
16.431182380342005 56.6931
16.453730407713202 55.9211
16.476261501364792 55.5158
16.498810812136167 55.104
16.52134319004079 55.1427
16.54389378792203 55.3907
16.566445031001553 55.0115
16.588979342490088 54.9217
16.61153187824822 54.7378
16.634067483263312 54.5905
16.656621315414416 54.5122
16.679175797408888 54.2456
16.701713349928728 54.2255
16.72426913389191 54.5295
16.74680798922351 54.6771
16.76936507887444 54.7517
16.791905240734874 54.7853
16.814463639794468 54.5
16.837022695210294 54.5592
16.859564824093756 55.0024
16.882125194503903 56.0712
16.904668639217885 56.946000000000005
16.927230328348003 56.9835
16.949792678493612 57.0276
16.972338104193863 56.2943
16.994901778652235 55.3937
17.017448529496576 55.2723
17.040013531998152 55.3441
17.06257920018044 55.6247
17.0851279459922 56.2285
17.107694947817667 57.0941
17.130245028099072 58.052
17.15281336730298 59.0709
17.17536478578733 60.5416
17.19793446610687 62.7238
17.220504818648422 65.6562
17.243058251703697 68.7009
17.265629950971032 73.5168
17.288184731571736 78.6427
17.310757781306908 83.0153
17.33333150794385 83.9976
17.355888317140174 82.9817
17.37846339986244 78.0154
17.401021565958885 71.1884
17.42359800851343 65.4531
17.44617513265564 61.6564
17.468735341390783 59.5398
17.491261035594565 58.7935
17.51396340099364 58.5042
17.536490463869136 58.6867
17.559018209820174 58.7264
17.58154663977963 58.9442
17.604251766089718 58.9125
17.626781572227713 58.9746
17.64931206518155 59.3806
17.671843245885103 59.8283
17.69455114821572 60.22
17.717083712612634 60.5721
17.739616967569667 60.5729
17.762150914021706 60.7829
17.78486160749854 60.6954
17.807396945166804 61.1132
17.829932977143503 61.6164
17.85246970436452 62.777
17.875183204129467 64.5555
17.897721330097664 66.5534
17.920260154126645 68.8293
17.942799677153296 71.8163
17.9655159983646 75.1101
17.988056927677544 80.0024
18.010598558807683 87.0214
18.033140892692916 96.545
18.05586005052525 107.335
18.07840379824407 119.073
18.10094825154059 129.918
18.12366954819864 138.96
18.146215420998306 139.38
18.16876200220057 131.851
18.191309292745153 118.04299999999999
18.214033452627167 103.77799999999999
18.236582170236648 91.5845
18.259131600016456 85.7159
18.281681742907335 84.9397
18.304408781233683 88.921
18.32696035875955 93.9828
18.349512652227624 99.2064
18.372065662579683 104.227
18.394795594587553 105.7
18.41735004715306 103.115
18.43990521943684 96.5464
18.46246111238171 87.6926
18.485193953325208 77.9909
18.507751296070428 70.3033
18.530309362314178 65.7963
18.552868153000343 63.2726
18.57560391815056 61.7793
18.59816416623245 61.3491
18.620725141597372 60.8219
18.643286845190268 60.2231
18.666025549835414 60.0039
18.688588718427933 59.5951
18.711152618092243 59.4597
18.73389353884365 59.0122
18.75645890921984 58.6517
18.77902501351406 58.1443
18.801591852673102 58.2571
18.824335739722738 57.7716
18.846904057212626 57.7847
18.8694731124168 57.1819
18.89204290628315 57.2006
18.914789774966803 56.9972
18.937361054791623 56.6838
18.959933076131318 56.6869
18.982505839934877 56.6347
19.00525570560582 56.8101
19.027829963004184 56.703
19.05040496572238 56.7602
19.072980714710468 56.5585
19.095733592739563 56.5579
19.11831084296757 57.1797
19.140888842324735 57.5299
19.16346759176222 57.8257
19.18622349753803 58.2687
19.208803755869358 58.6385
19.231384767143577 59.6151
19.253966532312948 61.2294
19.276725481241822 63.0581
19.29930876296784 65.3741
19.3218928014549 68.6641
19.34465404436217 72.2041
19.36723960516257 75.3848
19.389825925592426 76.7502
19.412413006605938 75.5947
19.43517731967805 72.6762
19.457765930683355 68.1972
19.48035530514408 63.3323
19.50294544401556 59.3083
19.525712842708348 56.2728
19.54830451925909 54.8434
19.570896963095727 53.9461
19.593490175174704 53.6707
19.616260674962184 53.5352
19.638855432416964 53.1208
19.661450960992624 53.4004
19.68404726164677 53.1348
19.706820878021247 53.0959
19.729418731756834 53.0601
19.752017360452857 52.8304
19.77461676506804 53.1487
19.797393513540218 53.0415
19.819994478951667 53.4375
19.84259622316767 53.8751
19.8651987471481 54.2113
19.887978643247177 54.4391
19.91058273574792 54.7136
19.933187610901943 55.6541
19.955969879466828 56.6235
19.97857632894404 57.8064
20.00118356396599 59.3671
20.023791585494575 61.3034
20.046577028914875 64.1167
20.069186632506966 66.4045
20.091797025500632 68.3719
20.114408208858933 69.2814
20.137196842715273 69.1331
20.159809615886765 67.8765
20.18242318232135 65.1776
20.20503754298326 63.0005
20.227829382875154 61.6659
20.250445341109344 61.3937
20.27306209647285 61.9939
20.29567964993108 63.2843
20.31847471147704 64.4336
20.34109387027612 65.4354
20.363713830075454 65.4731
20.386334591841646 64.1352
20.409132890679302 61.4706
20.431755265564437 58.5515
20.454378445325528 55.6067
20.477002430930366 53.3865
20.499803982716553 52.2369
20.522429589228004 51.5273
20.54505600449589 51.0826
20.567683229489194 50.9211
20.590488049900088 50.2176
20.61311690359731 49.9346
20.63574656993626 49.711000000000006
20.658553853717297 49.3349
20.681185154618298 49.3263
20.703817271080066 49.1922
20.72645020407368 49.0203
20.749260783967177 48.8526
20.771895359337133 48.8199
20.794530754161617 48.6955
20.817166969412938 48.5626
20.83998086114876 48.6196
20.86261872660049 48.4549
20.885257415405402 48.2637
20.90789692853701 48.284
20.930714147864748 48.0108
20.953355319030678 48.1148
20.97599731745334 48.1184
20.99864014410749 47.9968
21.021460706796564 48.2265
21.044105199328826 48.5669
21.06675052302631 48.6069
21.089396678865015 48.7523
21.112220600704806 49.0421
21.134868430275347 49.3933
21.15751709492456 49.541000000000004
21.180166595629693 49.7886
21.202993892429635 50.31
21.22564507473034 50.7948
21.24829709602816 51.1268
21.27112693608965 51.0217
21.293780644891275 51.0073
21.316435195634053 50.3334
21.339090589297417 49.5202
21.361923832041875 49.1482
21.384580921090404 48.653
21.407238856007325 48.1552
21.429897637773326 48.091
21.45273429906592 48.0197
21.475394784108598 48.027
21.498056118951983 47.9196
21.520718304578022 48.3012
21.543558400304388 48.2893
21.566222297108816 48.261
21.58888704765135 48.388999999999996
21.61155265291521 48.5892
21.63439619898156 49.0215
21.657063523335786 49.2336
21.67973170537063 49.6984
21.7024007460706 50.0837
21.72524775840385 50.7362
21.747918526116475 51.9314
21.770590155457388 52.8895
21.79326264741238 54.3733
21.816113141960237 56.0729
21.838787368860547 58.0589
21.861462461341976 59.9933
21.884315579735777 61.8388
21.90699241312273 63.2929
21.92967011506078 64.2918
21.95234868653799 64.1302
21.9752053151131 63.1322
21.997885635446785 61.1188
22.020566828293532 59.0999
22.04324889464272 57.5758
22.066109049404666 56.2944
22.088792872571794 55.8458
22.111477572219204 55.629
22.1341631493376 55.7161
22.157026846313123 55.6125
22.179714188221507 54.9536
22.202402410582668 54.1476
22.22509151438863 52.687
22.24795876962584 51.3264
22.270649646204486 50.5102
22.293341407213727 49.5611
22.316034053646906 49.0469
22.338904883215342 48.8373
22.36159931041458 48.8701
22.38429462602756 48.8163
22.40699083104897 48.6007
22.429865251039757 48.5409
22.452563244831367 48.7202
22.47526213102522 48.6181
22.49813925616515 48.4035
22.520839937143307 48.1923
22.543541513520587 48.3143
22.56624398629403 48.1237
22.589124730075895 48.1105
22.611829005656723 48.3341
22.63453418063466 48.1265
22.657240256008077 48.3696
22.680124634582935 48.4117
22.70283252079775 48.5839
22.725541310413075 48.9202
22.74825100442868 48.9888
22.771139033969575 49.6125
22.79385054687155 49.6842
22.81656296718292 50.2615
22.83927629590484 51.117
22.862167992606945 52.2265
22.88488314827121 53.4271
22.907599215359284 54.5085
22.93031619487366 55.4844
22.953211574954405 56.6313
22.975930389478226 57.5718
22.998650119445763 57.958999999999996
23.02137076586092 57.2477
23.044269845560063 55.8807
23.06699233506288 54.4149
23.089715744034912 52.6003
23.112617610931565 50.9851
23.135342869061212 49.6883
23.158069049684816 48.9086
23.1807961538087 48.5109
23.20370174880544 48.3739
23.226430710184808 48.3201
23.249160598093425 48.4222
23.271891413539002 48.4311
23.294800752937697 48.2253
23.31753343374794 48.5699
23.340267045128353 48.4955
23.36300158808808 48.8413
23.38591468821339 49.0424
23.408651104658304 49.5024
23.431388455719986 50.1063
23.454126742409 50.8964
23.4770436196085 51.8389
23.499783787914662 53.271
23.522524894889884 54.3452
23.54526694154616 55.3225
23.56818761219047 56.4656
23.59093154860734 57.2289
23.613676427751283 57.7695
23.636422250635754 57.0046
23.659346731118656 55.5726
23.68209445191868 53.723
23.704843119509587 51.55
23.72759273490623 49.618
23.750521041644767 48.2516
23.77327256312355 47.0663
23.796025035462787 46.3725
23.818956224555475 45.776
23.841710609113413 45.7267
23.86446594758979 45.5286
23.887222241002014 45.2692
23.910157285144578 44.931999999999995
23.932915498962537 44.8902
23.955674670778713 44.825
23.978434801611975 44.693000000000005
24.001373717286125 44.4169
24.024135776723917 44.3866
24.046898798245582 44.1782
24.06966278287146 44.091
24.092605586582614 43.9115
24.115371508023642 43.8538
24.1381383956401 43.8788
24.16090625045381 43.7975
24.183852958731244 43.6419
24.206622758582608 43.5505
24.229393528706886 43.3517
24.252165270127392 43.4427
24.27511589952438 43.2848
24.297889594216997 43.2999
24.32066426328598 43.2422
24.34343990775613 43.1391
24.36639447485003 42.9953
24.38917208083877 42.8893
24.41195066531332 42.801
24.43490819850244 42.7932
24.457688750692377 42.73
24.48047028445616 42.7009
24.503252800821233 42.7633
24.526214300784112 42.7125
24.548998793132213 42.732
24.57178427117417 42.7342
24.59457073593893 42.7932
24.617536219319863 42.6328
24.64032466834748 42.7144
24.663114107195035 42.5713
24.685904536893013 42.4326
24.708874020360852 42.2973
24.731666442613744 42.2118
24.754459858818787 42.2357
24.777254270007962 42.1635
24.80022777025625 42.0306
24.82302418230472 41.9152
24.845821592443674 41.8784
24.86862000170663 41.8508
24.891597535453727 41.7034
24.914397953892728 42.06399999999999
24.93719937456671 41.8463
24.96000179851076 41.8679
24.98298338249997 42.1135
25.00578782394922 42.3917
25.028593271784167 42.4566
25.05157790644186 42.8781
25.07438537804115 43.0809
25.097193859145293 43.1975
25.120003350792075 43.4109
25.142992065061257 43.743
25.165803588823465 43.9282
25.18861612625217 44.2933
25.211429678386736 44.368
25.234422489079968 44.4124
25.257238081693636 44.486000000000004
25.280054692141732 44.5552
25.3028723214652 44.6045
25.325869245420463 44.6308
25.348688923599397 44.812
25.371509623787006 44.7051
25.394331347025812 44.3885
25.41733240110666 44.0784
25.440156181590016 43.3554
25.46298098826268 42.7899
25.48580682216873 42.2126
25.50881202326435 41.6645
25.53163992281684 41.2233
25.55446885274561 40.9676
25.577298814096377 40.7283
25.600308179121807 40.6605
25.623140214533745 40.701
25.64597328451537 40.571
25.66898578564376 40.3207
25.691820936010206 40.4128
25.714657124097695 40.3159
25.737494350954734 40.3001
25.760511045684957 40.0822
25.783350361364224 40.2766
25.806190718969255 40.2387
25.82903211955018 40.3781
25.852053024868923 40.4234
25.874896522722523 40.5252
25.897741066713106 40.2729
25.920586657892454 40.3974
25.943611790812668 40.4134
25.966459487728237 40.5734
25.989308234998564 40.6599
26.01215803367705 41.0164
26.03518741123814 41.251999999999995
26.05803932412957 41.2256
26.080892291600094 41.2453
26.10374631470478 41.3138
26.12677995397268 41.4905
26.14963609978026 41.5335
26.172493304397875 41.2018
26.19535156888223 40.8604
26.218389486949604 40.5497
26.241249882640123 40.3073
26.26411134137826 40.1422
26.28715248187403 40.0728
26.31001607820869 39.8943
26.3328807407756 39.6839
26.35574647063438 39.8679
26.37879191991473 39.7636
26.401659795896734 39.8027
26.424528742360263 39.9524
26.447398760366614 40.1399
26.470448535598294 40.3206
26.49332070826805 40.4561
26.516193955675355 40.6741
26.53906827888316 40.7966
26.562122397260108 41.0523
26.584998883685063 41.406000000000006
26.607876449110325 41.6117
26.63075509460056 41.7027
26.65381357334404 42.0028
26.67669439061878 41.9697
26.699576291163382 41.9873
26.722459276044212 41.8148
26.745522132402975 41.453
26.768407297649354 41.0542
26.791293550442003 40.7096
26.814180891848974 40.5533
26.837248143099337 40.2708
26.860137673466657 40.1542
26.88302829566349 39.9632
26.90592001075963 39.8951
26.92899167420566 39.6769
26.951885586870763 39.2215
26.974780595655517 39.0324
26.99785558178161 38.9322
27.020752794605112 38.8316
27.043651106772522 38.6161
27.06655051935668 38.6037
27.089629948036183 38.403
27.112531573292053 38.4303
27.135434302194138 38.5799
27.158338135817015 38.4304
27.181422024430987 38.4023
27.204328079372566 38.1951
27.22723524226965 38.3058
27.250143514198573 38.2467
27.273231880156334 38.2248
27.296142382065014 38.1805
27.319053996245536 38.1933
27.341966723775965 38.213
27.365059584515222 38.1556
27.38797455070062 38.2328
27.410890633481237 38.1622
27.433807833936918 38.226
27.456905206923906 38.3075
27.47982465472398 38.2372
27.502745223449743 38.1314
27.525666914182825 38.385
27.548768816912457 38.3338
27.571692763693633 38.2181
27.59461783573812 38.089
27.617723149491244 37.9482
27.640650484125285 37.8902
27.66357894728264 37.8523
27.686508540048052 37.7875
27.709618414237887 37.7019
27.732550278321757 37.4897
27.755483275279115 37.5053
27.778417406196485 37.5988
27.801531858397514 37.6245
27.824468269376716 37.4782
27.847405817586786 37.4728
27.870344504116094 37.6825
27.893463551932008 37.7157
27.916404527281053 37.9262
27.93934664422563 38.1163
27.962289903855886 38.0967
27.98541356491974 38.302
28.00835912214229 38.463
28.03130582533231 38.6083
28.054253675581805 38.7454
28.077381967556104 38.7925
28.100332124185126 38.8247
28.123283431160893 38.7878
28.146235889577238 38.6291
28.169368830154156 38.2555
28.192323603752033 38.2635
28.215279532083304 37.9412
28.238415973016764 37.7541
28.261374223145094 37.5235
28.284333631303806 37.4174
28.307294198589954 37.2657
28.330435319167677 36.9384
28.353398217078915 36.8058
28.376362277420153 36.5405
28.39932750129032 36.3647
28.422473319286713 36.2402
28.44544088262495 36.1813
28.468409612800283 36.0547
28.491379510913497 35.8854
28.51453004413313 35.6878
28.53750229057244 35.7363
28.56047570826344 35.6631
28.583450298308804 35.6438
28.606605564586562 35.4468
28.629582511831156 35.4685
28.65256063474956 35.3529
28.675539934446338 35.4011
28.698699951647605 35.3113
28.72168161743193 35.2603
28.74466446331978 35.2425
28.767648490417624 35.2755
28.790813276438353 35.2755
28.813799678527303 35.1967
28.836787265157085 35.2377
28.859955641890075 35.2521
28.882945610203045 35.217
28.905936766392035 35.0765
28.928929111566863 35.0711
28.952102288520145 35.0964
28.975097024308607 34.8803
28.998092952423807 34.8096
29.021090073977508 34.6379
29.04426806913204 34.5837
29.067267590245258 34.4484
29.090268308143695 34.4578
29.11327022394099 34.3729
29.13645305530891 34.1974
29.159457379627167 34.1869
29.18246290519685 34.1397
29.20546963313352 34.102
29.22865731875826 34.1846
29.25166646419296 34.2084
29.27467681535305 34.068000000000005
29.29768837335608 34.1306
29.320880931312562 34.1021
29.34389491580634 34.0378
29.366910110507334 34.1587
29.38992651653503 34.0493
29.41312396492981 34.0527
29.436142806456754 33.9995
29.45916286268059 33.8568
29.48236399319994 33.7104
29.50538649169417 33.7044
29.528410208259935 33.5153
29.55143514402014 33.2734
29.574641196749695 33.2396
29.597668583816574 33.1154
29.6206971934585 33.0224
29.64372702680042 33.0766
29.666938019934474 32.9278
29.689970313635285 32.7164
29.713003834422636 32.7188
29.73603858342347 32.686
29.759254535188578 32.6643
29.78229175361658 32.6069
29.80533020365064 32.7474
29.82836988641968 32.7605
29.85159081507472 32.6309
29.874632976355343 32.5672
29.89767637376955 32.5327
29.920721008448314 32.4375
29.9439469322847 32.42
29.96699405457564 32.3878
29.9900424175358 32.385
30.013092022298157 32.3146
30.03632295963995 32.2613
30.059375061131373 32.33
30.08242840783577 32.2881
30.105483000888153 32.2554
30.128718970092244 32.1975
30.151776069006917 32.1622
30.17483441768648 32.1109
30.198074175317235 32.1688
30.221135036724256 32.1426
30.24419715131772 32.1957
30.267260520236203 32.0958
30.290505341942243 32.1216
30.313571232750228 32.1645
30.336638381310948 32.0994
30.35970678876503 32.0779
30.38295669299435 31.9089
30.40602763151657 31.9807
30.429099832366074 31.9345
30.452173296685572 31.8244
30.47542830191959 31.8915
30.498504306502497 31.7846
30.521581577995562 31.8928
30.544660117543582 31.9704
30.56792024229725 32.0016
30.59100133132069 31.8707
30.614083691845494 31.910999999999998
30.637167325018545 31.9965
30.660432587840603 31.9921
30.683518779717886 31.9963
30.70660624769615 32.051
30.729694992924372 32.0748
30.75296541239743 32.0862
30.77605672557558 31.9799
30.799149319462742 31.8634
30.8224236211637 31.8657
30.845518789950724 31.7255
30.868615242910597 31.699
30.891712981195973 31.5487
30.91499247215866 31.4222
30.938092794619365 31.4245
30.96119440587579 31.3244
30.984297307082752 31.2948
31.00758200598383 31.0553
31.030687500658694 31.0652
31.053794288760695 30.9754
31.076902371446767 30.8523
31.100192296997445 30.9272
31.12330298246119 30.8827
31.14641496599209 30.8023
31.169528248749216 30.9035
31.19282341969534 30.7705
31.215939314557186 30.8011
31.239056512134788 30.8209
31.262175013589378 30.7343
31.28547544871168 30.7275
31.30859657161541 30.624000000000002
31.331719001892175 30.636
31.35484274070538 30.8705
31.378148458819545 30.7824
31.401274828443725 30.6823
31.424402510106933 30.6689
31.447712205419993 30.7321
31.470842524931633 30.5991
31.493974159989783 30.658
31.51710711176168 30.7112
31.54042212308802 30.6054
31.563557722100917 30.5977
31.586694641341655 30.4143
31.609832881979628 30.2785
31.63315322823208 30.1886
31.656294125521327 30.1404
31.679436347728515 30.0851
31.70257989602529 30.0137
31.725905596152327 29.9596
31.74905181052835 29.967
31.772199354521323 29.9235
31.79534822930507 30.057
31.818679302290967 29.9456
31.84183085259981 29.9705
31.864983737233473 29.9492
31.88813795736804 29.9552
31.911474422233013 29.8992
31.934631327356435 29.8714
31.9577895715215 29.7728
31.980949155906522 29.7894
32.004291031706956 29.8979
32.027453310562606 29.8231
32.05061693318573 29.695
32.07396288236386 29.6604
32.09712920658542 29.53
32.12029687812702 29.4057
32.14346589817093 29.2974
32.166817291729984 29.3238
32.18998902288583 29.276999999999997
32.21316210610336 29.1902
32.23633654256711 29.173000000000002
32.259693399663725 29.1024
32.282870556771144 29.0099
32.30604907069099 29.0286
32.329228942610065 29.0177
32.35259128243769 28.8316
32.375773884550505 28.7517
32.398957848235646 28.715
32.422143174682176 28.6359
32.445511016471215 28.5487
32.468699082679954 28.5272
32.49188851523011 28.4724
32.51507931531304 28.4864
32.538452678331 28.5582
32.56164622776311 28.4011
32.58484114831493 28.2384
32.60803744118015 28.3131
32.631416344731896 28.2858
32.654615396551876 28.3201
32.67781582427913 28.248
32.701198898634416 28.1721
32.72440209253756 28.1103
32.747606665947124 28.094
32.77081262006088 27.9883
32.79420126883317 27.9953
32.81740999876112 27.9761
32.840620112999424 27.8673
32.86383161274818 27.8521
32.88722585534586 27.8535
32.91044014056596 27.928
32.933655814909734 27.8449
32.95687287957963 27.8539
32.98027273544904 27.7531
33.00349259526636 27.6652
33.026713849030116 27.7552
33.04993649794511 27.6468
33.073341986570746 27.6227
33.09656744032826 27.6878
33.11979429286444 27.6037
33.14302254538647 27.5689
33.166433686291185 27.5627
33.18966475336992 27.5727
33.212897224069096 27.439
33.23613109959831 27.4024
33.259547912343415 27.3394
33.2827846121627 27.4166
33.306022720453775 27.3301
33.32926223842861 27.2815
33.352684742614166 27.2841
33.37592709463173 27.2363
33.399170859982064 27.2313
33.422597648419426 27.0418
33.44584425514446 26.988000000000003
33.46909227885668 26.9701
33.4923417207723 26.8074
33.51577423505344 26.8968
33.539026528130385 26.7784
33.56228024307245 26.7355
33.585535381098246 26.6919
33.60897364093058 26.5903
33.63223163992385 26.6369
33.6554910656699 26.5964
33.678751919389796 26.5922
33.702195944520106 26.4373
33.72545966903325 26.412
33.74872482519663 26.3064
33.771991414233746 26.320999999999998
33.79544122444841 26.305
33.81871069412428 26.2924
33.84198160035767 26.2264
33.86525394437455 26.2593
33.88870955949969 26.128
33.911984794020626 26.1395
33.93526147001624 26.0735
33.958539588715006 26.0298
33.98200102861669 25.9751
34.0052820477047 25.9272
34.02856451319451 25.9473
34.05203033759056 25.7795
34.07531571090147 25.7913
34.09860253431845 25.8103
34.121890809074316 25.7684
34.145362493118924 25.752
34.16865368561615 25.7317
34.191946333164054 25.6051
34.21524043699793 25.6337
34.23871800066799 25.7059
34.26201503218366 25.5312
34.28531352370466 25.5014
34.30861347646881 25.378
34.33209693978188 25.4139
34.3553998301885 25.3771
34.378704185565205 25.3797
34.402010007152356 25.2752
34.42549939016683 25.2319
34.44880815937748 25.1481
34.472118398533134 25.1232
34.49543010887669 25.1171
34.51892543169198 24.9866
34.54224009966052 25.0298
34.56555624255917 25.0136
34.58887386163339 24.8749
34.61237514439016 24.9013
34.6356957311114 24.8458
34.65901779775809 24.8773
34.68252356662995 24.8032
34.705848608458616 24.8105
34.72917513396849 24.7578
34.75250314440949 24.6405
34.77601490857862 24.6504
34.799345904259795 24.5041
34.82267838863559 24.5833
34.846012362958525 24.4886
34.869530142679984 24.5023
34.89286711232212 24.4707
34.91620557568269 24.4294
34.93954553401677 24.4444
34.9630693495876 24.2528
34.986412313340814 24.3648
35.00975677584668 24.359
35.033102738362956 24.3013
35.05663261012228 24.2091
35.0799815881786 24.1914
35.10333207003229 24.2158
35.12668405694369 24.1581
35.150220005273056 24.1114
35.17357501786656 24.142
35.19693153931268 24.0217
35.220289570874385 24.0405
35.24383161619786 24.0031
35.267192683604904 24.0409
35.290555264930376 24.0097
35.314101899412165 23.9004
35.33746752422433 23.9352
35.36083466676374 23.9738
35.38420332829803 23.8605
35.407756095629054 23.9708
35.43112781085063 23.8577
35.45450104888391 23.7844
35.477875810999194 23.8605
35.50143473172161 23.7668
35.52481255774625 23.7317
35.54819191167777 23.6735
35.57157279478914 23.5968
35.595137889488406 23.5942
35.61852184675279 23.5608
35.641907337029984 23.5527
35.665294361595684 23.4799
35.68886565090076 23.4158
35.7122557598848 23.4309
35.73564740699838 23.4272
35.759040593519934 23.3673
35.78261809810353 23.3617
35.80601437933051 23.2617
35.829412203814705 23.1726
35.85281157283719 23.073
35.876395313415884 23.2173
35.8997977874528 23.1381
35.92320180988546 23.0793
35.946790244133936 22.9486
35.97019737933222 23.0316
35.993606066789866 22.9482
36.01701630779276 22.9979
36.04061101440684 22.86
36.06402437852291 22.9261
36.08743930005611 22.8982
36.1108557802951 22.7271
36.13445678011326 22.7055
36.15787639383515 22.6931
36.18129757014299 22.721
36.20472031032821 22.6187
36.22832762423364 22.5509
36.25175350829375 22.6001
36.275180960119776 22.5241
36.298609981005924 22.5388
36.32222362992669 22.5154
36.34565580510207 22.4717
36.36908955323448 22.4253
36.39252487562093 22.3347
36.416144880530226 22.3186
36.43958336764275 22.3919
36.463023432914625 22.3033
36.486465077645676 22.1516
36.51009145956204 22.3464
36.53353627947859 22.2571
36.55698268276811 22.2116
36.58043067073321 22.1464
36.60406345072071 22.0794
36.62751462435344 22.1378
36.65096738658405 22.0284
36.67460498210655 21.9862
36.69806093788647 21.9415
36.72151848619297 21.88
36.744977628333636 21.8964
36.76862165890998 21.826999999999998
36.79208400512205 21.8788
36.81554794910557 21.8322
36.83901349217101 21.7731
36.862663978991606 21.714000000000002
36.88613273667352 21.6547
36.90960309738324 21.6673
36.933075062434064 21.6148
36.95673202673572 21.5798
36.98020721697122 21.5183
37.003684015502365 21.491999999999997
37.027162423645365 21.4586
37.050825886711465 21.4333
37.07430753063053 21.3653
37.09779078812467 21.3348
37.121275660513014 21.3894
37.144945643673694 21.3057
37.16843376245278 21.2743
37.19192350009803 21.3067
37.215414857931435 21.3068
37.239091382563885 21.1424
37.262585997426164 21.1572
37.28608223645736 21.1266
37.309763684451696 21.0187
37.33326318851098 21.111
37.356764320726555 21.0119
37.380267082425526 21.0123
37.40395510942588 20.9895
37.42746114683234 20.8751
37.45096881771841 20.8288
37.474478123414166 20.8877
37.49817275092816 20.8411
37.52168534303452 20.761999999999997
37.54519957395567 20.6963
37.568715445024665 20.7409
37.592416694607714 20.7334
37.61593586281424 20.7879
37.63945667518264 20.7207
37.66297913304891 20.6132
37.68668702630454 20.6161
37.710212792059274 20.4847
37.733740207334854 20.4268
37.757269273470364 20.3581
37.780983832050374 20.3114
37.80451621684926 20.3722
37.82805025654007 20.4356
37.851585952464795 20.393
37.8753071980695 20.2764
37.89884622345676 20.2507
37.92238690911902 20.2074
37.94611318753442 20.163
37.969657210779765 20.0853
37.99320289834801 20.1372
38.016750251586465 20.1263
38.04048325513017 20.1298
38.06403395679343 20.014
38.087586328183946 20.022000000000002
38.11114037065203 20.0158
38.13488012115898 19.9921
38.1584375229181 19.8939
38.181996599821 19.9359
38.205557353221124 19.8624
38.229303872575656 19.815
38.2528679961576 19.7868
38.27643380031219 19.7296
38.30000128639589 19.6692
38.32375459653193 19.7411
38.34732546371299 19.6708
38.37089801690786 19.59
38.39447225747609 19.5446
38.418232380377425 19.5814
38.441810012983396 19.5516
38.46538933705673 19.5378
38.488970353960084 19.4763
38.51273731166058 19.4765
38.536321731567014 19.3931
38.55990784840681 19.3488
38.58367995004091 19.3343
38.60726947812959 19.2693
38.63086070726198 19.3234
38.654453638806274 19.273
38.678232613930824 19.2172
38.70182896773327 19.1343
38.72542702806741 19.1356
38.7490267963045 19.1953
38.77281266709232 19.0938
38.79641586862214 19.1034
38.8200207821842 19.0532
38.843627409152944 19.0411
38.86742019782782 18.9756
38.891030269149255 18.9383
38.914642058016156 18.9978
38.938255565806124 18.9188
38.96205529464307 18.8855
38.98567225787121 18.8309
39.00929094417078 18.8229
39.03291135492255 18.8162
39.05671804624804 18.7381
39.080341923549106 18.6951
39.103967529460334 18.6139
39.127594865365744 18.6326
39.15140854155791 18.5703
39.17503935514948 18.5081
39.19867190290282 18.5621
39.22249083587951 18.5524
39.24612686969409 18.599
39.269764641845306 18.5144
39.293404153722804 18.5228
39.317230110864074 18.4339
39.34087311998506 18.3919
39.36451787301696 18.3546
39.388164371352595 18.2916
39.41199737518003 18.3142
39.43564738196752 18.2546
39.45929913825317 18.2359
39.48295264543308 18.1958
39.506792718520884 18.1629
39.530449745387216 18.1073
39.55410852735203 18.0856
39.57776906581474 18.0848
39.60161623079 18.1067
39.625280300200025 18.0196
39.64894613032202 18.0237
39.67261372255866 17.9832
39.6964680021016 17.8738
39.72013913657293 17.937
39.74381203738292 17.9595
39.76748670593756 17.9124
39.79134812278169 17.8629
39.81502634488497 17.798
39.83870633896685 17.8386
39.862388106436654 17.7788
39.88625668336918 17.7332
39.90994201572829 17.7873
39.933629125719285 17.6456
39.957503091207826 17.6528
39.9811937746168 17.691
40.00488623990914 17.6361
40.02858048850006 17.5815
40.05246165409549 17.5262
40.076159487492085 17.4602
40.099859108448875 17.570999999999998
40.123560518384345 17.488
40.1474489070226 17.4295
40.171153913178564 17.3903
40.194860712584955 17.3574
40.2185693066637 17.3482
40.242464941335314 17.3121
40.26617714307655 17.2891
40.289891143772046 17.3017
40.3136069448471 17.2586
40.33750984859743 17.1241
40.3612292688043 17.1704
40.3849504936829 17.160999999999998
40.40867352466194 17.1635
40.43258372059144 17.0836
40.45631038219906 17.1144
40.48003885420956 17.0556
40.503769138055105 17.102
40.52768664931955 16.9585
40.55142057531802 16.9926
40.57515631746428 16.9401
40.599079334038514 16.934
40.62281872700477 16.8617
40.64655994043941 16.8712
40.67030297578061 16.8524
40.69423334835778 16.8108
40.71798004609188 16.7779
40.74172857006355 16.7543
40.76547892171441 16.6995
40.7894166736039 16.7195
40.813170699248566 16.6817
40.83692655691388 16.6483
40.86068424804498 16.6801
40.884629402612525 16.5586
40.908390779366385 16.6145
40.932153993938 16.5259
40.95591904777605 16.4888
40.979871628443995 16.5605
41.003640379561936 16.5082
41.02741097430883 16.4153
41.05118341413683 16.3546
41.075143444384416 16.398
41.098919593177826 16.3969
41.1226975914255 16.3339
41.14647744058318 16.2938
41.170444943946755 16.2643
41.19422851378379 16.2427
41.218013938914645 16.2092
41.24198706625173 16.1559
41.26577622087193 16.1557
41.289567235177785 16.1347
41.31336011063129 16.1622
41.337340752422875 16.0457
41.361137369129835 16.0741
41.38493585138705 16.0602
41.40873620066004 15.9929
41.43272438060107 16.0131
41.45652848292052 15.9048
41.48033445666918 15.8827
41.50414230331616 15.8578
41.528138045159764 15.8936
41.551949656675205 15.8445
41.575763145513235 15.8139
41.59957851314666 15.7839
41.62358184070442 15.8161
41.64740098505737 15.7624
41.6712220126409 15.7378
41.69504492493139 15.6261
41.71905586207357 15.6029
41.74288256296395 15.6073
41.766711153007456 15.6229
41.79054163368412 15.6009
41.814560204340054 15.5732
41.838394485526365 15.6026
41.86223066180303 15.5031
41.88625497706819 15.4825
41.910094962812 15.4112
41.93393684811168 15.4071
41.95778063445365 15.3652
41.981812625263366 15.3608
42.00566023303407 15.3466
42.029509746323676 15.3541
42.05336116662236 15.3095
42.077400857069705 15.2983
42.10125611078846 15.2102
42.12511327600405 15.1721
42.14897235421036 15.1899
42.173019768448455 15.2318
42.19688269209613 15.1482
42.22074753323349 15.1248
42.24461429335818 15.0834
42.268669455600495 15.0859
42.292540073217886 15.0403
42.31641261433284 15.0383
42.34028708044675 15.007
42.36435001496739 14.9888
42.38822835065557 14.9637
42.41210861586426 14.9341
42.4359908120986 14.9557
42.46006154323262 14.8526
42.48394762115317 14.7552
42.507835634632315 14.8926
42.531912233047436 14.8435
42.55580413732265 14.7748
42.579697981698 14.7626
42.60359376768525 14.6769
42.62767820545945 14.6777
42.65157789440821 14.6947
42.67547952952185 14.6422
42.699383112316 14.6324
42.72347541395347 14.6218
42.74738291190531 14.5579
42.771292362102166 14.5722
42.795203766063516 14.5368
42.819303956130405 14.5238
42.843219287476536 14.4519
42.86713657716324 14.4538
42.89105582671383 14.4045
42.91516392983864 14.3893
42.939087119032166 14.4154
42.963012272677304 14.3822
42.98693939230129 14.2987
43.01105543317513 14.2718
43.034986504731386 14.2795
43.05891954686589 14.2687
43.08285456110972 14.2397
43.10697856448665 14.1685
43.130917542983475 14.1429
43.15485849820081 14.1785
43.17880143167367 14.1797
43.20293342237094 14.1533
43.226880332449 14.0896
43.25082922540554 14.0465
43.27496722682525 14.0251
43.29892010567796 14.046
43.32287497204102 13.9948
43.34683182745632 13.8951
43.370977859791836 13.9156
43.39493871351105 13.9472
43.41890156092628 13.9029
43.44286640358341 13.8633
43.46702049182749 13.8503
43.49098934522816 13.8042
43.51496019852649 13.8021
43.5389330532723 13.7759
43.56309522248204 13.75
43.58707210044314 13.7458
43.61105098451946 13.7001
43.63503187626491 13.6798
43.659202151562134 13.6599
43.68318707902681 13.6515
43.70717401884041 13.6205
43.731162972560874 13.5527
43.75534137913236 13.5577
43.779334381108384 13.5164
43.803329401683186 13.5025
43.82732644241872 13.4755
43.8515130055166 13.5056
43.87551410707659 13.4509
43.89951723350145 13.4351
43.923709934595614 13.3796
43.94771713129917 13.4229
43.97172635758096 13.3652
43.99573761501002 13.325999999999999
44.0199385169922 13.2941
44.04395385732619 13.2773
44.067971233533086 13.2934
44.09199064718605 13.2495
44.11619977548961 13.2157
44.14022328470671 13.1902
44.16424883610785 13.2061
44.18827643127035 13.1683
44.21249381139513 13.1421
44.236525514814076 13.0981
44.26055926674478 13.1102
44.28459506876863 13.0675
44.3088207262813 12.9857
44.33286064928722 12.985
44.35690262714919 12.9698
44.38094666145278 12.9735
44.4051806219871 12.9527
44.42922879003185 12.942
44.45327901929361 12.9246
44.477331311362136 12.8666
44.501573600619416 12.8398
44.525630039221795 12.8306
44.54968854541895 12.8022
44.573937102200176 12.776
44.5979997645541 12.8
44.622064499300315 12.7279
44.64613130803592 12.7302
44.67038823869318 12.7376
44.69445921643748 12.6736
44.718532272981385 12.6101
44.742607409926194 12.6093
44.76687274034801 12.610999999999999
44.79095205918753 12.5985
44.81503346325094 12.5817
44.839116954143876 12.5941
44.86339071028742 12.5199
44.88747839599524 12.5003
44.91156817336837 12.4658
44.93566004401666 12.469000000000001
44.959942251908146 12.4497
44.984038330325966 12.4152
45.00813650686762 12.3555
45.03223678314731 12.3598
45.05652746888232 12.3276
45.08063196592069 12.2949
45.104738567558705 12.2632
45.128847275414856 12.2661
45.15314646515866 12.2208
45.17725940679741 12.2013
45.20137445952892 12.1931
45.22568004865265 12.2015
45.24979934496396 12.1962
45.27392075725247 12.1634
45.29804428714431 12.172
45.322358426247604 12.0976
45.346486212804315 12.052999999999999
45.370616121861914 12.0941
45.39474815505086 12.0623
45.41907087049246 12.0186
45.4432071734666 11.985
45.46734560548283 11.9463
45.49148616817604 11.9998
45.51581748638564 11.9604
45.5399623320197 11.9514
45.56410931325473 11.9102
45.58825843173002 11.8817
45.61259837920865 11.8652
45.636751793816 11.8235
45.66090735060093 11.7842
45.68506505120716 11.769
45.7094136545275 11.7566
45.73357566449271 11.7514
45.75773982322992 11.7514
45.78190613238733 11.7078
45.806263418194064 11.6397
45.83043404997326 11.6514
45.85460683713677 11.6283
45.87897065658495 11.6494
45.90314777634752 11.6314
45.92732705646868 11.5749
45.9515084986045 11.5572
45.97588104735473 11.5625
46.00006683541565 11.5077
46.02425479047904 11.4662
46.04844491420549 11.4955
46.0728262191024 11.4791
46.09702070211635 11.443
46.12121735879483 11.4522
46.14541619080294 11.4123
46.169806278764455 11.3945
46.194009483459034 11.3425
46.21821486849841 11.3515
46.24242243555223 11.325
46.266821333570014 11.2903
46.29103328674601 11.3062
46.31524742696538 11.2771
46.33946375590237 11.2032
46.36387149104216 11.2184
46.38809221957392 11.1644
46.41231514186606 11.1699
46.436540259597464 11.1856
46.460956858999374 11.1391
46.48518638983522 11.1215
46.509418121166966 11.0464
46.533652054678114 11.0887
46.55807754555709 11.0758
46.58231590571962 11.0577
46.60655647313217 11.0069
46.630988654873654 10.9428
46.655233659129024 10.9472
46.67948087571551 10.9715
46.70373030632484 10.8791
46.72817142736393 10.9104
46.752425308428684 10.9326
46.77668140861147 10.8875
46.80093972960865 10.8097
46.82538981736788 10.8146
46.849652602470904 10.8202
46.87391761349769 10.7939
46.8981848521493 10.8057
46.9226439341274 10.7329
46.946915650573224 10.6947
46.97118959976749 10.6833
46.99546578341598 10.7032
47.019933887188216 10.6809
47.04421456235744 10.6645
47.06849747711879 10.5995
47.09278263318286 10.6132
47.11725978640143 10.6223
47.14154944775105 10.5678
47.165841355555656 10.5614
47.1901355115306 10.5293
47.214621741924994 10.5332
47.23892041698887 10.475
47.26322134538975 10.4738
47.28771440635075 10.4546
47.31201986422527 10.4421
47.33632758061436 10.4213
47.360637557241866 10.4328
47.38513974410611 10.3859
47.40945426407847 10.3432
47.43377104948137 10.3351
47.45809010204344 10.3039
47.48260144275502 10.2769
47.506925052572285 10.2862
47.53125093475548 10.267000000000001
47.55557909103813 10.2179
47.58009961361992 10.1758
47.60443234110732 10.1811
47.62876734791564 10.1964
47.65310463578333 10.1507
47.6776343683373 10.1336
47.7019762413987 10.0841
47.72632040075572 10.0937
47.75066684815169 10.0806
47.77520581885936 10.0572
47.799556865477655 10.05
47.823910205386 10.0655
47.84826584033272 10.0248
47.87281407745551 10.013
47.89717432569297 9.9834
47.92153687423484 9.945139999999999
47.94609208429692 9.94753
47.97045925671401 9.92232
47.99482873471275 9.93448
48.01920052005013 9.86121
48.04376504619224 9.86236
48.068141469543484 9.84094
48.09252020552573 9.826939999999999
48.11690125590099 9.81753
48.1414751266064 9.78834
48.16586082917454 9.798960000000001
48.19024885144316 9.742280000000001
48.2146391951793 9.740969999999999
48.239222439012764 9.71164
48.26361744916137 9.691989999999999
48.28801478610016 9.68725
48.31241445160131 9.70193
48.337007097209366 9.674660000000001
48.36141144338331 9.66778
48.38581812345755 9.63718
48.41022713920929 9.61233
48.434829215320704 9.5812
48.45924292604658 9.57743
48.48365897780325 9.59332
48.50807737237308 9.54947
48.532688907799276 9.52236
48.55711201168574 9.49319
48.581537463754074 9.47357
48.60615611725119 9.49805
48.63058628942721 9.48668
48.65501881516546 9.46219
48.6794536962573 9.44492
48.70408185970339 9.41366
48.72852147531801 9.35404
48.75296345168211 9.367230000000001
48.77740779059232 9.36037
48.80204549302823 9.37146
48.82649458091802 9.31498
48.85094603676547 9.28984
48.87539986237231 9.26326
48.90004713292306 9.238539999999999
48.92450572200832 9.24506
48.94896668628025 9.230210000000001
48.97343002754588 9.191889999999999
48.99808689542115 9.20246
49.02255501470614 9.183860000000001
49.04702551642794 9.16549
49.0714984023988 9.15423
49.096164896893235 9.13425
49.120642575466796 9.093069999999999
49.145122643748394 9.080969999999999
49.16960510355558 9.06068
49.19428125404938 9.05723
49.2187685210852 9.04144
49.243258185121555 9.01252
49.26794160167084 9.00216
49.2924360839405 8.969710000000001
49.31693296869764 8.99198
49.34143225776915 8.9789
49.36612538195438 8.94219
49.39062950396021 8.95214
49.41513603578346 8.90085
49.4396449792564 8.88636
49.46434784069503 8.86163
49.488861631846454 8.87086
49.513377840166804 8.81425
49.537896467493745 8.805010000000001
49.56260909589029 8.767430000000001
49.587132585683285 8.77714
49.611658500018365 8.802710000000001
49.636186840738596 8.74231
49.66090926588511 8.751489999999999
49.685442483902584 8.72899
49.70997813385706 8.64365
49.734516217597076 8.654580000000001
49.75924846937352 8.63828
49.7837914452858 8.66734
49.80833686055187 8.61566
49.83288471702571 8.609
49.85762682540054 8.613560000000001
49.882179588965734 8.589960000000001
49.9067347993235 8.57448
49.93129245833333 8.50688
49.95604445336378 8.53239
49.98060703442832 8.47635
50.005172069746266 8.490039999999999
50.02993150438364 8.490260000000001
50.05450147301533 8.47359
50.07907390151433 8.43517
50.10364879174981 8.45503
50.12841816587289 8.41985
50.1529980044635 8.43777
50.17758031042124 8.3715
50.20216508562089 8.335410000000001
50.22694442953363 8.338610000000001
50.25153416817468 8.332469999999999
50.27612638170508 8.33838
50.300721072005196 8.29903
50.325510416102105 8.293510000000001
50.350110084975064 8.27309
50.37471223628208 8.25751
50.39931687190919 8.220880000000001
50.424116246675766 8.2394
50.44872587605249 8.23093
50.47333799543065 8.19891
50.49795260670191 8.186060000000001
50.52276204271512 8.16682
50.54738166295838 8.14713
50.57200378079314 8.14075
50.596628398116835 8.11554
50.62144792604559 8.09097
50.646077567609396 8.04748
50.670709714377715 8.04922
50.69553683636198 8.04862
50.72017401885922 8.04668
50.7448137122895 8.02237
50.76945591856022 7.99492
50.79429318636823 7.992539999999999
50.818940443716784 7.99965
50.84359021965163 7.9523399999999995
50.868242516085964 7.951169999999999
50.893089960641895 7.94543
50.917747323549435 7.90885
50.94240721271973 7.9209
50.96706963007175 7.86142
50.99192728239342 7.86866
51.01659478166073 7.864889999999999
51.04126481489051 7.81827
51.06593738400761 7.83395
51.090805275207074 7.81779
51.11548294172845 7.80439
51.14016314993547 7.76987
51.164845901758845 7.7716899999999995
51.18972406304274 7.780289999999999
51.21441192780656 7.7253300000000005
51.23910234200271 7.70788
51.2637953075678 7.68358
51.288683770237945 7.655889999999999
51.31338186432707 7.62891
51.33808251561888 7.6157
51.362978729967345 7.62528
51.387684521509755 7.65348
51.41239287610203 7.62823
51.437103795691165 7.57475
51.46201036644977 7.539960000000001
51.486726441956634 7.55863
51.51144508832545 7.534910000000001
51.536166307509156 7.53335
51.56108326624387 7.4886
51.58580965706056 7.44384
51.61053862657523 7.4462
51.635270176746864 7.46735
51.66019755512065 7.4677
51.68493429268881 7.43593
51.70967361681515 7.392469999999999
51.73441552946465 7.35
51.759353359237934 7.372210000000001
51.7841004750961 7.397810000000001
51.80885018539685 7.361839999999999
51.833602492111254 7.3479
51.8585508051424 7.29343
51.883308330926425 7.28557
51.90806845906181 7.27877
51.932831191525715 7.26923
51.95779001977161 7.2351399999999995
51.98255798721516 7.233569999999999
52.00732856494335 7.21285
52.03229530577543 7.21294
52.057071130455945 7.176310000000001
52.081849571391054 7.1694
52.106630630568695 7.185410000000001
52.13160794279417 7.14363
52.15639426492067 7.15797
52.18118321127822 7.15516
52.205974783860896 7.0819
52.23096269971011 7.10025
52.255759551287994 7.11188
52.280559035098186 7.0594
52.30536115314103 7.0311699999999995
52.33035970494467 7.085319999999999
52.35516711807904 7.04082
52.37997717147198 7.0202800000000005
52.40478986713005 7.02111
52.42979908731974 6.97668
52.454617094216 6.9713899999999995
52.47943774942214 6.94992
52.50426105495102 6.93513
52.529280976059844 6.927110000000001
52.554109609024096 6.8860600000000005
52.57894089837482 6.850910000000001
52.60377484613117 6.9061699999999995
52.62880550079408 6.890039999999999
52.65364479223379 6.872889999999999
52.67848674816189 6.81803
52.70352547971946 6.79138
52.72837279155837 6.797630000000001
52.753222773982785 6.778810000000001
52.778075429022984 6.755089999999999
52.80312495150885 6.7696
52.827982978797436 6.739669999999999
52.85284368481815 6.7541199999999995
52.87770707160767 6.72934
52.90276741793998 6.6876
52.92763619336701 6.70706
52.952507655698504 6.670789999999999
52.977381806977576 6.68708
53.00245301017842 6.69137
53.02733256653592 6.64544
53.052214817996074 6.61615
53.077099766608484 6.6282
53.102181859804446 6.60335
53.127072229988265 6.56729
53.15196530349892 6.5556399999999995
53.17686108239249 6.5648
53.20195409881522 6.54694
53.22685531582556 6.53589
53.25175924441303 6.50091
53.27666588664027 6.50126
53.30176985962693 6.49983
53.3266819565689 6.48511
53.35159677336455 6.46476
53.376514312083096 6.45015
53.40162927507703 6.4459800000000005
53.42655228516116 6.45639
53.45147802340193 6.38324
53.47660125628886 6.37879
53.50153247842639 6.3798699999999995
53.52646643496923 6.35909
53.55140312799818 6.33855
53.576537409691696 6.35046
53.60147960336152 6.3356
53.626424539786164 6.320069999999999
53.65137222105307 6.274719999999999
53.67651758529126 6.2742
53.70147078399681 6.24823
53.72642673383343 6.25893
53.75138543689533 6.24636
53.776541917524526 6.23639
53.801506154876755 6.2221400000000004
53.826473151763246 6.1951
53.851442910284916 6.16547
53.87661054126026 6.1302
53.9015858509782 6.12732
53.92656392866066 6.12595
53.95154477641532 6.13773
53.976723591801296 6.13432
54.00171000771266 6.08598
54.02669920004598 6.06513
54.051691170915745 6.0905
54.076881204886796 6.046880000000001
54.101878760928514 6.007630000000001
54.12687910187696 6.0035099999999995
54.152077577768296 6.003369999999999
54.1770835166946 5.985930000000001
54.20209224691339 5.96605
54.22710377055121 5.96579
54.25231352511594 5.9701699999999995
54.27733066384342 5.92886
54.30235060239643 5.92555
54.32737334290836 5.90154
54.35259441062629 5.85262
54.377622783395324 5.8453800000000005
54.40265396455061 5.8304
54.42768795623251 5.84898
54.45292037169559 5.853330000000001
54.477960012857906 5.80117
54.50300247099511 5.84133
54.52804774825457 5.7846400000000004
54.55329154616743 5.735040000000001
54.57834249018678 5.7507
54.6033962597977 5.67899
54.6284528571545 5.69036
54.653708072335164 5.65085
54.67877035378786 5.6669599999999996
54.70383546947698 5.58654
54.72890342156389 5.62223
54.7541700889442 5.597169999999999
54.77924374251975 5.61209
54.8043202390049 5.56975
54.82959552413022 5.55267
54.8546777351945 5.54315
54.87976279569621 5.481319999999999
54.90485070780914 5.5022400000000005
54.930137506558005 5.45811
54.95523115074295 5.46801
54.98032765308844 5.45071
55.005427015775496 5.34034
55.03072536339621 5.41159
55.05583047570572 5.35895
55.080938454927676 5.37328
55.10604930325027 5.37794
55.131359235107396 5.37076
55.15647585066083 5.29235
55.181595341907496 5.25108
55.20671771104285 5.22365
55.232039262617704 5.21788
55.25716741665048 5.21924
55.28229845518636 5.20301
55.30743238042802 5.152769999999999
55.33276558731939 5.1616
55.357905315183636 5.093319999999999
55.383047936390035 5.05476
55.40819345314859 5.02497
55.433538351073295 5.03222
55.458689688238415 5.0239199999999995
55.483843927614096 4.9467300000000005
55.509197623043605 4.97609
55.53435769621134 4.95668
55.55952067826466 4.928380000000001
55.5846865714265 4.934819999999999
55.61005202069737 4.9066
55.63522376553902 4.85684
55.66039842818645 4.86477
55.68557601087004 4.87551
55.7109532500271 4.77189
55.73613670233794 4.79617
