TT I
1.2716486653135266 7.86654
1.2939594142134223 7.725060000000001
1.3162702121660406 7.088419999999999
1.3385810600174564 7.57407
1.3608919586137629 7.48877
1.383202908801069 6.8689800000000005
1.405513911425503 6.23055
1.4278249673332093 6.44608
1.4501343378461518 6.11175
1.4724455028545926 5.81171
1.4947567236847858 7.2125
1.517068001182951 6.87299
1.5393793361953272 6.37605
1.5616907295681737 6.56758
1.5840021821477681 5.83591
1.60631369478041 5.4124300000000005
1.6286252683124185 5.59181
1.6509369035901333 5.85694
1.6732468618895553 5.982819999999999
1.695558623192809 5.309480000000001
1.7178704487808514 5.86702
1.7401823395001077 5.27161
1.7625012545597203 5.44899
1.7848028405262486 5.57116
1.8071218901122095 5.40499
1.8294236121921872 4.8697
1.8517427996910911 5.28862
1.8740620574440425 4.99868
1.8963639900671978 5.39049
1.9186833908139995 5.269419999999999
1.9409854680117449 4.63894
1.9633050151394713 5.20429
1.9856246367570705 4.858969999999999
2.0079269371922672 4.4181
2.03024671027244 4.9747699999999995
2.0525491637446027 4.92019
2.074869091674931 4.65278
2.097171701569106 5.08303
2.1194917877373847 4.68056
2.141811954326636 4.6077900000000005
2.164114805233074 4.37165
2.186435135143035 4.84551
2.208738150935709 5.115130000000001
2.231058647554722 4.83483
2.2533792288321184 4.4524300000000006
2.275682498336085 4.9680800000000005
2.298003251406138 4.59631
2.3203066942619714 4.2706
2.3426276225136022 4.90848
2.3649486396617507 4.55312
2.387252348930071 5.23461
2.4095735463442893 4.9112
2.4318774374315884 5.54106
2.4541988185014043 5.54826
2.476502894794693 5.56864
2.498824462909887 5.06752
2.521146125856138 5.05521
2.5434504863470337 4.99218
2.5657723414244717 5.1839
2.588076895590662 5.648280000000001
2.610398946189713 6.11993
2.6327210958598384 5.53214
2.6550259469304716 5.911919999999999
2.6773482972090137 5.8957
2.6996533504259 6.92465
2.7219759047039602 6.96577
2.744298562293959 6.991810000000001
2.7666039251246595 7.13524
2.7889267918020164 7.09179
2.8112323652516555 7.56377
2.833555444408179 8.0638
2.8558786311183852 8.186860000000001
2.8781845268938557 8.0689
2.9005079311721484 7.988060000000001
2.9228140460410397 8.35339
2.9451376712799635 9.02517
2.967444008632326 9.21188
2.9897678582247247 9.58284
3.0120918213106695 10.1592
3.0343984987899373 10.4941
3.0567226913198637 11.3237
3.079029599759726 12.0551
3.101354025127254 12.2402
3.123678568232338 12.569
3.145985829517914 13.4034
3.16831061055229 13.5437
3.1906181112775593 13.9729
3.212943133635653 14.7368
3.2352682779763207 14.6888
3.2575761442691227 15.1778
3.2799015350264273 16.0728
3.302209649240067 16.6698
3.3245352898092655 16.7017
3.3468436553365257 17.0378
3.369169549113219 17.5539
3.3914955708171384 18.7572
3.413804319727358 18.4707
3.4361305997334863 19.1352
3.4584396084414553 19.6516
3.4807661501462652 20.2744
3.503092824025881 21.0238
3.5254022288463154 21.1844
3.5477291695206588 21.6467
3.5700388426251948 21.7217
3.5923660534916446 22.3815
3.6146934007816114 22.5103
3.637003482731501 22.9692
3.6593311053109985 23.5477
3.681641464033634 24.0033
3.7039693653009733 24.5596
3.726297407241705 24.8059
3.7486081875460804 25.6253
3.7709365132734978 26.26
3.793247578841633 26.5392
3.8155761917550093 26.7089
3.8378875459837216 26.7876
3.8602164494827234 27.4676
3.882545499606844 28.4591
3.9048572932539183 29.3152
3.9271866390645718 29.0816
3.9494987298666713 29.7753
3.971828374764527 30.4988
3.9941581705403255 31.1498
4.016470713506008 31.7471
4.038800813471445 32.6609
4.061113662089144 32.7639
4.0834440696459176 34.0615
4.105774632334751 34.2408
4.128087945865126 34.7089
4.150418821249301 35.739000000000004
4.172732448931298 36.4381
4.195063640413578 37.3303
4.2173775856475215 38.2353
4.239709096631102 38.3741
4.262040768704612 39.1383
4.284355196706267 40.3185
4.306687193387355 40.7814
4.329001947444346 42.1267
4.35133427213731 42.5713
4.373666762177566 43.4964
4.395982011761091 44.1651
4.418314834921175 45.3436
4.44063041906622 46.6993
4.4629635787515625 47.3594
4.4852969080429785 48.7503
4.5076130004776225 50.5407
4.529946671403969 53.1658
4.552263106909177 54.0334
4.574597122877047 54.4373
4.596931312711224 55.0799
4.619248269273446 55.88
4.6415828092605835 56.8586
4.663900117405352 58.0349
4.686235010953232 59.7468
4.708552674085913 61.4605
4.730887924602802 63.3301
4.753223354952695 64.7495
4.775541557023902 66.3102
4.797877349456786 68.4075
4.820195915032126 70.1242
4.842532072957498 71.4869
4.864868414979744 74.2751
4.88718753227192 76.7647
4.909524244902505 79.0965
4.931843734218147 81.4267
4.954180820867835 84.1835
4.976518095879839 88.3709
4.998838149695359 91.8646
5.021175803844231 96.5166
5.043496238205739 100.96799999999999
5.065834274903528 106.791
5.088172504230693 113.71
5.1104935158799565 123.704
5.132832132875765 141.035
5.155153533596801 169.292
5.1774925416746225 287.722
5.199814334878411 890.512
5.2221537374521505 2194.86
5.244493338631803 3979.02
5.266815727034316 6856.54
5.289155727832427 10622.1
5.311478517248165 9385.97
5.333818921080011 4061.9
5.356159527788849 949.122
5.3784829252032536 270.77099999999996
5.400823940070432 182.503
5.423147747031976 152.774
5.445489173474152 136.89600000000002
5.467830807066149 129.264
5.490155234831516 123.709
5.512497285125229 118.206
5.534822130975162 114.745
5.557164601388673 111.695
5.579489868738879 108.36200000000001
5.601832762690846 106.759
5.6241758697774475 105.098
5.646501775867269 104.124
5.668845311622074 103.194
5.691171647754637 102.596
5.713515615597765 101.584
5.735859800852677 100.666
5.758186788542988 100.95200000000001
5.780531411018185 101.956
5.802858837297399 101.568
5.825203900414495 102.155
5.8475491852224 104.074
5.869877275883075 104.685
5.892223006467101 106.789
5.914551544266608 110.215
5.936897724049891 117.18799999999999
5.959244129804903 133.067
5.981573344815301 198.90599999999998
6.0039202049061 449.009
6.026249875609095 894.416
6.04859719346037 1427.81
6.070927323278297 2224.3
6.093275102315365 3666.06
6.115623113320588 4670.28
6.137953938319995 3656.72
6.160302415650845 1386.32
6.182633708324452 350.51800000000003
6.2049826554078376 145.167
6.227331838745022 108.34
6.249663839443684 95.8101
6.27201349767565 88.6678
6.294345974611799 84.5857
6.316696111167083 80.8098
6.339046488263839 78.5449
6.361379686074702 76.1181
6.383730546639482 74.4646
6.406064229255215 72.9836
6.428415576718203 72.6561
6.450749747566656 71.1716
6.47310158535871 69.5374
6.495453669698332 68.9649
6.517788579421056 67.5723
6.540141159237969 66.4588
6.562476565766648 65.6827
6.5848296444934045 64.9548
6.607182974060425 64.4607
6.6295191323281015 64.5377
6.651872965955752 63.372
6.6742096296068985 62.2085
6.6965639707294615 62.2823
6.71891856698715 61.4779
6.741255995248479 61.2017
6.763611104154477 60.7411
6.785949046381137 60.5914
6.808304671371482 59.9684
6.8306605557940046 60.1817
6.852999275508618 59.4341
6.875355681171544 58.9568
6.897694923437771 58.7363
6.92005185377892 58.4277
6.9423916220322655 58.2371
6.964749080490181 57.3594
6.987106804399774 57.418
7.009447368180821 57.3853
7.031805625367033 57.1136
7.054146723727803 56.9708
7.076505517631004 56.8723
7.098864581288365 56.7468
7.121206488070854 56.174
7.143566093607822 56.096000000000004
7.165908543567245 56.5349
7.188268694426048 56.3967
7.2106291193438095 55.7185
7.232972390625943 55.952
7.255333366030969 55.6368
7.277677189091925 55.5283
7.300038718428332 55.7403
7.322400526130865 55.9521
7.344745183422596 56.0266
7.367107550224791 56.0326
7.389452767901992 56.3698
7.411815697249891 56.0776
7.434161478756298 55.4589
7.456524974096713 55.5345
7.478888753837185 55.6318
7.501235387657368 55.9959
7.523599738562711 56.1646
7.545946944825532 56.8215
7.568311870344528 56.9859
7.5906770845765665 56.6081
7.613025156078678 57.1384
7.635390950099687 57.3605
7.657739602662809 57.5245
7.680105979923558 57.5661
7.702472650212829 58.1739
7.724822180948224 58.1623
7.747189439655568 58.5714
7.769539560075357 58.1902
7.791907410653562 58.9934
7.81425812420825 58.9108
7.836626570110925 59.1313
7.858995315087906 60.3729
7.881346924933401 60.3578
7.903716270417482 60.8091
7.926068482028405 61.3585
7.948438431475253 61.8424
7.9708086843180235 62.2369
7.993161805171116 63.3203
8.015532667162402 63.8091
8.037886398416653 64.8299
8.060257873014221 65.2867
8.082629655331942 66.1182
8.104984308787587 66.8129
8.127356708900503 67.8501
8.149711981398308 69.1033
8.172085002766314 70.0849
8.194458336181368 70.783
8.216814543847752 71.6867
8.23918850371002 73.3089
8.26154533906492 74.521
8.283919928836452 76.0448
8.306277395339652 77.5349
8.328652618483376 79.1492
8.351028159736202 81.6448
8.373386579575245 84.2016
8.395762759396959 86.4813
8.418121819038275 90.3857
8.440498640894003 96.7379
8.462875785192262 111.287
8.485235811156207 165.785
8.507613602688501 293.119
8.529974277114228 448.36300000000006
8.552352719347912 582.2869999999999
8.574731488360351 762.935
8.59709314210385 1081.22
8.619472567021075 1562.77
8.64183487789147 1981.53
8.664214962183097 1922.66
8.686577933647762 1204.56
8.708958680784317 514.524
8.731339760774953 215.43400000000003
8.753703729764451 133.162
8.77608547780821 110.78299999999999
8.798450116065078 104.199
8.820832535634787 100.068
8.843215292401656 97.9812
8.865580941199045 96.1586
8.887964374703538 94.4057
8.910330701447199 93.3597
8.932714815164482 92.3104
8.955099270424924 90.8492
8.977466620733543 90.0475
8.999851761421976 89.1658
9.022219798361645 88.762
9.04460562795561 88.8127
9.066991803441677 88.0049
9.089360876979615 87.8701
9.111747746589993 87.9389
9.13411751544971 87.1461
9.156505082664324 86.2754
9.178875550323522 86.4467
9.20126381862328 86.51799999999999
9.223652438908596 86.3542
9.246023961427412 86.819
9.26841328802173 87.1193
9.290785518039224 87.5631
9.313175554425882 88.2446
9.335565947154315 88.4761
9.357939245086508 88.4368
9.380330352834827 88.6263
9.40270436697103 88.3591
9.425096193225055 88.5728
9.447488380180165 89.2088
9.469863475295412 89.0161
9.492256385987508 89.6021
9.514632206018318 90.2157
9.537025843935714 90.3375
9.559402392368193 91.4025
9.581796761000229 93.0547
9.604191496441521 93.6976
9.626569144158516 94.6753
9.648964615551032 95.4591
9.671343000390081 95.869
9.693739211225699 96.9353
9.716135793237463 97.9358
9.738515290448102 99.098
9.760912617143402 100.23
9.783292860202891 101.82600000000001
9.805690935076182 103.678
9.828089385495742 104.50399999999999
9.850470754023561 106.931
9.872869957865444 109.211
9.89525208097539 112.866
9.917652041736662 118.454
9.940052382417589 138.111
9.962435644102392 202.998
9.984836746950979 304.85400000000004
10.007220771957746 415.334
10.029622640473708 515.8009999999999
10.052007432299963 638.618
10.074410069984072 808.934
10.096813093716005 1087.89
10.119199042482517 1461.54
10.141602840636468 1794.49
10.163989564971628 1680.9
10.186394141051062 1122.3
10.208799107559706 541.31
10.231187001965623 244.97400000000002
10.253592751657669 146.713
10.275981430388155 123.40299999999999
10.298387966769793 117.354
10.320794897965431 114.74
10.343184759907361 112.775
10.36559248305461 111.575
10.387983138083852 115.648
10.410391656691655 132.232
10.432800574501677 159.757
10.455192425893369 186.787
10.47760214443012 211.372
10.499994797678786 238.18200000000002
10.522405320453982 284.08
10.54479877906917 357.069
10.567210109595656 454.805
10.5896218454736 533.515
10.612016518879773 529.403
10.634429067781074 410.44599999999997
10.656824555333241 253.074
10.679237920773568 151.917
10.701651695961992 107.67200000000001
10.724048411481384 95.84100000000001
10.746463008485165 92.2841
10.768860546937125 90.2584
10.791275969274796 87.9838
10.81369180576079 86.8252
10.836090585366925 85.1714
10.858507252467449 83.9928
10.88090686379991 83.0304
10.903324365036394 82.0676
10.925724811614439 80.7236
10.948143150509463 80.5426
10.970561909719066 79.4568
10.992963615930844 78.7383
11.015383218085756 77.249
11.037785768347074 76.6161
11.06020621697282 76.2034
11.082627090322113 75.6109
11.105030913430326 74.5894
11.12745263854165 74.3094
11.149857314510728 73.3143
11.172279894912576 73.3699
11.194702904450653 72.2947
11.217108866490921 71.6346
11.239532736615194 71.0553
11.26193956033512 71.0329
11.284364294577085 70.881
11.306789462371718 70.1077
11.329197585398376 69.7709
11.351623622610898 69.541
11.37403261614354 68.7531
11.396459526308487 69.0184
11.418869393879497 68.5329
11.441297180532617 68.3883
11.463725406927658 67.7986
11.486136592353875 67.5474
11.508565700543707 67.0524
11.530977768845315 67.0013
11.553407762368774 66.61399999999999
11.575838200059769 66.6721
11.598251599479612 66.4286
11.620682927815501 66.4026
11.64309721895548 66.5086
11.665529441478206 65.8437
11.687962112597958 65.8747
11.710377748130886 65.8824
11.732811318753434 65.868
11.755227854859067 65.6869
11.777662328529495 65.4629
11.800079768750786 65.4085
11.822515149015453 65.2439
11.844950984084935 65.6854
11.867369787303163 65.2853
11.889806534289491 65.301
11.912226250487029 65.6705
11.934663912939751 66.0849
11.9571020346363 66.2278
11.979523127133968 66.8095
12.001962169624331 68.6494
12.024384183972964 72.7389
12.046824150809913 79.7761
12.069264581333726 87.9465
12.091687985297767 94.0928
12.11412934550045 99.9977
12.136553680195208 109.154
12.158995973632788 122.648
12.181438735204349 142.02100000000002
12.20386447284199 164.74099999999999
12.226308172985636 193.59900000000002
12.24873485024193 205.761
12.271179492516982 180.855
12.293607112949127 142.36700000000002
12.316052700916226 102.69
12.338498763250042 79.0077
12.360927805303868 70.0153
12.383374818673879 67.987
12.405804812803074 67.16
12.428252780773262 67.1037
12.45070122756722 67.0965
12.473132656675375 67.0329
12.49558206341869 67.3849
12.518014453510101 67.561
12.540464823770117 67.4894
12.562915677315177 67.3406
12.58534951575545 67.98
12.607801338171472 67.8121
12.630236146511358 68.175
12.652688941369085 68.5232
12.675124723177234 68.7883
12.697578494048786 69.6081
12.720032754458185 69.6743
12.742470003354093 70.0922
12.764925245138771 70.6626
12.787363476431278 71.1726
12.809819703166806 71.5811
12.83227642391173 72.4031
12.854716135692716 73.1012
12.877173846755147 74.3406
12.899614549869717 74.777
12.9220732548287 75.8513
12.94453245827299 76.4738
12.966974655289818 77.6998
12.989434858002571 78.4217
13.011878055298721 79.3902
13.034339260862497 80.7514
13.056800969391883 82.3785
13.079245674017244 86.4567
13.101708390774869 94.4468
13.12415410463411 111.59899999999999
13.146617833206086 130.836
13.169064559883248 146.862
13.191529303857127 159.582
13.213994557076367 174.891
13.236442809902437 197.77200000000002
13.258909083908291 231.467
13.28135835851934 271.476
13.30382565690295 325.856
13.326293469022952 387.56199999999995
13.348744283242008 418.852
13.371213125129904 389.292
13.39366497011003 306.60900000000004
13.416134845360597 208.081
13.438605238843131 149.194
13.46105863690397 129.898
13.483530069144786 133.268
13.505984506951902 142.589
13.528456981549432 152.451
13.550929978879088 161.717
13.573385983253365 175.15099999999998
13.595860028340867 198.03400000000002
13.618317081455832 228.14
13.64079217790333 266.559
13.663250283359057 312.305
13.685726434770173 353.065
13.708203115221277 353.56699999999995
13.730662806148091 300.04
13.75314054697177 222.46400000000003
13.775601299246777 154.441
13.798080104050406 109.684
13.820559442405358 92.1225
13.843021793671388 86.96700000000001
13.865502201420897 84.7218
13.887965623051947 83.965
13.910447103807167 82.9388
13.932929122629764 81.3158
13.955394156785959 81.0262
13.977877254034569 80.2355
14.000343367582113 78.9692
14.022827546871707 78.2887
14.045294743423524 77.5278
14.06778000837062 76.6221
14.090265817715476 76.6603
14.112734645763819 75.9652
14.13522154619454 75.7193
14.157691466286913 75.306
14.180179461423874 75.1668
14.202668005486178 74.6032
14.22513957064374 74.1878
14.247629214846473 73.9365
14.270101881097517 73.4496
14.29259262906496 73.4761
14.315083930490205 73.4198
14.337558255389705 73.0539
14.360050666019726 72.9649
14.382526101071944 72.6576
14.405019624534942 72.3224
14.427513705993134 72.298
14.449990813291825 72.0451
14.47248601302899 72.1914
14.49496423954951 72.2051
14.517460561197822 72.4254
14.539939910570322 72.0147
14.562437357763558 72.6667
14.58493536931253 73.0687
14.607416409993311 72.8853
14.62991555254159 73.2204
14.652397725157423 73.6612
14.674898002342799 74.082
14.697398848433282 74.6072
14.719882725991326 77.0186
14.74238471217934 81.2828
14.764869730765593 88.9185
14.787372860692983 95.1456
14.809876564079925 101.18299999999999
14.83236330125751 106.51700000000001
14.854868153850365 111.76899999999999
14.877356041159485 120.023
14.899862046604186 131.286
14.922351087688757 146.55200000000002
14.944858249632887 166.14700000000002
14.967365991421232 188.058
14.989856770231246 210.032
15.012365673994204 222.919
15.03485761569738 205.25
15.05736768508665 169.623
15.07987833888692 131.269
15.102372032001655 100.48700000000001
15.124883856909658 83.3146
15.14737872204565 76.8019
15.169891721717274 74.5243
15.192405310371893 73.9851
15.214901940621196 73.2053
15.237416709527137 72.1383
15.259914520936249 72.10300000000001
15.282430473753607 71.3772
15.304947020131227 70.7202
15.327446610371178 70.4705
15.349964346154254 69.9748
15.372465126703139 70.1364
15.394984055556009 70.0092
15.417486030076159 69.8438
15.44000615566487 69.7627
15.462526881230803 69.3678
15.485030653812652 69.2838
15.507552581617434 69.1328
15.530057557334603 69.1813
15.55258069104857 69.294
15.575104429329837 69.7393
15.597611216864632 69.7699
15.620136166564563 71.4998
15.6426441664095 75.2844
15.665170331202765 80.8168
15.687697105158826 86.2344
15.710206930593545 91.0551
15.732734925158933 94.6415
15.755245972089478 98.0806
15.77777519094324 103.78
15.800287463046663 111.822
15.822817909869592 122.55799999999999
15.84534897229804 136.125
15.867863089299354 153.718
15.890395385222186 174.28400000000002
15.912910736597423 190.612
15.935444269699861 193.203
15.957978423016485 173.49900000000002
15.980495633101265 141.965
16.003031029129367 111.185
16.02554948280019 85.6751
16.048086125229432 72.6418
16.070623392487107 67.6211
16.09314371869582 65.6193
16.11568223789321 64.4008
16.13820381691126 63.7526
16.160743591742527 63.3786
16.183283996022084 62.9939
16.205807461423195 61.8996
16.228349126881973 61.5018
16.25087385432698 61.4604
16.27341678466365 61.0193
16.29594277784926 60.7384
16.31848697676433 60.1894
16.341031811604868 59.6608
16.36355971058487 59.3876
16.3861058195587 59.4374
16.40863499352978 58.8622
16.431182380342005 58.7257
16.453730407713202 58.4985
16.476261501364792 58.0521
16.498810812136167 58.0083
16.52134319004079 58.1214
16.54389378792203 57.9506
16.566445031001553 57.6214
16.588979342490088 57.5069
16.61153187824822 57.6183
16.634067483263312 57.5388
16.656621315414416 57.3198
16.679175797408888 57.1048
16.701713349928728 57.1966
16.72426913389191 57.1708
16.74680798922351 57.2262
16.76936507887444 57.2369
16.791905240734874 57.3945
16.814463639794468 57.2434
16.837022695210294 57.196000000000005
16.859564824093756 57.3638
16.882125194503903 57.1846
16.904668639217885 57.4155
16.927230328348003 57.2973
16.949792678493612 57.7922
16.972338104193863 57.9462
16.994901778652235 57.9609
17.017448529496576 58.2517
17.040013531998152 59.3846
17.06257920018044 60.6064
17.0851279459922 61.8485
17.107694947817667 62.8078
17.130245028099072 63.7893
17.15281336730298 64.7269
17.17536478578733 65.4617
17.19793446610687 66.9923
17.220504818648422 68.97800000000001
17.243058251703697 71.1675
17.265629950971032 74.0173
17.288184731571736 77.5729
17.310757781306908 82.4554
17.33333150794385 85.4477
17.355888317140174 86.2373
17.37846339986244 82.3076
17.401021565958885 76.4123
17.42359800851343 70.8816
17.44617513265564 66.296
17.468735341390783 63.836999999999996
17.491261035594565 62.3548
17.51396340099364 61.998000000000005
17.536490463869136 62.1532
17.559018209820174 61.9267
17.58154663977963 62.1784
17.604251766089718 62.1383
17.626781572227713 62.4998
17.64931206518155 62.6231
17.671843245885103 63.0847
17.69455114821572 63.2506
17.717083712612634 63.5697
17.739616967569667 63.6863
17.762150914021706 64.4859
17.78486160749854 65.0512
17.807396945166804 66.5754
17.829932977143503 69.2048
17.85246970436452 72.4225
17.875183204129467 75.3222
17.897721330097664 78.0173
17.920260154126645 80.5751
17.942799677153296 82.6212
17.9655159983646 84.80799999999999
17.988056927677544 88.3252
18.010598558807683 93.2553
18.033140892692916 99.5223
18.05586005052525 106.669
18.07840379824407 115.929
18.10094825154059 127.74700000000001
18.12366954819864 139.16
18.146215420998306 145.743
18.16876200220057 144.537
18.191309292745153 133.042
18.214033452627167 117.573
18.236582170236648 102.755
18.259131600016456 93.2041
18.281681742907335 89.4408
18.304408781233683 90.5781
18.32696035875955 93.3076
18.349512652227624 97.0283
18.372065662579683 102.809
18.394795594587553 106.36
18.41735004715306 106.52799999999999
18.43990521943684 101.225
18.46246111238171 93.2331
18.485193953325208 83.1094
18.507751296070428 74.95100000000001
18.530309362314178 70.0472
18.552868153000343 66.9896
18.57560391815056 65.275
18.59816416623245 64.6047
18.620725141597372 64.5483
18.643286845190268 63.845
18.666025549835414 63.4385
18.688588718427933 62.6217
18.711152618092243 62.4414
18.73389353884365 62.2994
18.75645890921984 61.8015
18.77902501351406 61.6209
18.801591852673102 61.6973
18.824335739722738 60.8534
18.846904057212626 60.8108
18.8694731124168 60.6003
18.89204290628315 60.64
18.914789774966803 60.3802
18.937361054791623 60.1264
18.959933076131318 59.7009
18.982505839934877 59.8001
19.00525570560582 59.81100000000001
19.027829963004184 59.5404
19.05040496572238 59.8527
19.072980714710468 60.3156
19.095733592739563 60.9747
19.11831084296757 61.2965
19.140888842324735 61.7439
19.16346759176222 61.942
19.18622349753803 62.2269
19.208803755869358 62.8246
19.231384767143577 63.6731
19.253966532312948 64.6282
19.276725481241822 66.0423
19.29930876296784 67.4938
19.3218928014549 69.3493
19.34465404436217 71.5159
19.36723960516257 74.214
19.389825925592426 76.3064
19.412413006605938 77.1173
19.43517731967805 75.8746
19.457765930683355 72.5938
19.48035530514408 68.1287
19.50294544401556 63.8647
19.525712842708348 60.3451
19.54830451925909 58.3609
19.570896963095727 56.9656
19.593490175174704 56.6747
19.616260674962184 56.5639
19.638855432416964 56.0384
19.661450960992624 56.4012
19.68404726164677 56.2894
19.706820878021247 55.9192
19.729418731756834 56.2568
19.752017360452857 56.0768
19.77461676506804 56.4797
19.797393513540218 56.9602
19.819994478951667 57.5726
19.84259622316767 58.3035
19.8651987471481 58.5698
19.887978643247177 58.7373
19.91058273574792 58.8939
19.933187610901943 59.5505
19.955969879466828 60.3822
19.97857632894404 61.4244
20.00118356396599 62.6312
20.023791585494575 64.2177
20.046577028914875 66.3775
20.069186632506966 68.5208
20.091797025500632 70.935
20.114408208858933 72.6936
20.137196842715273 73.5876
20.159809615886765 72.9508
20.18242318232135 70.5196
20.20503754298326 67.8143
20.227829382875154 65.5461
20.250445341109344 64.3195
20.27306209647285 63.8081
20.29567964993108 64.3756
20.31847471147704 65.1815
20.34109387027612 66.6185
20.363713830075454 67.4867
20.386334591841646 67.0573
20.409132890679302 64.9539
20.431755265564437 62.1901
20.454378445325528 59.0641
20.477002430930366 56.4731
20.499803982716553 54.8611
20.522429589228004 53.7351
20.54505600449589 52.9258
20.567683229489194 52.9227
20.590488049900088 52.6581
20.61311690359731 52.7196
20.63574656993626 52.5428
20.658553853717297 51.9982
20.681185154618298 52.0155
20.703817271080066 51.8254
20.72645020407368 51.492
20.749260783967177 51.333
20.771895359337133 51.4566
20.794530754161617 51.357
20.817166969412938 51.2261
20.83998086114876 51.0244
20.86261872660049 50.971000000000004
20.885257415405402 51.0171
20.90789692853701 51.0401
20.930714147864748 51.1792
20.953355319030678 51.3022
20.97599731745334 51.3258
20.99864014410749 50.9984
21.021460706796564 51.0264
21.044105199328826 51.4128
21.06675052302631 51.4518
21.089396678865015 51.5308
21.112220600704806 51.7912
21.134868430275347 52.0025
21.15751709492456 52.2358
21.180166595629693 52.2297
21.202993892429635 52.6682
21.22564507473034 53.0156
21.24829709602816 53.4134
21.27112693608965 53.5574
21.293780644891275 53.8685
21.316435195634053 53.5239
21.339090589297417 52.6699
21.361923832041875 52.2246
21.384580921090404 51.5086
21.407238856007325 50.9082
21.429897637773326 50.751000000000005
21.45273429906592 50.8855
21.475394784108598 50.8114
21.498056118951983 50.7555
21.520718304578022 51.2352
21.543558400304388 51.2675
21.566222297108816 51.9374
21.58888704765135 52.246
21.61155265291521 52.7013
21.63439619898156 53.2703
21.657063523335786 53.5558
21.67973170537063 53.8084
21.7024007460706 54.2848
21.72524775840385 54.6921
21.747918526116475 55.4336
21.770590155457388 56.3181
21.79326264741238 57.5846
21.816113141960237 58.7804
21.838787368860547 60.1879
21.861462461341976 61.588
21.884315579735777 63.6303
21.90699241312273 65.1246
21.92967011506078 66.6349
21.95234868653799 67.4272
21.9752053151131 66.71300000000001
21.997885635446785 65.0484
22.020566828293532 62.9911
22.04324889464272 60.5002
22.066109049404666 58.7045
22.088792872571794 57.7354
22.111477572219204 57.6071
22.1341631493376 58.0494
22.157026846313123 58.4515
22.179714188221507 58.135
22.202402410582668 57.3395
22.22509151438863 56.0166
22.24795876962584 54.5378
22.270649646204486 53.3763
22.293341407213727 52.3493
22.316034053646906 51.7783
22.338904883215342 51.375
22.36159931041458 51.2854
22.38429462602756 51.07
22.40699083104897 50.8995
22.429865251039757 50.771
22.452563244831367 50.9256
22.47526213102522 50.9641
22.49813925616515 50.84
22.520839937143307 50.8814
22.543541513520587 51.0334
22.56624398629403 50.8511
22.589124730075895 50.9307
22.611829005656723 51.3392
22.63453418063466 51.7494
22.657240256008077 51.9706
22.680124634582935 52.2536
22.70283252079775 52.4031
22.725541310413075 52.7348
22.74825100442868 52.684
22.771139033969575 53.1268
22.79385054687155 53.0707
22.81656296718292 53.5292
22.83927629590484 54.1532
22.862167992606945 54.9142
22.88488314827121 55.4845
22.907599215359284 56.206
22.93031619487366 57.2254
22.953211574954405 58.1775
22.975930389478226 59.4204
22.998650119445763 60.1496
23.02137076586092 60.0086
23.044269845560063 59.0942
23.06699233506288 57.8681
23.089715744034912 56.1152
23.112617610931565 54.2928
23.135342869061212 52.7492
23.158069049684816 51.8771
23.1807961538087 51.5755
23.20370174880544 51.3291
23.226430710184808 51.6155
23.249160598093425 51.7323
23.271891413539002 51.8515
23.294800752937697 51.8936
23.31753343374794 52.2324
23.340267045128353 52.218999999999994
23.36300158808808 52.5351
23.38591468821339 52.6839
23.408651104658304 52.8955
23.431388455719986 53.1225
23.454126742409 53.663999999999994
23.4770436196085 54.2443
23.499783787914662 55.1788
23.522524894889884 55.6361
23.54526694154616 56.5144
23.56818761219047 57.6512
23.59093154860734 58.7766
23.613676427751283 59.62
23.636422250635754 59.5936
23.659346731118656 58.4878
23.68209445191868 57.1991
23.704843119509587 54.972
23.72759273490623 52.7945
23.750521041644767 51.0398
23.77327256312355 49.7991
23.796025035462787 48.9297
23.818956224555475 48.2969
23.841710609113413 48.2168
23.86446594758979 48.1181
23.887222241002014 47.7465
23.910157285144578 47.3112
23.932915498962537 47.273999999999994
23.955674670778713 47.1643
23.978434801611975 47.0968
24.001373717286125 46.9053
24.024135776723917 46.777
24.046898798245582 46.5001
24.06966278287146 46.4586
24.092605586582614 46.2783
24.115371508023642 46.0314
24.1381383956401 46.2137
24.16090625045381 46.0683
24.183852958731244 45.8269
24.206622758582608 45.8167
24.229393528706886 45.6426
24.252165270127392 45.7704
24.27511589952438 45.5602
24.297889594216997 45.5702
24.32066426328598 45.3672
24.34343990775613 45.3737
24.36639447485003 45.3301
24.38917208083877 45.2068
24.41195066531332 44.9293
24.43490819850244 45.0238
24.457688750692377 44.9331
24.48047028445616 44.7592
24.503252800821233 45.1411
24.526214300784112 45.0226
24.548998793132213 44.8359
24.57178427117417 44.9065
24.59457073593893 44.8858
24.617536219319863 44.8237
24.64032466834748 44.7968
24.663114107195035 44.7342
24.685904536893013 44.5256
24.708874020360852 44.4759
24.731666442613744 44.4132
24.754459858818787 44.3695
24.777254270007962 44.2302
24.80022777025625 44.3329
24.82302418230472 44.2808
24.845821592443674 44.4766
24.86862000170663 44.3754
24.891597535453727 44.1339
24.914397953892728 44.4248
24.93719937456671 44.3391
24.96000179851076 44.5411
24.98298338249997 44.6896
25.00578782394922 45.0059
25.028593271784167 44.965
25.05157790644186 45.2008
25.07438537804115 45.3372
25.097193859145293 45.4376
25.120003350792075 45.5526
25.142992065061257 45.9598
25.165803588823465 46.1874
25.18861612625217 46.5172
25.211429678386736 46.5203
25.234422489079968 46.6076
25.257238081693636 46.5407
25.280054692141732 46.5346
25.3028723214652 46.4198
25.325869245420463 46.4207
25.348688923599397 46.5193
25.371509623787006 46.7504
25.394331347025812 46.6425
25.41733240110666 46.3982
25.440156181590016 45.891000000000005
25.46298098826268 45.3284
25.48580682216873 44.7502
25.50881202326435 44.0855
25.53163992281684 43.5936
25.55446885274561 43.2236
25.577298814096377 42.8122
25.600308179121807 42.7354
25.623140214533745 42.6904
25.64597328451537 42.7057
25.66898578564376 42.5246
25.691820936010206 42.5979
25.714657124097695 42.4737
25.737494350954734 42.5676
25.760511045684957 42.4728
25.783350361364224 42.4768
25.806190718969255 42.4621
25.82903211955018 42.4479
25.852053024868923 42.6716
25.874896522722523 42.6136
25.897741066713106 42.3445
25.920586657892454 42.4546
25.943611790812668 42.7328
25.966459487728237 42.8355
25.989308234998564 42.6438
26.01215803367705 42.8069
26.03518741123814 43.1142
26.05803932412957 43.1097
26.080892291600094 43.1958
26.10374631470478 43.3951
26.12677995397268 43.4976
26.14963609978026 43.7304
26.172493304397875 43.4994
26.19535156888223 43.3776
26.218389486949604 43.025
26.241249882640123 42.6873
26.26411134137826 42.3691
26.28715248187403 42.438
26.31001607820869 42.2188
26.3328807407756 41.9648
26.35574647063438 42.1974
26.37879191991473 41.9947
26.401659795896734 42.1148
26.424528742360263 42.2907
26.447398760366614 42.3631
26.470448535598294 42.346000000000004
26.49332070826805 42.5308
26.516193955675355 42.7733
26.53906827888316 42.8687
26.562122397260108 42.9423
26.584998883685063 43.0498
26.607876449110325 43.4577
26.63075509460056 43.7317
26.65381357334404 43.8229
26.67669439061878 43.823
26.699576291163382 43.9058
26.722459276044212 43.8485
26.745522132402975 43.6045
26.768407297649354 43.4358
26.791293550442003 43.0853
26.814180891848974 42.7379
26.837248143099337 42.3839
26.860137673466657 42.1815
26.88302829566349 41.9993
26.90592001075963 41.9498
26.92899167420566 41.8968
26.951885586870763 41.4031
26.974780595655517 41.3323
26.99785558178161 41.1101
27.020752794605112 40.8841
27.043651106772522 40.6912
27.06655051935668 40.4947
27.089629948036183 40.6243
27.112531573292053 40.604
27.135434302194138 40.5869
27.158338135817015 40.352
27.181422024430987 40.4738
27.204328079372566 40.4159
27.22723524226965 40.4035
27.250143514198573 40.5073
27.273231880156334 40.3399
27.296142382065014 40.1555
27.319053996245536 40.1563
27.341966723775965 40.1963
27.365059584515222 40.4088
27.38797455070062 40.2885
27.410890633481237 40.1228
27.433807833936918 39.9693
27.456905206923906 40.2443
27.47982465472398 40.2287
27.502745223449743 40.2267
27.525666914182825 40.4618
27.548768816912457 40.3037
27.571692763693633 40.2596
27.59461783573812 40.2021
27.617723149491244 40.147
27.640650484125285 40.0034
27.66357894728264 40.0608
27.686508540048052 39.9267
27.709618414237887 39.8207
27.732550278321757 39.669000000000004
27.755483275279115 39.6749
27.778417406196485 39.6768
27.801531858397514 39.7228
27.824468269376716 39.5764
27.847405817586786 39.5342
27.870344504116094 39.7808
27.893463551932008 39.9007
27.916404527281053 39.9666
27.93934664422563 39.8992
27.962289903855886 40.0138
27.98541356491974 40.1113
28.00835912214229 40.2929
28.03130582533231 40.5489
28.054253675581805 40.5786
28.077381967556104 40.5635
28.100332124185126 40.6816
28.123283431160893 40.7051
28.146235889577238 40.4813
28.169368830154156 40.3578
28.192323603752033 40.153
28.215279532083304 39.9538
28.238415973016764 39.6852
28.261374223145094 39.5379
28.284333631303806 39.4824
28.307294198589954 39.2965
28.330435319167677 38.9278
28.353398217078915 38.7096
28.376362277420153 38.3976
28.39932750129032 38.2371
28.422473319286713 38.0366
28.44544088262495 37.977
28.468409612800283 37.8506
28.491379510913497 37.6455
28.51453004413313 37.693000000000005
28.53750229057244 37.5898
28.56047570826344 37.4639
28.583450298308804 37.4681
28.606605564586562 37.3387
28.629582511831156 37.3835
28.65256063474956 37.2792
28.675539934446338 37.3492
28.698699951647605 37.1918
28.72168161743193 36.9856
28.74466446331978 36.9516
28.767648490417624 37.0307
28.790813276438353 36.9968
28.813799678527303 36.9618
28.836787265157085 36.9179
28.859955641890075 36.9055
28.882945610203045 36.9924
28.905936766392035 36.8359
28.928929111566863 36.8963
28.952102288520145 36.8146
28.975097024308607 36.7846
28.998092952423807 36.602
29.021090073977508 36.5928
29.04426806913204 36.4877
29.067267590245258 36.2344
29.090268308143695 36.1877
29.11327022394099 36.1067
29.13645305530891 36.0273
29.159457379627167 36.1457
29.18246290519685 35.9899
29.20546963313352 35.9586
29.22865731875826 35.9279
29.25166646419296 35.778
29.27467681535305 35.6728
29.29768837335608 35.7546
29.320880931312562 35.8036
29.34389491580634 35.7311
29.366910110507334 35.5973
29.38992651653503 35.8099
29.41312396492981 35.7857
29.436142806456754 35.6844
29.45916286268059 35.663000000000004
29.48236399319994 35.5307
29.50538649169417 35.4873
29.528410208259935 35.448
29.55143514402014 35.0604
29.574641196749695 34.9616
29.597668583816574 34.8072
29.6206971934585 34.5763
29.64372702680042 34.6385
29.666938019934474 34.6105
29.689970313635285 34.5902
29.713003834422636 34.6089
29.73603858342347 34.4261
29.759254535188578 34.2503
29.78229175361658 34.3298
29.80533020365064 34.3961
29.82836988641968 34.3315
29.85159081507472 34.2179
29.874632976355343 34.2114
29.89767637376955 34.3486
29.920721008448314 33.9924
29.9439469322847 34.1177
29.96699405457564 33.9879
29.9900424175358 34.0207
30.013092022298157 33.8671
30.03632295963995 33.8445
30.059375061131373 33.9322
30.08242840783577 33.8697
30.105483000888153 33.913000000000004
30.128718970092244 33.7932
30.151776069006917 33.8482
30.17483441768648 33.9675
30.198074175317235 33.8722
30.221135036724256 33.9454
30.24419715131772 33.798
30.267260520236203 33.7237
30.290505341942243 33.8547
30.313571232750228 33.9499
30.336638381310948 33.9341
30.35970678876503 33.7504
30.38295669299435 33.6834
30.40602763151657 33.6045
30.429099832366074 33.6684
30.452173296685572 33.5
30.47542830191959 33.5297
30.498504306502497 33.5061
30.521581577995562 33.7646
30.544660117543582 33.6647
30.56792024229725 33.6241
30.59100133132069 33.5119
30.614083691845494 33.638000000000005
30.637167325018545 33.6268
30.660432587840603 33.6456
30.683518779717886 33.5443
30.70660624769615 33.6473
30.729694992924372 33.6476
30.75296541239743 33.6871
30.77605672557558 33.6439
30.799149319462742 33.5964
30.8224236211637 33.4313
30.845518789950724 33.3502
30.868615242910597 33.3543
30.891712981195973 33.1422
30.91499247215866 33.0928
30.938092794619365 33.129
30.96119440587579 33.0579
30.984297307082752 32.8673
31.00758200598383 32.8028
31.030687500658694 32.6454
31.053794288760695 32.5986
31.076902371446767 32.4431
31.100192296997445 32.5131
31.12330298246119 32.4947
31.14641496599209 32.3748
31.169528248749216 32.3818
31.19282341969534 32.3633
31.215939314557186 32.3685
31.239056512134788 32.3461
31.262175013589378 32.3418
31.28547544871168 32.3003
31.30859657161541 32.1484
31.331719001892175 32.2368
31.35484274070538 32.3425
31.378148458819545 32.3159
31.401274828443725 32.2271
31.424402510106933 32.2579
31.447712205419993 32.3133
31.470842524931633 32.1894
31.493974159989783 32.1688
31.51710711176168 32.3149
31.54042212308802 32.2258
31.563557722100917 32.1577
31.586694641341655 32.0652
31.609832881979628 32.0771
31.63315322823208 31.9958
31.656294125521327 31.7529
31.679436347728515 31.7823
31.70257989602529 31.6609
31.725905596152327 31.6449
31.74905181052835 31.4721
31.772199354521323 31.5022
31.79534822930507 31.5448
31.818679302290967 31.4396
31.84183085259981 31.4749
31.864983737233473 31.4322
31.88813795736804 31.5105
31.911474422233013 31.3031
31.934631327356435 31.3463
31.9577895715215 31.3852
31.980949155906522 31.4275
32.004291031706956 31.3184
32.027453310562606 31.3389
32.05061693318573 31.1738
32.07396288236386 31.1662
32.09712920658542 31.2143
32.12029687812702 31.0007
32.14346589817093 30.9048
32.166817291729984 30.9824
32.18998902288583 30.7966
32.21316210610336 30.7723
32.23633654256711 30.6051
32.259693399663725 30.625
32.282870556771144 30.6076
32.30604907069099 30.5145
32.329228942610065 30.5296
32.35259128243769 30.3613
32.375773884550505 30.2984
32.398957848235646 30.2291
32.422143174682176 30.1772
32.445511016471215 30.0706
32.468699082679954 30.0318
32.49188851523011 29.9634
32.51507931531304 30.0008
32.538452678331 29.9225
32.56164622776311 29.8275
32.58484114831493 29.7972
32.60803744118015 29.7175
32.631416344731896 29.798000000000002
32.654615396551876 29.7734
32.67781582427913 29.6819
32.701198898634416 29.5881
32.72440209253756 29.5516
32.747606665947124 29.6174
32.77081262006088 29.4541
32.79420126883317 29.4782
32.81740999876112 29.4559
32.840620112999424 29.3416
32.86383161274818 29.3512
32.88722585534586 29.3655
32.91044014056596 29.323
32.933655814909734 29.1469
32.95687287957963 29.2882
32.98027273544904 29.299
33.00349259526636 29.0963
33.026713849030116 29.1425
33.04993649794511 29.0994
33.073341986570746 29.1114
33.09656744032826 29.089000000000002
33.11979429286444 29.0118
33.14302254538647 28.9851
33.166433686291185 29.034000000000002
33.18966475336992 28.8746
33.212897224069096 28.8458
33.23613109959831 28.8622
33.259547912343415 28.8055
33.2827846121627 28.7646
33.306022720453775 28.7702
33.32926223842861 28.616999999999997
33.352684742614166 28.684
33.37592709463173 28.6133
33.399170859982064 28.5464
33.422597648419426 28.5421
33.44584425514446 28.3234
33.46909227885668 28.294
33.4923417207723 28.2261
33.51577423505344 28.2591
33.539026528130385 28.1832
33.56228024307245 28.0927
33.585535381098246 27.971
33.60897364093058 27.9893
33.63223163992385 28.0159
33.6554910656699 27.8583
33.678751919389796 27.7797
33.702195944520106 27.8643
33.72545966903325 27.7543
33.74872482519663 27.7629
33.771991414233746 27.7262
33.79544122444841 27.7413
33.81871069412428 27.5555
33.84198160035767 27.5501
33.86525394437455 27.5921
33.88870955949969 27.5198
33.911984794020626 27.4541
33.93526147001624 27.4696
33.958539588715006 27.3492
33.98200102861669 27.34
34.0052820477047 27.1827
34.02856451319451 27.2717
34.05203033759056 27.0624
34.07531571090147 27.111
34.09860253431845 27.116999999999997
34.121890809074316 27.006
34.145362493118924 27.0719
34.16865368561615 27.0172
34.191946333164054 26.8787
34.21524043699793 26.9179
34.23871800066799 26.8618
34.26201503218366 26.7351
34.28531352370466 26.7223
34.30861347646881 26.6419
34.33209693978188 26.6473
34.3553998301885 26.7319
34.378704185565205 26.6724
34.402010007152356 26.5258
34.42549939016683 26.4777
34.44880815937748 26.4544
34.472118398533134 26.395
34.49543010887669 26.38
34.51892543169198 26.2219
34.54224009966052 26.2203
34.56555624255917 26.3437
34.58887386163339 26.1225
34.61237514439016 26.0961
34.6356957311114 26.1454
34.65901779775809 26.0944
34.68252356662995 26.0039
34.705848608458616 25.9905
34.72917513396849 25.9205
34.75250314440949 25.9782
34.77601490857862 25.7794
34.799345904259795 25.7548
34.82267838863559 25.7957
34.846012362958525 25.8478
34.869530142679984 25.7281
34.89286711232212 25.721
34.91620557568269 25.641
34.93954553401677 25.6263
34.9630693495876 25.6121
34.986412313340814 25.58
35.00975677584668 25.5294
35.033102738362956 25.4598
35.05663261012228 25.4723
35.0799815881786 25.4835
35.10333207003229 25.2887
35.12668405694369 25.3828
35.150220005273056 25.3562
35.17357501786656 25.3174
35.19693153931268 25.3253
35.220289570874385 25.2749
35.24383161619786 25.2745
35.267192683604904 25.2872
35.290555264930376 25.0755
35.314101899412165 25.12
35.33746752422433 25.0836
35.36083466676374 25.0723
35.38420332829803 25.0194
35.407756095629054 25.0106
35.43112781085063 24.978
35.45450104888391 25.0492
35.477875810999194 25.0339
35.50143473172161 24.8757
35.52481255774625 24.9957
35.54819191167777 24.8453
35.57157279478914 24.8478
35.595137889488406 24.851999999999997
35.61852184675279 24.7921
35.641907337029984 24.7493
35.665294361595684 24.6922
35.68886565090076 24.5626
35.7122557598848 24.6046
35.73564740699838 24.5825
35.759040593519934 24.528000000000002
35.78261809810353 24.4652
35.80601437933051 24.3957
35.829412203814705 24.3457
35.85281157283719 24.2553
35.876395313415884 24.3141
35.8997977874528 24.2331
35.92320180988546 24.1617
35.946790244133936 24.1241
35.97019737933222 24.1599
35.993606066789866 24.1544
36.01701630779276 24.1982
36.04061101440684 24.0731
36.06402437852291 24.0152
36.08743930005611 23.9541
36.1108557802951 23.9018
36.13445678011326 24.0446
36.15787639383515 23.9643
36.18129757014299 23.8549
36.20472031032821 23.7203
36.22832762423364 23.7155
36.25175350829375 23.7076
36.275180960119776 23.6232
36.298609981005924 23.7072
36.32222362992669 23.6417
36.34565580510207 23.6025
36.36908955323448 23.5282
36.39252487562093 23.3871
36.416144880530226 23.3732
36.43958336764275 23.3842
36.463023432914625 23.4324
36.486465077645676 23.4029
36.51009145956204 23.4001
36.53353627947859 23.3932
36.55698268276811 23.2762
36.58043067073321 23.2637
36.60406345072071 23.1711
36.62751462435344 23.1565
36.65096738658405 23.1766
36.67460498210655 23.1208
36.69806093788647 23.1619
36.72151848619297 23.0006
36.744977628333636 23.0305
36.76862165890998 22.9512
36.79208400512205 22.9944
36.81554794910557 22.8917
36.83901349217101 22.8463
36.862663978991606 22.8375
36.88613273667352 22.7269
36.90960309738324 22.8234
36.933075062434064 22.6618
36.95673202673572 22.6063
36.98020721697122 22.6068
37.003684015502365 22.5354
37.027162423645365 22.5999
37.050825886711465 22.5397
37.07430753063053 22.4806
37.09779078812467 22.3956
37.121275660513014 22.3994
37.144945643673694 22.4585
37.16843376245278 22.3688
37.19192350009803 22.318
37.215414857931435 22.3555
37.239091382563885 22.2092
37.262585997426164 22.2289
37.28608223645736 22.2053
37.309763684451696 22.1331
37.33326318851098 22.1216
37.356764320726555 22.0256
37.380267082425526 22.0628
37.40395510942588 22.0161
37.42746114683234 21.9655
37.45096881771841 21.9063
37.474478123414166 21.9738
37.49817275092816 21.9088
37.52168534303452 21.8483
37.54519957395567 21.7847
37.568715445024665 21.754
37.592416694607714 21.6969
37.61593586281424 21.7997
37.63945667518264 21.8272
37.66297913304891 21.6644
37.68668702630454 21.6134
37.710212792059274 21.5395
37.733740207334854 21.4553
37.757269273470364 21.5473
37.780983832050374 21.4349
37.80451621684926 21.4119
37.82805025654007 21.4286
37.851585952464795 21.3864
37.8753071980695 21.284000000000002
37.89884622345676 21.2683
37.92238690911902 21.2441
37.94611318753442 21.1979
37.969657210779765 21.147
37.99320289834801 21.1451
38.016750251586465 21.1374
38.04048325513017 21.035999999999998
38.06403395679343 21.0586
38.087586328183946 20.9976
38.11114037065203 20.9432
38.13488012115898 21.0027
38.1584375229181 20.936999999999998
38.181996599821 20.848000000000003
38.205557353221124 20.8529
38.229303872575656 20.8354
38.2528679961576 20.7406
38.27643380031219 20.7606
38.30000128639589 20.7495
38.32375459653193 20.6659
38.34732546371299 20.6499
38.37089801690786 20.6328
38.39447225747609 20.5328
38.418232380377425 20.5596
38.441810012983396 20.5204
38.46538933705673 20.4623
38.488970353960084 20.4594
38.51273731166058 20.4188
38.536321731567014 20.377
38.55990784840681 20.3133
38.58367995004091 20.3198
38.60726947812959 20.2503
38.63086070726198 20.3124
38.654453638806274 20.3138
38.678232613930824 20.1332
38.70182896773327 20.1711
38.72542702806741 20.1118
38.7490267963045 20.0625
38.77281266709232 20.087
38.79641586862214 19.9905
38.8200207821842 19.9563
38.843627409152944 19.967
38.86742019782782 19.902
38.891030269149255 19.8729
38.914642058016156 19.8712
38.938255565806124 19.8491
38.96205529464307 19.7686
38.98567225787121 19.773
39.00929094417078 19.7114
39.03291135492255 19.7248
39.05671804624804 19.6788
39.080341923549106 19.6599
39.103967529460334 19.634
39.127594865365744 19.582
39.15140854155791 19.5001
39.17503935514948 19.5075
39.19867190290282 19.5256
39.22249083587951 19.4538
39.24612686969409 19.4738
39.269764641845306 19.4717
39.293404153722804 19.368
39.317230110864074 19.3529
39.34087311998506 19.3363
39.36451787301696 19.2742
39.388164371352595 19.2367
39.41199737518003 19.2207
39.43564738196752 19.180999999999997
39.45929913825317 19.1248
39.48295264543308 19.1289
39.506792718520884 19.1286
39.530449745387216 19.1335
39.55410852735203 19.0443
39.57776906581474 19.031
39.60161623079 19.0013
39.625280300200025 18.9574
39.64894613032202 18.9144
39.67261372255866 18.8667
39.6964680021016 18.8244
39.72013913657293 18.8489
39.74381203738292 18.8104
39.76748670593756 18.7822
39.79134812278169 18.8181
39.81502634488497 18.7238
39.83870633896685 18.6529
39.862388106436654 18.6611
39.88625668336918 18.5769
39.90994201572829 18.5882
39.933629125719285 18.5573
39.957503091207826 18.4773
39.9811937746168 18.5323
40.00488623990914 18.4284
40.02858048850006 18.453
40.05246165409549 18.4544
40.076159487492085 18.3654
40.099859108448875 18.3344
40.123560518384345 18.3803
40.1474489070226 18.2759
40.171153913178564 18.2173
40.194860712584955 18.241
40.2185693066637 18.2093
40.242464941335314 18.1459
40.26617714307655 18.1758
40.289891143772046 18.118
40.3136069448471 18.0424
40.33750984859743 18.0655
40.3612292688043 18.0762
40.3849504936829 18.0123
40.40867352466194 17.9943
40.43258372059144 18.0119
40.45631038219906 17.9133
40.48003885420956 17.8387
40.503769138055105 17.88
40.52768664931955 17.8561
40.55142057531802 17.8523
40.57515631746428 17.7691
40.599079334038514 17.688
40.62281872700477 17.6598
40.64655994043941 17.6249
40.67030297578061 17.6922
40.69423334835778 17.6478
40.71798004609188 17.6714
40.74172857006355 17.5668
40.76547892171441 17.5311
40.7894166736039 17.4708
40.813170699248566 17.4852
40.83692655691388 17.4548
40.86068424804498 17.4375
40.884629402612525 17.3916
40.908390779366385 17.394000000000002
40.932153993938 17.3884
40.95591904777605 17.3822
40.979871628443995 17.3541
41.003640379561936 17.3089
41.02741097430883 17.2575
41.05118341413683 17.3005
41.075143444384416 17.1594
41.098919593177826 17.1437
41.1226975914255 17.2098
41.14647744058318 17.1146
41.170444943946755 17.0719
41.19422851378379 17.0306
41.218013938914645 16.9913
41.24198706625173 16.9887
41.26577622087193 17.0267
41.289567235177785 16.9368
41.31336011063129 16.9442
41.337340752422875 16.8765
41.361137369129835 16.8666
41.38493585138705 16.768
41.40873620066004 16.8248
41.43272438060107 16.7665
41.45652848292052 16.6689
41.48033445666918 16.6907
41.50414230331616 16.6896
41.528138045159764 16.660999999999998
41.551949656675205 16.5431
41.575763145513235 16.5843
41.59957851314666 16.5826
41.62358184070442 16.5455
41.64740098505737 16.4997
41.6712220126409 16.4535
41.69504492493139 16.4399
41.71905586207357 16.4274
41.74288256296395 16.4143
41.766711153007456 16.3653
41.79054163368412 16.3004
41.814560204340054 16.3853
41.838394485526365 16.2979
41.86223066180303 16.2463
41.88625497706819 16.2598
41.910094962812 16.1973
41.93393684811168 16.1176
41.95778063445365 16.0989
41.981812625263366 16.1331
42.00566023303407 16.109
42.029509746323676 16.1191
42.05336116662236 16.0491
42.077400857069705 16.003
42.10125611078846 15.9693
42.12511327600405 15.9639
42.14897235421036 15.9214
42.173019768448455 15.9188
42.19688269209613 15.9105
42.22074753323349 15.8719
42.24461429335818 15.8405
42.268669455600495 15.8262
42.292540073217886 15.7729
42.31641261433284 15.7827
42.34028708044675 15.7179
42.36435001496739 15.6974
42.38822835065557 15.6875
42.41210861586426 15.668
42.4359908120986 15.6056
42.46006154323262 15.5594
42.48394762115317 15.5744
42.507835634632315 15.5395
42.531912233047436 15.5635
42.55580413732265 15.5072
42.579697981698 15.4682
42.60359376768525 15.4169
42.62767820545945 15.3847
42.65157789440821 15.4482
42.67547952952185 15.3471
42.699383112316 15.3478
42.72347541395347 15.2745
42.74738291190531 15.2556
42.771292362102166 15.2996
42.795203766063516 15.2052
42.819303956130405 15.2265
42.843219287476536 15.1947
42.86713657716324 15.1723
42.89105582671383 15.1083
42.91516392983864 15.0821
42.939087119032166 15.1032
42.963012272677304 15.0408
42.98693939230129 15.0119
43.01105543317513 15.01
43.034986504731386 14.9986
43.05891954686589 14.960999999999999
43.08285456110972 14.9273
43.10697856448665 14.8323
43.130917542983475 14.8424
43.15485849820081 14.8145
43.17880143167367 14.7942
43.20293342237094 14.8124
43.226880332449 14.7794
43.25082922540554 14.7878
43.27496722682525 14.7178
43.29892010567796 14.6555
43.32287497204102 14.6575
43.34683182745632 14.6694
43.370977859791836 14.5967
43.39493871351105 14.6126
43.41890156092628 14.5834
43.44286640358341 14.5436
43.46702049182749 14.5063
43.49098934522816 14.4513
43.51496019852649 14.4209
43.5389330532723 14.4576
43.56309522248204 14.4277
43.58707210044314 14.4353
43.61105098451946 14.3347
43.63503187626491 14.3252
43.659202151562134 14.2915
43.68318707902681 14.2892
43.70717401884041 14.2491
43.731162972560874 14.1895
43.75534137913236 14.1664
43.779334381108384 14.1892
43.803329401683186 14.1835
43.82732644241872 14.1814
43.8515130055166 14.113
43.87551410707659 14.1454
43.89951723350145 14.0587
43.923709934595614 14.0613
43.94771713129917 14.0212
43.97172635758096 14.0197
43.99573761501002 14.0153
44.0199385169922 13.94
44.04395385732619 13.8977
44.067971233533086 13.9341
44.09199064718605 13.8999
44.11619977548961 13.8272
44.14022328470671 13.7886
44.16424883610785 13.8288
44.18827643127035 13.8205
44.21249381139513 13.7961
44.236525514814076 13.7373
44.26055926674478 13.7312
44.28459506876863 13.7162
44.3088207262813 13.637
44.33286064928722 13.6186
44.35690262714919 13.6046
44.38094666145278 13.5602
44.4051806219871 13.5624
44.42922879003185 13.5202
44.45327901929361 13.482999999999999
44.477331311362136 13.4619
44.501573600619416 13.4484
44.525630039221795 13.4176
44.54968854541895 13.4596
44.573937102200176 13.3908
44.5979997645541 13.3717
44.622064499300315 13.3733
44.64613130803592 13.3171
44.67038823869318 13.3464
44.69445921643748 13.2922
44.718532272981385 13.218
44.742607409926194 13.1848
44.76687274034801 13.1658
44.79095205918753 13.154000000000002
44.81503346325094 13.1323
44.839116954143876 13.1631
44.86339071028742 13.1081
44.88747839599524 13.094000000000001
44.91156817336837 13.0696
44.93566004401666 13.0487
44.959942251908146 13.0457
44.984038330325966 12.9631
45.00813650686762 12.9449
45.03223678314731 12.9186
45.05652746888232 12.9288
45.08063196592069 12.902000000000001
45.104738567558705 12.8816
45.128847275414856 12.8648
45.15314646515866 12.8158
45.17725940679741 12.8283
45.20137445952892 12.7727
45.22568004865265 12.7566
45.24979934496396 12.7522
45.27392075725247 12.7383
45.29804428714431 12.6898
45.322358426247604 12.6874
45.346486212804315 12.6724
45.370616121861914 12.651
45.39474815505086 12.6267
45.41907087049246 12.5988
45.4432071734666 12.5699
45.46734560548283 12.530999999999999
45.49148616817604 12.5273
45.51581748638564 12.5048
45.5399623320197 12.4628
45.56410931325473 12.4557
45.58825843173002 12.4588
45.61259837920865 12.3957
45.636751793816 12.3927
45.66090735060093 12.3537
45.68506505120716 12.3117
45.7094136545275 12.3379
45.73357566449271 12.2906
45.75773982322992 12.2691
45.78190613238733 12.2589
45.806263418194064 12.1783
45.83043404997326 12.2394
45.85460683713677 12.1614
45.87897065658495 12.1266
45.90314777634752 12.1314
45.92732705646868 12.0962
45.9515084986045 12.1128
45.97588104735473 12.0922
46.00006683541565 12.0723
46.02425479047904 11.9643
46.04844491420549 12.0216
46.0728262191024 11.9828
46.09702070211635 12.0053
46.12121735879483 11.9635
46.14541619080294 11.9061
46.169806278764455 11.8888
46.194009483459034 11.9336
46.21821486849841 11.8777
46.24242243555223 11.8021
46.266821333570014 11.7986
46.29103328674601 11.7809
46.31524742696538 11.7729
46.33946375590237 11.7505
46.36387149104216 11.764000000000001
46.38809221957392 11.696
46.41231514186606 11.6846
46.436540259597464 11.7027
46.460956858999374 11.6487
46.48518638983522 11.6246
46.509418121166966 11.6173
46.533652054678114 11.5527
46.55807754555709 11.5427
46.58231590571962 11.5853
46.60655647313217 11.5506
46.630988654873654 11.5084
46.655233659129024 11.4837
46.67948087571551 11.4546
46.70373030632484 11.4247
46.72817142736393 11.4418
46.752425308428684 11.4119
46.77668140861147 11.4127
46.80093972960865 11.3557
46.82538981736788 11.3151
46.849652602470904 11.3062
46.87391761349769 11.2998
46.8981848521493 11.2611
46.9226439341274 11.1995
46.946915650573224 11.2009
46.97118959976749 11.1947
46.99546578341598 11.1374
47.019933887188216 11.1603
47.04421456235744 11.132
47.06849747711879 11.1216
47.09278263318286 11.0807
47.11725978640143 11.0898
47.14154944775105 11.0436
47.165841355555656 11.0204
47.1901355115306 10.9776
47.214621741924994 10.9735
47.23892041698887 10.975
47.26322134538975 10.9292
47.28771440635075 10.9138
47.31201986422527 10.9107
47.33632758061436 10.9072
47.360637557241866 10.8319
47.38513974410611 10.8055
47.40945426407847 10.8349
47.43377104948137 10.8051
47.45809010204344 10.8035
47.48260144275502 10.772
47.506925052572285 10.7123
47.53125093475548 10.7056
47.55557909103813 10.7398
47.58009961361992 10.634
47.60443234110732 10.6896
47.62876734791564 10.6559
47.65310463578333 10.6121
47.6776343683373 10.5961
47.7019762413987 10.5299
47.72632040075572 10.5929
47.75066684815169 10.5913
47.77520581885936 10.507
47.799556865477655 10.5418
47.823910205386 10.5177
47.84826584033272 10.4651
47.87281407745551 10.4341
47.89717432569297 10.4309
47.92153687423484 10.4337
47.94609208429692 10.3977
47.97045925671401 10.3807
47.99482873471275 10.3849
48.01920052005013 10.345
48.04376504619224 10.2822
48.068141469543484 10.3094
48.09252020552573 10.272
48.11690125590099 10.2739
48.1414751266064 10.2279
48.16586082917454 10.2544
48.19024885144316 10.2207
48.2146391951793 10.2198
48.239222439012764 10.2
48.26361744916137 10.1623
48.28801478610016 10.1427
48.31241445160131 10.1018
48.337007097209366 10.1405
48.36141144338331 10.128
48.38581812345755 10.0182
48.41022713920929 10.0493
48.434829215320704 10.049
48.45924292604658 10.0477
48.48365897780325 9.99752
48.50807737237308 10.0081
48.532688907799276 9.9699
48.55711201168574 9.96861
48.581537463754074 9.939010000000001
48.60615611725119 9.93731
48.63058628942721 9.897
48.65501881516546 9.87473
48.6794536962573 9.88525
48.70408185970339 9.80852
48.72852147531801 9.75376
48.75296345168211 9.75226
48.77740779059232 9.79067
48.80204549302823 9.80395
48.82649458091802 9.73733
48.85094603676547 9.72284
48.87539986237231 9.70763
48.90004713292306 9.6685
48.92450572200832 9.645480000000001
48.94896668628025 9.622710000000001
48.97343002754588 9.64451
48.99808689542115 9.63199
49.02255501470614 9.63637
49.04702551642794 9.60626
49.0714984023988 9.564160000000001
49.096164896893235 9.528080000000001
49.120642575466796 9.47905
49.145122643748394 9.483989999999999
49.16960510355558 9.46306
49.19428125404938 9.479519999999999
49.2187685210852 9.4742
49.243258185121555 9.459010000000001
49.26794160167084 9.411669999999999
49.2924360839405 9.36265
49.31693296869764 9.34623
49.34143225776915 9.32352
49.36612538195438 9.3297
49.39062950396021 9.32664
49.41513603578346 9.28785
49.4396449792564 9.27362
49.46434784069503 9.272639999999999
49.488861631846454 9.231160000000001
49.513377840166804 9.25773
49.537896467493745 9.2056
49.56260909589029 9.14922
49.587132585683285 9.18631
49.611658500018365 9.16521
49.636186840738596 9.13207
49.66090926588511 9.13608
49.685442483902584 9.116430000000001
49.70997813385706 9.074010000000001
49.734516217597076 9.105939999999999
49.75924846937352 9.06736
49.7837914452858 9.03658
49.80833686055187 9.034410000000001
49.83288471702571 8.98378
49.85762682540054 9.00862
49.882179588965734 8.97918
49.9067347993235 8.94309
49.93129245833333 8.91612
49.95604445336378 8.94093
49.98060703442832 8.91012
50.005172069746266 8.867
50.02993150438364 8.89827
50.05450147301533 8.862210000000001
50.07907390151433 8.84447
50.10364879174981 8.78027
50.12841816587289 8.78381
50.1529980044635 8.774189999999999
50.17758031042124 8.750210000000001
50.20216508562089 8.75417
50.22694442953363 8.72538
50.25153416817468 8.727260000000001
50.27612638170508 8.69108
50.300721072005196 8.651110000000001
50.325510416102105 8.62552
50.350110084975064 8.62347
50.37471223628208 8.65695
50.39931687190919 8.626619999999999
50.424116246675766 8.610339999999999
50.44872587605249 8.58359
50.47333799543065 8.564969999999999
50.49795260670191 8.5329
50.52276204271512 8.48179
50.54738166295838 8.503060000000001
50.57200378079314 8.506739999999999
50.596628398116835 8.45578
50.62144792604559 8.47775
50.646077567609396 8.438930000000001
50.670709714377715 8.44421
50.69553683636198 8.43092
50.72017401885922 8.41949
50.7448137122895 8.38781
50.76945591856022 8.36962
50.79429318636823 8.373389999999999
50.818940443716784 8.34264
50.84359021965163 8.36047
50.868242516085964 8.2942
50.893089960641895 8.28915
50.917747323549435 8.29298
50.94240721271973 8.24737
50.96706963007175 8.23
50.99192728239342 8.23426
51.01659478166073 8.22366
51.04126481489051 8.1977
51.06593738400761 8.2164
51.090805275207074 8.1477
51.11548294172845 8.15837
51.14016314993547 8.13418
51.164845901758845 8.124419999999999
51.18972406304274 8.09223
51.21441192780656 8.045119999999999
51.23910234200271 8.0569
51.2637953075678 8.068480000000001
51.288683770237945 8.0371
51.31338186432707 8.03527
51.33808251561888 7.99183
51.362978729967345 7.9897
51.387684521509755 7.970289999999999
51.41239287610203 7.93271
51.437103795691165 7.915019999999999
51.46201036644977 7.87581
51.486726441956634 7.8727
51.51144508832545 7.8440199999999995
51.536166307509156 7.859
51.56108326624387 7.83868
51.58580965706056 7.823060000000001
51.61053862657523 7.792110000000001
51.635270176746864 7.79738
51.66019755512065 7.77493
51.68493429268881 7.7357
51.70967361681515 7.72957
51.73441552946465 7.705430000000001
51.759353359237934 7.71825
51.7841004750961 7.69698
51.80885018539685 7.6760399999999995
51.833602492111254 7.65758
51.8585508051424 7.6566399999999994
51.883308330926425 7.6288
51.90806845906181 7.60318
51.932831191525715 7.594810000000001
51.95779001977161 7.5650699999999995
51.98255798721516 7.55267
52.00732856494335 7.554880000000001
52.03229530577543 7.52568
52.057071130455945 7.50253
52.081849571391054 7.493939999999999
52.106630630568695 7.50219
52.13160794279417 7.469710000000001
52.15639426492067 7.45625
52.18118321127822 7.46104
52.205974783860896 7.4112100000000005
52.23096269971011 7.41125
52.255759551287994 7.410830000000001
52.280559035098186 7.376760000000001
52.30536115314103 7.336930000000001
52.33035970494467 7.37695
52.35516711807904 7.35076
52.37997717147198 7.32492
52.40478986713005 7.31624
52.42979908731974 7.29727
52.454617094216 7.24212
52.47943774942214 7.2458800000000005
52.50426105495102 7.219710000000001
52.529280976059844 7.2466
52.554109609024096 7.2335899999999995
52.57894089837482 7.22307
52.60377484613117 7.1677
52.62880550079408 7.192189999999999
52.65364479223379 7.13825
52.67848674816189 7.16252
52.70352547971946 7.1191
52.72837279155837 7.09933
52.753222773982785 7.07817
52.778075429022984 7.07188
52.80312495150885 7.0525
52.827982978797436 7.049639999999999
52.85284368481815 7.03702
52.87770707160767 6.9992
52.90276741793998 7.0209600000000005
52.92763619336701 6.97892
52.952507655698504 6.9783100000000005
52.977381806977576 6.98186
53.00245301017842 6.956930000000001
53.02733256653592 6.9695
53.052214817996074 6.89204
53.077099766608484 6.87938
53.102181859804446 6.86313
53.127072229988265 6.89239
53.15196530349892 6.88607
53.17686108239249 6.857989999999999
53.20195409881522 6.8247100000000005
53.22685531582556 6.82142
53.25175924441303 6.79108
53.27666588664027 6.776789999999999
53.30176985962693 6.77762
53.3266819565689 6.78454
53.35159677336455 6.76854
53.376514312083096 6.74485
53.40162927507703 6.72962
53.42655228516116 6.7007699999999994
53.45147802340193 6.6799800000000005
53.47660125628886 6.60933
53.50153247842639 6.61574
53.52646643496923 6.605180000000001
53.55140312799818 6.647760000000001
53.576537409691696 6.6284
53.60147960336152 6.55979
53.626424539786164 6.62863
53.65137222105307 6.578539999999999
53.67651758529126 6.566039999999999
53.70147078399681 6.54132
53.72642673383343 6.54258
53.75138543689533 6.51361
53.776541917524526 6.51386
53.801506154876755 6.47256
53.826473151763246 6.42555
53.851442910284916 6.41828
53.87661054126026 6.40485
53.9015858509782 6.4301900000000005
53.92656392866066 6.415719999999999
53.95154477641532 6.4048
53.976723591801296 6.39468
54.00171000771266 6.35122
54.02669920004598 6.39011
54.051691170915745 6.35843
54.076881204886796 6.3501199999999995
54.101878760928514 6.30233
54.12687910187696 6.27206
54.152077577768296 6.26227
54.1770835166946 6.28745
54.20209224691339 6.27763
54.22710377055121 6.24559
54.25231352511594 6.169969999999999
54.27733066384342 6.14708
54.30235060239643 6.18409
54.32737334290836 6.18265
54.35259441062629 6.15129
54.377622783395324 6.11369
54.40265396455061 6.12741
54.42768795623251 6.1057
54.45292037169559 6.02881
54.477960012857906 6.106319999999999
54.50300247099511 6.045059999999999
54.52804774825457 6.00237
54.55329154616743 5.95929
54.57834249018678 5.99705
54.6033962597977 5.9572199999999995
54.6284528571545 5.9307
54.653708072335164 5.9469
54.67877035378786 5.91821
54.70383546947698 5.84874
54.72890342156389 5.82653
54.7541700889442 5.80861
54.77924374251975 5.84744
54.8043202390049 5.747000000000001
54.82959552413022 5.7708900000000005
54.8546777351945 5.714090000000001
54.87976279569621 5.70768
54.90485070780914 5.72336
54.930137506558005 5.67508
54.95523115074295 5.70695
54.98032765308844 5.64573
55.005427015775496 5.67425
55.03072536339621 5.65388
55.05583047570572 5.586040000000001
55.080938454927676 5.52732
55.10604930325027 5.54942
55.131359235107396 5.533519999999999
55.15647585066083 5.49925
55.181595341907496 5.4461
55.20671771104285 5.48805
55.232039262617704 5.43288
55.25716741665048 5.3902
55.28229845518636 5.37131
55.30743238042802 5.34861
55.33276558731939 5.33024
55.357905315183636 5.30601
55.383047936390035 5.27355
55.40819345314859 5.20085
55.433538351073295 5.26386
55.458689688238415 5.22872
55.483843927614096 5.16035
55.509197623043605 5.13417
55.53435769621134 5.10642
55.55952067826466 5.10424
55.5846865714265 5.10366
55.61005202069737 5.06136
55.63522376553902 5.0865599999999995
55.66039842818645 4.98681
55.68557601087004 4.9694199999999995
55.7109532500271 4.921880000000001
55.73613670233794 5.02585
