TT I
1.2716486653135266 6.91413
1.2939594142134223 6.81688
1.3162702121660406 6.70556
1.3385810600174564 6.31957
1.3608919586137629 6.672210000000001
1.383202908801069 6.36566
1.405513911425503 5.63127
1.4278249673332093 6.55277
1.4501343378461518 6.12591
1.4724455028545926 5.81884
1.4947567236847858 6.26895
1.517068001182951 6.121180000000001
1.5393793361953272 6.00957
1.5616907295681737 5.6304
1.5840021821477681 5.54051
1.60631369478041 4.97366
1.6286252683124185 4.7879
1.6509369035901333 5.22372
1.6732468618895553 5.24496
1.695558623192809 4.3882900000000005
1.7178704487808514 4.77996
1.7401823395001077 5.06605
1.7625012545597203 5.06681
1.7848028405262486 5.039219999999999
1.8071218901122095 5.00555
1.8294236121921872 4.201980000000001
1.8517427996910911 4.10802
1.8740620574440425 4.43124
1.8963639900671978 4.51841
1.9186833908139995 4.46128
1.9409854680117449 4.43016
1.9633050151394713 5.03631
1.9856246367570705 4.12807
2.0079269371922672 4.369219999999999
2.03024671027244 4.45068
2.0525491637446027 4.67925
2.074869091674931 4.08274
2.097171701569106 4.46948
2.1194917877373847 4.37474
2.141811954326636 4.1872300000000005
2.164114805233074 4.41585
2.186435135143035 5.04327
2.208738150935709 6.04924
2.231058647554722 7.562130000000001
2.2533792288321184 6.53181
2.275682498336085 4.89844
2.298003251406138 5.35579
2.3203066942619714 5.857080000000001
2.3426276225136022 5.5067900000000005
2.3649486396617507 5.837680000000001
2.387252348930071 5.85873
2.4095735463442893 5.9680599999999995
2.4318774374315884 6.807639999999999
2.4541988185014043 6.8110800000000005
2.476502894794693 7.038139999999999
2.498824462909887 7.1598
2.521146125856138 6.71603
2.5434504863470337 7.390210000000001
2.5657723414244717 7.5476600000000005
2.588076895590662 8.44406
2.610398946189713 8.58
2.6327210958598384 8.4887
2.6550259469304716 8.254
2.6773482972090137 9.04221
2.6996533504259 8.53941
2.7219759047039602 8.16985
2.744298562293959 8.64402
2.7666039251246595 8.4364
2.7889267918020164 8.097380000000001
2.8112323652516555 7.64204
2.833555444408179 8.43769
2.8558786311183852 8.41436
2.8781845268938557 8.757489999999999
2.9005079311721484 8.894739999999999
2.9228140460410397 8.78278
2.9451376712799635 8.832889999999999
2.967444008632326 9.044030000000001
2.9897678582247247 9.1445
3.0120918213106695 10.0201
3.0343984987899373 10.1291
3.0567226913198637 10.8286
3.079029599759726 11.1517
3.101354025127254 11.9472
3.123678568232338 11.8327
3.145985829517914 12.2276
3.16831061055229 12.9017
3.1906181112775593 13.4425
3.212943133635653 14.2168
3.2352682779763207 14.8473
3.2575761442691227 15.114
3.2799015350264273 15.2428
3.302209649240067 15.5199
3.3245352898092655 16.3563
3.3468436553365257 17.3944
3.369169549113219 16.9053
3.3914955708171384 17.8758
3.413804319727358 18.4533
3.4361305997334863 18.3974
3.4584396084414553 18.7564
3.4807661501462652 18.9139
3.503092824025881 19.8512
3.5254022288463154 20.2879
3.5477291695206588 21.0554
3.5700388426251948 21.1478
3.5923660534916446 21.6892
3.6146934007816114 23.3242
3.637003482731501 27.9914
3.6593311053109985 29.6263
3.681641464033634 26.8361
3.7039693653009733 24.1843
3.726297407241705 24.4593
3.7486081875460804 24.67
3.7709365132734978 25.0437
3.793247578841633 25.9007
3.8155761917550093 25.9901
3.8378875459837216 26.3633
3.8602164494827234 26.8993
3.882545499606844 27.5723
3.9048572932539183 28.0945
3.9271866390645718 28.3844
3.9494987298666713 29.1983
3.971828374764527 29.6749
3.9941581705403255 30.1344
4.016470713506008 30.5696
4.038800813471445 31.2811
4.061113662089144 31.6648
4.0834440696459176 32.2839
4.105774632334751 32.9398
4.128087945865126 33.7092
4.150418821249301 34.3068
4.172732448931298 34.8691
4.195063640413578 35.4138
4.2173775856475215 36.6694
4.239709096631102 39.8624
4.262040768704612 55.1801
4.284355196706267 63.8345
4.306687193387355 55.4333
4.329001947444346 44.2702
4.35133427213731 41.7439
4.373666762177566 41.8365
4.395982011761091 42.3437
4.418314834921175 43.6736
4.44063041906622 45.1936
4.4629635787515625 47.146
4.4852969080429785 48.2042
4.5076130004776225 50.2717
4.529946671403969 53.1338
4.552263106909177 56.9732
4.574597122877047 55.1108
4.596931312711224 53.4338
4.619248269273446 53.286
4.6415828092605835 53.9272
4.663900117405352 55.3308
4.686235010953232 56.6923
4.708552674085913 57.778999999999996
4.730887924602802 60.1321
4.753223354952695 61.9543
4.775541557023902 64.1611
4.797877349456786 66.8192
4.820195915032126 67.6012
4.842532072957498 67.3304
4.864868414979744 70.3296
4.88718753227192 74.3725
4.909524244902505 76.4993
4.931843734218147 76.1437
4.954180820867835 77.7914
4.976518095879839 80.5053
4.998838149695359 83.3902
5.021175803844231 86.9182
5.043496238205739 90.3481
5.065834274903528 94.2592
5.088172504230693 98.9706
5.1104935158799565 104.36399999999999
5.132832132875765 116.45100000000001
5.155153533596801 135.736
5.1774925416746225 175.398
5.199814334878411 378.27
5.2221537374521505 1011.67
5.244493338631803 2820.95
5.266815727034316 7980.02
5.289155727832427 13839.9
5.311478517248165 8511.64
5.333818921080011 2302.91
5.356159527788849 428.033
5.3784829252032536 179.35299999999998
5.400823940070432 144.092
5.423147747031976 125.323
5.445489173474152 117.458
5.467830807066149 116.648
5.490155234831516 116.81700000000001
5.512497285125229 111.01799999999999
5.534822130975162 105.096
5.557164601388673 101.51100000000001
5.579489868738879 98.6861
5.601832762690846 97.0847
5.6241758697774475 95.9002
5.646501775867269 95.5521
5.668845311622074 94.5565
5.691171647754637 93.962
5.713515615597765 92.4203
5.735859800852677 92.2534
5.758186788542988 93.9325
5.780531411018185 96.9862
5.802858837297399 96.2384
5.825203900414495 96.2956
5.8475491852224 98.4202
5.869877275883075 97.199
5.892223006467101 94.7924
5.914551544266608 94.0855
5.936897724049891 96.5501
5.959244129804903 104.26899999999999
5.981573344815301 132.73
6.0039202049061 244.312
6.026249875609095 477.61300000000006
6.04859719346037 970.722
6.070927323278297 2288.55
6.093275102315365 4783.92
6.115623113320588 5586.35
6.137953938319995 2876.01
6.160302415650845 784.563
6.182633708324452 187.956
6.2049826554078376 101.583
6.227331838745022 86.9503
6.249663839443684 81.172
6.27201349767565 77.9531
6.294345974611799 76.0453
6.316696111167083 75.6356
6.339046488263839 73.9947
6.361379686074702 71.2701
6.383730546639482 69.2613
6.406064229255215 68.4638
6.428415576718203 69.3081
6.450749747566656 68.6035
6.47310158535871 66.1344
6.495453669698332 64.428
6.517788579421056 63.7622
6.540141159237969 62.6117
6.562476565766648 62.0039
6.5848296444934045 61.9185
6.607182974060425 62.2204
6.6295191323281015 61.9126
6.651872965955752 60.6707
6.6742096296068985 61.4975
6.6965639707294615 65.7738
6.71891856698715 65.7869
6.741255995248479 61.3704
6.763611104154477 58.4473
6.785949046381137 57.5969
6.808304671371482 57.8038
6.8306605557940046 59.0789
6.852999275508618 58.3689
6.875355681171544 57.3727
6.897694923437771 55.8283
6.92005185377892 55.5748
6.9423916220322655 55.2098
6.964749080490181 54.8792
6.987106804399774 54.7731
7.009447368180821 55.2498
7.031805625367033 55.0949
7.054146723727803 54.3748
7.076505517631004 54.1684
7.098864581288365 54.0841
7.121206488070854 53.775
7.143566093607822 54.1065
7.165908543567245 54.9482
7.188268694426048 55.0882
7.2106291193438095 53.909
7.232972390625943 53.5124
7.255333366030969 53.9522
7.277677189091925 58.3477
7.300038718428332 63.7562
7.322400526130865 61.6853
7.344745183422596 56.6934
7.367107550224791 53.9199
7.389452767901992 53.4817
7.411815697249891 53.2597
7.434161478756298 52.7437
7.456524974096713 52.9037
7.478888753837185 53.0528
7.501235387657368 53.648999999999994
7.523599738562711 54.3364
7.545946944825532 55.6692
7.568311870344528 55.8783
7.5906770845765665 54.7383
7.613025156078678 54.3742
7.635390950099687 54.9666
7.657739602662809 54.656000000000006
7.680105979923558 55.1214
7.702472650212829 56.3271
7.724822180948224 56.0609
7.747189439655568 55.6747
7.769539560075357 55.4314
7.791907410653562 55.9445
7.81425812420825 55.8796
7.836626570110925 56.034
7.858995315087906 56.6847
7.881346924933401 57.0589
7.903716270417482 57.5548
7.926068482028405 58.1535
7.948438431475253 58.8304
7.9708086843180235 59.1094
7.993161805171116 59.5758
8.015532667162402 60.2171
8.037886398416653 61.5323
8.060257873014221 61.8005
8.082629655331942 62.2495
8.104984308787587 63.2513
8.127356708900503 64.368
8.149711981398308 67.7004
8.172085002766314 69.2009
8.194458336181368 68.5359
8.216814543847752 67.8857
8.23918850371002 68.892
8.26154533906492 69.9703
8.283919928836452 71.4248
8.306277395339652 72.16199999999999
8.328652618483376 73.6739
8.351028159736202 75.793
8.373386579575245 77.9048
8.395762759396959 80.0253
8.418121819038275 82.1149
8.440498640894003 87.1452
8.462875785192262 97.2257
8.485235811156207 124.022
8.507613602688501 179.553
8.529974277114228 269.7
8.552352719347912 404.66
8.574731488360351 666.432
8.59709314210385 1250.03
8.619472567021075 2047.69
8.64183487789147 2362.54
8.664214962183097 1766.56
8.686577933647762 804.113
8.708958680784317 295.028
8.731339760774953 137.735
8.753703729764451 103.47399999999999
8.77608547780821 95.7546
8.798450116065078 93.1394
8.820832535634787 90.6902
8.843215292401656 91.1103
8.865580941199045 90.969
8.887964374703538 90.1798
8.910330701447199 89.9782
8.932714815164482 89.1193
8.955099270424924 86.7382
8.977466620733543 84.9368
8.999851761421976 84.1963
9.022219798361645 83.4988
9.04460562795561 83.4455
9.066991803441677 83.3616
9.089360876979615 83.9057
9.111747746589993 83.9008
9.13411751544971 82.8045
9.156505082664324 81.8854
9.178875550323522 81.6831
9.20126381862328 81.6833
9.223652438908596 82.6988
9.246023961427412 84.4645
9.26841328802173 85.1222
9.290785518039224 84.383
9.313175554425882 85.0132
9.335565947154315 85.6688
9.357939245086508 86.1328
9.380330352834827 84.9659
9.40270436697103 85.3428
9.425096193225055 84.3231
9.447488380180165 84.5851
9.469863475295412 84.3209
9.492256385987508 84.3123
9.514632206018318 85.0415
9.537025843935714 85.4197
9.559402392368193 86.537
9.581796761000229 88.9243
9.604191496441521 90.40700000000001
9.626569144158516 92.2308
9.648964615551032 92.8091
9.671343000390081 91.9868
9.693739211225699 91.3654
9.716135793237463 91.9216
9.738515290448102 92.7584
9.760912617143402 94.0957
9.783292860202891 95.9862
9.805690935076182 97.802
9.828089385495742 98.7458
9.850470754023561 100.295
9.872869957865444 102.056
9.89525208097539 105.38799999999999
9.917652041736662 110.934
9.940052382417589 121.90799999999999
9.962435644102392 150.971
9.984836746950979 194.72
10.007220771957746 260.03
10.029622640473708 366.962
10.052007432299963 549.048
10.074410069984072 853.6360000000001
10.096813093716005 1358.89
10.119199042482517 1913.38
10.141602840636468 2028.54
10.163989564971628 1467.11
10.186394141051062 730.9989999999999
10.208799107559706 308.32099999999997
10.231187001965623 160.463
10.253592751657669 117.806
10.275981430388155 108.662
10.298387966769793 106.36200000000001
10.320794897965431 105.62200000000001
10.343184759907361 103.92200000000001
10.36559248305461 102.45700000000001
10.387983138083852 104.03200000000001
10.410391656691655 111.556
10.432800574501677 124.027
10.455192425893369 140.474
10.47760214443012 167.57
10.499994797678786 213.262
10.522405320453982 297.737
10.54479877906917 422.07099999999997
10.567210109595656 557.0509999999999
10.5896218454736 596.874
10.612016518879773 470.658
10.634429067781074 290.09
10.656824555333241 166.817
10.679237920773568 110.64
10.701651695961992 92.779
10.724048411481384 88.0644
10.746463008485165 85.7239
10.768860546937125 83.7602
10.791275969274796 82.1006
10.81369180576079 81.2728
10.836090585366925 80.3395
10.858507252467449 79.0762
10.88090686379991 78.0972
10.903324365036394 77.3437
10.925724811614439 76.5276
10.948143150509463 76.9212
10.970561909719066 75.9419
10.992963615930844 75.5657
11.015383218085756 74.2482
11.037785768347074 72.6623
11.06020621697282 71.9088
11.082627090322113 71.4122
11.105030913430326 70.5588
11.12745263854165 69.8713
11.149857314510728 69.4316
11.172279894912576 70.0568
11.194702904450653 69.6283
11.217108866490921 68.5084
11.239532736615194 67.7755
11.26193956033512 67.4067
11.284364294577085 67.0102
11.306789462371718 66.2659
11.329197585398376 65.8507
11.351623622610898 66.0003
11.37403261614354 65.7294
11.396459526308487 65.4536
11.418869393879497 64.7966
11.441297180532617 64.4699
11.463725406927658 64.0932
11.486136592353875 63.8002
11.508565700543707 63.5324
11.530977768845315 63.6311
11.553407762368774 63.2868
11.575838200059769 63.3756
11.598251599479612 62.8878
11.620682927815501 62.7292
11.64309721895548 62.8324
11.665529441478206 62.2957
11.687962112597958 61.772
11.710377748130886 62.2404
11.732811318753434 62.1367
11.755227854859067 62.1266
11.777662328529495 62.0294
11.800079768750786 61.9661
11.822515149015453 61.9191
11.844950984084935 62.2222
11.867369787303163 61.787
11.889806534289491 61.9513
11.912226250487029 62.4585
11.934663912939751 62.9044
11.9571020346363 63.158
11.979523127133968 63.4226
12.001962169624331 64.2179
12.024384183972964 65.9874
12.046824150809913 69.1957
12.069264581333726 73.6004
12.091687985297767 79.8663
12.11412934550045 89.3742
12.136553680195208 105.355
12.158995973632788 128.697
12.181438735204349 159.812
12.20386447284199 193.24400000000003
12.226308172985636 208.25
12.24873485024193 191.92
12.271179492516982 149.961
12.293607112949127 108.361
12.316052700916226 81.3078
12.338498763250042 68.6829
12.360927805303868 64.3423
12.383374818673879 63.7249
12.405804812803074 63.0137
12.428252780773262 63.3119
12.45070122756722 63.5668
12.473132656675375 63.3192
12.49558206341869 63.8076
12.518014453510101 64.2928
12.540464823770117 64.0908
12.562915677315177 64.0314
12.58534951575545 64.0909
12.607801338171472 64.0288
12.630236146511358 65.1196
12.652688941369085 65.8005
12.675124723177234 66.3414
12.697578494048786 66.6274
12.720032754458185 66.1334
12.742470003354093 66.378
12.764925245138771 67.0981
12.787363476431278 67.4413
12.809819703166806 67.7415
12.83227642391173 68.521
12.854716135692716 69.2081
12.877173846755147 70.385
12.899614549869717 70.8496
12.9220732548287 71.9586
12.94453245827299 72.4403
12.966974655289818 73.3073
12.989434858002571 73.9576
13.011878055298721 74.704
13.034339260862497 75.4098
13.056800969391883 77.3136
13.079245674017244 80.4836
13.101708390774869 84.8432
13.12415410463411 93.4134
13.146617833206086 103.37799999999999
13.169064559883248 114.06299999999999
13.191529303857127 129.185
13.213994557076367 152.606
13.236442809902437 190.391
13.258909083908291 250.817
13.28135835851934 326.526
13.30382565690295 401.49699999999996
13.326293469022952 450.129
13.348744283242008 417.319
13.371213125129904 320.816
13.39366497011003 218.24599999999998
13.416134845360597 147.106
13.438605238843131 112.774
13.46105863690397 104.48200000000001
13.483530069144786 106.73299999999999
13.505984506951902 112.719
13.528456981549432 123.65799999999999
13.550929978879088 139.291
13.573385983253365 163.94299999999998
13.595860028340867 202.487
13.618317081455832 258.45
13.64079217790333 329.126
13.663250283359057 380.399
13.685726434770173 388.296
13.708203115221277 324.454
13.730662806148091 239.503
13.75314054697177 162.549
13.775601299246777 113.351
13.798080104050406 91.0966
13.820559442405358 82.9805
13.843021793671388 80.399
13.865502201420897 79.1196
13.887965623051947 78.7836
13.910447103807167 77.6986
13.932929122629764 76.6051
13.955394156785959 76.1325
13.977877254034569 75.0948
14.000343367582113 74.1584
14.022827546871707 73.7092
14.045294743423524 72.9705
14.06778000837062 72.4351
14.090265817715476 72.1961
14.112734645763819 71.8474
14.13522154619454 71.7796
14.157691466286913 71.4882
14.180179461423874 71.4723
14.202668005486178 70.7781
14.22513957064374 70.23
14.247629214846473 69.7162
14.270101881097517 69.5326
14.29259262906496 69.3152
14.315083930490205 69.1955
14.337558255389705 69.016
14.360050666019726 68.8428
14.382526101071944 68.4852
14.405019624534942 68.6429
14.427513705993134 68.2497
14.449990813291825 68.2477
14.47248601302899 67.962
14.49496423954951 68.1899
14.517460561197822 68.35
14.539939910570322 67.8466
14.562437357763558 68.4576
14.58493536931253 68.6276
14.607416409993311 68.5463
14.62991555254159 69.031
14.652397725157423 69.2074
14.674898002342799 69.5821
14.697398848433282 69.9308
14.719882725991326 71.579
14.74238471217934 73.8732
14.764869730765593 76.9921
14.787372860692983 80.1702
14.809876564079925 85.0726
14.83236330125751 91.1077
14.854868153850365 99.6985
14.877356041159485 114.67
14.899862046604186 133.273
14.922351087688757 161.255
14.944858249632887 195.793
14.967365991421232 223.078
14.989856770231246 232.396
15.012365673994204 214.398
15.03485761569738 176.321
15.05736768508665 132.705
15.07987833888692 102.006
15.102372032001655 82.8707
15.124883856909658 73.6962
15.14737872204565 70.696
15.169891721717274 69.6881
15.192405310371893 69.3353
15.214901940621196 68.8526
15.237416709527137 68.1307
15.259914520936249 68.0153
15.282430473753607 67.2058
15.304947020131227 66.574
15.327446610371178 66.3178
15.349964346154254 66.002
15.372465126703139 65.8786
15.394984055556009 65.6505
15.417486030076159 65.4461
15.44000615566487 65.3748
15.462526881230803 65.2605
15.485030653812652 65.2302
15.507552581617434 65.015
15.530057557334603 64.9601
15.55258069104857 64.9716
15.575104429329837 65.5955
15.597611216864632 65.5833
15.620136166564563 66.0465
15.6426441664095 67.9155
15.665170331202765 70.2332
15.687697105158826 73.1354
15.710206930593545 76.5615
15.732734925158933 81.3461
15.755245972089478 87.8081
15.77777519094324 97.0093
15.800287463046663 110.37899999999999
15.822817909869592 130.21200000000002
15.84534897229804 153.57299999999998
15.867863089299354 180.91099999999997
15.890395385222186 198.829
15.912910736597423 197.90599999999998
15.935444269699861 175.637
15.957978423016485 140.901
15.980495633101265 108.87100000000001
16.003031029129367 85.2954
16.02554948280019 70.5703
16.048086125229432 64.3811
16.070623392487107 62.7072
16.09314371869582 61.5654
16.11568223789321 60.6088
16.13820381691126 60.0436
16.160743591742527 59.6177
16.183283996022084 59.1485
16.205807461423195 58.4926
16.228349126881973 58.0399
16.25087385432698 57.7603
16.27341678466365 57.4083
16.29594277784926 57.0018
16.31848697676433 56.8833
16.341031811604868 56.3915
16.36355971058487 56.2877
16.3861058195587 56.105
16.40863499352978 55.6578
16.431182380342005 55.2974
16.453730407713202 54.9528
16.476261501364792 54.9948
16.498810812136167 54.7054
16.52134319004079 54.715
16.54389378792203 54.5615
16.566445031001553 54.4075
16.588979342490088 54.3045
16.61153187824822 54.2377
16.634067483263312 54.0711
16.656621315414416 54.1193
16.679175797408888 53.6843
16.701713349928728 53.6532
16.72426913389191 54.0883
16.74680798922351 54.0462
16.76936507887444 53.8818
16.791905240734874 53.8626
16.814463639794468 53.7402
16.837022695210294 53.867
16.859564824093756 54.0252
16.882125194503903 54.2676
16.904668639217885 54.203
16.927230328348003 54.3609
16.949792678493612 54.5407
16.972338104193863 54.6461
16.994901778652235 54.6502
17.017448529496576 54.9662
17.040013531998152 55.5696
17.06257920018044 56.0621
17.0851279459922 56.7158
17.107694947817667 57.5858
17.130245028099072 58.2761
17.15281336730298 59.7318
17.17536478578733 61.2489
17.19793446610687 63.5931
17.220504818648422 66.7066
17.243058251703697 70.26100000000001
17.265629950971032 75.2867
17.288184731571736 80.4665
17.310757781306908 83.76799999999999
17.33333150794385 83.6648
17.355888317140174 79.9622
17.37846339986244 73.1529
17.401021565958885 67.1465
17.42359800851343 62.7888
17.44617513265564 60.3236
17.468735341390783 59.1106
17.491261035594565 58.5403
17.51396340099364 58.3415
17.536490463869136 58.5184
17.559018209820174 58.3358
17.58154663977963 58.5628
17.604251766089718 58.8513
17.626781572227713 59.0281
17.64931206518155 58.9896
17.671843245885103 59.435
17.69455114821572 59.6292
17.717083712612634 60.0715
17.739616967569667 60.3175
17.762150914021706 60.7746
17.78486160749854 61.0828
17.807396945166804 62.3713
17.829932977143503 63.6153
17.85246970436452 65.0593
17.875183204129467 66.6955
17.897721330097664 68.5222
17.920260154126645 70.9887
17.942799677153296 74.01100000000001
17.9655159983646 77.9515
17.988056927677544 83.4936
18.010598558807683 91.508
18.033140892692916 102.63799999999999
18.05586005052525 114.927
18.07840379824407 128.524
18.10094825154059 139.108
18.12366954819864 143.321
18.146215420998306 137.28799999999998
18.16876200220057 125.023
18.191309292745153 109.15700000000001
18.214033452627167 95.4639
18.236582170236648 86.9561
18.259131600016456 83.8047
18.281681742907335 85.2651
18.304408781233683 90.9046
18.32696035875955 97.7416
18.349512652227624 102.33
18.372065662579683 106.581
18.394795594587553 105.061
18.41735004715306 98.3626
18.43990521943684 89.6744
18.46246111238171 81.0043
18.485193953325208 71.8467
18.507751296070428 66.4727
18.530309362314178 63.8793
18.552868153000343 62.3326
18.57560391815056 61.1801
18.59816416623245 60.8897
18.620725141597372 60.4253
18.643286845190268 60.0313
18.666025549835414 59.5415
18.688588718427933 59.0285
18.711152618092243 58.7325
18.73389353884365 58.6103
18.75645890921984 58.3582
18.77902501351406 57.9618
18.801591852673102 57.9412
18.824335739722738 57.1636
18.846904057212626 57.3035
18.8694731124168 57.0279
18.89204290628315 56.913000000000004
18.914789774966803 56.8284
18.937361054791623 56.5774
18.959933076131318 56.4864
18.982505839934877 56.3573
19.00525570560582 56.3329
19.027829963004184 56.0586
19.05040496572238 56.3114
19.072980714710468 56.5009
19.095733592739563 56.5321
19.11831084296757 56.5478
19.140888842324735 57.0772
19.16346759176222 57.1876
19.18622349753803 57.7785
19.208803755869358 58.8325
19.231384767143577 60.1372
19.253966532312948 61.835
19.276725481241822 63.9179
19.29930876296784 66.7202
19.3218928014549 69.9252
19.34465404436217 72.6534
19.36723960516257 74.958
19.389825925592426 75.3999
19.412413006605938 73.0226
19.43517731967805 68.9189
19.457765930683355 64.2942
19.48035530514408 60.0401
19.50294544401556 56.9236
19.525712842708348 55.097
19.54830451925909 54.092
19.570896963095727 53.3131
19.593490175174704 53.1829
19.616260674962184 53.2583
19.638855432416964 52.7853
19.661450960992624 53.0899
19.68404726164677 53.0046
19.706820878021247 52.5526
19.729418731756834 52.9092
19.752017360452857 52.8258
19.77461676506804 53.1878
19.797393513540218 53.2178
19.819994478951667 53.3854
19.84259622316767 53.8693
19.8651987471481 54.3785
19.887978643247177 54.5237
19.91058273574792 54.9938
19.933187610901943 55.8798
19.955969879466828 57.0691
19.97857632894404 58.8977
20.00118356396599 60.4709
20.023791585494575 62.7117
20.046577028914875 65.6968
20.069186632506966 68.297
20.091797025500632 70.2344
20.114408208858933 70.1186
20.137196842715273 69.1441
20.159809615886765 66.6452
20.18242318232135 63.6324
20.20503754298326 61.6733
20.227829382875154 61.1048
20.250445341109344 61.407
20.27306209647285 62.7042
20.29567964993108 64.2137
20.31847471147704 65.1864
20.34109387027612 65.6276
20.363713830075454 64.6609
20.386334591841646 62.2376
20.409132890679302 58.9764
20.431755265564437 55.9337
20.454378445325528 53.566
20.477002430930366 51.9792
20.499803982716553 50.9191
20.522429589228004 50.3015
20.54505600449589 49.7803
20.567683229489194 49.6886
20.590488049900088 49.4969
20.61311690359731 49.479
20.63574656993626 49.352
20.658553853717297 48.9043
20.681185154618298 49.0806
20.703817271080066 48.8959
20.72645020407368 48.4993
20.749260783967177 48.4349
20.771895359337133 48.4867
20.794530754161617 48.4026
20.817166969412938 48.2556
20.83998086114876 48.1847
20.86261872660049 48.0723
20.885257415405402 48.2103
20.90789692853701 48.1349
20.930714147864748 48.1
20.953355319030678 48.1636
20.97599731745334 48.2408
20.99864014410749 48.1196
21.021460706796564 48.1126
21.044105199328826 48.4146
21.06675052302631 48.4774
21.089396678865015 48.7307
21.112220600704806 48.7982
21.134868430275347 49.4444
21.15751709492456 49.4227
21.180166595629693 49.7885
21.202993892429635 50.5893
21.22564507473034 50.8876
21.24829709602816 51.1222
21.27112693608965 50.9036
21.293780644891275 50.5221
21.316435195634053 49.8065
21.339090589297417 49.0766
21.361923832041875 48.7103
21.384580921090404 48.0896
21.407238856007325 47.74100000000001
21.429897637773326 47.7825
21.45273429906592 47.9203
21.475394784108598 47.9311
21.498056118951983 47.8549
21.520718304578022 48.1486
21.543558400304388 48.2416
21.566222297108816 48.5835
21.58888704765135 48.6343
21.61155265291521 48.9095
21.63439619898156 49.2897
21.657063523335786 49.6787
21.67973170537063 50.1607
21.7024007460706 50.5813
21.72524775840385 51.2485
21.747918526116475 52.3977
21.770590155457388 53.7482
21.79326264741238 55.3064
21.816113141960237 57.1218
21.838787368860547 59.2667
21.861462461341976 61.4238
21.884315579735777 63.6497
21.90699241312273 64.6407
21.92967011506078 64.1964
21.95234868653799 62.9842
21.9752053151131 61.0834
21.997885635446785 58.9889
22.020566828293532 57.1035
22.04324889464272 55.7613
22.066109049404666 55.3423
22.088792872571794 55.4329
22.111477572219204 55.6858
22.1341631493376 55.7672
22.157026846313123 55.2346
22.179714188221507 54.1143
22.202402410582668 52.7752
22.22509151438863 51.4686
22.24795876962584 50.0975
22.270649646204486 49.3375
22.293341407213727 48.911
22.316034053646906 48.53
22.338904883215342 48.3109
22.36159931041458 48.2554
22.38429462602756 48.1099
22.40699083104897 47.9496
22.429865251039757 48.0266
22.452563244831367 47.9358
22.47526213102522 48.1377
22.49813925616515 48.0486
22.520839937143307 47.7992
22.543541513520587 48.0308
22.56624398629403 47.9171
22.589124730075895 48.0618
22.611829005656723 48.2886
22.63453418063466 48.3108
22.657240256008077 48.3555
22.680124634582935 48.5224
22.70283252079775 49.0219
22.725541310413075 49.1344
22.74825100442868 49.3766
22.771139033969575 49.9998
22.79385054687155 50.0967
22.81656296718292 50.7063
22.83927629590484 51.5867
22.862167992606945 52.5955
22.88488314827121 53.9244
22.907599215359284 55.1236
22.93031619487366 56.352
22.953211574954405 57.1869
22.975930389478226 57.6299
22.998650119445763 57.3464
23.02137076586092 56.0911
23.044269845560063 54.4281
23.06699233506288 52.6856
23.089715744034912 51.1064
23.112617610931565 49.8037
23.135342869061212 48.8773
23.158069049684816 48.4524
23.1807961538087 48.1512
23.20370174880544 48.2273
23.226430710184808 48.3552
23.249160598093425 48.4296
23.271891413539002 48.3748
23.294800752937697 48.3619
23.31753343374794 48.6395
23.340267045128353 48.7615
23.36300158808808 49.0824
23.38591468821339 49.2885
23.408651104658304 49.7516
23.431388455719986 50.3777
23.454126742409 51.2896
23.4770436196085 52.3476
23.499783787914662 53.9599
23.522524894889884 55.0983
23.54526694154616 56.3901
23.56818761219047 57.1964
23.59093154860734 57.6849
23.613676427751283 57.5176
23.636422250635754 55.9967
23.659346731118656 54.1689
23.68209445191868 52.1579
23.704843119509587 49.9196
23.72759273490623 48.3985
23.750521041644767 47.2968
23.77327256312355 46.318999999999996
23.796025035462787 45.8344
23.818956224555475 45.4779
23.841710609113413 45.3382
23.86446594758979 45.2613
23.887222241002014 44.8572
23.910157285144578 44.5517
23.932915498962537 44.5095
23.955674670778713 44.4098
23.978434801611975 44.2125
24.001373717286125 44.0982
24.024135776723917 43.9674
24.046898798245582 43.9297
24.06966278287146 43.9025
24.092605586582614 43.7129
24.115371508023642 43.5183
24.1381383956401 43.3247
24.16090625045381 43.3347
24.183852958731244 43.3301
24.206622758582608 43.1796
24.229393528706886 43.0679
24.252165270127392 43.2043
24.27511589952438 43.0027
24.297889594216997 42.7756
24.32066426328598 42.6781
24.34343990775613 42.7099
24.36639447485003 42.7055
24.38917208083877 42.5803
24.41195066531332 42.5117
24.43490819850244 42.575
24.457688750692377 42.4155
24.48047028445616 42.2809
24.503252800821233 42.5676
24.526214300784112 42.6273
24.548998793132213 42.7091
24.57178427117417 42.4543
24.59457073593893 42.3872
24.617536219319863 42.2584
24.64032466834748 42.3798
24.663114107195035 42.2103
24.685904536893013 42.0239
24.708874020360852 41.9505
24.731666442613744 41.9487
24.754459858818787 41.881
24.777254270007962 41.8636
24.80022777025625 41.7203
24.82302418230472 41.7098
24.845821592443674 41.6891
24.86862000170663 41.7459
24.891597535453727 41.6908
24.914397953892728 41.8051
24.93719937456671 41.7915
24.96000179851076 42.0137
24.98298338249997 42.2618
25.00578782394922 42.2676
25.028593271784167 42.458999999999996
25.05157790644186 42.7874
25.07438537804115 42.8535
25.097193859145293 43.2082
25.120003350792075 43.4872
25.142992065061257 43.7435
25.165803588823465 44.0484
25.18861612625217 44.2043
25.211429678386736 44.1635
25.234422489079968 44.1575
25.257238081693636 44.2396
25.280054692141732 44.4032
25.3028723214652 44.3596
25.325869245420463 44.5577
25.348688923599397 44.5058
25.371509623787006 44.3779
25.394331347025812 43.8932
25.41733240110666 43.17100000000001
25.440156181590016 42.42
25.46298098826268 42.1759
25.48580682216873 41.648
25.50881202326435 41.1584
25.53163992281684 40.773
25.55446885274561 40.5553
25.577298814096377 40.3151
25.600308179121807 40.4589
25.623140214533745 40.3842
25.64597328451537 40.2533
25.66898578564376 40.0193
25.691820936010206 40.0899
25.714657124097695 40.086999999999996
25.737494350954734 40.1243
25.760511045684957 39.8921
25.783350361364224 39.9625
25.806190718969255 39.9469
25.82903211955018 40.1196
25.852053024868923 40.0799
25.874896522722523 40.0991
25.897741066713106 40.236999999999995
25.920586657892454 40.2236
25.943611790812668 40.3382
25.966459487728237 40.5056
25.989308234998564 40.6419
26.01215803367705 41.0228
26.03518741123814 41.0492
26.05803932412957 41.1827
26.080892291600094 41.3195
26.10374631470478 41.2881
26.12677995397268 41.1999
26.14963609978026 41.0888
26.172493304397875 40.705999999999996
26.19535156888223 40.4737
26.218389486949604 40.1034
26.241249882640123 39.8171
26.26411134137826 39.5561
26.28715248187403 39.7507
26.31001607820869 39.5568
26.3328807407756 39.414
26.35574647063438 39.7053
26.37879191991473 39.5708
26.401659795896734 39.7342
26.424528742360263 39.8574
26.447398760366614 40.0205
26.470448535598294 40.0267
26.49332070826805 40.3501
26.516193955675355 40.6499
26.53906827888316 40.9228
26.562122397260108 40.9949
26.584998883685063 41.3728
26.607876449110325 41.6832
26.63075509460056 41.8554
26.65381357334404 41.815
26.67669439061878 41.788999999999994
26.699576291163382 41.3922
26.722459276044212 41.2749
26.745522132402975 41.0338
26.768407297649354 40.8322
26.791293550442003 40.4598
26.814180891848974 40.278
26.837248143099337 39.893
26.860137673466657 39.9652
26.88302829566349 39.5741
26.90592001075963 39.508
26.92899167420566 39.3358
26.951885586870763 38.8302
26.974780595655517 38.8082
26.99785558178161 38.692
27.020752794605112 38.5159
27.043651106772522 38.336999999999996
27.06655051935668 38.348
27.089629948036183 38.2615
27.112531573292053 38.304
27.135434302194138 38.2569
27.158338135817015 38.1257
27.181422024430987 38.1722
27.204328079372566 38.1749
27.22723524226965 38.0707
27.250143514198573 38.1265
27.273231880156334 38.0654
27.296142382065014 37.9393
27.319053996245536 37.917
27.341966723775965 37.9869
27.365059584515222 38.0228
27.38797455070062 38.0842
27.410890633481237 38.0271
27.433807833936918 37.9822
27.456905206923906 38.0975
27.47982465472398 38.0142
27.502745223449743 38.0983
27.525666914182825 38.2921
27.548768816912457 38.158
27.571692763693633 38.1073
27.59461783573812 37.9988
27.617723149491244 37.7362
27.640650484125285 37.6951
27.66357894728264 37.6742
27.686508540048052 37.6162
27.709618414237887 37.5634
27.732550278321757 37.3671
27.755483275279115 37.3524
27.778417406196485 37.5149
27.801531858397514 37.4662
27.824468269376716 37.527
27.847405817586786 37.2543
27.870344504116094 37.505
27.893463551932008 37.6688
27.916404527281053 37.8876
27.93934664422563 37.9066
27.962289903855886 37.9683
27.98541356491974 38.2797
28.00835912214229 38.3791
28.03130582533231 38.6455
28.054253675581805 38.8396
28.077381967556104 38.6834
28.100332124185126 38.6457
28.123283431160893 38.4649
28.146235889577238 38.3555
28.169368830154156 38.1841
28.192323603752033 38.0015
28.215279532083304 37.7414
28.238415973016764 37.4684
28.261374223145094 37.3334
28.284333631303806 36.9987
28.307294198589954 36.9194
28.330435319167677 36.5571
28.353398217078915 36.3399
28.376362277420153 36.1373
28.39932750129032 35.9131
28.422473319286713 35.8252
28.44544088262495 35.9658
28.468409612800283 35.754
28.491379510913497 35.5973
28.51453004413313 35.4672
28.53750229057244 35.4816
28.56047570826344 35.3715
28.583450298308804 35.4737
28.606605564586562 35.3662
28.629582511831156 35.3753
28.65256063474956 35.1354
28.675539934446338 35.2092
28.698699951647605 35.1832
28.72168161743193 35.0861
28.74466446331978 35.0082
28.767648490417624 34.909
28.790813276438353 35.0512
28.813799678527303 34.9669
28.836787265157085 35.065
28.859955641890075 35.0436
28.882945610203045 35.006
28.905936766392035 34.931
28.928929111566863 34.8671
28.952102288520145 34.7887
28.975097024308607 34.692
28.998092952423807 34.4797
29.021090073977508 34.499
29.04426806913204 34.4202
29.067267590245258 34.2409
29.090268308143695 34.0939
29.11327022394099 34.126
29.13645305530891 34.0553
29.159457379627167 34.0039
29.18246290519685 34.0018
29.20546963313352 33.8372
29.22865731875826 33.8438
29.25166646419296 33.9231
29.27467681535305 33.7474
29.29768837335608 33.8215
29.320880931312562 33.8634
29.34389491580634 33.9083
29.366910110507334 33.8287
29.38992651653503 33.9486
29.41312396492981 33.8815
29.436142806456754 33.6776
29.45916286268059 33.6686
29.48236399319994 33.6233
29.50538649169417 33.3599
29.528410208259935 33.216
29.55143514402014 33.016
29.574641196749695 32.9884
29.597668583816574 32.9014
29.6206971934585 32.7251
29.64372702680042 32.6629
29.666938019934474 32.6107
29.689970313635285 32.5118
29.713003834422636 32.5433
29.73603858342347 32.5816
29.759254535188578 32.4831
29.78229175361658 32.4432
29.80533020365064 32.5117
29.82836988641968 32.4054
29.85159081507472 32.385
29.874632976355343 32.3664
29.89767637376955 32.4564
29.920721008448314 32.1336
29.9439469322847 32.2193
29.96699405457564 32.1576
29.9900424175358 32.297
30.013092022298157 32.1124
30.03632295963995 31.9995
30.059375061131373 32.0938
30.08242840783577 32.2088
30.105483000888153 32.1047
30.128718970092244 31.9711
30.151776069006917 32.0245
30.17483441768648 32.0476
30.198074175317235 31.9083
30.221135036724256 32.064
30.24419715131772 31.9625
30.267260520236203 31.905
30.290505341942243 31.9173
30.313571232750228 31.9637
30.336638381310948 31.8142
30.35970678876503 31.7496
30.38295669299435 31.8405
30.40602763151657 31.8315
30.429099832366074 31.7699
30.452173296685572 31.7206
30.47542830191959 31.7997
30.498504306502497 31.7175
30.521581577995562 31.756
30.544660117543582 31.7355
30.56792024229725 31.7505
30.59100133132069 31.8381
30.614083691845494 31.7288
30.637167325018545 31.8005
30.660432587840603 31.8743
30.683518779717886 31.9085
30.70660624769615 31.826
30.729694992924372 31.8892
30.75296541239743 31.8421
30.77605672557558 31.7248
30.799149319462742 31.6717
30.8224236211637 31.4934
30.845518789950724 31.4758
30.868615242910597 31.3835
30.891712981195973 31.2537
30.91499247215866 31.1282
30.938092794619365 31.1244
30.96119440587579 31.0837
30.984297307082752 30.9587
31.00758200598383 30.8785
31.030687500658694 30.8094
31.053794288760695 30.7373
31.076902371446767 30.7403
31.100192296997445 30.665
31.12330298246119 30.6225
31.14641496599209 30.5356
31.169528248749216 30.6521
31.19282341969534 30.4896
31.215939314557186 30.5903
31.239056512134788 30.6019
31.262175013589378 30.5082
31.28547544871168 30.4856
31.30859657161541 30.3935
31.331719001892175 30.4236
31.35484274070538 30.7091
31.378148458819545 30.5514
31.401274828443725 30.5345
31.424402510106933 30.5174
31.447712205419993 30.5682
31.470842524931633 30.543000000000003
31.493974159989783 30.4266
31.51710711176168 30.4257
31.54042212308802 30.5068
31.563557722100917 30.3436
31.586694641341655 30.1846
31.609832881979628 30.0157
31.63315322823208 30.0513
31.656294125521327 30.0089
31.679436347728515 29.8922
31.70257989602529 29.7983
31.725905596152327 29.8475
31.74905181052835 29.7873
31.772199354521323 29.8884
31.79534822930507 29.9199
31.818679302290967 29.7838
31.84183085259981 29.7348
31.864983737233473 29.7885
31.88813795736804 29.7937
31.911474422233013 29.7213
31.934631327356435 29.8119
31.9577895715215 29.7121
31.980949155906522 29.6024
32.004291031706956 29.6126
32.027453310562606 29.5435
32.05061693318573 29.3674
32.07396288236386 29.425
32.09712920658542 29.3979
32.12029687812702 29.2611
32.14346589817093 29.1765
32.166817291729984 29.1709
32.18998902288583 29.1115
32.21316210610336 29.0636
32.23633654256711 28.813000000000002
32.259693399663725 28.8784
32.282870556771144 28.8301
32.30604907069099 28.7801
32.329228942610065 28.7357
32.35259128243769 28.6236
32.375773884550505 28.5825
32.398957848235646 28.4877
32.422143174682176 28.4174
32.445511016471215 28.4382
32.468699082679954 28.4003
32.49188851523011 28.3857
32.51507931531304 28.2089
32.538452678331 28.2925
32.56164622776311 28.2262
32.58484114831493 28.1678
32.60803744118015 28.1748
32.631416344731896 28.15
32.654615396551876 27.9994
32.67781582427913 28.1178
32.701198898634416 27.9383
32.72440209253756 27.9748
32.747606665947124 27.9829
32.77081262006088 27.7763
32.79420126883317 27.8171
32.81740999876112 27.8471
32.840620112999424 27.6796
32.86383161274818 27.7115
32.88722585534586 27.6726
32.91044014056596 27.7447
32.933655814909734 27.6699
32.95687287957963 27.665
32.98027273544904 27.5771
33.00349259526636 27.5495
33.026713849030116 27.6494
33.04993649794511 27.6173
33.073341986570746 27.4808
33.09656744032826 27.4299
33.11979429286444 27.4894
33.14302254538647 27.4088
33.166433686291185 27.3454
33.18966475336992 27.3873
33.212897224069096 27.2924
33.23613109959831 27.3135
33.259547912343415 27.1178
33.2827846121627 27.2123
33.306022720453775 27.1533
33.32926223842861 27.0583
33.352684742614166 27.1193
33.37592709463173 27.0588
33.399170859982064 26.965999999999998
33.422597648419426 26.8924
33.44584425514446 26.7088
33.46909227885668 26.6778
33.4923417207723 26.6281
33.51577423505344 26.6954
33.539026528130385 26.6434
33.56228024307245 26.5683
33.585535381098246 26.4203
33.60897364093058 26.4905
33.63223163992385 26.4995
33.6554910656699 26.3996
33.678751919389796 26.3402
33.702195944520106 26.3235
33.72545966903325 26.241999999999997
33.74872482519663 26.1371
33.771991414233746 26.2051
33.79544122444841 26.2025
33.81871069412428 26.0335
33.84198160035767 26.0554
33.86525394437455 26.1181
33.88870955949969 26.0741
33.911984794020626 25.9357
33.93526147001624 25.984
33.958539588715006 25.8569
33.98200102861669 25.7814
34.0052820477047 25.7365
34.02856451319451 25.7671
34.05203033759056 25.6072
34.07531571090147 25.6214
34.09860253431845 25.5773
34.121890809074316 25.5511
34.145362493118924 25.561999999999998
34.16865368561615 25.5282
34.191946333164054 25.4471
34.21524043699793 25.4713
34.23871800066799 25.4546
34.26201503218366 25.3572
34.28531352370466 25.3169
34.30861347646881 25.1566
34.33209693978188 25.1947
34.3553998301885 25.1799
34.378704185565205 25.0651
34.402010007152356 24.9593
34.42549939016683 25.06
34.44880815937748 25.0179
34.472118398533134 24.8733
34.49543010887669 24.894000000000002
34.51892543169198 24.7443
34.54224009966052 24.8125
34.56555624255917 24.8257
34.58887386163339 24.773000000000003
34.61237514439016 24.6697
34.6356957311114 24.6248
34.65901779775809 24.663
34.68252356662995 24.613000000000003
34.705848608458616 24.6146
34.72917513396849 24.5137
34.75250314440949 24.5067
34.77601490857862 24.5124
34.799345904259795 24.4222
34.82267838863559 24.4276
34.846012362958525 24.3979
34.869530142679984 24.3466
34.89286711232212 24.3181
34.91620557568269 24.2896
34.93954553401677 24.225
34.9630693495876 24.1753
34.986412313340814 24.1849
35.00975677584668 24.1889
35.033102738362956 24.1552
35.05663261012228 24.006999999999998
35.0799815881786 24.0101
35.10333207003229 23.9861
35.12668405694369 23.9438
35.150220005273056 23.9906
35.17357501786656 23.9851
35.19693153931268 23.9068
35.220289570874385 23.8638
35.24383161619786 23.8406
35.267192683604904 23.9074
35.290555264930376 23.8101
35.314101899412165 23.8068
35.33746752422433 23.7724
35.36083466676374 23.7844
35.38420332829803 23.711
35.407756095629054 23.7951
35.43112781085063 23.6866
35.45450104888391 23.6203
35.477875810999194 23.6207
35.50143473172161 23.6307
35.52481255774625 23.6744
35.54819191167777 23.5226
35.57157279478914 23.5117
35.595137889488406 23.3979
35.61852184675279 23.3487
35.641907337029984 23.3144
35.665294361595684 23.3751
35.68886565090076 23.2657
35.7122557598848 23.2487
35.73564740699838 23.1362
35.759040593519934 23.1571
35.78261809810353 23.2095
35.80601437933051 23.0524
35.829412203814705 22.991
35.85281157283719 22.9721
35.876395313415884 22.9947
35.8997977874528 22.8955
35.92320180988546 22.934
35.946790244133936 22.8599
35.97019737933222 22.8786
35.993606066789866 22.804000000000002
36.01701630779276 22.7285
36.04061101440684 22.7107
36.06402437852291 22.6971
36.08743930005611 22.7409
36.1108557802951 22.7017
36.13445678011326 22.6265
36.15787639383515 22.5623
36.18129757014299 22.5409
36.20472031032821 22.4205
36.22832762423364 22.4492
36.25175350829375 22.4071
36.275180960119776 22.3695
36.298609981005924 22.3937
36.32222362992669 22.3725
36.34565580510207 22.3362
36.36908955323448 22.299
36.39252487562093 22.1519
36.416144880530226 22.1611
36.43958336764275 22.111
36.463023432914625 22.1475
36.486465077645676 22.0843
36.51009145956204 22.1589
36.53353627947859 22.1556
36.55698268276811 22.0451
36.58043067073321 21.9924
36.60406345072071 21.9525
36.62751462435344 21.9651
36.65096738658405 21.8837
36.67460498210655 21.8616
36.69806093788647 21.793000000000003
36.72151848619297 21.7957
36.744977628333636 21.8237
36.76862165890998 21.6963
36.79208400512205 21.6972
36.81554794910557 21.7
36.83901349217101 21.5363
36.862663978991606 21.5472
36.88613273667352 21.5401
36.90960309738324 21.5016
36.933075062434064 21.4564
36.95673202673572 21.3885
36.98020721697122 21.3125
37.003684015502365 21.3357
37.027162423645365 21.2998
37.050825886711465 21.3036
37.07430753063053 21.1851
37.09779078812467 21.2067
37.121275660513014 21.2376
37.144945643673694 21.1617
37.16843376245278 21.0887
37.19192350009803 21.1377
37.215414857931435 21.0542
37.239091382563885 21.0114
37.262585997426164 21.0012
37.28608223645736 20.9312
37.309763684451696 20.9164
37.33326318851098 20.903000000000002
37.356764320726555 20.851999999999997
37.380267082425526 20.9275
37.40395510942588 20.8282
37.42746114683234 20.7295
37.45096881771841 20.6394
37.474478123414166 20.6997
37.49817275092816 20.6924
37.52168534303452 20.7163
37.54519957395567 20.5212
37.568715445024665 20.5619
37.592416694607714 20.5366
37.61593586281424 20.5889
37.63945667518264 20.6109
37.66297913304891 20.497
37.68668702630454 20.5095
37.710212792059274 20.3544
37.733740207334854 20.3936
37.757269273470364 20.3699
37.780983832050374 20.2635
37.80451621684926 20.2015
37.82805025654007 20.2224
37.851585952464795 20.1895
37.8753071980695 20.1414
37.89884622345676 20.0638
37.92238690911902 20.0501
37.94611318753442 20.0199
37.969657210779765 20.074
37.99320289834801 20.1073
38.016750251586465 19.9736
38.04048325513017 19.9386
38.06403395679343 19.9179
38.087586328183946 19.8422
38.11114037065203 19.8243
38.13488012115898 19.8222
38.1584375229181 19.7663
38.181996599821 19.7043
38.205557353221124 19.7621
38.229303872575656 19.6785
38.2528679961576 19.6805
38.27643380031219 19.5379
38.30000128639589 19.6
38.32375459653193 19.6223
38.34732546371299 19.55
38.37089801690786 19.4745
38.39447225747609 19.4632
38.418232380377425 19.4129
38.441810012983396 19.3743
38.46538933705673 19.395
38.488970353960084 19.3496
38.51273731166058 19.2798
38.536321731567014 19.2574
38.55990784840681 19.2749
38.58367995004091 19.2159
38.60726947812959 19.1694
38.63086070726198 19.1677
38.654453638806274 19.1735
38.678232613930824 19.1377
38.70182896773327 19.0869
38.72542702806741 19.0193
38.7490267963045 18.9131
38.77281266709232 18.9972
38.79641586862214 18.9016
38.8200207821842 18.9261
38.843627409152944 18.9282
38.86742019782782 18.8485
38.891030269149255 18.7661
38.914642058016156 18.8063
38.938255565806124 18.7057
38.96205529464307 18.7063
38.98567225787121 18.6919
39.00929094417078 18.6553
39.03291135492255 18.6435
39.05671804624804 18.6035
39.080341923549106 18.6144
39.103967529460334 18.5344
39.127594865365744 18.5316
39.15140854155791 18.4482
39.17503935514948 18.4893
39.19867190290282 18.3995
39.22249083587951 18.4326
39.24612686969409 18.3888
39.269764641845306 18.4408
39.293404153722804 18.3225
39.317230110864074 18.2344
39.34087311998506 18.1934
39.36451787301696 18.2424
39.388164371352595 18.2046
39.41199737518003 18.1835
39.43564738196752 18.1717
39.45929913825317 18.0895
39.48295264543308 18.0887
39.506792718520884 18.0593
39.530449745387216 18.0626
39.55410852735203 18.0246
39.57776906581474 17.9724
39.60161623079 17.9107
39.625280300200025 17.8978
39.64894613032202 17.8581
39.67261372255866 17.9035
39.6964680021016 17.8427
39.72013913657293 17.8012
39.74381203738292 17.7924
39.76748670593756 17.7649
39.79134812278169 17.7097
39.81502634488497 17.6601
39.83870633896685 17.6411
39.862388106436654 17.6554
39.88625668336918 17.6838
39.90994201572829 17.6414
39.933629125719285 17.5286
39.957503091207826 17.5158
39.9811937746168 17.557000000000002
40.00488623990914 17.4693
40.02858048850006 17.4229
40.05246165409549 17.3508
40.076159487492085 17.3494
40.099859108448875 17.366
40.123560518384345 17.3574
40.1474489070226 17.3079
40.171153913178564 17.2124
40.194860712584955 17.1799
40.2185693066637 17.2266
40.242464941335314 17.1141
40.26617714307655 17.1073
40.289891143772046 17.0942
40.3136069448471 17.0964
40.33750984859743 17.095
40.3612292688043 17.0334
40.3849504936829 16.979
40.40867352466194 17.0313
40.43258372059144 16.9152
40.45631038219906 16.9693
40.48003885420956 16.926
40.503769138055105 16.8683
40.52768664931955 16.8131
40.55142057531802 16.8472
40.57515631746428 16.7867
40.599079334038514 16.7479
40.62281872700477 16.6932
40.64655994043941 16.7148
40.67030297578061 16.6933
40.69423334835778 16.6872
40.71798004609188 16.6104
40.74172857006355 16.6356
40.76547892171441 16.6117
40.7894166736039 16.5972
40.813170699248566 16.5768
40.83692655691388 16.5457
40.86068424804498 16.5171
40.884629402612525 16.488
40.908390779366385 16.4551
40.932153993938 16.3783
40.95591904777605 16.4137
40.979871628443995 16.3635
41.003640379561936 16.3781
41.02741097430883 16.3209
41.05118341413683 16.3166
41.075143444384416 16.2733
41.098919593177826 16.2664
41.1226975914255 16.2446
41.14647744058318 16.2024
41.170444943946755 16.2122
41.19422851378379 16.1496
41.218013938914645 16.0538
41.24198706625173 15.9899
41.26577622087193 16.0379
41.289567235177785 16.0292
41.31336011063129 15.9822
41.337340752422875 15.9326
41.361137369129835 15.9489
41.38493585138705 15.9269
41.40873620066004 15.8452
41.43272438060107 15.8053
41.45652848292052 15.7925
41.48033445666918 15.7834
41.50414230331616 15.7389
41.528138045159764 15.7367
41.551949656675205 15.7072
41.575763145513235 15.6769
41.59957851314666 15.6569
41.62358184070442 15.6739
41.64740098505737 15.6381
41.6712220126409 15.6053
41.69504492493139 15.5438
41.71905586207357 15.4917
41.74288256296395 15.5095
41.766711153007456 15.4603
41.79054163368412 15.4325
41.814560204340054 15.47
41.838394485526365 15.4169
41.86223066180303 15.4017
41.88625497706819 15.3492
41.910094962812 15.3345
41.93393684811168 15.3124
41.95778063445365 15.2146
41.981812625263366 15.2364
42.00566023303407 15.2402
42.029509746323676 15.2388
42.05336116662236 15.1829
42.077400857069705 15.2273
42.10125611078846 15.17
42.12511327600405 15.0468
42.14897235421036 15.0858
42.173019768448455 15.0277
42.19688269209613 15.0315
42.22074753323349 15.0328
42.24461429335818 14.9624
42.268669455600495 14.9451
42.292540073217886 14.9028
42.31641261433284 14.8951
42.34028708044675 14.8926
42.36435001496739 14.887
42.38822835065557 14.8278
42.41210861586426 14.819
42.4359908120986 14.8296
42.46006154323262 14.7495
42.48394762115317 14.7346
42.507835634632315 14.7014
42.531912233047436 14.6929
42.55580413732265 14.6477
42.579697981698 14.5874
42.60359376768525 14.5933
42.62767820545945 14.6223
42.65157789440821 14.5555
42.67547952952185 14.5228
42.699383112316 14.4815
42.72347541395347 14.4366
42.74738291190531 14.4315
42.771292362102166 14.4582
42.795203766063516 14.4308
42.819303956130405 14.3652
42.843219287476536 14.3569
42.86713657716324 14.3355
42.89105582671383 14.3349
42.91516392983864 14.2843
42.939087119032166 14.241
42.963012272677304 14.2347
42.98693939230129 14.1668
43.01105543317513 14.1992
43.034986504731386 14.1663
43.05891954686589 14.0943
43.08285456110972 14.1281
43.10697856448665 14.0826
43.130917542983475 14.0483
43.15485849820081 14.0449
43.17880143167367 13.9762
43.20293342237094 14.0076
43.226880332449 13.979000000000001
43.25082922540554 13.9346
43.27496722682525 13.9175
43.29892010567796 13.9085
43.32287497204102 13.8627
43.34683182745632 13.8424
43.370977859791836 13.8544
43.39493871351105 13.815999999999999
43.41890156092628 13.8399
43.44286640358341 13.7631
43.46702049182749 13.7464
43.49098934522816 13.7127
43.51496019852649 13.661
43.5389330532723 13.6564
43.56309522248204 13.607000000000001
43.58707210044314 13.6022
43.61105098451946 13.5418
43.63503187626491 13.5609
43.659202151562134 13.5226
43.68318707902681 13.5617
43.70717401884041 13.5444
43.731162972560874 13.4655
43.75534137913236 13.4606
43.779334381108384 13.4286
43.803329401683186 13.3931
43.82732644241872 13.4086
43.8515130055166 13.3586
43.87551410707659 13.289000000000001
43.89951723350145 13.275
43.923709934595614 13.277999999999999
43.94771713129917 13.2469
43.97172635758096 13.2235
43.99573761501002 13.2621
44.0199385169922 13.2088
44.04395385732619 13.1553
44.067971233533086 13.1605
44.09199064718605 13.1437
44.11619977548961 13.11
44.14022328470671 13.0441
44.16424883610785 13.1039
44.18827643127035 13.0212
44.21249381139513 12.9862
44.236525514814076 12.9501
44.26055926674478 12.9786
44.28459506876863 13.0032
44.3088207262813 12.9414
44.33286064928722 12.9209
44.35690262714919 12.8427
44.38094666145278 12.8394
44.4051806219871 12.8442
44.42922879003185 12.8294
44.45327901929361 12.7689
44.477331311362136 12.788
44.501573600619416 12.7084
44.525630039221795 12.7184
44.54968854541895 12.7357
44.573937102200176 12.6873
44.5979997645541 12.6531
44.622064499300315 12.6113
44.64613130803592 12.5983
44.67038823869318 12.5842
44.69445921643748 12.5671
44.718532272981385 12.5805
44.742607409926194 12.5193
44.76687274034801 12.4865
44.79095205918753 12.4696
44.81503346325094 12.4183
44.839116954143876 12.4246
44.86339071028742 12.4122
44.88747839599524 12.3994
44.91156817336837 12.3836
44.93566004401666 12.3405
44.959942251908146 12.2963
44.984038330325966 12.3076
45.00813650686762 12.2897
45.03223678314731 12.2862
45.05652746888232 12.224
45.08063196592069 12.2489
45.104738567558705 12.1849
45.128847275414856 12.1853
45.15314646515866 12.1425
45.17725940679741 12.1249
45.20137445952892 12.1256
45.22568004865265 12.0984
45.24979934496396 12.0469
45.27392075725247 12.0338
45.29804428714431 12.0419
45.322358426247604 12.0279
45.346486212804315 12.0031
45.370616121861914 11.939
45.39474815505086 11.9429
45.41907087049246 11.8916
45.4432071734666 11.863
45.46734560548283 11.8778
45.49148616817604 11.870999999999999
45.51581748638564 11.8451
45.5399623320197 11.786
45.56410931325473 11.7648
45.58825843173002 11.8084
45.61259837920865 11.7526
45.636751793816 11.7361
45.66090735060093 11.6777
45.68506505120716 11.6522
45.7094136545275 11.6264
45.73357566449271 11.6075
45.75773982322992 11.5978
45.78190613238733 11.6083
45.806263418194064 11.5485
45.83043404997326 11.5657
45.85460683713677 11.5728
45.87897065658495 11.5362
45.90314777634752 11.515999999999998
45.92732705646868 11.5099
45.9515084986045 11.4097
45.97588104735473 11.4491
46.00006683541565 11.4065
46.02425479047904 11.384
46.04844491420549 11.3683
46.0728262191024 11.3507
46.09702070211635 11.3233
46.12121735879483 11.3429
46.14541619080294 11.2828
46.169806278764455 11.263
46.194009483459034 11.2283
46.21821486849841 11.1974
46.24242243555223 11.2158
46.266821333570014 11.2174
46.29103328674601 11.1784
46.31524742696538 11.1804
46.33946375590237 11.1556
46.36387149104216 11.0883
46.38809221957392 11.0326
46.41231514186606 11.0918
46.436540259597464 11.0416
46.460956858999374 11.0259
46.48518638983522 11.015
46.509418121166966 10.9833
46.533652054678114 10.9634
46.55807754555709 10.9383
46.58231590571962 10.9375
46.60655647313217 10.9082
46.630988654873654 10.8362
46.655233659129024 10.8212
46.67948087571551 10.8555
46.70373030632484 10.8219
46.72817142736393 10.7837
46.752425308428684 10.8253
46.77668140861147 10.7863
46.80093972960865 10.7324
46.82538981736788 10.7046
46.849652602470904 10.7078
46.87391761349769 10.6849
46.8981848521493 10.6987
46.9226439341274 10.6828
46.946915650573224 10.6398
46.97118959976749 10.6009
46.99546578341598 10.5865
47.019933887188216 10.550999999999998
47.04421456235744 10.5501
47.06849747711879 10.5238
47.09278263318286 10.5353
47.11725978640143 10.5219
47.14154944775105 10.5015
47.165841355555656 10.5033
47.1901355115306 10.3711
47.214621741924994 10.4076
47.23892041698887 10.4334
47.26322134538975 10.3959
47.28771440635075 10.3394
47.31201986422527 10.3348
47.33632758061436 10.3511
47.360637557241866 10.3147
47.38513974410611 10.2702
47.40945426407847 10.2411
47.43377104948137 10.2291
47.45809010204344 10.2358
47.48260144275502 10.238
47.506925052572285 10.162
47.53125093475548 10.1466
47.55557909103813 10.116
47.58009961361992 10.1449
47.60443234110732 10.1126
47.62876734791564 10.0927
47.65310463578333 10.0334
47.6776343683373 10.0559
47.7019762413987 10.0182
47.72632040075572 10.0138
47.75066684815169 9.99519
47.77520581885936 9.993960000000001
47.799556865477655 9.99051
47.823910205386 9.921660000000001
47.84826584033272 9.91266
47.87281407745551 9.873389999999999
47.89717432569297 9.86714
47.92153687423484 9.86783
47.94609208429692 9.843639999999999
47.97045925671401 9.81907
47.99482873471275 9.79635
48.01920052005013 9.81574
48.04376504619224 9.78464
48.068141469543484 9.79738
48.09252020552573 9.73686
48.11690125590099 9.71959
48.1414751266064 9.77181
48.16586082917454 9.67256
48.19024885144316 9.691510000000001
48.2146391951793 9.69288
48.239222439012764 9.69487
48.26361744916137 9.64856
48.28801478610016 9.60952
48.31241445160131 9.59725
48.337007097209366 9.55974
48.36141144338331 9.56442
48.38581812345755 9.538089999999999
48.41022713920929 9.537180000000001
48.434829215320704 9.4951
48.45924292604658 9.45541
48.48365897780325 9.5302
48.50807737237308 9.45502
48.532688907799276 9.41853
48.55711201168574 9.44022
48.581537463754074 9.3796
48.60615611725119 9.4167
48.63058628942721 9.37697
48.65501881516546 9.34855
48.6794536962573 9.33468
48.70408185970339 9.334810000000001
48.72852147531801 9.259960000000001
48.75296345168211 9.22752
48.77740779059232 9.24055
48.80204549302823 9.257430000000001
48.82649458091802 9.24547
48.85094603676547 9.20975
48.87539986237231 9.20412
48.90004713292306 9.17496
48.92450572200832 9.1484
48.94896668628025 9.1648
48.97343002754588 9.1387
48.99808689542115 9.1162
49.02255501470614 9.1247
49.04702551642794 9.09881
49.0714984023988 9.092089999999999
49.096164896893235 9.06457
49.120642575466796 9.00567
49.145122643748394 8.99422
49.16960510355558 8.952160000000001
49.19428125404938 8.99381
49.2187685210852 8.96247
49.243258185121555 8.96965
49.26794160167084 8.92717
49.2924360839405 8.90725
49.31693296869764 8.88305
49.34143225776915 8.861180000000001
49.36612538195438 8.84853
49.39062950396021 8.87315
49.41513603578346 8.848360000000001
49.4396449792564 8.7941
49.46434784069503 8.78699
49.488861631846454 8.71515
49.513377840166804 8.75071
49.537896467493745 8.725710000000001
49.56260909589029 8.70907
49.587132585683285 8.69465
49.611658500018365 8.70457
49.636186840738596 8.639489999999999
49.66090926588511 8.66429
49.685442483902584 8.617289999999999
49.70997813385706 8.602
49.734516217597076 8.577960000000001
49.75924846937352 8.59867
49.7837914452858 8.53363
49.80833686055187 8.531830000000001
49.83288471702571 8.54723
49.85762682540054 8.5148
49.882179588965734 8.48682
49.9067347993235 8.44098
49.93129245833333 8.4501
49.95604445336378 8.4421
49.98060703442832 8.42718
50.005172069746266 8.41153
50.02993150438364 8.39056
50.05450147301533 8.385580000000001
50.07907390151433 8.40726
50.10364879174981 8.348139999999999
50.12841816587289 8.33155
50.1529980044635 8.311639999999999
50.17758031042124 8.30817
50.20216508562089 8.29368
50.22694442953363 8.24957
50.25153416817468 8.26205
50.27612638170508 8.24284
50.300721072005196 8.20841
50.325510416102105 8.2029
50.350110084975064 8.20764
50.37471223628208 8.18174
50.39931687190919 8.149389999999999
50.424116246675766 8.13016
50.44872587605249 8.1347
50.47333799543065 8.13724
50.49795260670191 8.10491
50.52276204271512 8.08681
50.54738166295838 8.06285
50.57200378079314 8.03135
50.596628398116835 7.99149
50.62144792604559 8.01988
50.646077567609396 7.97111
50.670709714377715 7.9934
50.69553683636198 8.02572
50.72017401885922 7.961
50.7448137122895 7.96127
50.76945591856022 7.9332899999999995
50.79429318636823 7.935789999999999
50.818940443716784 7.92225
50.84359021965163 7.896710000000001
50.868242516085964 7.86769
50.893089960641895 7.818630000000001
50.917747323549435 7.80393
50.94240721271973 7.83473
50.96706963007175 7.80328
50.99192728239342 7.772060000000001
51.01659478166073 7.777660000000001
51.04126481489051 7.7988100000000005
51.06593738400761 7.78907
51.090805275207074 7.728330000000001
51.11548294172845 7.70545
51.14016314993547 7.704560000000001
51.164845901758845 7.710889999999999
51.18972406304274 7.68553
51.21441192780656 7.6565
51.23910234200271 7.654730000000001
51.2637953075678 7.64072
51.288683770237945 7.6325899999999995
51.31338186432707 7.572360000000001
51.33808251561888 7.56595
51.362978729967345 7.56266
51.387684521509755 7.568689999999999
51.41239287610203 7.54471
51.437103795691165 7.511589999999999
51.46201036644977 7.4608300000000005
51.486726441956634 7.435219999999999
51.51144508832545 7.455
51.536166307509156 7.44774
51.56108326624387 7.446619999999999
51.58580965706056 7.43423
51.61053862657523 7.40332
51.635270176746864 7.40327
51.66019755512065 7.408689999999999
51.68493429268881 7.38963
51.70967361681515 7.37466
51.73441552946465 7.330430000000001
51.759353359237934 7.302960000000001
51.7841004750961 7.34168
51.80885018539685 7.30138
51.833602492111254 7.26024
51.8585508051424 7.27335
51.883308330926425 7.238519999999999
51.90806845906181 7.21252
51.932831191525715 7.1862
51.95779001977161 7.179469999999999
51.98255798721516 7.19065
52.00732856494335 7.13254
52.03229530577543 7.1257600000000005
52.057071130455945 7.131130000000001
52.081849571391054 7.15998
52.106630630568695 7.118710000000001
52.13160794279417 7.07195
52.15639426492067 7.12581
52.18118321127822 7.08219
52.205974783860896 7.048589999999999
52.23096269971011 6.99423
52.255759551287994 6.99298
52.280559035098186 7.0144899999999994
52.30536115314103 7.02152
52.33035970494467 7.005960000000001
52.35516711807904 6.96449
52.37997717147198 6.93138
52.40478986713005 6.9642800000000005
52.42979908731974 6.90188
52.454617094216 6.896
52.47943774942214 6.875589999999999
52.50426105495102 6.8920699999999995
52.529280976059844 6.864610000000001
52.554109609024096 6.89238
52.57894089837482 6.84398
52.60377484613117 6.8202300000000005
52.62880550079408 6.77906
52.65364479223379 6.7750699999999995
52.67848674816189 6.718369999999999
52.70352547971946 6.7384699999999995
52.72837279155837 6.74582
52.753222773982785 6.68681
52.778075429022984 6.71007
52.80312495150885 6.713430000000001
52.827982978797436 6.66782
52.85284368481815 6.6363
52.87770707160767 6.628089999999999
52.90276741793998 6.62895
52.92763619336701 6.61952
52.952507655698504 6.650869999999999
52.977381806977576 6.60763
53.00245301017842 6.57143
53.02733256653592 6.584210000000001
53.052214817996074 6.58368
53.077099766608484 6.55655
53.102181859804446 6.53177
53.127072229988265 6.53023
53.15196530349892 6.45418
53.17686108239249 6.456519999999999
53.20195409881522 6.45648
53.22685531582556 6.49298
53.25175924441303 6.42141
53.27666588664027 6.46133
53.30176985962693 6.46973
53.3266819565689 6.4018
53.35159677336455 6.350569999999999
53.376514312083096 6.3709
53.40162927507703 6.36301
53.42655228516116 6.33173
53.45147802340193 6.33375
53.47660125628886 6.33121
53.50153247842639 6.2944
53.52646643496923 6.25265
53.55140312799818 6.28368
53.576537409691696 6.25915
53.60147960336152 6.2743199999999995
53.626424539786164 6.23946
53.65137222105307 6.19909
53.67651758529126 6.21054
53.70147078399681 6.19056
53.72642673383343 6.17926
53.75138543689533 6.1609
53.776541917524526 6.169969999999999
53.801506154876755 6.1493199999999995
53.826473151763246 6.13321
53.851442910284916 6.10024
53.87661054126026 6.10301
53.9015858509782 6.1348199999999995
53.92656392866066 6.05481
53.95154477641532 6.06846
53.976723591801296 6.0541599999999995
54.00171000771266 6.0586199999999995
54.02669920004598 6.04787
54.051691170915745 5.9896
54.076881204886796 5.9962800000000005
54.101878760928514 5.96457
54.12687910187696 5.98095
54.152077577768296 5.95413
54.1770835166946 5.92656
54.20209224691339 5.92649
54.22710377055121 5.9253
54.25231352511594 5.92091
54.27733066384342 5.87007
54.30235060239643 5.83484
54.32737334290836 5.84973
54.35259441062629 5.7876199999999995
54.377622783395324 5.80472
54.40265396455061 5.83099
54.42768795623251 5.7729
54.45292037169559 5.76436
54.477960012857906 5.79962
54.50300247099511 5.74561
54.52804774825457 5.73096
54.55329154616743 5.67932
54.57834249018678 5.70214
54.6033962597977 5.69362
54.6284528571545 5.6397900000000005
54.653708072335164 5.60654
54.67877035378786 5.633319999999999
54.70383546947698 5.58608
54.72890342156389 5.53177
54.7541700889442 5.5134
54.77924374251975 5.50893
54.8043202390049 5.45102
54.82959552413022 5.47107
54.8546777351945 5.444719999999999
54.87976279569621 5.4393199999999995
54.90485070780914 5.42172
54.930137506558005 5.42328
54.95523115074295 5.41116
54.98032765308844 5.36872
55.005427015775496 5.33057
55.03072536339621 5.35516
55.05583047570572 5.31339
55.080938454927676 5.25261
55.10604930325027 5.265280000000001
55.131359235107396 5.2776
55.15647585066083 5.23431
55.181595341907496 5.2230099999999995
55.20671771104285 5.2182699999999995
55.232039262617704 5.1679900000000005
55.25716741665048 5.14527
55.28229845518636 5.17497
55.30743238042802 5.08867
55.33276558731939 5.12179
55.357905315183636 5.05582
55.383047936390035 5.00175
55.40819345314859 5.00579
55.433538351073295 4.98655
55.458689688238415 4.97664
55.483843927614096 4.9163
55.509197623043605 4.937819999999999
55.53435769621134 4.9078
55.55952067826466 4.85813
55.5846865714265 4.84219
55.61005202069737 4.813269999999999
55.63522376553902 4.81227
55.66039842818645 4.78405
55.68557601087004 4.76764
55.7109532500271 4.75094
55.73613670233794 4.74402
